Data from glass_V78500241_2287.txt Node
Date: Wed Sep 01 19:30:21 CST 2021
User: usil
Spectrometer: V785-0024
Trigger mode: 0
Integration Time (sec): 4.000000E-1
Scans to average: 1
Nonlinearity correction enabled: false
Boxcar width: 0
Storing dark spectrum: false
XAxis mode: Wavelengths
Number of Pixels in Spectrum: 1024
>>>>>Begin Spectral Data<<<<<
801.071	3774
801.214	3759
801.356	3755
801.499	3755
801.641	3698
801.783	3755
801.926	3842
802.068	3831
802.211	3808
802.353	3857
802.496	3827
802.638	3865
802.78	3861
802.923	3884
803.065	3865
803.208	3857
803.35	3869
803.492	3934
803.635	3941
803.777	3793
803.919	3896
804.061	4120
804.204	3968
804.346	3930
804.488	3899
804.63	4017
804.773	3987
804.915	4025
805.057	4147
805.199	4021
805.341	4124
805.483	4139
805.626	4109
805.768	4090
805.91	4166
806.052	4215
806.194	4215
806.336	4333
806.478	4200
806.62	4196
806.762	4169
806.904	4276
807.046	4325
807.188	4223
807.33	4124
807.472	4158
807.614	4192
807.756	4249
807.898	4215
808.04	4200
808.182	4287
808.324	4238
808.465	4299
808.607	4413
808.749	4481
808.891	4466
809.033	4504
809.174	4405
809.316	4291
809.458	4242
809.6	4139
809.741	4200
809.883	4105
810.025	4181
810.166	4207
810.308	4173
810.45	4242
810.591	4253
810.733	4268
810.875	4493
811.016	4850
811.158	5083
811.299	5280
811.441	5265
811.582	5033
811.724	4710
811.865	4466
812.007	4424
812.148	4421
812.29	4462
812.431	4363
812.573	4348
812.714	4398
812.855	4432
812.997	4432
813.138	4474
813.279	4421
813.421	4386
813.562	4390
813.703	4325
813.845	4329
813.986	4238
814.127	4219
814.268	4246
814.41	4280
814.551	4253
814.692	4322
814.833	4284
814.974	4284
815.115	4325
815.256	4246
815.397	4242
815.539	4242
815.68	4215
815.821	4219
815.962	4257
816.103	4295
816.244	4265
816.385	4246
816.526	4325
816.666	4188
816.807	4044
816.948	4139
817.089	4181
817.23	4131
817.371	4078
817.512	4040
817.653	4101
817.793	4013
817.934	4021
818.075	4036
818.216	4090
818.356	4082
818.497	3979
818.638	3915
818.778	3869
818.919	3865
819.06	3888
819.2	3899
819.341	3846
819.481	3838
819.622	3850
819.762	4048
819.903	3960
820.043	3869
820.184	3838
820.324	3819
820.465	3896
820.605	3865
820.746	3876
820.886	3804
821.026	3937
821.167	3915
821.307	3979
821.447	3960
821.588	3934
821.728	3968
821.868	3926
822.008	3873
822.149	3903
822.289	3899
822.429	3800
822.569	3743
822.709	3728
822.849	3686
822.99	3701
823.13	3736
823.27	3736
823.41	3728
823.55	3732
823.69	3701
823.83	3728
823.97	3618
824.11	3599
824.25	3595
824.389	3618
824.529	3648
824.669	3644
824.809	3671
824.949	3759
825.089	3717
825.228	3701
825.368	3545
825.508	3576
825.648	3504
825.787	3580
825.927	3648
826.067	3614
826.206	3667
826.346	3747
826.485	3819
826.625	3835
826.765	3953
826.904	3812
827.044	3606
827.183	3538
827.323	3469
827.462	3458
827.601	3424
827.741	3424
827.88	3447
828.02	3344
828.159	3431
828.298	3481
828.437	3485
828.577	3466
828.716	3580
828.855	3534
828.994	3355
829.134	3378
829.273	3401
829.412	3332
829.551	3321
829.69	3370
829.829	3420
829.968	3481
830.107	3454
830.246	3405
830.385	3344
830.524	3344
830.663	3275
830.802	3264
830.941	3157
831.08	3203
831.219	3272
831.357	3260
831.496	3424
831.635	3241
831.774	3188
831.913	3218
832.051	3085
832.19	3150
832.329	3226
832.467	3100
832.606	3089
832.744	3150
832.883	3188
833.022	3211
833.16	3195
833.299	3298
833.437	3344
833.576	3329
833.714	3389
833.852	3409
833.991	3420
834.129	3496
834.267	3420
834.406	3416
834.544	3405
834.682	3412
834.821	3439
834.959	3538
835.097	3428
835.235	3526
835.373	3488
835.511	3496
835.65	3397
835.788	3481
835.926	3424
836.064	3386
836.202	3409
836.34	3530
836.478	3606
836.615	3542
836.753	3534
836.891	3622
837.029	3610
837.167	3595
837.305	3504
837.443	3534
837.58	3530
837.718	3603
837.856	3519
837.993	3526
838.131	3564
838.269	3584
838.406	3549
838.544	3564
838.681	3469
838.819	3435
838.956	3355
839.094	3405
839.231	3416
839.369	3488
839.506	3698
839.643	3614
839.781	3511
839.918	3458
840.055	3507
840.193	3511
840.33	3500
840.467	3545
840.604	3553
840.742	3751
840.879	3500
841.016	3549
841.153	3610
841.29	3759
841.427	3751
841.564	3686
841.701	3720
841.838	3663
841.975	3667
842.112	3743
842.249	3644
842.385	3603
842.522	3819
842.659	3667
842.796	3679
842.933	3690
843.069	3698
843.206	3682
843.343	3774
843.479	3800
843.616	3838
843.752	3625
843.889	3660
844.025	3857
844.162	3698
844.298	3785
844.435	3766
844.571	3808
844.708	3873
844.844	3979
844.98	3926
845.117	3979
845.253	3934
845.389	3876
845.525	3945
845.661	3972
845.798	3899
845.934	4006
846.07	3907
846.206	4032
846.342	4128
846.478	4078
846.614	4002
846.75	3945
846.886	3949
847.022	4010
847.158	3956
847.294	3991
847.429	3994
847.565	4025
847.701	4230
847.837	3888
847.972	3846
848.108	3960
848.244	3899
848.379	3857
848.515	3812
848.65	3808
848.786	3880
848.921	3876
849.057	3930
849.192	3960
849.328	3903
849.463	3937
849.598	3880
849.734	3857
849.869	3785
850.004	3789
850.14	3808
850.275	3762
850.41	3732
850.545	3709
850.68	3785
850.815	3785
850.95	3800
851.085	3937
851.22	3861
851.355	3816
851.49	3751
851.625	3774
851.76	3797
851.895	3751
852.03	3705
852.165	3778
852.299	3804
852.434	3896
852.569	3842
852.703	3876
852.838	3937
852.973	4013
853.107	3968
853.242	3892
853.376	3808
853.511	3755
853.645	3789
853.78	3964
853.914	3896
854.048	3888
854.183	3899
854.317	3994
854.451	4044
854.585	3945
854.72	3960
854.854	4036
854.988	3918
855.122	4021
855.256	3918
855.39	3998
855.524	4090
855.658	4059
855.792	4105
855.926	4154
856.06	4200
856.194	4188
856.327	4124
856.461	4135
856.595	4147
856.729	4162
856.862	4223
856.996	4246
857.13	4253
857.263	4314
857.397	4333
857.53	4325
857.664	4348
857.797	4398
857.931	4352
858.064	4371
858.197	4478
858.331	4371
858.464	4417
858.597	4325
858.731	4421
858.864	4470
858.997	4409
859.13	4523
859.263	4554
859.396	4584
859.529	4508
859.662	4558
859.795	4489
859.928	4546
860.061	4672
860.194	4729
860.327	4634
860.46	4641
860.592	4759
860.725	4786
860.858	4793
860.99	4679
861.123	4664
861.256	4675
861.388	4740
861.521	5551
861.653	4725
861.786	4679
861.918	4706
862.05	4748
862.183	4812
862.315	4892
862.447	4900
862.58	4854
862.712	4759
862.844	4755
862.976	4835
863.108	4850
863.24	5178
863.372	4839
863.504	4866
863.636	4889
863.768	4904
863.9	4953
864.032	4927
864.164	4961
864.296	4987
864.428	5128
864.559	5124
864.691	5086
864.823	5090
864.954	5132
865.086	5170
865.217	5105
865.349	5079
865.48	5166
865.612	5170
865.743	5273
865.875	5174
866.006	5155
866.137	5212
866.269	5193
866.4	5223
866.531	5242
866.662	5204
866.793	5242
866.924	5258
867.055	5360
867.186	5292
867.317	5345
867.448	5334
867.579	5364
867.71	5376
867.841	5376
867.972	5493
868.103	5467
868.233	5493
868.364	5467
868.495	5562
868.625	5657
868.756	5775
868.886	5691
869.017	5714
869.147	5916
869.278	5847
869.408	5805
869.539	5794
869.669	5965
869.799	5920
869.929	5973
870.06	5973
870.19	6197
870.32	6235
870.45	6220
870.58	6361
870.71	6433
870.84	6410
870.97	6391
871.1	6418
871.23	6658
871.36	6677
871.489	6700
871.619	6741
871.749	6734
871.879	6848
872.008	6886
872.138	6970
872.267	6989
872.397	6932
872.526	6958
872.656	7080
872.785	7183
872.915	7411
873.044	7514
873.173	7597
873.303	7651
873.432	7731
873.561	7860
873.69	7978
873.819	7993
873.948	8157
874.077	8252
874.206	8339
874.335	8374
874.464	8689
874.593	8826
874.722	8872
874.851	9074
874.979	9264
875.108	9435
875.237	9447
875.365	9481
875.494	9652
875.623	9774
875.751	9823
875.88	10021
876.008	10147
876.136	10204
876.265	10421
876.393	10771
876.521	10679
876.65	10763
876.778	10850
876.906	10911
877.034	10942
877.162	11124
877.29	11162
877.418	11242
877.546	11383
877.674	11429
877.802	11444
877.93	11421
878.058	11532
878.185	11528
878.313	11745
878.441	11703
878.568	11653
878.696	11805
878.824	11775
878.951	11920
879.079	11939
879.206	12178
879.333	12072
879.461	11897
879.588	12057
879.715	12072
879.842	12186
879.97	12079
880.097	11904
880.224	11813
880.351	11874
880.478	11783
880.605	11897
880.732	11832
880.859	12003
880.986	11699
881.112	11821
881.239	11703
881.366	11627
881.493	11585
881.619	11414
881.746	11535
881.872	11554
881.999	11501
882.125	11414
882.252	11497
882.378	11524
882.505	11543
882.631	11379
882.757	11250
882.883	11299
883.01	11212
883.136	11136
883.262	11170
883.388	11056
883.514	11174
883.64	11140
883.766	11075
883.892	10991
884.018	11018
884.143	11136
884.269	11037
884.395	10866
884.52	10831
884.646	10748
884.772	10710
884.897	10645
885.023	10736
885.148	10706
885.274	10668
885.399	10656
885.524	10615
885.65	10618
885.775	10580
885.9	10584
886.025	10565
886.15	10478
886.275	10489
886.4	10386
886.525	10443
886.65	10451
886.775	10344
886.9	10466
887.025	10538
887.149	10280
887.274	10188
887.399	10154
887.523	10211
887.648	10177
887.773	10055
887.897	10200
888.021	10192
888.146	10196
888.27	10200
888.395	10200
888.519	10227
888.643	10249
888.767	10181
888.891	10025
889.015	10044
889.139	10032
889.263	9991
889.387	10032
889.511	10143
889.635	10086
889.759	9949
889.883	9926
890.006	9994
890.13	10032
890.254	9884
890.377	9949
890.501	9781
890.624	9827
890.748	9937
890.871	9789
890.995	9732
891.118	9740
891.241	9804
891.364	9781
891.488	9812
891.611	9740
891.734	9759
891.857	9781
891.98	9694
892.103	9797
892.226	9644
892.349	9728
892.471	9485
892.594	9606
892.717	9591
892.839	9568
892.962	9576
893.085	9595
893.207	9538
893.33	9500
893.452	9618
893.575	9580
893.697	9530
893.819	9572
893.941	9622
894.064	9545
894.186	9435
894.308	9332
894.43	9504
894.552	9553
894.674	9477
894.796	9374
894.918	9397
895.04	9348
895.161	9355
895.283	9382
895.405	9211
895.526	9256
895.648	9192
895.769	9230
895.891	9188
896.012	9237
896.134	9180
896.255	9218
896.376	9207
896.498	9195
896.619	9112
896.74	9119
896.861	9081
896.982	9218
897.103	9336
897.224	9066
897.345	9085
897.466	9005
897.587	8979
897.708	9104
897.828	9058
897.949	8906
898.07	8823
898.19	8849
898.311	9028
898.431	8933
898.552	8941
898.672	9005
898.792	8918
898.913	8914
899.033	8815
899.153	8678
899.273	8648
899.393	8697
899.513	8735
899.633	8739
899.753	8682
899.873	8659
899.993	8712
900.113	8655
900.232	8724
900.352	8659
900.472	8667
900.591	8545
900.711	8503
900.83	8499
900.95	8746
901.069	8648
901.189	8514
901.308	8492
901.427	8355
901.546	8469
901.665	8488
901.784	8518
901.904	8438
902.023	8347
902.141	8225
902.26	8161
902.379	8259
902.498	8187
902.617	8183
902.735	8305
902.854	8237
902.973	8309
903.091	8058
903.21	8115
903.328	8149
903.446	8084
903.565	8069
903.683	8142
903.801	7982
903.919	8058
904.038	8107
904.156	7997
904.274	8142
904.392	8092
904.51	8050
904.627	8123
904.745	8050
904.863	8161
904.981	7902
905.098	7852
905.216	7856
905.334	7883
905.451	7875
905.569	7780
905.686	7947
905.803	7898
905.921	7746
906.038	7845
906.155	7807
906.272	7757
906.389	7693
906.506	7594
906.623	7639
906.74	7563
906.857	7502
906.974	7559
907.091	7628
907.208	7689
907.324	7689
907.441	7601
907.557	7506
907.674	7430
907.79	7384
907.907	7403
908.023	7453
908.139	7350
908.256	7396
908.372	7358
908.488	7335
908.604	7270
908.72	7240
908.836	7278
908.952	7228
909.068	7263
909.184	7312
909.3	7320
909.415	7327
909.531	7240
909.647	7072
909.762	7133
909.878	7118
909.993	7107
910.108	7122
910.224	7031
910.339	7053
910.454	7027
910.57	7004
910.685	6985
910.8	7213
910.915	7160
911.03	7023
911.145	6882
911.259	6802
911.374	6954
911.489	6886
911.604	6760
911.718	6700
911.833	6692
911.947	6631
912.062	6540
912.176	6711
912.291	6654
912.405	6707
912.519	6776
912.633	6840
912.748	6715
912.862	6703
912.976	6570
913.09	6513
913.204	6559
913.318	6612
913.431	6639
913.545	6646
913.659	6673
913.772	6654
913.886	6555
914	6509
914.113	6673
914.226	6574
914.34	6544
914.453	6513
914.566	6559
914.68	6471
914.793	6509
914.906	6433
915.019	6380
915.132	6369
915.245	6376
915.358	6429
915.47	6418
915.583	6384
915.696	6456
915.809	6532
915.921	6528
916.034	6395
916.146	6357
916.259	6353
916.371	6506
916.483	6448
916.595	6380
916.708	6429
916.82	6380
916.932	6365
917.044	6323
917.156	6369
917.268	6323
917.38	6338
917.491	6323
917.603	6334
917.715	6365
917.826	6388
917.938	6308
918.049	6235
918.161	6311
918.272	6479
918.384	6388
918.495	6342
918.606	6247
918.717	6186
918.828	6262
918.939	6300
919.05	6190
919.161	6296
919.272	6098
919.383	6125
919.494	6289
919.604	6437
919.715	6277
919.826	6186
919.936	6220
920.047	6338
920.157	6285
920.267	6346
920.378	6273
920.488	6220
920.598	6433
920.708	6502
920.818	6464
920.928	6437
921.038	6631
921.148	6551
921.258	6342
921.368	6262
921.477	6178
921.587	6159
921.697	6076
921.806	6205
921.916	6121
922.025	5916
922.134	5893
922.244	5859
922.353	5996
922.462	5874
922.571	5794
922.68	5737
922.789	5627
922.898	5703
923.007	5627
923.116	5699
923.224	5604
923.333	5714
923.442	5642
923.55	5570
923.659	5558
923.767	5558
923.876	5547
923.984	5547
924.092	5455
924.201	5554
924.309	5543
924.417	5577
924.525	5467
924.633	5448
924.741	6197
924.849	5330
924.956	5448
925.064	5318
925.172	5334
925.279	5288
925.387	5387
925.494	5337
925.602	5376
925.709	5360
925.816	5303
925.924	5250
926.031	5326
926.138	5277
926.245	5318
926.352	5185
926.459	5280
926.566	5315
926.673	5155
926.779	5121
926.886	5147
926.993	5022
927.099	4995
927.206	4949
927.312	5003
927.419	5025
927.525	4972
927.631	4934
927.737	4870
927.843	4877
927.95	4790
928.056	4771
928.162	4850
928.267	4930
928.373	5353
928.479	4847
928.585	4630
928.69	4801
928.796	4771
928.901	4698
929.007	4565
929.112	4630
929.218	4626
929.323	4588
929.428	4512
929.533	4660
929.638	4538
929.743	4497
929.848	4588
929.953	4474
930.058	4405
930.163	4337
930.267	4344
930.372	4386
930.477	4299
930.581	4440
930.685	4352
930.79	4230
930.894	4310
930.998	4215
931.103	4390
931.207	4120
931.311	4093
931.415	4040
931.519	3896
931.623	3960
