Data from glass_V78500241_2366.txt Node
Date: Wed Sep 01 19:30:54 CST 2021
User: usil
Spectrometer: V785-0024
Trigger mode: 0
Integration Time (sec): 4.000000E-1
Scans to average: 1
Nonlinearity correction enabled: false
Boxcar width: 0
Storing dark spectrum: false
XAxis mode: Wavelengths
Number of Pixels in Spectrum: 1024
>>>>>Begin Spectral Data<<<<<
801.071	3701
801.214	3724
801.356	3698
801.499	3740
801.641	3682
801.783	3774
801.926	3854
802.068	3785
802.211	3869
802.353	3873
802.496	3850
802.638	3857
802.78	3968
802.923	3934
803.065	3888
803.208	3800
803.35	3823
803.492	3873
803.635	3903
803.777	3812
803.919	3899
804.061	4166
804.204	4006
804.346	3945
804.488	3945
804.63	4013
804.773	3941
804.915	4032
805.057	4116
805.199	4078
805.341	4109
805.483	4116
805.626	4154
805.768	4097
805.91	4204
806.052	4185
806.194	4192
806.336	4314
806.478	4188
806.62	4173
806.762	4185
806.904	4276
807.046	4329
807.188	4185
807.33	4147
807.472	4230
807.614	4200
807.756	4257
807.898	4192
808.04	4204
808.182	4291
808.324	4276
808.465	4379
808.607	4432
808.749	4451
808.891	4489
809.033	4508
809.174	4405
809.316	4242
809.458	4249
809.6	4166
809.741	4147
809.883	4093
810.025	4185
810.166	4188
810.308	4234
810.45	4230
810.591	4215
810.733	4287
810.875	4500
811.016	4828
811.158	5136
811.299	5296
811.441	5277
811.582	5029
811.724	4698
811.865	4478
812.007	4428
812.148	4447
812.29	4451
812.431	4436
812.573	4352
812.714	4352
812.855	4424
812.997	4379
813.138	4500
813.279	4409
813.421	4367
813.562	4352
813.703	4325
813.845	4295
813.986	4211
814.127	4219
814.268	4219
814.41	4268
814.551	4261
814.692	4318
814.833	4291
814.974	4287
815.115	4280
815.256	4268
815.397	4196
815.539	4268
815.68	4192
815.821	4196
815.962	4295
816.103	4287
816.244	4219
816.385	4185
816.526	4322
816.666	4227
816.807	4086
816.948	4139
817.089	4135
817.23	4082
817.371	4040
817.512	4010
817.653	4071
817.793	4029
817.934	4048
818.075	4082
818.216	4078
818.356	4071
818.497	3991
818.638	3869
818.778	3907
818.919	3903
819.06	3846
819.2	3945
819.341	3876
819.481	3804
819.622	3892
819.762	4032
819.903	3964
820.043	3892
820.184	3827
820.324	3831
820.465	3846
820.605	3892
820.746	3850
820.886	3793
821.026	3922
821.167	3903
821.307	4006
821.447	4006
821.588	3972
821.728	3907
821.868	3915
822.008	3861
822.149	3930
822.289	3903
822.429	3762
822.569	3759
822.709	3778
822.849	3694
822.99	3705
823.13	3713
823.27	3759
823.41	3675
823.55	3755
823.69	3720
823.83	3743
823.97	3641
824.11	3523
824.25	3614
824.389	3652
824.529	3694
824.669	3572
824.809	3698
824.949	3747
825.089	3690
825.228	3644
825.368	3576
825.508	3515
825.648	3553
825.787	3595
825.927	3652
826.067	3606
826.206	3652
826.346	3762
826.485	3819
826.625	3861
826.765	3964
826.904	3831
827.044	3599
827.183	3515
827.323	3447
827.462	3492
827.601	3454
827.741	3389
827.88	3477
828.02	3355
828.159	3450
828.298	3485
828.437	3515
828.577	3397
828.716	3603
828.855	3473
828.994	3405
829.134	3386
829.273	3367
829.412	3348
829.551	3351
829.69	3332
829.829	3439
829.968	3511
830.107	3450
830.246	3389
830.385	3374
830.524	3317
830.663	3287
830.802	3260
830.941	3211
831.08	3207
831.219	3230
831.357	3264
831.496	3393
831.635	3253
831.774	3192
831.913	3169
832.051	3157
832.19	3142
832.329	3188
832.467	3173
832.606	3097
832.744	3169
832.883	3169
833.022	3192
833.16	3275
833.299	3279
833.437	3325
833.576	3351
833.714	3374
833.852	3439
833.991	3458
834.129	3473
834.267	3393
834.406	3405
834.544	3462
834.682	3397
834.821	3424
834.959	3530
835.097	3420
835.235	3526
835.373	3485
835.511	3511
835.65	3466
835.788	3519
835.926	3439
836.064	3397
836.202	3409
836.34	3572
836.478	3572
836.615	3580
836.753	3564
836.891	3648
837.029	3606
837.167	3576
837.305	3515
837.443	3496
837.58	3466
837.718	3595
837.856	3538
837.993	3534
838.131	3622
838.269	3606
838.406	3530
838.544	3584
838.681	3443
838.819	3469
838.956	3329
839.094	3370
839.231	3473
839.369	3519
839.506	3762
839.643	3614
839.781	3477
839.918	3447
840.055	3530
840.193	3530
840.33	3500
840.467	3564
840.604	3599
840.742	3778
840.879	3511
841.016	3542
841.153	3591
841.29	3690
841.427	3701
841.564	3728
841.701	3701
841.838	3679
841.975	3705
842.112	3701
842.249	3641
842.385	3660
842.522	3812
842.659	3701
842.796	3648
842.933	3694
843.069	3717
843.206	3701
843.343	3789
843.479	3755
843.616	3816
843.752	3690
843.889	3667
844.025	3903
844.162	3671
844.298	3850
844.435	3781
844.571	3785
844.708	3865
844.844	3983
844.98	4013
845.117	3994
845.253	3876
845.389	3888
845.525	3934
845.661	3949
845.798	3915
845.934	4029
846.07	3949
846.206	4074
846.342	4128
846.478	4059
846.614	3960
846.75	3907
846.886	3934
847.022	4044
847.158	3998
847.294	3987
847.429	4029
847.565	3987
847.701	4234
847.837	3892
847.972	3846
848.108	3979
848.244	3934
848.379	3876
848.515	3819
848.65	3804
848.786	3804
848.921	3831
849.057	3869
849.192	3960
849.328	3880
849.463	3941
849.598	3842
849.734	3873
849.869	3835
850.004	3770
850.14	3823
850.275	3778
850.41	3743
850.545	3751
850.68	3747
850.815	3774
850.95	3759
851.085	3934
851.22	3838
851.355	3835
851.49	3797
851.625	3774
851.76	3762
851.895	3724
852.03	3694
852.165	3762
852.299	3857
852.434	3880
852.569	3869
852.703	3869
852.838	3911
852.973	3994
853.107	3968
853.242	3865
853.376	3816
853.511	3743
853.645	3827
853.78	3972
853.914	3884
854.048	3903
854.183	3888
854.317	3918
854.451	4044
854.585	3956
854.72	3926
854.854	4006
854.988	3934
855.122	4017
855.256	3922
855.39	4025
855.524	4074
855.658	4074
855.792	4097
855.926	4090
856.06	4158
856.194	4192
856.327	4112
856.461	4154
856.595	4135
856.729	4158
856.862	4291
856.996	4246
857.13	4276
857.263	4333
857.397	4360
857.53	4314
857.664	4344
857.797	4402
857.931	4390
858.064	4409
858.197	4432
858.331	4375
858.464	4394
858.597	4325
858.731	4424
858.864	4432
858.997	4512
859.13	4516
859.263	4523
859.396	4603
859.529	4478
859.662	4535
859.795	4519
859.928	4611
860.061	4691
860.194	4733
860.327	4641
860.46	4683
860.592	4752
860.725	4774
860.858	4786
860.99	4691
861.123	4634
861.256	4698
861.388	4782
861.521	5501
861.653	4706
861.786	4698
861.918	4725
862.05	4771
862.183	4797
862.315	4877
862.447	4911
862.58	4930
862.712	4801
862.844	4752
862.976	4904
863.108	4866
863.24	5162
863.372	4828
863.504	4889
863.636	4862
863.768	4987
863.9	4946
864.032	4946
864.164	4972
864.296	4965
864.428	5094
864.559	5143
864.691	5155
864.823	5151
864.954	5060
865.086	5151
865.217	5162
865.349	5090
865.48	5124
865.612	5208
865.743	5269
865.875	5166
866.006	5208
866.137	5223
866.269	5235
866.4	5235
866.531	5235
866.662	5220
866.793	5284
866.924	5292
867.055	5357
867.186	5360
867.317	5357
867.448	5345
867.579	5357
867.71	5345
867.841	5395
867.972	5459
868.103	5452
868.233	5455
868.364	5512
868.495	5524
868.625	5630
868.756	5805
868.886	5642
869.017	5714
869.147	5859
869.278	5832
869.408	5836
869.539	5809
869.669	5916
869.799	5950
869.929	5893
870.06	5999
870.19	6228
870.32	6228
870.45	6331
870.58	6327
870.71	6448
870.84	6517
870.97	6395
871.1	6464
871.23	6604
871.36	6662
871.489	6612
871.619	6745
871.749	6810
871.879	6916
872.008	6993
872.138	6977
872.267	7012
872.397	6932
872.526	7057
872.656	7095
872.785	7194
872.915	7350
873.044	7502
873.173	7529
873.303	7643
873.432	7750
873.561	7795
873.69	7928
873.819	8054
873.948	8210
874.077	8267
874.206	8332
874.335	8427
874.464	8629
874.593	8902
874.722	9001
874.851	9131
874.979	9165
875.108	9332
875.237	9469
875.365	9450
875.494	9660
875.623	9808
875.751	9861
875.88	10032
876.008	10207
876.136	10207
876.265	10546
876.393	10752
876.521	10759
876.65	10812
876.778	10858
876.906	10911
877.034	10976
877.162	11029
877.29	11083
877.418	11258
877.546	11372
877.674	11478
877.802	11493
877.93	11452
878.058	11566
878.185	11532
878.313	11653
878.441	11771
878.568	11604
878.696	11817
878.824	11809
878.951	11965
879.079	12057
879.206	12175
879.333	11942
879.461	12034
879.588	12087
879.715	12076
879.842	12159
879.97	12045
880.097	11908
880.224	11908
880.351	11920
880.478	11874
880.605	11870
880.732	11843
880.859	11954
880.986	11828
881.112	11984
881.239	11710
881.366	11703
881.493	11623
881.619	11433
881.746	11638
881.872	11577
881.999	11471
882.125	11353
882.252	11535
882.378	11501
882.505	11512
882.631	11318
882.757	11292
882.883	11269
883.01	11303
883.136	11197
883.262	11143
883.388	11029
883.514	11258
883.64	11162
883.766	11155
883.892	10908
884.018	10949
884.143	11025
884.269	11052
884.395	10839
884.52	10725
884.646	10752
884.772	10717
884.897	10694
885.023	10710
885.148	10752
885.274	10816
885.399	10698
885.524	10584
885.65	10618
885.775	10569
885.9	10569
886.025	10622
886.15	10516
886.275	10402
886.4	10421
886.525	10447
886.65	10440
886.775	10371
886.9	10470
887.025	10485
887.149	10432
887.274	10234
887.399	10158
887.523	10128
887.648	10120
887.773	10150
887.897	10219
888.021	10238
888.146	10112
888.27	10196
888.395	10074
888.519	10131
888.643	10173
888.767	10227
888.891	10120
889.015	9998
889.139	10071
889.263	10025
889.387	10074
889.511	10105
889.635	10063
889.759	9998
889.883	10048
890.006	9884
890.13	10063
890.254	9884
890.377	9937
890.501	9865
890.624	9873
890.748	9918
890.871	9774
890.995	9736
891.118	9705
891.241	9717
891.364	9720
891.488	9800
891.611	9759
891.734	9713
891.857	9732
891.98	9728
892.103	9736
892.226	9766
892.349	9701
892.471	9519
892.594	9561
892.717	9545
892.839	9580
892.962	9667
893.085	9686
893.207	9515
893.33	9500
893.452	9568
893.575	9584
893.697	9557
893.819	9633
893.941	9614
894.064	9576
894.186	9454
894.308	9416
894.43	9534
894.552	9545
894.674	9530
894.796	9386
894.918	9348
895.04	9355
895.161	9428
895.283	9393
895.405	9222
895.526	9241
895.648	9214
895.769	9218
895.891	9214
896.012	9264
896.134	9245
896.255	9146
896.376	9142
896.498	9150
896.619	9116
896.74	9074
896.861	9108
896.982	9241
897.103	9279
897.224	9165
897.345	9161
897.466	8910
897.587	9058
897.708	9112
897.828	9077
897.949	8982
898.07	8933
898.19	8887
898.311	8998
898.431	8937
898.552	8918
898.672	8906
898.792	8925
898.913	8941
899.033	8811
899.153	8731
899.273	8701
899.393	8724
899.513	8773
899.633	8629
899.753	8727
899.873	8678
899.993	8682
900.113	8693
900.232	8720
900.352	8648
900.472	8629
900.591	8598
900.711	8583
900.83	8556
900.95	8598
901.069	8610
901.189	8568
901.308	8431
901.427	8419
901.546	8450
901.665	8465
901.784	8495
901.904	8355
902.023	8290
902.141	8202
902.26	8206
902.379	8290
902.498	8214
902.617	8248
902.735	8221
902.854	8267
902.973	8237
903.091	8119
903.21	8183
903.328	8126
903.446	8096
903.565	8111
903.683	8145
903.801	8088
903.919	8092
904.038	8111
904.156	8043
904.274	8092
904.392	8008
904.51	7982
904.627	8035
904.745	8027
904.863	8103
904.981	7894
905.098	7906
905.216	7909
905.334	7940
905.451	7890
905.569	7871
905.686	7951
905.803	7879
905.921	7822
906.038	7799
906.155	7833
906.272	7715
906.389	7765
906.506	7632
906.623	7605
906.74	7571
906.857	7609
906.974	7533
907.091	7708
907.208	7685
907.324	7597
907.441	7571
907.557	7495
907.674	7438
907.79	7308
907.907	7396
908.023	7460
908.139	7392
908.256	7411
908.372	7373
908.488	7354
908.604	7251
908.72	7289
908.836	7263
908.952	7266
909.068	7274
909.184	7308
909.3	7278
909.415	7247
909.531	7228
909.647	7095
909.762	7110
909.878	7095
909.993	7141
910.108	7072
910.224	7072
910.339	7069
910.454	7015
910.57	6996
910.685	6932
910.8	7171
910.915	7072
911.03	7061
911.145	6875
911.259	6878
911.374	6890
911.489	6818
911.604	6837
911.718	6700
911.833	6760
911.947	6722
912.062	6601
912.176	6658
912.291	6684
912.405	6734
912.519	6840
912.633	6894
912.748	6741
912.862	6696
912.976	6601
913.09	6445
913.204	6593
913.318	6547
913.431	6692
913.545	6631
913.659	6681
913.772	6738
913.886	6589
914	6509
914.113	6608
914.226	6612
914.34	6635
914.453	6509
914.566	6597
914.68	6517
914.793	6483
914.906	6365
915.019	6403
915.132	6334
915.245	6471
915.358	6395
915.47	6433
915.583	6452
915.696	6418
915.809	6521
915.921	6506
916.034	6422
916.146	6376
916.259	6296
916.371	6471
916.483	6464
916.595	6395
916.708	6395
916.82	6380
916.932	6357
917.044	6448
917.156	6346
917.268	6315
917.38	6353
917.491	6350
917.603	6289
917.715	6441
917.826	6365
917.938	6331
918.049	6220
918.161	6361
918.272	6414
918.384	6422
918.495	6323
918.606	6304
918.717	6247
918.828	6247
918.939	6334
919.05	6178
919.161	6251
919.272	6133
919.383	6117
919.494	6388
919.604	6441
919.715	6247
919.826	6209
919.936	6182
920.047	6311
920.157	6247
920.267	6464
920.378	6350
920.488	6296
920.598	6448
920.708	6532
920.818	6490
920.928	6475
921.038	6662
921.148	6582
921.258	6315
921.368	6289
921.477	6194
921.587	6140
921.697	6045
921.806	6201
921.916	6114
922.025	5897
922.134	5901
922.244	5828
922.353	6030
922.462	5809
922.571	5844
922.68	5684
922.789	5665
922.898	5688
923.007	5646
923.116	5668
923.224	5653
923.333	5642
923.442	5570
923.55	5551
923.659	5539
923.767	5627
923.876	5459
923.984	5577
924.092	5497
924.201	5535
924.309	5562
924.417	5558
924.525	5516
924.633	5493
924.741	6258
924.849	5360
924.956	5433
925.064	5315
925.172	5299
925.279	5250
925.387	5261
925.494	5353
925.602	5410
925.709	5345
925.816	5246
925.924	5360
926.031	5330
926.138	5330
926.245	5341
926.352	5269
926.459	5318
926.566	5307
926.673	5162
926.779	5102
926.886	5083
926.993	4995
927.099	5052
927.206	4949
927.312	4927
927.419	5022
927.525	5003
927.631	4976
927.737	4938
927.843	4805
927.95	4782
928.056	4786
928.162	4748
928.267	4839
928.373	5246
928.479	4850
928.585	4714
928.69	4790
928.796	4774
928.901	4706
929.007	4607
929.112	4679
929.218	4611
929.323	4561
929.428	4508
929.533	4656
929.638	4504
929.743	4493
929.848	4596
929.953	4459
930.058	4455
930.163	4386
930.267	4390
930.372	4428
930.477	4295
930.581	4440
930.685	4356
930.79	4234
930.894	4265
930.998	4261
931.103	4348
931.207	4135
931.311	4063
931.415	4017
931.519	3915
931.623	3979
