Data from glass_V78500241_2421.txt Node
Date: Wed Sep 01 19:31:17 CST 2021
User: usil
Spectrometer: V785-0024
Trigger mode: 0
Integration Time (sec): 4.000000E-1
Scans to average: 1
Nonlinearity correction enabled: false
Boxcar width: 0
Storing dark spectrum: false
XAxis mode: Wavelengths
Number of Pixels in Spectrum: 1024
>>>>>Begin Spectral Data<<<<<
801.071	3690
801.214	3732
801.356	3698
801.499	3743
801.641	3720
801.783	3785
801.926	3857
802.068	3823
802.211	3911
802.353	3854
802.496	3861
802.638	3842
802.78	3873
802.923	3930
803.065	3838
803.208	3876
803.35	3884
803.492	3899
803.635	3899
803.777	3774
803.919	3876
804.061	4150
804.204	3926
804.346	3964
804.488	3873
804.63	4051
804.773	3979
804.915	3983
805.057	4139
805.199	4036
805.341	4105
805.483	4124
805.626	4090
805.768	4105
805.91	4188
806.052	4257
806.194	4185
806.336	4363
806.478	4227
806.62	4181
806.762	4192
806.904	4211
807.046	4261
807.188	4204
807.33	4169
807.472	4253
807.614	4173
807.756	4253
807.898	4211
808.04	4207
808.182	4253
808.324	4295
808.465	4333
808.607	4485
808.749	4459
808.891	4466
809.033	4455
809.174	4421
809.316	4196
809.458	4211
809.6	4109
809.741	4150
809.883	4162
810.025	4238
810.166	4154
810.308	4177
810.45	4215
810.591	4207
810.733	4299
810.875	4493
811.016	4809
811.158	5083
811.299	5242
811.441	5273
811.582	5037
811.724	4725
811.865	4485
812.007	4493
812.148	4432
812.29	4432
812.431	4421
812.573	4440
812.714	4409
812.855	4394
812.997	4409
813.138	4485
813.279	4383
813.421	4417
813.562	4390
813.703	4310
813.845	4257
813.986	4242
814.127	4200
814.268	4284
814.41	4272
814.551	4280
814.692	4356
814.833	4265
814.974	4314
815.115	4310
815.256	4204
815.397	4223
815.539	4246
815.68	4207
815.821	4204
815.962	4329
816.103	4291
816.244	4238
816.385	4215
816.526	4325
816.666	4242
816.807	4059
816.948	4185
817.089	4128
817.23	4086
817.371	4051
817.512	4059
817.653	4044
817.793	4048
817.934	4013
818.075	4074
818.216	4112
818.356	4044
818.497	3987
818.638	3869
818.778	3922
818.919	3876
819.06	3873
819.2	3926
819.341	3857
819.481	3812
819.622	3926
819.762	3991
819.903	3972
820.043	3876
820.184	3835
820.324	3816
820.465	3854
820.605	3880
820.746	3835
820.886	3789
821.026	3915
821.167	3888
821.307	3911
821.447	3937
821.588	3960
821.728	3941
821.868	3930
822.008	3861
822.149	3899
822.289	3915
822.429	3755
822.569	3743
822.709	3762
822.849	3690
822.99	3705
823.13	3732
823.27	3751
823.41	3724
823.55	3663
823.69	3675
823.83	3736
823.97	3663
824.11	3587
824.25	3595
824.389	3599
824.529	3629
824.669	3606
824.809	3675
824.949	3732
825.089	3759
825.228	3686
825.368	3587
825.508	3564
825.648	3553
825.787	3599
825.927	3648
826.067	3606
826.206	3671
826.346	3800
826.485	3781
826.625	3869
826.765	3899
826.904	3808
827.044	3629
827.183	3534
827.323	3428
827.462	3500
827.601	3447
827.741	3428
827.88	3412
828.02	3378
828.159	3443
828.298	3462
828.437	3564
828.577	3450
828.716	3599
828.855	3523
828.994	3351
829.134	3370
829.273	3374
829.412	3351
829.551	3340
829.69	3374
829.829	3397
829.968	3496
830.107	3435
830.246	3443
830.385	3386
830.524	3329
830.663	3317
830.802	3260
830.941	3188
831.08	3211
831.219	3211
831.357	3302
831.496	3367
831.635	3226
831.774	3161
831.913	3192
832.051	3135
832.19	3131
832.329	3188
832.467	3131
832.606	3097
832.744	3173
832.883	3176
833.022	3222
833.16	3241
833.299	3268
833.437	3336
833.576	3340
833.714	3370
833.852	3447
833.991	3416
834.129	3443
834.267	3370
834.406	3389
834.544	3389
834.682	3435
834.821	3424
834.959	3515
835.097	3389
835.235	3496
835.373	3511
835.511	3492
835.65	3447
835.788	3443
835.926	3370
836.064	3367
836.202	3412
836.34	3564
836.478	3648
836.615	3526
836.753	3572
836.891	3599
837.029	3595
837.167	3599
837.305	3606
837.443	3530
837.58	3511
837.718	3606
837.856	3534
837.993	3515
838.131	3545
838.269	3587
838.406	3549
838.544	3568
838.681	3485
838.819	3473
838.956	3367
839.094	3359
839.231	3447
839.369	3526
839.506	3686
839.643	3610
839.781	3515
839.918	3435
840.055	3500
840.193	3538
840.33	3515
840.467	3553
840.604	3610
840.742	3793
840.879	3469
841.016	3553
841.153	3568
841.29	3736
841.427	3660
841.564	3682
841.701	3762
841.838	3667
841.975	3667
842.112	3698
842.249	3606
842.385	3622
842.522	3823
842.659	3667
842.796	3679
842.933	3682
843.069	3713
843.206	3740
843.343	3778
843.479	3766
843.616	3804
843.752	3652
843.889	3648
844.025	3846
844.162	3701
844.298	3827
844.435	3793
844.571	3713
844.708	3842
844.844	3979
844.98	4029
845.117	3983
845.253	3949
845.389	3888
845.525	3960
845.661	3991
845.798	3907
845.934	3994
846.07	3968
846.206	4032
846.342	4101
846.478	4090
846.614	3937
846.75	3945
846.886	3892
847.022	4051
847.158	3945
847.294	4032
847.429	4078
847.565	4006
847.701	4223
847.837	3888
847.972	3873
848.108	3934
848.244	4006
848.379	3819
848.515	3785
848.65	3781
848.786	3827
848.921	3861
849.057	3911
849.192	3937
849.328	3918
849.463	3934
849.598	3850
849.734	3884
849.869	3857
850.004	3759
850.14	3857
850.275	3759
850.41	3740
850.545	3747
850.68	3747
850.815	3804
850.95	3804
851.085	3911
851.22	3880
851.355	3846
851.49	3785
851.625	3766
851.76	3778
851.895	3762
852.03	3701
852.165	3793
852.299	3861
852.434	3876
852.569	3800
852.703	3850
852.838	3949
852.973	3968
853.107	3983
853.242	3884
853.376	3819
853.511	3781
853.645	3774
853.78	3930
853.914	3934
854.048	3876
854.183	3873
854.317	3941
854.451	4021
854.585	3953
854.72	3941
854.854	4006
854.988	3915
855.122	3987
855.256	3869
855.39	4025
855.524	4090
855.658	4078
855.792	4044
855.926	4131
856.06	4173
856.194	4124
856.327	4112
856.461	4112
856.595	4162
856.729	4097
856.862	4268
856.996	4204
857.13	4318
857.263	4291
857.397	4360
857.53	4219
857.664	4310
857.797	4409
857.931	4390
858.064	4394
858.197	4440
858.331	4363
858.464	4337
858.597	4329
858.731	4459
858.864	4440
858.997	4466
859.13	4489
859.263	4523
859.396	4558
859.529	4500
859.662	4489
859.795	4538
859.928	4554
860.061	4672
860.194	4744
860.327	4611
860.46	4653
860.592	4721
860.725	4748
860.858	4752
860.99	4672
861.123	4664
861.256	4675
861.388	4763
861.521	5524
861.653	4702
861.786	4675
861.918	4687
862.05	4801
862.183	4854
862.315	4873
862.447	4908
862.58	4843
862.712	4801
862.844	4790
862.976	4873
863.108	4854
863.24	5159
863.372	4793
863.504	4866
863.636	4854
863.768	4949
863.9	4995
864.032	4934
864.164	4946
864.296	5022
864.428	5102
864.559	5090
864.691	5117
864.823	5102
864.954	5109
865.086	5155
865.217	5102
865.349	5102
865.48	5193
865.612	5170
865.743	5284
865.875	5170
866.006	5166
866.137	5220
866.269	5239
866.4	5216
866.531	5254
866.662	5189
866.793	5250
866.924	5315
867.055	5357
867.186	5345
867.317	5288
867.448	5284
867.579	5406
867.71	5391
867.841	5387
867.972	5516
868.103	5486
868.233	5467
868.364	5516
868.495	5505
868.625	5684
868.756	5729
868.886	5680
869.017	5710
869.147	5836
869.278	5844
869.408	5802
869.539	5805
869.669	5863
869.799	5920
869.929	5950
870.06	5992
870.19	6167
870.32	6133
870.45	6182
870.58	6357
870.71	6441
870.84	6448
870.97	6445
871.1	6460
871.23	6612
871.36	6684
871.489	6654
871.619	6700
871.749	6825
871.879	6871
872.008	6977
872.138	6985
872.267	7008
872.397	6954
872.526	6973
872.656	7069
872.785	7095
872.915	7320
873.044	7449
873.173	7575
873.303	7624
873.432	7738
873.561	7868
873.69	7906
873.819	7970
873.948	8134
874.077	8267
874.206	8415
874.335	8366
874.464	8663
874.593	8777
874.722	8914
874.851	9199
874.979	9245
875.108	9454
875.237	9408
875.365	9473
875.494	9675
875.623	9873
875.751	9800
875.88	9945
876.008	10131
876.136	10276
876.265	10493
876.393	10649
876.521	10729
876.65	10755
876.778	10835
876.906	10889
877.034	10915
877.162	11052
877.29	11113
877.418	11208
877.546	11284
877.674	11471
877.802	11448
877.93	11497
878.058	11562
878.185	11600
878.313	11653
878.441	11756
878.568	11642
878.696	11771
878.824	11840
878.951	11931
879.079	12076
879.206	12076
879.333	12019
879.461	11984
879.588	12076
879.715	12087
879.842	12136
879.97	12098
880.097	11828
880.224	11851
880.351	11893
880.478	11832
880.605	11832
880.732	11786
880.859	11923
880.986	11752
881.112	11935
881.239	11714
881.366	11646
881.493	11600
881.619	11497
881.746	11558
881.872	11581
881.999	11471
882.125	11497
882.252	11497
882.378	11562
882.505	11581
882.631	11376
882.757	11269
882.883	11250
883.01	11204
883.136	11174
883.262	11113
883.388	11041
883.514	11201
883.64	11254
883.766	11170
883.892	10957
884.018	10949
884.143	11075
884.269	11132
884.395	10847
884.52	10744
884.646	10793
884.772	10691
884.897	10580
885.023	10626
885.148	10679
885.274	10759
885.399	10664
885.524	10542
885.65	10554
885.775	10580
885.9	10565
886.025	10516
886.15	10573
886.275	10447
886.4	10371
886.525	10459
886.65	10306
886.775	10242
886.9	10417
887.025	10569
887.149	10348
887.274	10196
887.399	10207
887.523	10124
887.648	10162
887.773	10101
887.897	10299
888.021	10196
888.146	10124
888.27	10207
888.395	10154
888.519	10204
888.643	10215
888.767	10166
888.891	10071
889.015	9941
889.139	10090
889.263	9918
889.387	9972
889.511	10150
889.635	10013
889.759	9994
889.883	9930
890.006	9979
890.13	10017
890.254	10013
890.377	9880
890.501	9895
890.624	9884
890.748	9846
890.871	9762
890.995	9728
891.118	9660
891.241	9747
891.364	9717
891.488	9759
891.611	9694
891.734	9747
891.857	9766
891.98	9686
892.103	9831
892.226	9720
892.349	9614
892.471	9515
892.594	9545
892.717	9572
892.839	9561
892.962	9545
893.085	9606
893.207	9538
893.33	9542
893.452	9523
893.575	9572
893.697	9492
893.819	9587
893.941	9679
894.064	9584
894.186	9439
894.308	9370
894.43	9599
894.552	9530
894.674	9477
894.796	9344
894.918	9405
895.04	9367
895.161	9370
895.283	9291
895.405	9222
895.526	9264
895.648	9256
895.769	9218
895.891	9264
896.012	9256
896.134	9233
896.255	9184
896.376	9100
896.498	9085
896.619	9161
896.74	9039
896.861	9112
896.982	9233
897.103	9169
897.224	9150
897.345	9131
897.466	9028
897.587	8979
897.708	9058
897.828	9024
897.949	8937
898.07	8906
898.19	8967
898.311	9005
898.431	8880
898.552	8902
898.672	8982
898.792	8914
898.913	8933
899.033	8887
899.153	8758
899.273	8613
899.393	8701
899.513	8720
899.633	8750
899.753	8693
899.873	8727
899.993	8720
900.113	8705
900.232	8667
900.352	8602
900.472	8564
900.591	8594
900.711	8644
900.83	8522
900.95	8724
901.069	8640
901.189	8552
901.308	8423
901.427	8370
901.546	8389
901.665	8454
901.784	8473
901.904	8366
902.023	8313
902.141	8259
902.26	8248
902.379	8202
902.498	8229
902.617	8142
902.735	8324
902.854	8252
902.973	8240
903.091	8088
903.21	8149
903.328	8168
903.446	8161
903.565	8077
903.683	8005
903.801	7970
903.919	8138
904.038	8081
904.156	8024
904.274	8008
904.392	8043
904.51	8043
904.627	8016
904.745	7993
904.863	8031
904.981	7955
905.098	7803
905.216	7818
905.334	7921
905.451	7917
905.569	7871
905.686	7894
905.803	7906
905.921	7734
906.038	7841
906.155	7734
906.272	7757
906.389	7746
906.506	7681
906.623	7628
906.74	7578
906.857	7575
906.974	7624
907.091	7647
907.208	7719
907.324	7594
907.441	7575
907.557	7426
907.674	7445
907.79	7320
907.907	7373
908.023	7419
908.139	7373
908.256	7316
908.372	7331
908.488	7312
908.604	7285
908.72	7202
908.836	7282
908.952	7152
909.068	7221
909.184	7289
909.3	7206
909.415	7263
909.531	7255
909.647	7034
909.762	7110
909.878	7046
909.993	7175
910.108	7103
910.224	7053
910.339	7080
910.454	7004
910.57	7031
910.685	6913
910.8	7179
910.915	7069
911.03	7019
911.145	6856
911.259	6905
911.374	6894
911.489	6814
911.604	6795
911.718	6700
911.833	6707
911.947	6646
912.062	6612
912.176	6673
912.291	6749
912.405	6719
912.519	6837
912.633	6795
912.748	6715
912.862	6669
912.976	6582
913.09	6513
913.204	6597
913.318	6593
913.431	6662
913.545	6627
913.659	6707
913.772	6673
913.886	6528
914	6532
914.113	6612
914.226	6650
914.34	6593
914.453	6494
914.566	6627
914.68	6494
914.793	6494
914.906	6399
915.019	6437
915.132	6292
915.245	6479
915.358	6532
915.47	6445
915.583	6437
915.696	6418
915.809	6464
915.921	6494
916.034	6407
916.146	6441
916.259	6369
916.371	6498
916.483	6403
916.595	6407
916.708	6369
916.82	6319
916.932	6327
917.044	6418
917.156	6388
917.268	6304
917.38	6304
917.491	6304
917.603	6285
917.715	6380
917.826	6407
917.938	6323
918.049	6285
918.161	6372
918.272	6403
918.384	6384
918.495	6334
918.606	6308
918.717	6197
918.828	6311
918.939	6292
919.05	6190
919.161	6194
919.272	6110
919.383	6136
919.494	6251
919.604	6399
919.715	6292
919.826	6155
919.936	6270
920.047	6285
920.157	6228
920.267	6490
920.378	6346
920.488	6300
920.598	6460
920.708	6570
920.818	6452
920.928	6414
921.038	6597
921.148	6563
921.258	6319
921.368	6304
921.477	6201
921.587	6163
921.697	6060
921.806	6190
921.916	6057
922.025	5958
922.134	5935
922.244	5870
922.353	5912
922.462	5783
922.571	5752
922.68	5756
922.789	5710
922.898	5741
923.007	5623
923.116	5714
923.224	5684
923.333	5649
923.442	5581
923.55	5615
923.659	5573
923.767	5608
923.876	5520
923.984	5585
924.092	5520
924.201	5589
924.309	5539
924.417	5573
924.525	5459
924.633	5406
924.741	6266
924.849	5345
924.956	5497
925.064	5345
925.172	5280
925.279	5337
925.387	5376
925.494	5334
925.602	5410
925.709	5372
925.816	5197
925.924	5303
926.031	5311
926.138	5254
926.245	5364
926.352	5208
926.459	5330
926.566	5307
926.673	5201
926.779	5109
926.886	5128
926.993	5037
927.099	4999
927.206	5022
927.312	4961
927.419	4987
927.525	4938
927.631	4972
927.737	4862
927.843	4881
927.95	4778
928.056	4778
928.162	4793
928.267	4870
928.373	5250
928.479	4824
928.585	4634
928.69	4733
928.796	4771
928.901	4626
929.007	4580
929.112	4675
929.218	4660
929.323	4603
929.428	4573
929.533	4611
929.638	4474
929.743	4573
929.848	4550
929.953	4478
930.058	4394
930.163	4303
930.267	4390
930.372	4394
930.477	4291
930.581	4455
930.685	4379
930.79	4215
930.894	4223
930.998	4200
931.103	4348
931.207	4147
931.311	4078
931.415	4036
931.519	3945
931.623	3907
