Data from glass_V78500241_59.txt Node
Date: Wed Sep 01 19:14:54 CST 2021
User: usil
Spectrometer: V785-0024
Trigger mode: 0
Integration Time (sec): 4.000000E-1
Scans to average: 1
Nonlinearity correction enabled: false
Boxcar width: 0
Storing dark spectrum: false
XAxis mode: Wavelengths
Number of Pixels in Spectrum: 1024
>>>>>Begin Spectral Data<<<<<
801.071	3774
801.214	3774
801.356	3698
801.499	3770
801.641	3785
801.783	3835
801.926	3865
802.068	3842
802.211	3857
802.353	3930
802.496	3861
802.638	3899
802.78	3896
802.923	4006
803.065	3926
803.208	3899
803.35	3903
803.492	3915
803.635	3918
803.777	3785
803.919	3896
804.061	4147
804.204	3968
804.346	3972
804.488	3915
804.63	4029
804.773	3972
804.915	4036
805.057	4173
805.199	4044
805.341	4120
805.483	4154
805.626	4158
805.768	4131
805.91	4227
806.052	4280
806.194	4265
806.336	4314
806.478	4276
806.62	4162
806.762	4177
806.904	4284
807.046	4371
807.188	4257
807.33	4196
807.472	4272
807.614	4196
807.756	4280
807.898	4246
808.04	4238
808.182	4295
808.324	4352
808.465	4413
808.607	4466
808.749	4447
808.891	4500
809.033	4516
809.174	4405
809.316	4333
809.458	4261
809.6	4169
809.741	4124
809.883	4135
810.025	4242
810.166	4227
810.308	4230
810.45	4238
810.591	4257
810.733	4291
810.875	4535
811.016	4858
811.158	5140
811.299	5280
811.441	5261
811.582	5109
811.724	4748
811.865	4459
812.007	4432
812.148	4413
812.29	4405
812.431	4405
812.573	4440
812.714	4367
812.855	4424
812.997	4455
813.138	4493
813.279	4440
813.421	4402
813.562	4356
813.703	4333
813.845	4310
813.986	4280
814.127	4238
814.268	4310
814.41	4303
814.551	4268
814.692	4352
814.833	4310
814.974	4322
815.115	4367
815.256	4284
815.397	4242
815.539	4268
815.68	4219
815.821	4215
815.962	4333
816.103	4253
816.244	4299
816.385	4287
816.526	4268
816.666	4261
816.807	4139
816.948	4215
817.089	4196
817.23	4120
817.371	4143
817.512	4044
817.653	4093
817.793	4059
817.934	4025
818.075	4128
818.216	4063
818.356	4082
818.497	3960
818.638	3949
818.778	3983
818.919	3896
819.06	3857
819.2	3953
819.341	3842
819.481	3892
819.622	3915
819.762	4025
819.903	3964
820.043	3903
820.184	3842
820.324	3812
820.465	3926
820.605	3884
820.746	3892
820.886	3819
821.026	3926
821.167	3903
821.307	4013
821.447	4063
821.588	3991
821.728	3941
821.868	3956
822.008	3899
822.149	3945
822.289	3960
822.429	3816
822.569	3800
822.709	3781
822.849	3709
822.99	3720
823.13	3759
823.27	3823
823.41	3732
823.55	3740
823.69	3778
823.83	3778
823.97	3667
824.11	3644
824.25	3603
824.389	3644
824.529	3698
824.669	3663
824.809	3747
824.949	3785
825.089	3755
825.228	3713
825.368	3629
825.508	3595
825.648	3587
825.787	3606
825.927	3652
826.067	3629
826.206	3675
826.346	3816
826.485	3880
826.625	3861
826.765	4002
826.904	3800
827.044	3599
827.183	3568
827.323	3492
827.462	3526
827.601	3443
827.741	3458
827.88	3469
828.02	3412
828.159	3420
828.298	3511
828.437	3557
828.577	3477
828.716	3610
828.855	3523
828.994	3382
829.134	3401
829.273	3378
829.412	3355
829.551	3302
829.69	3389
829.829	3431
829.968	3507
830.107	3447
830.246	3466
830.385	3435
830.524	3344
830.663	3313
830.802	3260
830.941	3165
831.08	3233
831.219	3344
831.357	3279
831.496	3443
831.635	3253
831.774	3214
831.913	3222
832.051	3173
832.19	3127
832.329	3199
832.467	3135
832.606	3123
832.744	3195
832.883	3188
833.022	3249
833.16	3256
833.299	3329
833.437	3351
833.576	3401
833.714	3416
833.852	3458
833.991	3447
834.129	3485
834.267	3462
834.406	3409
834.544	3409
834.682	3431
834.821	3435
834.959	3534
835.097	3424
835.235	3523
835.373	3542
835.511	3530
835.65	3526
835.788	3504
835.926	3382
836.064	3389
836.202	3428
836.34	3603
836.478	3633
836.615	3572
836.753	3576
836.891	3713
837.029	3633
837.167	3614
837.305	3614
837.443	3542
837.58	3523
837.718	3641
837.856	3568
837.993	3576
838.131	3637
838.269	3614
838.406	3610
838.544	3644
838.681	3473
838.819	3462
838.956	3359
839.094	3428
839.231	3454
839.369	3534
839.506	3778
839.643	3614
839.781	3526
839.918	3473
840.055	3576
840.193	3523
840.33	3553
840.467	3549
840.604	3618
840.742	3819
840.879	3561
841.016	3610
841.153	3606
841.29	3770
841.427	3694
841.564	3740
841.701	3770
841.838	3717
841.975	3705
842.112	3759
842.249	3686
842.385	3656
842.522	3857
842.659	3679
842.796	3682
842.933	3713
843.069	3717
843.206	3728
843.343	3850
843.479	3785
843.616	3854
843.752	3709
843.889	3747
844.025	3850
844.162	3770
844.298	3869
844.435	3838
844.571	3838
844.708	3934
844.844	3991
844.98	4021
845.117	3994
845.253	3960
845.389	3945
845.525	3960
845.661	3964
845.798	3884
845.934	3994
846.07	3975
846.206	4086
846.342	4139
846.478	4071
846.614	3956
846.75	3972
846.886	3941
847.022	4059
847.158	3937
847.294	4029
847.429	4017
847.565	4021
847.701	4306
847.837	3918
847.972	3865
848.108	4017
848.244	4025
848.379	3876
848.515	3812
848.65	3831
848.786	3850
848.921	3918
849.057	3949
849.192	3949
849.328	3907
849.463	3945
849.598	3888
849.734	3876
849.869	3812
850.004	3846
850.14	3804
850.275	3743
850.41	3747
850.545	3759
850.68	3770
850.815	3838
850.95	3804
851.085	3956
851.22	3915
851.355	3823
851.49	3793
851.625	3812
851.76	3827
851.895	3774
852.03	3755
852.165	3838
852.299	3888
852.434	3945
852.569	3896
852.703	3899
852.838	3972
852.973	4006
853.107	4013
853.242	3892
853.376	3873
853.511	3812
853.645	3915
853.78	4002
853.914	3922
854.048	3930
854.183	3930
854.317	3964
854.451	4097
854.585	3975
854.72	3968
854.854	4059
854.988	3960
855.122	4002
855.256	3968
855.39	4040
855.524	4120
855.658	4131
855.792	4112
855.926	4162
856.06	4207
856.194	4166
856.327	4158
856.461	4162
856.595	4139
856.729	4215
856.862	4272
856.996	4261
857.13	4352
857.263	4363
857.397	4367
857.53	4329
857.664	4367
857.797	4398
857.931	4470
858.064	4371
858.197	4459
858.331	4405
858.464	4390
858.597	4356
858.731	4474
858.864	4440
858.997	4459
859.13	4550
859.263	4546
859.396	4611
859.529	4516
859.662	4519
859.795	4519
859.928	4618
860.061	4698
860.194	4706
860.327	4687
860.46	4664
860.592	4717
860.725	4778
860.858	4839
860.99	4694
861.123	4694
861.256	4698
861.388	4816
861.521	5398
861.653	4752
861.786	4714
861.918	4733
862.05	4801
862.183	4866
862.315	4923
862.447	4923
862.58	4904
862.712	4763
862.844	4828
862.976	4911
863.108	4854
863.24	5296
863.372	4858
863.504	4957
863.636	4892
863.768	4968
863.9	4980
864.032	4934
864.164	4953
864.296	5067
864.428	5064
864.559	5083
864.691	5128
864.823	5105
864.954	5090
865.086	5094
865.217	5174
865.349	5147
865.48	5212
865.612	5197
865.743	5349
865.875	5181
866.006	5273
866.137	5239
866.269	5250
866.4	5299
866.531	5235
866.662	5235
866.793	5254
866.924	5235
867.055	5357
867.186	5349
867.317	5337
867.448	5284
867.579	5368
867.71	5398
867.841	5383
867.972	5512
868.103	5421
868.233	5501
868.364	5490
868.495	5611
868.625	5695
868.756	5783
868.886	5688
869.017	5737
869.147	5828
869.278	5851
869.408	5802
869.539	5885
869.669	5920
869.799	5992
869.929	5996
870.06	6038
870.19	6232
870.32	6243
870.45	6323
870.58	6426
870.71	6475
870.84	6452
870.97	6471
871.1	6532
871.23	6650
871.36	6738
871.489	6654
871.619	6772
871.749	6814
871.879	6844
872.008	6996
872.138	6993
872.267	7000
872.397	7004
872.526	7053
872.656	7149
872.785	7217
872.915	7441
873.044	7548
873.173	7575
873.303	7651
873.432	7750
873.561	7852
873.69	7906
873.819	8077
873.948	8115
874.077	8267
874.206	8393
874.335	8431
874.464	8697
874.593	8830
874.722	8941
874.851	9135
874.979	9317
875.108	9439
875.237	9393
875.365	9530
875.494	9637
875.623	9831
875.751	9846
875.88	9972
876.008	10169
876.136	10280
876.265	10561
876.393	10683
876.521	10748
876.65	10889
876.778	10873
876.906	10900
877.034	10908
877.162	11086
877.29	11143
877.418	11216
877.546	11326
877.674	11490
877.802	11493
877.93	11570
878.058	11585
878.185	11505
878.313	11665
878.441	11756
878.568	11649
878.696	11859
878.824	11828
878.951	11992
879.079	12015
879.206	12121
879.333	12038
879.461	11942
879.588	12133
879.715	12114
879.842	12239
879.97	12095
880.097	11923
880.224	11897
880.351	11969
880.478	11931
880.605	11908
880.732	11904
880.859	12003
880.986	11821
881.112	11931
881.239	11790
881.366	11649
881.493	11638
881.619	11490
881.746	11566
881.872	11581
881.999	11509
882.125	11486
882.252	11566
882.378	11512
882.505	11543
882.631	11391
882.757	11326
882.883	11303
883.01	11216
883.136	11075
883.262	11159
883.388	11102
883.514	11212
883.64	11227
883.766	11067
883.892	11041
884.018	11029
884.143	11064
884.269	11174
884.395	10831
884.52	10786
884.646	10797
884.772	10729
884.897	10714
885.023	10599
885.148	10687
885.274	10862
885.399	10710
885.524	10599
885.65	10653
885.775	10630
885.9	10527
886.025	10584
886.15	10592
886.275	10421
886.4	10356
886.525	10390
886.65	10371
886.775	10363
886.9	10462
887.025	10538
887.149	10344
887.274	10219
887.399	10314
887.523	10276
887.648	10188
887.773	10147
887.897	10246
888.021	10242
888.146	10154
888.27	10227
888.395	10200
888.519	10188
888.643	10268
888.767	10227
888.891	10074
889.015	10051
889.139	10124
889.263	9979
889.387	10166
889.511	10086
889.635	10097
889.759	9998
889.883	9979
890.006	10040
890.13	10086
890.254	9934
890.377	10040
890.501	9937
890.624	9960
890.748	9876
890.871	9785
890.995	9850
891.118	9770
891.241	9797
891.364	9728
891.488	9865
891.611	9785
891.734	9720
891.857	9808
891.98	9679
892.103	9770
892.226	9686
892.349	9656
892.471	9534
892.594	9553
892.717	9690
892.839	9656
892.962	9682
893.085	9667
893.207	9625
893.33	9538
893.452	9511
893.575	9644
893.697	9492
893.819	9675
893.941	9603
894.064	9644
894.186	9477
894.308	9454
894.43	9549
894.552	9572
894.674	9584
894.796	9447
894.918	9428
895.04	9397
895.161	9420
895.283	9306
895.405	9310
895.526	9298
895.648	9336
895.769	9203
895.891	9287
896.012	9268
896.134	9275
896.255	9195
896.376	9104
896.498	9184
896.619	9199
896.74	9135
896.861	9047
896.982	9374
897.103	9344
897.224	9180
897.345	9070
897.466	9047
897.587	9039
897.708	9123
897.828	9043
897.949	8998
898.07	8834
898.19	8986
898.311	9093
898.431	8838
898.552	8861
898.672	9017
898.792	9001
898.913	8883
899.033	8902
899.153	8754
899.273	8712
899.393	8705
899.513	8708
899.633	8705
899.753	8819
899.873	8739
899.993	8686
900.113	8705
900.232	8773
900.352	8708
900.472	8663
900.591	8606
900.711	8670
900.83	8617
900.95	8651
901.069	8655
901.189	8644
901.308	8473
901.427	8438
901.546	8400
901.665	8518
901.784	8564
901.904	8469
902.023	8408
902.141	8263
902.26	8233
902.379	8309
902.498	8221
902.617	8252
902.735	8279
902.854	8267
902.973	8256
903.091	8202
903.21	8096
903.328	8149
903.446	8164
903.565	8058
903.683	8126
903.801	8035
903.919	8088
904.038	8229
904.156	8107
904.274	8111
904.392	8046
904.51	8084
904.627	8069
904.745	8134
904.863	8107
904.981	7986
905.098	7925
905.216	7894
905.334	7955
905.451	7963
905.569	7902
905.686	7921
905.803	7967
905.921	7826
906.038	7883
906.155	7753
906.272	7738
906.389	7753
906.506	7677
906.623	7552
906.74	7677
906.857	7548
906.974	7613
907.091	7681
907.208	7727
907.324	7597
907.441	7613
907.557	7464
907.674	7453
907.79	7419
907.907	7430
908.023	7464
908.139	7457
908.256	7422
908.372	7377
908.488	7335
908.604	7236
908.72	7187
908.836	7285
908.952	7308
909.068	7305
909.184	7343
909.3	7240
909.415	7316
909.531	7312
909.647	7133
909.762	7103
909.878	7091
909.993	7179
910.108	7133
910.224	7061
910.339	7133
910.454	7057
910.57	6993
910.685	6989
910.8	7213
910.915	7114
911.03	7088
911.145	6958
911.259	6920
911.374	6878
911.489	6894
911.604	6848
911.718	6673
911.833	6783
911.947	6688
912.062	6582
912.176	6707
912.291	6700
912.405	6719
912.519	6818
912.633	6825
912.748	6810
912.862	6711
912.976	6658
913.09	6559
913.204	6612
913.318	6658
913.431	6688
913.545	6688
913.659	6795
913.772	6578
913.886	6566
914	6551
914.113	6627
914.226	6623
914.34	6608
914.453	6509
914.566	6616
914.68	6555
914.793	6601
914.906	6410
915.019	6418
915.132	6353
915.245	6433
915.358	6456
915.47	6483
915.583	6403
915.696	6498
915.809	6570
915.921	6544
916.034	6471
916.146	6429
916.259	6353
916.371	6452
916.483	6445
916.595	6410
916.708	6483
916.82	6422
916.932	6452
917.044	6365
917.156	6456
917.268	6361
917.38	6372
917.491	6353
917.603	6388
917.715	6448
917.826	6437
917.938	6429
918.049	6258
918.161	6361
918.272	6403
918.384	6509
918.495	6342
918.606	6285
918.717	6209
918.828	6315
918.939	6315
919.05	6175
919.161	6304
919.272	6148
919.383	6159
919.494	6319
919.604	6441
919.715	6308
919.826	6254
919.936	6258
920.047	6327
920.157	6239
920.267	6506
920.378	6380
920.488	6308
920.598	6445
920.708	6597
920.818	6494
920.928	6502
921.038	6669
921.148	6585
921.258	6376
921.368	6308
921.477	6197
921.587	6194
921.697	6114
921.806	6190
921.916	6106
922.025	5973
922.134	5935
922.244	5882
922.353	5954
922.462	5824
922.571	5779
922.68	5699
922.789	5684
922.898	5726
923.007	5703
923.116	5760
923.224	5684
923.333	5688
923.442	5627
923.55	5554
923.659	5581
923.767	5608
923.876	5547
923.984	5608
924.092	5505
924.201	5551
924.309	5551
924.417	5581
924.525	5520
924.633	5516
924.741	6281
924.849	5402
924.956	5452
925.064	5395
925.172	5334
925.279	5273
925.387	5360
925.494	5364
925.602	5440
925.709	5417
925.816	5269
925.924	5288
926.031	5315
926.138	5284
926.245	5330
926.352	5197
926.459	5318
926.566	5334
926.673	5193
926.779	5083
926.886	5140
926.993	5086
927.099	4984
927.206	4965
927.312	4942
927.419	5045
927.525	5025
927.631	4984
927.737	4908
927.843	4873
927.95	4812
928.056	4866
928.162	4797
928.267	4870
928.373	5402
928.479	4839
928.585	4714
928.69	4774
928.796	4778
928.901	4694
929.007	4607
929.112	4740
929.218	4687
929.323	4649
929.428	4592
929.533	4714
929.638	4500
929.743	4569
929.848	4527
929.953	4577
930.058	4459
930.163	4337
930.267	4337
930.372	4390
930.477	4356
930.581	4500
930.685	4379
930.79	4280
930.894	4310
930.998	4223
931.103	4394
931.207	4131
931.311	4150
931.415	4059
931.519	3949
931.623	3949
