Data from glass_V78500241_1602.txt Node
Date: Wed Sep 01 19:25:36 CST 2021
User: usil
Spectrometer: V785-0024
Trigger mode: 0
Integration Time (sec): 4.000000E-1
Scans to average: 1
Nonlinearity correction enabled: false
Boxcar width: 0
Storing dark spectrum: false
XAxis mode: Wavelengths
Number of Pixels in Spectrum: 1024
>>>>>Begin Spectral Data<<<<<
801.071	3724
801.214	3747
801.356	3679
801.499	3789
801.641	3709
801.783	3793
801.926	3850
802.068	3873
802.211	3854
802.353	3873
802.496	3823
802.638	3873
802.78	3930
802.923	3922
803.065	3903
803.208	3846
803.35	3884
803.492	3850
803.635	3922
803.777	3781
803.919	3892
804.061	4143
804.204	3987
804.346	3968
804.488	3918
804.63	4040
804.773	3941
804.915	4055
805.057	4116
805.199	4032
805.341	4048
805.483	4143
805.626	4162
805.768	4093
805.91	4230
806.052	4265
806.194	4147
806.336	4341
806.478	4207
806.62	4185
806.762	4185
806.904	4272
807.046	4306
807.188	4215
807.33	4200
807.472	4223
807.614	4185
807.756	4196
807.898	4230
808.04	4207
808.182	4291
808.324	4337
808.465	4394
808.607	4459
808.749	4485
808.891	4523
809.033	4519
809.174	4386
809.316	4276
809.458	4215
809.6	4147
809.741	4169
809.883	4109
810.025	4181
810.166	4200
810.308	4169
810.45	4246
810.591	4257
810.733	4287
810.875	4512
811.016	4839
811.158	5124
811.299	5216
811.441	5269
811.582	5113
811.724	4694
811.865	4489
812.007	4447
812.148	4371
812.29	4363
812.431	4348
812.573	4432
812.714	4405
812.855	4417
812.997	4409
813.138	4402
813.279	4417
813.421	4409
813.562	4405
813.703	4322
813.845	4348
813.986	4272
814.127	4227
814.268	4284
814.41	4291
814.551	4291
814.692	4306
814.833	4276
814.974	4295
815.115	4352
815.256	4257
815.397	4291
815.539	4246
815.68	4207
815.821	4234
815.962	4272
816.103	4223
816.244	4246
816.385	4265
816.526	4268
816.666	4215
816.807	4120
816.948	4147
817.089	4204
817.23	4101
817.371	4044
817.512	4044
817.653	4063
817.793	4029
817.934	4040
818.075	4109
818.216	4097
818.356	4112
818.497	3975
818.638	3899
818.778	3911
818.919	3911
819.06	3861
819.2	3903
819.341	3865
819.481	3838
819.622	3865
819.762	4010
819.903	3934
820.043	3854
820.184	3819
820.324	3831
820.465	3857
820.605	3816
820.746	3915
820.886	3797
821.026	3960
821.167	3941
821.307	3960
821.447	4002
821.588	3930
821.728	3949
821.868	3953
822.008	3838
822.149	3918
822.289	3930
822.429	3762
822.569	3774
822.709	3770
822.849	3698
822.99	3701
823.13	3770
823.27	3774
823.41	3698
823.55	3751
823.69	3717
823.83	3724
823.97	3686
824.11	3618
824.25	3580
824.389	3618
824.529	3698
824.669	3595
824.809	3720
824.949	3736
825.089	3762
825.228	3698
825.368	3584
825.508	3568
825.648	3545
825.787	3618
825.927	3603
826.067	3663
826.206	3633
826.346	3766
826.485	3846
826.625	3827
826.765	3930
826.904	3869
827.044	3618
827.183	3511
827.323	3447
827.462	3492
827.601	3409
827.741	3458
827.88	3439
828.02	3378
828.159	3447
828.298	3477
828.437	3542
828.577	3466
828.716	3587
828.855	3526
828.994	3359
829.134	3370
829.273	3393
829.412	3351
829.551	3355
829.69	3378
829.829	3401
829.968	3488
830.107	3435
830.246	3458
830.385	3397
830.524	3325
830.663	3298
830.802	3272
830.941	3230
831.08	3195
831.219	3298
831.357	3245
831.496	3378
831.635	3272
831.774	3188
831.913	3176
832.051	3131
832.19	3146
832.329	3165
832.467	3138
832.606	3100
832.744	3150
832.883	3165
833.022	3176
833.16	3249
833.299	3310
833.437	3344
833.576	3363
833.714	3382
833.852	3431
833.991	3450
834.129	3462
834.267	3462
834.406	3431
834.544	3405
834.682	3428
834.821	3412
834.959	3603
835.097	3401
835.235	3530
835.373	3477
835.511	3435
835.65	3412
835.788	3492
835.926	3424
836.064	3397
836.202	3370
836.34	3561
836.478	3576
836.615	3530
836.753	3599
836.891	3671
837.029	3603
837.167	3595
837.305	3580
837.443	3526
837.58	3519
837.718	3595
837.856	3549
837.993	3515
838.131	3629
838.269	3584
838.406	3576
838.544	3564
838.681	3469
838.819	3435
838.956	3401
839.094	3386
839.231	3405
839.369	3542
839.506	3732
839.643	3591
839.781	3462
839.918	3515
840.055	3530
840.193	3545
840.33	3511
840.467	3549
840.604	3595
840.742	3770
840.879	3534
841.016	3545
841.153	3599
841.29	3736
841.427	3736
841.564	3747
841.701	3679
841.838	3705
841.975	3705
842.112	3740
842.249	3614
842.385	3629
842.522	3816
842.659	3633
842.796	3675
842.933	3705
843.069	3720
843.206	3720
843.343	3838
843.479	3774
843.616	3831
843.752	3686
843.889	3698
844.025	3846
844.162	3728
844.298	3831
844.435	3827
844.571	3789
844.708	3876
844.844	3968
844.98	4006
845.117	4006
845.253	3915
845.389	3907
845.525	3979
845.661	4002
845.798	3975
845.934	4010
846.07	3975
846.206	4048
846.342	4128
846.478	4040
846.614	3991
846.75	3926
846.886	3934
847.022	4032
847.158	3983
847.294	3991
847.429	3994
847.565	3964
847.701	4230
847.837	3915
847.972	3857
848.108	3987
848.244	3968
848.379	3838
848.515	3781
848.65	3797
848.786	3838
848.921	3842
849.057	3926
849.192	3968
849.328	3892
849.463	3899
849.598	3888
849.734	3880
849.869	3876
850.004	3789
850.14	3797
850.275	3789
850.41	3778
850.545	3762
850.68	3797
850.815	3793
850.95	3747
851.085	3907
851.22	3888
851.355	3846
851.49	3785
851.625	3797
851.76	3804
851.895	3785
852.03	3724
852.165	3812
852.299	3854
852.434	3915
852.569	3880
852.703	3918
852.838	3918
852.973	3960
853.107	3972
853.242	3907
853.376	3861
853.511	3785
853.645	3831
853.78	3911
853.914	3899
854.048	3903
854.183	3857
854.317	3930
854.451	4093
854.585	3968
854.72	3937
854.854	4071
854.988	3949
855.122	4029
855.256	3918
855.39	4010
855.524	4105
855.658	4109
855.792	4097
855.926	4128
856.06	4196
856.194	4188
856.327	4124
856.461	4105
856.595	4166
856.729	4166
856.862	4219
856.996	4272
857.13	4295
857.263	4299
857.397	4337
857.53	4253
857.664	4386
857.797	4360
857.931	4417
858.064	4398
858.197	4478
858.331	4424
858.464	4348
858.597	4310
858.731	4474
858.864	4489
858.997	4428
859.13	4546
859.263	4535
859.396	4596
859.529	4531
859.662	4527
859.795	4558
859.928	4626
860.061	4721
860.194	4744
860.327	4664
860.46	4611
860.592	4706
860.725	4828
860.858	4759
860.99	4714
861.123	4637
861.256	4675
861.388	4786
861.521	5520
861.653	4729
861.786	4736
861.918	4778
862.05	4820
862.183	4835
862.315	4919
862.447	4965
862.58	4839
862.712	4763
862.844	4763
862.976	4835
863.108	4881
863.24	5212
863.372	4854
863.504	4904
863.636	4915
863.768	4942
863.9	4949
864.032	4934
864.164	4972
864.296	4995
864.428	5094
864.559	5079
864.691	5117
864.823	5151
864.954	5098
865.086	5162
865.217	5109
865.349	5113
865.48	5174
865.612	5162
865.743	5288
865.875	5231
866.006	5227
866.137	5212
866.269	5220
866.4	5197
866.531	5227
866.662	5250
866.793	5322
866.924	5212
867.055	5284
867.186	5322
867.317	5280
867.448	5326
867.579	5398
867.71	5353
867.841	5357
867.972	5452
868.103	5493
868.233	5440
868.364	5490
868.495	5562
868.625	5600
868.756	5764
868.886	5665
869.017	5745
869.147	5809
869.278	5863
869.408	5824
869.539	5821
869.669	5923
869.799	5889
869.929	5988
870.06	6007
870.19	6178
870.32	6171
870.45	6232
870.58	6300
870.71	6460
870.84	6437
870.97	6437
871.1	6407
871.23	6673
871.36	6681
871.489	6642
871.619	6730
871.749	6856
871.879	6844
872.008	6977
872.138	7031
872.267	7012
872.397	6932
872.526	7008
872.656	7168
872.785	7187
872.915	7324
873.044	7506
873.173	7537
873.303	7662
873.432	7769
873.561	7845
873.69	7864
873.819	8043
873.948	8206
874.077	8229
874.206	8320
874.335	8484
874.464	8651
874.593	8914
874.722	8944
874.851	9062
874.979	9264
875.108	9408
875.237	9420
875.365	9416
875.494	9682
875.623	9838
875.751	9922
875.88	9975
876.008	10143
876.136	10306
876.265	10599
876.393	10698
876.521	10763
876.65	10778
876.778	10930
876.906	10900
877.034	10949
877.162	11079
877.29	11174
877.418	11326
877.546	11341
877.674	11448
877.802	11452
877.93	11558
878.058	11558
878.185	11688
878.313	11691
878.441	11733
878.568	11672
878.696	11824
878.824	11901
878.951	11961
879.079	12041
879.206	12121
879.333	12057
879.461	12003
879.588	12053
879.715	12087
879.842	12235
879.97	11999
880.097	11802
880.224	11908
880.351	11946
880.478	11916
880.605	11748
880.732	11767
880.859	11996
880.986	11809
881.112	11779
881.239	11756
881.366	11726
881.493	11539
881.619	11611
881.746	11524
881.872	11505
881.999	11452
882.125	11455
882.252	11573
882.378	11440
882.505	11509
882.631	11360
882.757	11269
882.883	11345
883.01	11189
883.136	11201
883.262	11045
883.388	11181
883.514	11220
883.64	11159
883.766	11067
883.892	10972
884.018	11033
884.143	11124
884.269	11155
884.395	10877
884.52	10706
884.646	10828
884.772	10672
884.897	10653
885.023	10637
885.148	10660
885.274	10759
885.399	10752
885.524	10573
885.65	10626
885.775	10596
885.9	10580
886.025	10599
886.15	10596
886.275	10413
886.4	10405
886.525	10375
886.65	10432
886.775	10360
886.9	10558
887.025	10497
887.149	10352
887.274	10227
887.399	10215
887.523	10109
887.648	10181
887.773	10093
887.897	10268
888.021	10238
888.146	10059
888.27	10192
888.395	10177
888.519	10181
888.643	10200
888.767	10162
888.891	10124
889.015	10013
889.139	10112
889.263	9915
889.387	10093
889.511	10067
889.635	10059
889.759	10006
889.883	9953
890.006	10051
890.13	10116
890.254	10017
890.377	9975
890.501	9857
890.624	9857
890.748	9934
890.871	9793
890.995	9747
891.118	9774
891.241	9812
891.364	9717
891.488	9857
891.611	9720
891.734	9736
891.857	9797
891.98	9743
892.103	9819
892.226	9717
892.349	9686
892.471	9504
892.594	9584
892.717	9625
892.839	9595
892.962	9580
893.085	9557
893.207	9610
893.33	9485
893.452	9439
893.575	9580
893.697	9504
893.819	9663
893.941	9599
894.064	9633
894.186	9412
894.308	9473
894.43	9553
894.552	9656
894.674	9568
894.796	9389
894.918	9424
895.04	9302
895.161	9374
895.283	9348
895.405	9195
895.526	9260
895.648	9230
895.769	9233
895.891	9268
896.012	9294
896.134	9188
896.255	9214
896.376	9108
896.498	9199
896.619	9165
896.74	9131
896.861	9108
896.982	9245
897.103	9298
897.224	9127
897.345	9066
897.466	9043
897.587	9058
897.708	9074
897.828	9066
897.949	8929
898.07	8880
898.19	8929
898.311	9020
898.431	8853
898.552	8960
898.672	8948
898.792	8887
898.913	8944
899.033	8842
899.153	8807
899.273	8708
899.393	8750
899.513	8716
899.633	8743
899.753	8807
899.873	8697
899.993	8727
900.113	8750
900.232	8758
900.352	8689
900.472	8602
900.591	8568
900.711	8644
900.83	8541
900.95	8659
901.069	8724
901.189	8541
901.308	8438
901.427	8404
901.546	8454
901.665	8560
901.784	8503
901.904	8396
902.023	8320
902.141	8195
902.26	8210
902.379	8259
902.498	8191
902.617	8157
902.735	8298
902.854	8259
902.973	8286
903.091	8138
903.21	8065
903.328	8180
903.446	8119
903.565	8100
903.683	8088
903.801	8020
903.919	8191
904.038	8168
904.156	8043
904.274	8130
904.392	7955
904.51	8046
904.627	8043
904.745	8039
904.863	8027
904.981	7940
905.098	7890
905.216	7909
905.334	7963
905.451	7951
905.569	7852
905.686	7947
905.803	7826
905.921	7723
906.038	7852
906.155	7818
906.272	7757
906.389	7693
906.506	7632
906.623	7624
906.74	7563
906.857	7582
906.974	7597
907.091	7723
907.208	7681
907.324	7666
907.441	7609
907.557	7502
907.674	7407
907.79	7377
907.907	7384
908.023	7506
908.139	7415
908.256	7430
908.372	7422
908.488	7289
908.604	7236
908.72	7236
908.836	7308
908.952	7221
909.068	7225
909.184	7331
909.3	7278
909.415	7297
909.531	7301
909.647	7175
909.762	7065
909.878	7061
909.993	7152
910.108	7110
910.224	7091
910.339	7091
910.454	7065
910.57	7038
910.685	6993
910.8	7156
910.915	7118
911.03	7008
911.145	6924
911.259	6867
911.374	6871
911.489	6875
911.604	6825
911.718	6692
911.833	6730
911.947	6700
912.062	6597
912.176	6692
912.291	6692
912.405	6662
912.519	6802
912.633	6825
912.748	6734
912.862	6719
912.976	6593
913.09	6445
913.204	6582
913.318	6646
913.431	6665
913.545	6654
913.659	6700
913.772	6631
913.886	6559
914	6509
914.113	6627
914.226	6654
914.34	6559
914.453	6486
914.566	6578
914.68	6532
914.793	6528
914.906	6407
915.019	6407
915.132	6403
915.245	6353
915.358	6441
915.47	6422
915.583	6490
915.696	6467
915.809	6506
915.921	6559
916.034	6410
916.146	6369
916.259	6456
916.371	6475
916.483	6475
916.595	6334
916.708	6403
916.82	6372
916.932	6380
917.044	6441
917.156	6433
917.268	6357
917.38	6342
917.491	6308
917.603	6369
917.715	6403
917.826	6452
917.938	6273
918.049	6201
918.161	6361
918.272	6361
918.384	6460
918.495	6327
918.606	6289
918.717	6190
918.828	6311
918.939	6296
919.05	6175
919.161	6213
919.272	6114
919.383	6159
919.494	6331
919.604	6452
919.715	6296
919.826	6201
919.936	6224
920.047	6315
920.157	6235
920.267	6429
920.378	6353
920.488	6239
920.598	6452
920.708	6528
920.818	6498
920.928	6437
921.038	6669
921.148	6547
921.258	6334
921.368	6315
921.477	6175
921.587	6186
921.697	6110
921.806	6197
921.916	6026
922.025	6022
922.134	5927
922.244	5897
922.353	5931
922.462	5893
922.571	5813
922.68	5680
922.789	5714
922.898	5718
923.007	5554
923.116	5756
923.224	5646
923.333	5611
923.442	5581
923.55	5566
923.659	5611
923.767	5615
923.876	5634
923.984	5577
924.092	5520
924.201	5539
924.309	5547
924.417	5630
924.525	5474
924.633	5474
924.741	6277
924.849	5372
924.956	5474
925.064	5353
925.172	5296
925.279	5360
925.387	5353
925.494	5341
925.602	5463
925.709	5387
925.816	5227
925.924	5330
926.031	5383
926.138	5337
926.245	5353
926.352	5277
926.459	5292
926.566	5353
926.673	5204
926.779	5124
926.886	5159
926.993	5018
927.099	5010
927.206	4946
927.312	4946
927.419	4976
927.525	5022
927.631	4968
927.737	4904
927.843	4862
927.95	4782
928.056	4828
928.162	4793
928.267	4839
928.373	5330
928.479	4896
928.585	4645
928.69	4774
928.796	4790
928.901	4675
929.007	4615
929.112	4717
929.218	4653
929.323	4618
929.428	4573
929.533	4691
929.638	4481
929.743	4554
929.848	4550
929.953	4493
930.058	4455
930.163	4314
930.267	4390
930.372	4432
930.477	4322
930.581	4451
930.685	4390
930.79	4207
930.894	4295
930.998	4234
931.103	4356
931.207	4131
931.311	4078
931.415	4017
931.519	3949
931.623	3922
