Data from glass_V78500241_1887.txt Node
Date: Wed Sep 01 19:27:34 CST 2021
User: usil
Spectrometer: V785-0024
Trigger mode: 0
Integration Time (sec): 4.000000E-1
Scans to average: 1
Nonlinearity correction enabled: false
Boxcar width: 0
Storing dark spectrum: false
XAxis mode: Wavelengths
Number of Pixels in Spectrum: 1024
>>>>>Begin Spectral Data<<<<<
801.071	3770
801.214	3759
801.356	3705
801.499	3724
801.641	3724
801.783	3774
801.926	3800
802.068	3816
802.211	3861
802.353	3861
802.496	3838
802.638	3896
802.78	3915
802.923	3953
803.065	3865
803.208	3854
803.35	3869
803.492	3869
803.635	3892
803.777	3812
803.919	3915
804.061	4101
804.204	3972
804.346	3930
804.488	3899
804.63	4013
804.773	4025
804.915	4059
805.057	4120
805.199	4040
805.341	4109
805.483	4147
805.626	4124
805.768	4109
805.91	4253
806.052	4223
806.194	4166
806.336	4367
806.478	4181
806.62	4150
806.762	4196
806.904	4253
807.046	4352
807.188	4192
807.33	4147
807.472	4234
807.614	4188
807.756	4253
807.898	4196
808.04	4215
808.182	4306
808.324	4314
808.465	4375
808.607	4440
808.749	4478
808.891	4474
809.033	4489
809.174	4363
809.316	4272
809.458	4227
809.6	4177
809.741	4154
809.883	4109
810.025	4249
810.166	4246
810.308	4185
810.45	4230
810.591	4230
810.733	4276
810.875	4478
811.016	4839
811.158	5124
811.299	5197
811.441	5261
811.582	5037
811.724	4714
811.865	4443
812.007	4447
812.148	4451
812.29	4432
812.431	4443
812.573	4417
812.714	4348
812.855	4443
812.997	4405
813.138	4436
813.279	4421
813.421	4379
813.562	4352
813.703	4329
813.845	4325
813.986	4261
814.127	4230
814.268	4234
814.41	4310
814.551	4219
814.692	4363
814.833	4291
814.974	4276
815.115	4371
815.256	4276
815.397	4280
815.539	4261
815.68	4169
815.821	4238
815.962	4299
816.103	4234
816.244	4215
816.385	4261
816.526	4303
816.666	4188
816.807	4082
816.948	4131
817.089	4230
817.23	4101
817.371	4082
817.512	4051
817.653	4063
817.793	4040
817.934	4013
818.075	4078
818.216	4074
818.356	4051
818.497	3975
818.638	3884
818.778	3918
818.919	3903
819.06	3854
819.2	3937
819.341	3785
819.481	3819
819.622	3930
819.762	3979
819.903	3937
820.043	3899
820.184	3873
820.324	3778
820.465	3876
820.605	3873
820.746	3850
820.886	3808
821.026	3884
821.167	3918
821.307	3964
821.447	3972
821.588	3918
821.728	3953
821.868	3915
822.008	3838
822.149	3911
822.289	3873
822.429	3770
822.569	3762
822.709	3808
822.849	3717
822.99	3720
823.13	3785
823.27	3743
823.41	3717
823.55	3705
823.69	3724
823.83	3701
823.97	3667
824.11	3618
824.25	3572
824.389	3610
824.529	3679
824.669	3663
824.809	3709
824.949	3755
825.089	3747
825.228	3667
825.368	3568
825.508	3545
825.648	3587
825.787	3648
825.927	3614
826.067	3580
826.206	3701
826.346	3774
826.485	3857
826.625	3911
826.765	3945
826.904	3857
827.044	3622
827.183	3530
827.323	3416
827.462	3481
827.601	3382
827.741	3401
827.88	3450
828.02	3363
828.159	3458
828.298	3473
828.437	3485
828.577	3435
828.716	3603
828.855	3469
828.994	3389
829.134	3389
829.273	3382
829.412	3283
829.551	3367
829.69	3355
829.829	3409
829.968	3534
830.107	3469
830.246	3420
830.385	3386
830.524	3355
830.663	3283
830.802	3260
830.941	3199
831.08	3207
831.219	3245
831.357	3237
831.496	3416
831.635	3237
831.774	3199
831.913	3199
832.051	3093
832.19	3142
832.329	3188
832.467	3135
832.606	3085
832.744	3203
832.883	3203
833.022	3169
833.16	3253
833.299	3294
833.437	3306
833.576	3367
833.714	3401
833.852	3443
833.991	3424
834.129	3477
834.267	3447
834.406	3412
834.544	3405
834.682	3431
834.821	3382
834.959	3545
835.097	3405
835.235	3519
835.373	3504
835.511	3481
835.65	3492
835.788	3466
835.926	3367
836.064	3401
836.202	3389
836.34	3523
836.478	3614
836.615	3557
836.753	3587
836.891	3622
837.029	3603
837.167	3576
837.305	3595
837.443	3534
837.58	3447
837.718	3580
837.856	3557
837.993	3511
838.131	3637
838.269	3591
838.406	3584
838.544	3568
838.681	3477
838.819	3462
838.956	3420
839.094	3428
839.231	3428
839.369	3481
839.506	3724
839.643	3637
839.781	3485
839.918	3435
840.055	3568
840.193	3553
840.33	3526
840.467	3576
840.604	3584
840.742	3759
840.879	3496
841.016	3538
841.153	3599
841.29	3770
841.427	3701
841.564	3728
841.701	3713
841.838	3720
841.975	3698
842.112	3724
842.249	3656
842.385	3625
842.522	3785
842.659	3679
842.796	3663
842.933	3694
843.069	3713
843.206	3732
843.343	3812
843.479	3743
843.616	3827
843.752	3690
843.889	3694
844.025	3842
844.162	3705
844.298	3804
844.435	3709
844.571	3793
844.708	3926
844.844	3994
844.98	4010
845.117	3979
845.253	3884
845.389	3907
845.525	3956
845.661	3934
845.798	3915
845.934	3998
846.07	3949
846.206	4090
846.342	4105
846.478	4059
846.614	3998
846.75	3934
846.886	3903
847.022	4074
847.158	4002
847.294	4021
847.429	4021
847.565	3998
847.701	4227
847.837	3892
847.972	3876
848.108	4010
848.244	3953
848.379	3865
848.515	3808
848.65	3797
848.786	3888
848.921	3850
849.057	3937
849.192	3926
849.328	3934
849.463	3956
849.598	3892
849.734	3816
849.869	3835
850.004	3804
850.14	3831
850.275	3759
850.41	3717
850.545	3713
850.68	3838
850.815	3789
850.95	3835
851.085	3915
851.22	3842
851.355	3880
851.49	3766
851.625	3785
851.76	3819
851.895	3751
852.03	3720
852.165	3778
852.299	3850
852.434	3861
852.569	3857
852.703	3918
852.838	3911
852.973	4013
853.107	3972
853.242	3899
853.376	3854
853.511	3720
853.645	3797
853.78	3945
853.914	3873
854.048	3884
854.183	3865
854.317	3926
854.451	4082
854.585	3991
854.72	3968
854.854	4048
854.988	3953
855.122	3991
855.256	3884
855.39	4048
855.524	4086
855.658	4074
855.792	4078
855.926	4124
856.06	4173
856.194	4173
856.327	4158
856.461	4124
856.595	4166
856.729	4181
856.862	4299
856.996	4249
857.13	4325
857.263	4310
857.397	4363
857.53	4272
857.664	4371
857.797	4390
857.931	4398
858.064	4394
858.197	4417
858.331	4421
858.464	4367
858.597	4318
858.731	4428
858.864	4440
858.997	4421
859.13	4546
859.263	4519
859.396	4573
859.529	4519
859.662	4558
859.795	4546
859.928	4561
860.061	4653
860.194	4771
860.327	4637
860.46	4645
860.592	4752
860.725	4759
860.858	4774
860.99	4729
861.123	4641
861.256	4714
861.388	4793
861.521	5368
861.653	4706
861.786	4698
861.918	4702
862.05	4733
862.183	4843
862.315	4854
862.447	4999
862.58	4870
862.712	4809
862.844	4767
862.976	4885
863.108	4923
863.24	5140
863.372	4809
863.504	4881
863.636	4828
863.768	4961
863.9	4927
864.032	4911
864.164	4980
864.296	5029
864.428	5094
864.559	5124
864.691	5064
864.823	5113
864.954	5098
865.086	5105
865.217	5113
865.349	5067
865.48	5185
865.612	5162
865.743	5284
865.875	5181
866.006	5189
866.137	5204
866.269	5212
866.4	5242
866.531	5208
866.662	5231
866.793	5322
866.924	5254
867.055	5322
867.186	5322
867.317	5368
867.448	5299
867.579	5353
867.71	5372
867.841	5376
867.972	5417
868.103	5406
868.233	5478
868.364	5493
868.495	5501
868.625	5642
868.756	5790
868.886	5657
869.017	5752
869.147	5828
869.278	5855
869.408	5855
869.539	5779
869.669	5893
869.799	5893
869.929	6041
870.06	6003
870.19	6144
870.32	6228
870.45	6262
870.58	6315
870.71	6460
870.84	6494
870.97	6331
871.1	6467
871.23	6696
871.36	6650
871.489	6612
871.619	6757
871.749	6810
871.879	6852
872.008	6981
872.138	7000
872.267	6958
872.397	7031
872.526	7008
872.656	7095
872.785	7183
872.915	7388
873.044	7506
873.173	7582
873.303	7655
873.432	7712
873.561	7909
873.69	7906
873.819	8069
873.948	8183
874.077	8237
874.206	8263
874.335	8499
874.464	8621
874.593	8864
874.722	8918
874.851	9089
874.979	9199
875.108	9351
875.237	9458
875.365	9458
875.494	9599
875.623	9819
875.751	9846
875.88	10044
876.008	10154
876.136	10192
876.265	10550
876.393	10702
876.521	10649
876.65	10828
876.778	10801
876.906	10927
877.034	10892
877.162	11064
877.29	11143
877.418	11265
877.546	11292
877.674	11406
877.802	11471
877.93	11543
878.058	11509
878.185	11577
878.313	11657
878.441	11718
878.568	11600
878.696	11779
878.824	11851
878.951	11969
879.079	11950
879.206	12133
879.333	12076
879.461	11931
879.588	12015
879.715	12053
879.842	12144
879.97	12095
880.097	11855
880.224	11832
880.351	11855
880.478	11931
880.605	11828
880.732	11897
880.859	12072
880.986	11783
881.112	11809
881.239	11737
881.366	11714
881.493	11589
881.619	11493
881.746	11554
881.872	11585
881.999	11581
882.125	11535
882.252	11520
882.378	11566
882.505	11619
882.631	11395
882.757	11227
882.883	11311
883.01	11254
883.136	11162
883.262	11079
883.388	11071
883.514	11181
883.64	11155
883.766	11105
883.892	10987
884.018	11014
884.143	11105
884.269	11117
884.395	10812
884.52	10820
884.646	10797
884.772	10691
884.897	10596
885.023	10675
885.148	10672
885.274	10820
885.399	10786
885.524	10554
885.65	10679
885.775	10599
885.9	10611
886.025	10569
886.15	10611
886.275	10382
886.4	10409
886.525	10356
886.65	10341
886.775	10421
886.9	10489
887.025	10550
887.149	10337
887.274	10284
887.399	10143
887.523	10227
887.648	10086
887.773	10013
887.897	10238
888.021	10223
888.146	10131
888.27	10238
888.395	10192
888.519	10188
888.643	10246
888.767	10204
888.891	10090
889.015	10029
889.139	10101
889.263	9975
889.387	10078
889.511	10128
889.635	10071
889.759	9964
889.883	9979
890.006	9930
890.13	10032
890.254	9945
890.377	9884
890.501	9903
890.624	9865
890.748	9838
890.871	9778
890.995	9793
891.118	9705
891.241	9751
891.364	9690
891.488	9838
891.611	9751
891.734	9755
891.857	9785
891.98	9694
892.103	9789
892.226	9663
892.349	9686
892.471	9469
892.594	9584
892.717	9671
892.839	9584
892.962	9568
893.085	9663
893.207	9603
893.33	9435
893.452	9469
893.575	9542
893.697	9435
893.819	9538
893.941	9614
894.064	9572
894.186	9439
894.308	9412
894.43	9534
894.552	9519
894.674	9561
894.796	9336
894.918	9496
895.04	9260
895.161	9420
895.283	9355
895.405	9310
895.526	9264
895.648	9203
895.769	9237
895.891	9256
896.012	9291
896.134	9127
896.255	9150
896.376	9108
896.498	9173
896.619	9077
896.74	9108
896.861	9146
896.982	9321
897.103	9283
897.224	9180
897.345	9024
897.466	8956
897.587	9009
897.708	9108
897.828	9032
897.949	8941
898.07	8838
898.19	8899
898.311	9024
898.431	8838
898.552	8906
898.672	8971
898.792	8960
898.913	8929
899.033	8819
899.153	8762
899.273	8621
899.393	8727
899.513	8743
899.633	8708
899.753	8735
899.873	8720
899.993	8746
900.113	8678
900.232	8701
900.352	8667
900.472	8575
900.591	8556
900.711	8617
900.83	8492
900.95	8625
901.069	8686
901.189	8514
901.308	8415
901.427	8362
901.546	8469
901.665	8431
901.784	8457
901.904	8377
902.023	8332
902.141	8229
902.26	8210
902.379	8332
902.498	8187
902.617	8202
902.735	8324
902.854	8248
902.973	8240
903.091	8145
903.21	8062
903.328	8145
903.446	8103
903.565	8065
903.683	8065
903.801	8020
903.919	8092
904.038	8161
904.156	8123
904.274	8096
904.392	8088
904.51	8058
904.627	8035
904.745	8123
904.863	8081
904.981	7978
905.098	7898
905.216	7917
905.334	7898
905.451	7902
905.569	7845
905.686	7955
905.803	7856
905.921	7795
906.038	7792
906.155	7837
906.272	7712
906.389	7746
906.506	7609
906.623	7582
906.74	7605
906.857	7510
906.974	7552
907.091	7666
907.208	7674
907.324	7655
907.441	7548
907.557	7468
907.674	7400
907.79	7438
907.907	7354
908.023	7449
908.139	7411
908.256	7449
908.372	7369
908.488	7377
908.604	7282
908.72	7187
908.836	7251
908.952	7228
909.068	7213
909.184	7301
909.3	7274
909.415	7255
909.531	7194
909.647	7152
909.762	7099
909.878	7099
909.993	7122
910.108	7110
910.224	7110
910.339	7152
910.454	7091
910.57	6977
910.685	6966
910.8	7179
910.915	7126
911.03	7038
911.145	6859
911.259	6909
911.374	6909
911.489	6829
911.604	6818
911.718	6760
911.833	6749
911.947	6658
912.062	6582
912.176	6707
912.291	6738
912.405	6662
912.519	6734
912.633	6821
912.748	6806
912.862	6677
912.976	6677
913.09	6479
913.204	6536
913.318	6593
913.431	6715
913.545	6642
913.659	6646
913.772	6604
913.886	6559
914	6555
914.113	6612
914.226	6620
914.34	6627
914.453	6544
914.566	6604
914.68	6551
914.793	6490
914.906	6418
915.019	6403
915.132	6384
915.245	6426
915.358	6422
915.47	6437
915.583	6460
915.696	6403
915.809	6528
915.921	6551
916.034	6418
916.146	6441
916.259	6391
916.371	6456
916.483	6433
916.595	6403
916.708	6399
916.82	6399
916.932	6346
917.044	6422
917.156	6380
917.268	6308
917.38	6311
917.491	6289
917.603	6372
917.715	6357
917.826	6376
917.938	6273
918.049	6209
918.161	6319
918.272	6399
918.384	6426
918.495	6331
918.606	6262
918.717	6209
918.828	6296
918.939	6277
919.05	6197
919.161	6273
919.272	6144
919.383	6178
919.494	6277
919.604	6429
919.715	6292
919.826	6209
919.936	6308
920.047	6296
920.157	6334
920.267	6433
920.378	6304
920.488	6323
920.598	6479
920.708	6555
920.818	6445
920.928	6460
921.038	6585
921.148	6544
921.258	6338
921.368	6296
921.477	6175
921.587	6197
921.697	6076
921.806	6167
921.916	6011
922.025	5961
922.134	5893
922.244	5870
922.353	5912
922.462	5844
922.571	5756
922.68	5733
922.789	5665
922.898	5729
923.007	5615
923.116	5691
923.224	5611
923.333	5729
923.442	5611
923.55	5570
923.659	5611
923.767	5634
923.876	5551
923.984	5570
924.092	5528
924.201	5585
924.309	5535
924.417	5532
924.525	5474
924.633	5524
924.741	6327
924.849	5364
924.956	5459
925.064	5360
925.172	5296
925.279	5315
925.387	5311
925.494	5326
925.602	5402
925.709	5353
925.816	5273
925.924	5311
926.031	5341
926.138	5231
926.245	5357
926.352	5212
926.459	5299
926.566	5337
926.673	5208
926.779	5170
926.886	5105
926.993	5006
927.099	4995
927.206	4961
927.312	4930
927.419	4984
927.525	4995
927.631	4957
927.737	4866
927.843	4877
927.95	4740
928.056	4866
928.162	4805
928.267	4873
928.373	5269
928.479	4831
928.585	4649
928.69	4736
928.796	4767
928.901	4641
929.007	4565
929.112	4641
929.218	4603
929.323	4618
929.428	4558
929.533	4675
929.638	4504
929.743	4519
929.848	4565
929.953	4512
930.058	4451
930.163	4246
930.267	4367
930.372	4447
930.477	4295
930.581	4470
930.685	4356
930.79	4291
930.894	4276
930.998	4242
931.103	4405
931.207	4112
931.311	4093
931.415	4021
931.519	3915
931.623	3884
