Data from glass_V78500241_396.txt Node
Date: Wed Sep 01 19:17:14 CST 2021
User: usil
Spectrometer: V785-0024
Trigger mode: 0
Integration Time (sec): 4.000000E-1
Scans to average: 1
Nonlinearity correction enabled: false
Boxcar width: 0
Storing dark spectrum: false
XAxis mode: Wavelengths
Number of Pixels in Spectrum: 1024
>>>>>Begin Spectral Data<<<<<
801.071	3701
801.214	3759
801.356	3720
801.499	3759
801.641	3751
801.783	3819
801.926	3869
802.068	3846
802.211	3869
802.353	3941
802.496	3857
802.638	3896
802.78	3884
802.923	3968
803.065	3903
803.208	3892
803.35	3842
803.492	3945
803.635	3922
803.777	3816
803.919	3915
804.061	4158
804.204	3949
804.346	3975
804.488	3899
804.63	4036
804.773	3991
804.915	4074
805.057	4131
805.199	4109
805.341	4139
805.483	4150
805.626	4139
805.768	4143
805.91	4253
806.052	4291
806.194	4215
806.336	4337
806.478	4253
806.62	4215
806.762	4200
806.904	4291
807.046	4337
807.188	4204
807.33	4215
807.472	4238
807.614	4207
807.756	4265
807.898	4249
808.04	4234
808.182	4303
808.324	4348
808.465	4352
808.607	4455
808.749	4485
808.891	4470
809.033	4504
809.174	4428
809.316	4299
809.458	4234
809.6	4147
809.741	4177
809.883	4158
810.025	4261
810.166	4223
810.308	4249
810.45	4261
810.591	4246
810.733	4348
810.875	4523
811.016	4820
811.158	5143
811.299	5303
811.441	5250
811.582	5079
811.724	4710
811.865	4451
812.007	4466
812.148	4417
812.29	4455
812.431	4421
812.573	4436
812.714	4386
812.855	4432
812.997	4405
813.138	4516
813.279	4413
813.421	4432
813.562	4325
813.703	4337
813.845	4310
813.986	4253
814.127	4253
814.268	4284
814.41	4303
814.551	4284
814.692	4348
814.833	4272
814.974	4268
815.115	4367
815.256	4261
815.397	4272
815.539	4253
815.68	4211
815.821	4261
815.962	4287
816.103	4322
816.244	4287
816.385	4230
816.526	4272
816.666	4234
816.807	4124
816.948	4128
817.089	4177
817.23	4082
817.371	4025
817.512	4105
817.653	4109
817.793	4067
817.934	4074
818.075	4093
818.216	4109
818.356	4063
818.497	3991
818.638	3911
818.778	3949
818.919	3903
819.06	3903
819.2	3915
819.341	3876
819.481	3827
819.622	3896
819.762	4078
819.903	3949
820.043	3869
820.184	3842
820.324	3846
820.465	3899
820.605	3861
820.746	3899
820.886	3778
821.026	3964
821.167	3918
821.307	3998
821.447	4025
821.588	3987
821.728	3994
821.868	3964
822.008	3884
822.149	3968
822.289	3899
822.429	3819
822.569	3800
822.709	3778
822.849	3663
822.99	3720
823.13	3793
823.27	3770
823.41	3751
823.55	3713
823.69	3679
823.83	3778
823.97	3698
824.11	3622
824.25	3610
824.389	3656
824.529	3709
824.669	3644
824.809	3751
824.949	3823
825.089	3728
825.228	3686
825.368	3622
825.508	3595
825.648	3549
825.787	3603
825.927	3591
826.067	3679
826.206	3679
826.346	3797
826.485	3831
826.625	3892
826.765	3934
826.904	3846
827.044	3660
827.183	3534
827.323	3443
827.462	3477
827.601	3477
827.741	3481
827.88	3515
828.02	3416
828.159	3439
828.298	3504
828.437	3519
828.577	3466
828.716	3618
828.855	3473
828.994	3378
829.134	3382
829.273	3409
829.412	3382
829.551	3332
829.69	3397
829.829	3488
829.968	3515
830.107	3435
830.246	3416
830.385	3405
830.524	3389
830.663	3306
830.802	3275
830.941	3195
831.08	3203
831.219	3256
831.357	3272
831.496	3424
831.635	3241
831.774	3192
831.913	3214
832.051	3150
832.19	3150
832.329	3230
832.467	3180
832.606	3138
832.744	3169
832.883	3192
833.022	3207
833.16	3272
833.299	3272
833.437	3355
833.576	3389
833.714	3397
833.852	3431
833.991	3431
834.129	3469
834.267	3466
834.406	3393
834.544	3431
834.682	3435
834.821	3466
834.959	3603
835.097	3405
835.235	3488
835.373	3504
835.511	3526
835.65	3477
835.788	3564
835.926	3428
836.064	3412
836.202	3363
836.34	3610
836.478	3614
836.615	3584
836.753	3622
836.891	3679
837.029	3610
837.167	3622
837.305	3587
837.443	3576
837.58	3504
837.718	3584
837.856	3595
837.993	3584
838.131	3637
838.269	3591
838.406	3625
838.544	3610
838.681	3469
838.819	3534
838.956	3393
839.094	3409
839.231	3431
839.369	3538
839.506	3743
839.643	3648
839.781	3492
839.918	3515
840.055	3523
840.193	3534
840.33	3534
840.467	3591
840.604	3591
840.742	3804
840.879	3587
841.016	3610
841.153	3625
841.29	3793
841.427	3732
841.564	3740
841.701	3762
841.838	3743
841.975	3717
842.112	3759
842.249	3629
842.385	3660
842.522	3827
842.659	3709
842.796	3667
842.933	3667
843.069	3717
843.206	3690
843.343	3827
843.479	3781
843.616	3842
843.752	3701
843.889	3709
844.025	3869
844.162	3759
844.298	3827
844.435	3762
844.571	3873
844.708	3930
844.844	4006
844.98	4013
845.117	4067
845.253	3964
845.389	3896
845.525	3975
845.661	3987
845.798	3937
845.934	4029
846.07	3964
846.206	4078
846.342	4116
846.478	4082
846.614	3949
846.75	4006
846.886	3945
847.022	4032
847.158	3994
847.294	4059
847.429	4025
847.565	4025
847.701	4287
847.837	3941
847.972	3854
848.108	3953
848.244	3934
848.379	3857
848.515	3838
848.65	3800
848.786	3835
848.921	3888
849.057	3964
849.192	3945
849.328	3972
849.463	3934
849.598	3873
849.734	3861
849.869	3854
850.004	3827
850.14	3850
850.275	3797
850.41	3747
850.545	3736
850.68	3755
850.815	3812
850.95	3808
851.085	3934
851.22	3880
851.355	3865
851.49	3759
851.625	3831
851.76	3812
851.895	3720
852.03	3759
852.165	3800
852.299	3835
852.434	3956
852.569	3846
852.703	3892
852.838	3960
852.973	4051
853.107	3972
853.242	3915
853.376	3892
853.511	3778
853.645	3835
853.78	3975
853.914	3907
854.048	3876
854.183	3873
854.317	3941
854.451	4090
854.585	3926
854.72	3926
854.854	3998
854.988	3960
855.122	4010
855.256	3949
855.39	4032
855.524	4109
855.658	4101
855.792	4109
855.926	4143
856.06	4158
856.194	4188
856.327	4124
856.461	4162
856.595	4177
856.729	4173
856.862	4284
856.996	4287
857.13	4280
857.263	4360
857.397	4405
857.53	4303
857.664	4344
857.797	4375
857.931	4421
858.064	4394
858.197	4519
858.331	4417
858.464	4398
858.597	4314
858.731	4436
858.864	4489
858.997	4474
859.13	4531
859.263	4519
859.396	4592
859.529	4527
859.662	4599
859.795	4516
859.928	4622
860.061	4698
860.194	4733
860.327	4702
860.46	4702
860.592	4683
860.725	4733
860.858	4763
860.99	4687
861.123	4694
861.256	4706
861.388	4790
861.521	5398
861.653	4759
861.786	4717
861.918	4740
862.05	4843
862.183	4809
862.315	4908
862.447	4942
862.58	4946
862.712	4801
862.844	4755
862.976	4934
863.108	4911
863.24	5269
863.372	4862
863.504	4923
863.636	4915
863.768	5010
863.9	4965
864.032	4908
864.164	4934
864.296	5060
864.428	5060
864.559	5105
864.691	5147
864.823	5162
864.954	5181
865.086	5159
865.217	5117
865.349	5113
865.48	5170
865.612	5166
865.743	5292
865.875	5204
866.006	5204
866.137	5265
866.269	5246
866.4	5292
866.531	5299
866.662	5223
866.793	5250
866.924	5334
867.055	5395
867.186	5315
867.317	5322
867.448	5315
867.579	5398
867.71	5341
867.841	5379
867.972	5520
868.103	5493
868.233	5509
868.364	5516
868.495	5611
868.625	5634
868.756	5771
868.886	5699
869.017	5672
869.147	5882
869.278	5904
869.408	5885
869.539	5901
869.669	5904
869.799	5954
869.929	6015
870.06	6057
870.19	6239
870.32	6171
870.45	6273
870.58	6323
870.71	6467
870.84	6498
870.97	6407
871.1	6502
871.23	6719
871.36	6764
871.489	6608
871.619	6772
871.749	6779
871.879	6871
872.008	6943
872.138	7004
872.267	7023
872.397	6989
872.526	7065
872.656	7072
872.785	7137
872.915	7316
873.044	7483
873.173	7556
873.303	7662
873.432	7753
873.561	7852
873.69	7871
873.819	7944
873.948	8157
874.077	8267
874.206	8339
874.335	8511
874.464	8667
874.593	8811
874.722	8937
874.851	9100
874.979	9211
875.108	9370
875.237	9382
875.365	9481
875.494	9660
875.623	9812
875.751	9857
875.88	9994
876.008	10181
876.136	10272
876.265	10531
876.393	10752
876.521	10755
876.65	10881
876.778	10927
876.906	10953
877.034	10991
877.162	11102
877.29	11159
877.418	11303
877.546	11406
877.674	11414
877.802	11501
877.93	11600
878.058	11528
878.185	11528
878.313	11634
878.441	11714
878.568	11676
878.696	11752
878.824	11901
878.951	11931
879.079	12030
879.206	12190
879.333	12041
879.461	11999
879.588	12083
879.715	12064
879.842	12258
879.97	12083
880.097	11893
880.224	11889
880.351	11874
880.478	11836
880.605	11828
880.732	11824
880.859	12079
880.986	11790
881.112	11855
881.239	11729
881.366	11672
881.493	11710
881.619	11535
881.746	11490
881.872	11482
881.999	11573
882.125	11364
882.252	11562
882.378	11535
882.505	11493
882.631	11322
882.757	11277
882.883	11334
883.01	11258
883.136	11181
883.262	11086
883.388	11105
883.514	11220
883.64	11109
883.766	11121
883.892	10987
884.018	10934
884.143	11060
884.269	11071
884.395	10843
884.52	10828
884.646	10824
884.772	10740
884.897	10687
885.023	10634
885.148	10736
885.274	10733
885.399	10641
885.524	10630
885.65	10679
885.775	10603
885.9	10565
886.025	10611
886.15	10569
886.275	10470
886.4	10375
886.525	10268
886.65	10394
886.775	10341
886.9	10466
887.025	10474
887.149	10367
887.274	10227
887.399	10227
887.523	10280
887.648	10139
887.773	10120
887.897	10185
888.021	10238
888.146	10166
888.27	10188
888.395	10284
888.519	10207
888.643	10150
888.767	10162
888.891	10093
889.015	9991
889.139	10040
889.263	9934
889.387	9949
889.511	10112
889.635	10067
889.759	9956
889.883	9983
890.006	9964
890.13	10071
890.254	9903
890.377	9899
890.501	9884
890.624	9842
890.748	9899
890.871	9835
890.995	9724
891.118	9682
891.241	9747
891.364	9755
891.488	9819
891.611	9705
891.734	9717
891.857	9781
891.98	9732
892.103	9838
892.226	9701
892.349	9728
892.471	9584
892.594	9622
892.717	9610
892.839	9599
892.962	9606
893.085	9641
893.207	9568
893.33	9534
893.452	9492
893.575	9637
893.697	9603
893.819	9633
893.941	9576
894.064	9667
894.186	9408
894.308	9344
894.43	9549
894.552	9549
894.674	9488
894.796	9405
894.918	9412
895.04	9386
895.161	9321
895.283	9348
895.405	9256
895.526	9256
895.648	9264
895.769	9245
895.891	9298
896.012	9329
896.134	9317
896.255	9218
896.376	9169
896.498	9176
896.619	9131
896.74	9142
896.861	9017
896.982	9287
897.103	9336
897.224	9154
897.345	9085
897.466	8963
897.587	9032
897.708	9104
897.828	9047
897.949	8910
898.07	8857
898.19	8982
898.311	8986
898.431	8887
898.552	8956
898.672	8967
898.792	8944
898.913	8933
899.033	8826
899.153	8754
899.273	8659
899.393	8735
899.513	8758
899.633	8712
899.753	8777
899.873	8667
899.993	8743
900.113	8705
900.232	8766
900.352	8636
900.472	8590
900.591	8613
900.711	8587
900.83	8556
900.95	8667
901.069	8701
901.189	8499
901.308	8442
901.427	8412
901.546	8408
901.665	8492
901.784	8484
901.904	8343
902.023	8343
902.141	8336
902.26	8187
902.379	8294
902.498	8244
902.617	8225
902.735	8343
902.854	8305
902.973	8259
903.091	8153
903.21	8176
903.328	8081
903.446	8187
903.565	8134
903.683	8107
903.801	8084
903.919	8134
904.038	8164
904.156	8005
904.274	8157
904.392	8008
904.51	8062
904.627	8035
904.745	8126
904.863	8107
904.981	7925
905.098	7887
905.216	7871
905.334	7909
905.451	7932
905.569	7879
905.686	7913
905.803	7913
905.921	7833
906.038	7852
906.155	7780
906.272	7746
906.389	7799
906.506	7666
906.623	7636
906.74	7613
906.857	7578
906.974	7586
907.091	7681
907.208	7769
907.324	7658
907.441	7586
907.557	7449
907.674	7449
907.79	7373
907.907	7453
908.023	7434
908.139	7430
908.256	7400
908.372	7335
908.488	7388
908.604	7270
908.72	7221
908.836	7293
908.952	7263
909.068	7194
909.184	7392
909.3	7217
909.415	7316
909.531	7282
909.647	7137
909.762	7126
909.878	7137
909.993	7137
910.108	7061
910.224	7057
910.339	7091
910.454	7050
910.57	7000
910.685	6985
910.8	7206
910.915	7156
911.03	7012
911.145	6947
911.259	6863
911.374	6913
911.489	6890
911.604	6871
911.718	6745
911.833	6776
911.947	6627
912.062	6631
912.176	6703
912.291	6707
912.405	6703
912.519	6818
912.633	6848
912.748	6749
912.862	6715
912.976	6608
913.09	6532
913.204	6582
913.318	6677
913.431	6673
913.545	6692
913.659	6757
913.772	6684
913.886	6582
914	6574
914.113	6620
914.226	6692
914.34	6650
914.453	6536
914.566	6585
914.68	6521
914.793	6604
914.906	6403
915.019	6410
915.132	6422
915.245	6418
915.358	6448
915.47	6407
915.583	6498
915.696	6479
915.809	6525
915.921	6578
916.034	6452
916.146	6399
916.259	6418
916.371	6414
916.483	6460
916.595	6388
916.708	6376
916.82	6410
916.932	6369
917.044	6365
917.156	6403
917.268	6334
917.38	6334
917.491	6346
917.603	6372
917.715	6403
917.826	6456
917.938	6311
918.049	6247
918.161	6308
918.272	6445
918.384	6422
918.495	6296
918.606	6251
918.717	6194
918.828	6251
918.939	6334
919.05	6209
919.161	6289
919.272	6106
919.383	6178
919.494	6289
919.604	6407
919.715	6342
919.826	6182
919.936	6346
920.047	6327
920.157	6273
920.267	6433
920.378	6380
920.488	6308
920.598	6475
920.708	6589
920.818	6467
920.928	6494
921.038	6673
921.148	6620
921.258	6418
921.368	6308
921.477	6213
921.587	6178
921.697	6106
921.806	6209
921.916	6148
922.025	5939
922.134	5950
922.244	5836
922.353	5927
922.462	5863
922.571	5824
922.68	5668
922.789	5756
922.898	5684
923.007	5646
923.116	5680
923.224	5653
923.333	5653
923.442	5619
923.55	5577
923.659	5570
923.767	5619
923.876	5558
923.984	5627
924.092	5520
924.201	5566
924.309	5535
924.417	5532
924.525	5532
924.633	5543
924.741	6331
924.849	5455
924.956	5482
925.064	5398
925.172	5292
925.279	5368
925.387	5345
925.494	5334
925.602	5391
925.709	5425
925.816	5322
925.924	5296
926.031	5353
926.138	5315
926.245	5334
926.352	5254
926.459	5311
926.566	5299
926.673	5216
926.779	5185
926.886	5128
926.993	5064
927.099	5025
927.206	4984
927.312	4946
927.419	4995
927.525	4972
927.631	4953
927.737	4953
927.843	4889
927.95	4862
928.056	4850
928.162	4866
928.267	4820
928.373	5296
928.479	4847
928.585	4714
928.69	4797
928.796	4782
928.901	4729
929.007	4596
929.112	4675
929.218	4641
929.323	4603
929.428	4561
929.533	4679
929.638	4546
929.743	4508
929.848	4607
929.953	4512
930.058	4405
930.163	4329
930.267	4344
930.372	4443
930.477	4310
930.581	4474
930.685	4352
930.79	4246
930.894	4333
930.998	4253
931.103	4421
931.207	4169
931.311	4074
931.415	4010
931.519	3945
931.623	3941
