Data from glass_V78500241_1270.txt Node
Date: Wed Sep 01 19:23:18 CST 2021
User: usil
Spectrometer: V785-0024
Trigger mode: 0
Integration Time (sec): 4.000000E-1
Scans to average: 1
Nonlinearity correction enabled: false
Boxcar width: 0
Storing dark spectrum: false
XAxis mode: Wavelengths
Number of Pixels in Spectrum: 1024
>>>>>Begin Spectral Data<<<<<
801.071	3797
801.214	3751
801.356	3713
801.499	3781
801.641	3759
801.783	3816
801.926	3838
802.068	3797
802.211	3892
802.353	3907
802.496	3865
802.638	3865
802.78	3941
802.923	3930
803.065	3899
803.208	3823
803.35	3915
803.492	3903
803.635	3903
803.777	3793
803.919	3918
804.061	4131
804.204	3949
804.346	3953
804.488	3922
804.63	4021
804.773	4021
804.915	3987
805.057	4162
805.199	4067
805.341	4131
805.483	4154
805.626	4135
805.768	4090
805.91	4265
806.052	4238
806.194	4223
806.336	4325
806.478	4185
806.62	4196
806.762	4158
806.904	4268
807.046	4291
807.188	4238
807.33	4158
807.472	4299
807.614	4227
807.756	4227
807.898	4215
808.04	4242
808.182	4325
808.324	4295
808.465	4375
808.607	4466
808.749	4413
808.891	4455
809.033	4535
809.174	4417
809.316	4268
809.458	4280
809.6	4150
809.741	4128
809.883	4181
810.025	4219
810.166	4257
810.308	4253
810.45	4280
810.591	4227
810.733	4291
810.875	4508
811.016	4816
811.158	5132
811.299	5322
811.441	5322
811.582	5041
811.724	4710
811.865	4478
812.007	4478
812.148	4451
812.29	4394
812.431	4440
812.573	4394
812.714	4405
812.855	4394
812.997	4428
813.138	4443
813.279	4390
813.421	4375
813.562	4371
813.703	4303
813.845	4341
813.986	4272
814.127	4234
814.268	4272
814.41	4295
814.551	4249
814.692	4352
814.833	4291
814.974	4325
815.115	4341
815.256	4268
815.397	4257
815.539	4291
815.68	4181
815.821	4268
815.962	4318
816.103	4291
816.244	4261
816.385	4200
816.526	4223
816.666	4230
816.807	4090
816.948	4192
817.089	4211
817.23	4135
817.371	4048
817.512	4082
817.653	4074
817.793	4048
817.934	4040
818.075	4105
818.216	4101
818.356	4082
818.497	3987
818.638	3918
818.778	3896
818.919	3869
819.06	3903
819.2	3930
819.341	3869
819.481	3888
819.622	3915
819.762	4021
819.903	3949
820.043	3926
820.184	3876
820.324	3846
820.465	3880
820.605	3865
820.746	3846
820.886	3804
821.026	3941
821.167	3930
821.307	3991
821.447	3994
821.588	3987
821.728	3960
821.868	4013
822.008	3880
822.149	3960
822.289	3941
822.429	3865
822.569	3770
822.709	3789
822.849	3720
822.99	3720
823.13	3789
823.27	3819
823.41	3728
823.55	3736
823.69	3743
823.83	3766
823.97	3671
824.11	3625
824.25	3599
824.389	3652
824.529	3701
824.669	3648
824.809	3713
824.949	3713
825.089	3717
825.228	3736
825.368	3610
825.508	3549
825.648	3587
825.787	3587
825.927	3637
826.067	3641
826.206	3694
826.346	3778
826.485	3823
826.625	3854
826.765	3949
826.904	3846
827.044	3641
827.183	3549
827.323	3481
827.462	3488
827.601	3450
827.741	3409
827.88	3477
828.02	3397
828.159	3435
828.298	3473
828.437	3549
828.577	3488
828.716	3549
828.855	3542
828.994	3409
829.134	3412
829.273	3405
829.412	3344
829.551	3321
829.69	3409
829.829	3450
829.968	3511
830.107	3405
830.246	3462
830.385	3389
830.524	3370
830.663	3298
830.802	3283
830.941	3199
831.08	3233
831.219	3306
831.357	3268
831.496	3363
831.635	3264
831.774	3199
831.913	3218
832.051	3131
832.19	3154
832.329	3180
832.467	3165
832.606	3097
832.744	3184
832.883	3199
833.022	3203
833.16	3283
833.299	3291
833.437	3340
833.576	3367
833.714	3409
833.852	3462
833.991	3466
834.129	3481
834.267	3462
834.406	3420
834.544	3466
834.682	3420
834.821	3378
834.959	3591
835.097	3424
835.235	3515
835.373	3504
835.511	3488
835.65	3462
835.788	3496
835.926	3424
836.064	3409
836.202	3389
836.34	3572
836.478	3644
836.615	3561
836.753	3595
836.891	3656
837.029	3625
837.167	3599
837.305	3561
837.443	3610
837.58	3526
837.718	3584
837.856	3584
837.993	3572
838.131	3614
838.269	3568
838.406	3587
838.544	3591
838.681	3500
838.819	3477
838.956	3405
839.094	3428
839.231	3439
839.369	3523
839.506	3736
839.643	3576
839.781	3462
839.918	3462
840.055	3504
840.193	3561
840.33	3572
840.467	3576
840.604	3610
840.742	3808
840.879	3526
841.016	3576
841.153	3595
841.29	3747
841.427	3720
841.564	3724
841.701	3785
841.838	3713
841.975	3660
842.112	3755
842.249	3637
842.385	3606
842.522	3808
842.659	3717
842.796	3667
842.933	3667
843.069	3732
843.206	3747
843.343	3797
843.479	3793
843.616	3804
843.752	3701
843.889	3690
844.025	3854
844.162	3717
844.298	3869
844.435	3823
844.571	3793
844.708	3888
844.844	4029
844.98	4021
845.117	4006
845.253	3975
845.389	3896
845.525	3911
845.661	3960
845.798	3922
845.934	4013
846.07	3956
846.206	4044
846.342	4154
846.478	4059
846.614	4032
846.75	3918
846.886	3930
847.022	4074
847.158	3991
847.294	4017
847.429	4013
847.565	3964
847.701	4261
847.837	3876
847.972	3846
848.108	3945
848.244	3972
848.379	3838
848.515	3800
848.65	3762
848.786	3831
848.921	3884
849.057	3922
849.192	3953
849.328	3953
849.463	3956
849.598	3869
849.734	3880
849.869	3842
850.004	3755
850.14	3823
850.275	3789
850.41	3728
850.545	3724
850.68	3747
850.815	3804
850.95	3850
851.085	3987
851.22	3876
851.355	3838
851.49	3778
851.625	3755
851.76	3793
851.895	3759
852.03	3759
852.165	3808
852.299	3896
852.434	3911
852.569	3835
852.703	3838
852.838	3941
852.973	4013
853.107	4036
853.242	3892
853.376	3838
853.511	3804
853.645	3816
853.78	3964
853.914	3918
854.048	3915
854.183	3915
854.317	3934
854.451	4097
854.585	3972
854.72	3941
854.854	4071
854.988	3987
855.122	4021
855.256	3937
855.39	3979
855.524	4101
855.658	4074
855.792	4105
855.926	4097
856.06	4196
856.194	4211
856.327	4147
856.461	4120
856.595	4158
856.729	4185
856.862	4299
856.996	4234
857.13	4322
857.263	4318
857.397	4344
857.53	4272
857.664	4344
857.797	4436
857.931	4421
858.064	4432
858.197	4462
858.331	4413
858.464	4436
858.597	4333
858.731	4481
858.864	4500
858.997	4451
859.13	4504
859.263	4558
859.396	4599
859.529	4538
859.662	4554
859.795	4565
859.928	4596
860.061	4725
860.194	4740
860.327	4641
860.46	4653
860.592	4698
860.725	4771
860.858	4752
860.99	4698
861.123	4725
861.256	4736
861.388	4801
861.521	5349
861.653	4725
861.786	4729
861.918	4763
862.05	4866
862.183	4858
862.315	4889
862.447	4980
862.58	4930
862.712	4809
862.844	4824
862.976	4854
863.108	4919
863.24	5178
863.372	4824
863.504	4866
863.636	4934
863.768	4991
863.9	4980
864.032	4900
864.164	4972
864.296	5041
864.428	5117
864.559	5102
864.691	5151
864.823	5159
864.954	5113
865.086	5124
865.217	5079
865.349	5121
865.48	5170
865.612	5174
865.743	5280
865.875	5220
866.006	5151
866.137	5204
866.269	5261
866.4	5250
866.531	5265
866.662	5212
866.793	5299
866.924	5258
867.055	5364
867.186	5334
867.317	5360
867.448	5296
867.579	5379
867.71	5402
867.841	5353
867.972	5429
868.103	5471
868.233	5452
868.364	5463
868.495	5554
868.625	5672
868.756	5760
868.886	5615
869.017	5695
869.147	5889
869.278	5844
869.408	5859
869.539	5821
869.669	5923
869.799	5939
869.929	5988
870.06	6045
870.19	6209
870.32	6201
870.45	6289
870.58	6311
870.71	6460
870.84	6475
870.97	6426
871.1	6490
871.23	6612
871.36	6696
871.489	6688
871.619	6707
871.749	6764
871.879	6897
872.008	6985
872.138	6920
872.267	7008
872.397	6973
872.526	7061
872.656	7103
872.785	7240
872.915	7419
873.044	7506
873.173	7616
873.303	7590
873.432	7780
873.561	7822
873.69	7925
873.819	8031
873.948	8145
874.077	8259
874.206	8343
874.335	8400
874.464	8663
874.593	8811
874.722	8941
874.851	9119
874.979	9253
875.108	9325
875.237	9378
875.365	9496
875.494	9694
875.623	9800
875.751	9876
875.88	9968
876.008	10116
876.136	10287
876.265	10478
876.393	10664
876.521	10668
876.65	10858
876.778	10831
876.906	10904
877.034	10915
877.162	11128
877.29	11136
877.418	11273
877.546	11440
877.674	11395
877.802	11452
877.93	11608
878.058	11528
878.185	11581
878.313	11718
878.441	11745
878.568	11649
878.696	11863
878.824	11809
878.951	11946
879.079	12026
879.206	12102
879.333	12060
879.461	12026
879.588	12129
879.715	12030
879.842	12197
879.97	12117
880.097	11901
880.224	11908
880.351	11843
880.478	11874
880.605	11870
880.732	11798
880.859	11973
880.986	11824
881.112	11771
881.239	11786
881.366	11684
881.493	11615
881.619	11573
881.746	11592
881.872	11463
881.999	11543
882.125	11501
882.252	11608
882.378	11543
882.505	11573
882.631	11360
882.757	11364
882.883	11406
883.01	11231
883.136	11185
883.262	11117
883.388	11098
883.514	11201
883.64	11185
883.766	11086
883.892	10923
884.018	11045
884.143	11048
884.269	11075
884.395	10858
884.52	10733
884.646	10786
884.772	10656
884.897	10698
885.023	10744
885.148	10752
885.274	10706
885.399	10668
885.524	10702
885.65	10573
885.775	10569
885.9	10531
886.025	10615
886.15	10531
886.275	10481
886.4	10341
886.525	10466
886.65	10379
886.775	10318
886.9	10519
887.025	10516
887.149	10348
887.274	10219
887.399	10207
887.523	10227
887.648	10158
887.773	10166
887.897	10291
888.021	10238
888.146	10139
888.27	10227
888.395	10173
888.519	10185
888.643	10200
888.767	10230
888.891	10093
889.015	10040
889.139	10025
889.263	10002
889.387	10105
889.511	10181
889.635	10063
889.759	9953
889.883	9994
890.006	9975
890.13	10158
890.254	9907
890.377	9987
890.501	9846
890.624	9884
890.748	9865
890.871	9816
890.995	9838
891.118	9644
891.241	9797
891.364	9797
891.488	9800
891.611	9690
891.734	9778
891.857	9747
891.98	9781
892.103	9823
892.226	9686
892.349	9675
892.471	9500
892.594	9618
892.717	9580
892.839	9618
892.962	9667
893.085	9648
893.207	9603
893.33	9473
893.452	9534
893.575	9572
893.697	9526
893.819	9606
893.941	9637
894.064	9549
894.186	9538
894.308	9408
894.43	9515
894.552	9614
894.674	9553
894.796	9348
894.918	9424
895.04	9329
895.161	9386
895.283	9272
895.405	9302
895.526	9226
895.648	9287
895.769	9298
895.891	9233
896.012	9291
896.134	9214
896.255	9214
896.376	9173
896.498	9256
896.619	9142
896.74	9081
896.861	9062
896.982	9260
897.103	9355
897.224	9245
897.345	9028
897.466	9043
897.587	9001
897.708	9112
897.828	9062
897.949	8895
898.07	8849
898.19	8902
898.311	9017
898.431	8845
898.552	8921
898.672	8963
898.792	8979
898.913	8899
899.033	8864
899.153	8773
899.273	8659
899.393	8678
899.513	8739
899.633	8720
899.753	8853
899.873	8716
899.993	8735
900.113	8724
900.232	8648
900.352	8655
900.472	8648
900.591	8514
900.711	8670
900.83	8583
900.95	8659
901.069	8731
901.189	8602
901.308	8423
901.427	8431
901.546	8415
901.665	8476
901.784	8552
901.904	8343
902.023	8279
902.141	8183
902.26	8214
902.379	8294
902.498	8199
902.617	8271
902.735	8317
902.854	8309
902.973	8305
903.091	8149
903.21	8191
903.328	8195
903.446	8119
903.565	8119
903.683	8100
903.801	8043
903.919	8103
904.038	8115
904.156	8039
904.274	8138
904.392	8065
904.51	8024
904.627	7997
904.745	8092
904.863	8195
904.981	7928
905.098	7833
905.216	7887
905.334	7887
905.451	7906
905.569	7940
905.686	7871
905.803	7890
905.921	7830
906.038	7765
906.155	7811
906.272	7753
906.389	7693
906.506	7670
906.623	7609
906.74	7590
906.857	7518
906.974	7605
907.091	7636
907.208	7658
907.324	7670
907.441	7647
907.557	7449
907.674	7476
907.79	7365
907.907	7430
908.023	7445
908.139	7506
908.256	7403
908.372	7373
908.488	7346
908.604	7251
908.72	7301
908.836	7282
908.952	7285
909.068	7255
909.184	7308
909.3	7244
909.415	7285
909.531	7354
909.647	7114
909.762	7168
909.878	7110
909.993	7122
910.108	7126
910.224	7091
910.339	7152
910.454	7034
910.57	7042
910.685	7015
910.8	7183
910.915	7107
911.03	7019
911.145	6871
911.259	6935
911.374	6947
911.489	6825
911.604	6810
911.718	6753
911.833	6760
911.947	6635
912.062	6627
912.176	6749
912.291	6696
912.405	6703
912.519	6856
912.633	6772
912.748	6745
912.862	6669
912.976	6604
913.09	6502
913.204	6612
913.318	6601
913.431	6616
913.545	6688
913.659	6696
913.772	6673
913.886	6627
914	6517
914.113	6623
914.226	6650
914.34	6597
914.453	6464
914.566	6532
914.68	6574
914.793	6483
914.906	6456
915.019	6464
915.132	6369
915.245	6433
915.358	6483
915.47	6467
915.583	6490
915.696	6414
915.809	6589
915.921	6551
916.034	6422
916.146	6426
916.259	6426
916.371	6502
916.483	6486
916.595	6380
916.708	6426
916.82	6441
916.932	6342
917.044	6422
917.156	6346
917.268	6315
917.38	6350
917.491	6403
917.603	6403
917.715	6372
917.826	6391
917.938	6372
918.049	6304
918.161	6365
918.272	6433
918.384	6410
918.495	6380
918.606	6281
918.717	6266
918.828	6285
918.939	6277
919.05	6247
919.161	6285
919.272	6133
919.383	6186
919.494	6296
919.604	6475
919.715	6273
919.826	6167
919.936	6247
920.047	6300
920.157	6338
920.267	6471
920.378	6323
920.488	6315
920.598	6437
920.708	6589
920.818	6502
920.928	6467
921.038	6578
921.148	6608
921.258	6357
921.368	6277
921.477	6167
921.587	6167
921.697	6095
921.806	6159
921.916	6064
922.025	5984
922.134	5912
922.244	5893
922.353	5988
922.462	5878
922.571	5775
922.68	5672
922.789	5672
922.898	5745
923.007	5646
923.116	5695
923.224	5627
923.333	5726
923.442	5615
923.55	5608
923.659	5539
923.767	5646
923.876	5566
923.984	5581
924.092	5509
924.201	5608
924.309	5512
924.417	5516
924.525	5486
924.633	5474
924.741	6281
924.849	5398
924.956	5505
925.064	5395
925.172	5277
925.279	5292
925.387	5315
925.494	5360
925.602	5436
925.709	5387
925.816	5273
925.924	5284
926.031	5379
926.138	5322
926.245	5330
926.352	5204
926.459	5299
926.566	5383
926.673	5227
926.779	5140
926.886	5132
926.993	5041
927.099	4999
927.206	4953
927.312	5010
927.419	5010
927.525	4904
927.631	5006
927.737	4889
927.843	4892
927.95	4790
928.056	4831
928.162	4831
928.267	4847
928.373	5330
928.479	4835
928.585	4687
928.69	4744
928.796	4759
928.901	4687
929.007	4607
929.112	4698
929.218	4653
929.323	4611
929.428	4577
929.533	4668
929.638	4561
929.743	4516
929.848	4554
929.953	4493
930.058	4500
930.163	4318
930.267	4348
930.372	4428
930.477	4291
930.581	4478
930.685	4367
930.79	4249
930.894	4276
930.998	4268
931.103	4424
931.207	4139
931.311	4116
931.415	4013
931.519	3960
931.623	3968
