Data from glass_V78500241_2010.txt Node
Date: Wed Sep 01 19:28:26 CST 2021
User: usil
Spectrometer: V785-0024
Trigger mode: 0
Integration Time (sec): 4.000000E-1
Scans to average: 1
Nonlinearity correction enabled: false
Boxcar width: 0
Storing dark spectrum: false
XAxis mode: Wavelengths
Number of Pixels in Spectrum: 1024
>>>>>Begin Spectral Data<<<<<
801.071	3736
801.214	3755
801.356	3740
801.499	3747
801.641	3720
801.783	3781
801.926	3861
802.068	3816
802.211	3835
802.353	3892
802.496	3842
802.638	3896
802.78	3888
802.923	3937
803.065	3880
803.208	3869
803.35	3865
803.492	3884
803.635	3880
803.777	3751
803.919	3911
804.061	4139
804.204	3964
804.346	3956
804.488	3907
804.63	4017
804.773	3937
804.915	4021
805.057	4112
805.199	3994
805.341	4112
805.483	4135
805.626	4154
805.768	4131
805.91	4162
806.052	4223
806.194	4207
806.336	4348
806.478	4200
806.62	4150
806.762	4150
806.904	4253
807.046	4272
807.188	4204
807.33	4154
807.472	4257
807.614	4188
807.756	4249
807.898	4227
808.04	4230
808.182	4268
808.324	4287
808.465	4394
808.607	4405
808.749	4402
808.891	4489
809.033	4462
809.174	4405
809.316	4272
809.458	4242
809.6	4105
809.741	4162
809.883	4086
810.025	4223
810.166	4223
810.308	4242
810.45	4246
810.591	4185
810.733	4291
810.875	4485
811.016	4801
811.158	5162
811.299	5288
811.441	5303
811.582	5056
811.724	4691
811.865	4470
812.007	4489
812.148	4470
812.29	4421
812.431	4421
812.573	4386
812.714	4367
812.855	4402
812.997	4402
813.138	4424
813.279	4405
813.421	4390
813.562	4402
813.703	4325
813.845	4348
813.986	4284
814.127	4215
814.268	4265
814.41	4246
814.551	4280
814.692	4280
814.833	4299
814.974	4276
815.115	4265
815.256	4238
815.397	4211
815.539	4295
815.68	4185
815.821	4200
815.962	4253
816.103	4310
816.244	4265
816.385	4215
816.526	4272
816.666	4219
816.807	4109
816.948	4192
817.089	4204
817.23	4109
817.371	4032
817.512	4055
817.653	4055
817.793	4032
817.934	4044
818.075	4116
818.216	4082
818.356	4063
818.497	3998
818.638	3930
818.778	3896
818.919	3880
819.06	3838
819.2	3899
819.341	3903
819.481	3842
819.622	3903
819.762	4021
819.903	3930
820.043	3873
820.184	3842
820.324	3774
820.465	3838
820.605	3857
820.746	3812
820.886	3812
821.026	3899
821.167	3903
821.307	3960
821.447	3983
821.588	3968
821.728	3941
821.868	3880
822.008	3892
822.149	3937
822.289	3983
822.429	3724
822.569	3789
822.709	3816
822.849	3698
822.99	3747
823.13	3732
823.27	3759
823.41	3740
823.55	3709
823.69	3720
823.83	3766
823.97	3701
824.11	3576
824.25	3568
824.389	3641
824.529	3641
824.669	3637
824.809	3679
824.949	3747
825.089	3747
825.228	3686
825.368	3553
825.508	3564
825.648	3591
825.787	3599
825.927	3660
826.067	3625
826.206	3679
826.346	3800
826.485	3793
826.625	3854
826.765	3937
826.904	3804
827.044	3568
827.183	3542
827.323	3450
827.462	3492
827.601	3439
827.741	3481
827.88	3439
828.02	3359
828.159	3431
828.298	3458
828.437	3538
828.577	3473
828.716	3625
828.855	3454
828.994	3363
829.134	3340
829.273	3386
829.412	3313
829.551	3336
829.69	3382
829.829	3424
829.968	3534
830.107	3416
830.246	3389
830.385	3405
830.524	3382
830.663	3329
830.802	3249
830.941	3188
831.08	3169
831.219	3249
831.357	3222
831.496	3428
831.635	3230
831.774	3176
831.913	3161
832.051	3119
832.19	3161
832.329	3218
832.467	3097
832.606	3116
832.744	3138
832.883	3157
833.022	3218
833.16	3272
833.299	3317
833.437	3321
833.576	3367
833.714	3378
833.852	3405
833.991	3435
834.129	3477
834.267	3469
834.406	3389
834.544	3420
834.682	3431
834.821	3409
834.959	3584
835.097	3420
835.235	3526
835.373	3492
835.511	3462
835.65	3492
835.788	3492
835.926	3405
836.064	3378
836.202	3397
836.34	3595
836.478	3603
836.615	3523
836.753	3557
836.891	3648
837.029	3633
837.167	3595
837.305	3572
837.443	3580
837.58	3481
837.718	3618
837.856	3587
837.993	3542
838.131	3599
838.269	3561
838.406	3564
838.544	3584
838.681	3507
838.819	3424
838.956	3325
839.094	3397
839.231	3458
839.369	3538
839.506	3701
839.643	3599
839.781	3488
839.918	3477
840.055	3526
840.193	3519
840.33	3542
840.467	3572
840.604	3637
840.742	3819
840.879	3526
841.016	3584
841.153	3603
841.29	3740
841.427	3694
841.564	3732
841.701	3690
841.838	3656
841.975	3667
842.112	3705
842.249	3637
842.385	3641
842.522	3850
842.659	3690
842.796	3663
842.933	3667
843.069	3667
843.206	3705
843.343	3838
843.479	3797
843.616	3850
843.752	3701
843.889	3660
844.025	3838
844.162	3709
844.298	3804
844.435	3778
844.571	3770
844.708	3899
844.844	3968
844.98	3956
845.117	4021
845.253	3899
845.389	3880
845.525	3979
845.661	3983
845.798	3941
845.934	3979
846.07	3937
846.206	4017
846.342	4166
846.478	4074
846.614	3979
846.75	3930
846.886	3892
847.022	4025
847.158	3930
847.294	3994
847.429	3975
847.565	4006
847.701	4230
847.837	3857
847.972	3869
848.108	3941
848.244	3968
848.379	3823
848.515	3781
848.65	3854
848.786	3842
848.921	3827
849.057	3899
849.192	3960
849.328	3896
849.463	3903
849.598	3880
849.734	3873
849.869	3831
850.004	3797
850.14	3793
850.275	3800
850.41	3743
850.545	3759
850.68	3785
850.815	3770
850.95	3816
851.085	3911
851.22	3838
851.355	3816
851.49	3778
851.625	3774
851.76	3800
851.895	3724
852.03	3717
852.165	3819
852.299	3842
852.434	3953
852.569	3835
852.703	3861
852.838	3949
852.973	3956
853.107	3956
853.242	3896
853.376	3850
853.511	3785
853.645	3850
853.78	4006
853.914	3865
854.048	3922
854.183	3865
854.317	3922
854.451	4086
854.585	3964
854.72	3937
854.854	4040
854.988	3911
855.122	4010
855.256	3941
855.39	4032
855.524	4082
855.658	4112
855.792	4078
855.926	4128
856.06	4162
856.194	4238
856.327	4120
856.461	4082
856.595	4169
856.729	4147
856.862	4280
856.996	4242
857.13	4295
857.263	4318
857.397	4371
857.53	4295
857.664	4371
857.797	4383
857.931	4436
858.064	4379
858.197	4455
858.331	4356
858.464	4371
858.597	4371
858.731	4451
858.864	4432
858.997	4440
859.13	4481
859.263	4531
859.396	4596
859.529	4519
859.662	4546
859.795	4485
859.928	4599
860.061	4698
860.194	4717
860.327	4649
860.46	4679
860.592	4721
860.725	4782
860.858	4729
860.99	4687
861.123	4615
861.256	4672
861.388	4786
861.521	5368
861.653	4725
861.786	4706
861.918	4733
862.05	4801
862.183	4805
862.315	4877
862.447	4896
862.58	4870
862.712	4801
862.844	4740
862.976	4877
863.108	4892
863.24	5121
863.372	4812
863.504	4904
863.636	4877
863.768	4942
863.9	4980
864.032	4942
864.164	4904
864.296	4984
864.428	5105
864.559	5083
864.691	5094
864.823	5094
864.954	5121
865.086	5124
865.217	5132
865.349	5029
865.48	5166
865.612	5166
865.743	5265
865.875	5246
866.006	5159
866.137	5178
866.269	5216
866.4	5246
866.531	5265
866.662	5239
866.793	5273
866.924	5277
867.055	5345
867.186	5269
867.317	5303
867.448	5330
867.579	5398
867.71	5357
867.841	5376
867.972	5425
868.103	5471
868.233	5509
868.364	5478
868.495	5532
868.625	5668
868.756	5828
868.886	5608
869.017	5710
869.147	5817
869.278	5878
869.408	5802
869.539	5817
869.669	5870
869.799	5878
869.929	6019
870.06	5999
870.19	6159
870.32	6201
870.45	6254
870.58	6319
870.71	6388
870.84	6525
870.97	6327
871.1	6407
871.23	6688
871.36	6703
871.489	6646
871.619	6745
871.749	6806
871.879	6852
872.008	6993
872.138	6909
872.267	7012
872.397	6951
872.526	6935
872.656	7088
872.785	7194
872.915	7324
873.044	7521
873.173	7518
873.303	7666
873.432	7746
873.561	7833
873.69	7944
873.819	7997
873.948	8123
874.077	8206
874.206	8324
874.335	8434
874.464	8716
874.593	8834
874.722	8910
874.851	9097
874.979	9237
875.108	9340
875.237	9481
875.365	9412
875.494	9641
875.623	9850
875.751	9835
875.88	10032
876.008	10063
876.136	10284
876.265	10512
876.393	10641
876.521	10790
876.65	10877
876.778	10885
876.906	10976
877.034	10987
877.162	11048
877.29	11140
877.418	11296
877.546	11356
877.674	11364
877.802	11474
877.93	11486
878.058	11535
878.185	11558
878.313	11642
878.441	11745
878.568	11695
878.696	11794
878.824	11950
878.951	11946
879.079	12015
879.206	12136
879.333	11988
879.461	11958
879.588	11980
879.715	12091
879.842	12163
879.97	12072
880.097	11828
880.224	11859
880.351	11988
880.478	11889
880.605	11840
880.732	11821
880.859	12053
880.986	11817
881.112	11821
881.239	11775
881.366	11783
881.493	11585
881.619	11524
881.746	11505
881.872	11608
881.999	11551
882.125	11493
882.252	11471
882.378	11505
882.505	11573
882.631	11383
882.757	11242
882.883	11311
883.01	11303
883.136	11197
883.262	11143
883.388	11083
883.514	11136
883.64	11105
883.766	11102
883.892	10942
884.018	11037
884.143	11075
884.269	11136
884.395	10881
884.52	10858
884.646	10843
884.772	10748
884.897	10698
885.023	10626
885.148	10714
885.274	10828
885.399	10675
885.524	10584
885.65	10527
885.775	10630
885.9	10580
886.025	10630
886.15	10565
886.275	10500
886.4	10367
886.525	10329
886.65	10344
886.775	10341
886.9	10402
887.025	10550
887.149	10367
887.274	10196
887.399	10188
887.523	10227
887.648	10147
887.773	10143
887.897	10272
888.021	10215
888.146	10055
888.27	10234
888.395	10204
888.519	10143
888.643	10147
888.767	10139
888.891	10025
889.015	10010
889.139	10086
889.263	9979
889.387	10101
889.511	10109
889.635	9915
889.759	9975
889.883	9994
890.006	10086
890.13	10116
890.254	9903
890.377	10032
890.501	9850
890.624	9888
890.748	9873
890.871	9732
890.995	9819
891.118	9686
891.241	9823
891.364	9732
891.488	9838
891.611	9705
891.734	9774
891.857	9724
891.98	9740
892.103	9804
892.226	9660
892.349	9751
892.471	9530
892.594	9564
892.717	9610
892.839	9595
892.962	9644
893.085	9633
893.207	9568
893.33	9542
893.452	9511
893.575	9660
893.697	9507
893.819	9618
893.941	9641
894.064	9652
894.186	9397
894.308	9412
894.43	9538
894.552	9622
894.674	9466
894.796	9363
894.918	9401
895.04	9302
895.161	9359
895.283	9378
895.405	9272
895.526	9275
895.648	9230
895.769	9291
895.891	9294
896.012	9226
896.134	9203
896.255	9165
896.376	9074
896.498	9135
896.619	9138
896.74	9077
896.861	9047
896.982	9279
897.103	9275
897.224	9180
897.345	9039
897.466	9043
897.587	9036
897.708	9085
897.828	9043
897.949	8906
898.07	8834
898.19	8872
898.311	9036
898.431	8880
898.552	8876
898.672	8982
898.792	8952
898.913	8963
899.033	8880
899.153	8743
899.273	8625
899.393	8720
899.513	8758
899.633	8701
899.753	8716
899.873	8724
899.993	8773
900.113	8655
900.232	8678
900.352	8621
900.472	8564
900.591	8602
900.711	8594
900.83	8552
900.95	8670
901.069	8712
901.189	8575
901.308	8404
901.427	8400
901.546	8442
901.665	8454
901.784	8442
901.904	8358
902.023	8320
902.141	8240
902.26	8218
902.379	8259
902.498	8142
902.617	8210
902.735	8221
902.854	8259
902.973	8244
903.091	8176
903.21	8115
903.328	8180
903.446	8134
903.565	8039
903.683	8065
903.801	8043
903.919	8161
904.038	8176
904.156	8031
904.274	8134
904.392	7967
904.51	7959
904.627	8046
904.745	8084
904.863	8031
904.981	7932
905.098	7875
905.216	7841
905.334	7883
905.451	7913
905.569	7890
905.686	7890
905.803	7883
905.921	7738
906.038	7845
906.155	7769
906.272	7723
906.389	7738
906.506	7613
906.623	7693
906.74	7647
906.857	7502
906.974	7590
907.091	7685
907.208	7738
907.324	7636
907.441	7601
907.557	7415
907.674	7415
907.79	7453
907.907	7438
908.023	7438
908.139	7434
908.256	7411
908.372	7316
908.488	7327
908.604	7232
908.72	7187
908.836	7293
908.952	7232
909.068	7198
909.184	7305
909.3	7278
909.415	7320
909.531	7312
909.647	7042
909.762	7110
909.878	7042
909.993	7107
910.108	7061
910.224	7080
910.339	7084
910.454	7012
910.57	7027
910.685	6920
910.8	7149
910.915	7069
911.03	7008
911.145	6928
911.259	6829
911.374	6943
911.489	6818
911.604	6783
911.718	6707
911.833	6730
911.947	6608
912.062	6620
912.176	6700
912.291	6665
912.405	6692
912.519	6829
912.633	6859
912.748	6772
912.862	6738
912.976	6566
913.09	6521
913.204	6578
913.318	6601
913.431	6688
913.545	6692
913.659	6738
913.772	6639
913.886	6513
914	6525
914.113	6551
914.226	6665
914.34	6639
914.453	6525
914.566	6555
914.68	6502
914.793	6544
914.906	6388
915.019	6437
915.132	6391
915.245	6426
915.358	6456
915.47	6429
915.583	6448
915.696	6433
915.809	6475
915.921	6563
916.034	6475
916.146	6414
916.259	6391
916.371	6490
916.483	6456
916.595	6403
916.708	6410
916.82	6361
916.932	6380
917.044	6380
917.156	6445
917.268	6361
917.38	6342
917.491	6319
917.603	6296
917.715	6342
917.826	6388
917.938	6353
918.049	6258
918.161	6361
918.272	6376
918.384	6380
918.495	6376
918.606	6262
918.717	6205
918.828	6273
918.939	6251
919.05	6190
919.161	6220
919.272	6117
919.383	6201
919.494	6273
919.604	6445
919.715	6220
919.826	6178
919.936	6258
920.047	6365
920.157	6243
920.267	6414
920.378	6277
920.488	6285
920.598	6372
920.708	6486
920.818	6460
920.928	6414
921.038	6578
921.148	6570
921.258	6273
921.368	6273
921.477	6201
921.587	6155
921.697	6068
921.806	6152
921.916	6026
922.025	5904
922.134	5950
922.244	5882
922.353	5988
922.462	5836
922.571	5821
922.68	5710
922.789	5672
922.898	5634
923.007	5649
923.116	5695
923.224	5722
923.333	5653
923.442	5577
923.55	5638
923.659	5551
923.767	5661
923.876	5524
923.984	5585
924.092	5493
924.201	5539
924.309	5554
924.417	5524
924.525	5505
924.633	5539
924.741	6296
924.849	5357
924.956	5474
925.064	5330
925.172	5296
925.279	5250
925.387	5360
925.494	5379
925.602	5452
925.709	5387
925.816	5292
925.924	5303
926.031	5307
926.138	5307
926.245	5299
926.352	5246
926.459	5345
926.566	5322
926.673	5201
926.779	5113
926.886	5132
926.993	5014
927.099	5010
927.206	4999
927.312	4953
927.419	5014
927.525	4968
927.631	5022
927.737	4881
927.843	4877
927.95	4824
928.056	4812
928.162	4816
928.267	4923
928.373	5235
928.479	4847
928.585	4675
928.69	4782
928.796	4782
928.901	4698
929.007	4565
929.112	4683
929.218	4675
929.323	4641
929.428	4580
929.533	4653
929.638	4519
929.743	4531
929.848	4531
929.953	4531
930.058	4489
930.163	4341
930.267	4348
930.372	4462
930.477	4291
930.581	4474
930.685	4352
930.79	4223
930.894	4242
930.998	4238
931.103	4363
931.207	4105
931.311	4093
931.415	3975
931.519	3960
931.623	3930
