Data from glass_V78500241_2577.txt Node
Date: Wed Sep 01 19:32:21 CST 2021
User: usil
Spectrometer: V785-0024
Trigger mode: 0
Integration Time (sec): 4.000000E-1
Scans to average: 1
Nonlinearity correction enabled: false
Boxcar width: 0
Storing dark spectrum: false
XAxis mode: Wavelengths
Number of Pixels in Spectrum: 1024
>>>>>Begin Spectral Data<<<<<
801.071	3732
801.214	3728
801.356	3682
801.499	3705
801.641	3755
801.783	3793
801.926	3831
802.068	3857
802.211	3861
802.353	3896
802.496	3869
802.638	3842
802.78	3857
802.923	3918
803.065	3873
803.208	3808
803.35	3892
803.492	3892
803.635	3930
803.777	3812
803.919	3892
804.061	4147
804.204	4006
804.346	3979
804.488	3899
804.63	4021
804.773	3956
804.915	4002
805.057	4131
805.199	4055
805.341	4055
805.483	4086
805.626	4109
805.768	4101
805.91	4135
806.052	4261
806.194	4177
806.336	4310
806.478	4181
806.62	4166
806.762	4196
806.904	4261
807.046	4310
807.188	4207
807.33	4169
807.472	4207
807.614	4181
807.756	4261
807.898	4227
808.04	4230
808.182	4238
808.324	4291
808.465	4356
808.607	4455
808.749	4413
808.891	4428
809.033	4512
809.174	4390
809.316	4265
809.458	4242
809.6	4177
809.741	4128
809.883	4128
810.025	4188
810.166	4207
810.308	4219
810.45	4234
810.591	4257
810.733	4299
810.875	4462
811.016	4850
811.158	5113
811.299	5242
811.441	5223
811.582	5075
811.724	4660
811.865	4447
812.007	4504
812.148	4459
812.29	4386
812.431	4405
812.573	4371
812.714	4375
812.855	4413
812.997	4394
813.138	4462
813.279	4402
813.421	4341
813.562	4371
813.703	4314
813.845	4337
813.986	4249
814.127	4207
814.268	4303
814.41	4303
814.551	4211
814.692	4329
814.833	4261
814.974	4306
815.115	4341
815.256	4242
815.397	4188
815.539	4230
815.68	4188
815.821	4177
815.962	4295
816.103	4242
816.244	4227
816.385	4246
816.526	4291
816.666	4188
816.807	4025
816.948	4139
817.089	4207
817.23	4067
817.371	4051
817.512	4063
817.653	4090
817.793	4055
817.934	4120
818.075	4059
818.216	4051
818.356	4097
818.497	3964
818.638	3888
818.778	3945
818.919	3888
819.06	3888
819.2	3884
819.341	3857
819.481	3804
819.622	3915
819.762	4017
819.903	3956
820.043	3808
820.184	3892
820.324	3838
820.465	3884
820.605	3861
820.746	3884
820.886	3812
821.026	3937
821.167	3854
821.307	3911
821.447	4002
821.588	3930
821.728	3956
821.868	3903
822.008	3869
822.149	3892
822.289	3926
822.429	3812
822.569	3785
822.709	3774
822.849	3720
822.99	3701
823.13	3766
823.27	3789
823.41	3743
823.55	3736
823.69	3701
823.83	3751
823.97	3663
824.11	3610
824.25	3542
824.389	3667
824.529	3629
824.669	3610
824.809	3690
824.949	3728
825.089	3690
825.228	3713
825.368	3549
825.508	3523
825.648	3576
825.787	3599
825.927	3618
826.067	3637
826.206	3656
826.346	3736
826.485	3846
826.625	3873
826.765	3926
826.904	3819
827.044	3606
827.183	3542
827.323	3389
827.462	3443
827.601	3393
827.741	3405
827.88	3439
828.02	3351
828.159	3462
828.298	3466
828.437	3466
828.577	3458
828.716	3603
828.855	3466
828.994	3382
829.134	3336
829.273	3393
829.412	3336
829.551	3321
829.69	3340
829.829	3405
829.968	3492
830.107	3428
830.246	3389
830.385	3389
830.524	3325
830.663	3291
830.802	3222
830.941	3176
831.08	3203
831.219	3249
831.357	3256
831.496	3386
831.635	3245
831.774	3176
831.913	3165
832.051	3135
832.19	3112
832.329	3195
832.467	3116
832.606	3119
832.744	3131
832.883	3127
833.022	3184
833.16	3233
833.299	3298
833.437	3355
833.576	3336
833.714	3424
833.852	3409
833.991	3412
834.129	3477
834.267	3458
834.406	3370
834.544	3420
834.682	3409
834.821	3393
834.959	3561
835.097	3435
835.235	3515
835.373	3447
835.511	3454
835.65	3454
835.788	3477
835.926	3409
836.064	3374
836.202	3397
836.34	3564
836.478	3576
836.615	3557
836.753	3572
836.891	3622
837.029	3587
837.167	3625
837.305	3530
837.443	3561
837.58	3526
837.718	3599
837.856	3545
837.993	3526
838.131	3606
838.269	3614
838.406	3564
838.544	3561
838.681	3431
838.819	3481
838.956	3405
839.094	3340
839.231	3447
839.369	3511
839.506	3747
839.643	3606
839.781	3488
839.918	3469
840.055	3530
840.193	3481
840.33	3515
840.467	3511
840.604	3561
840.742	3823
840.879	3530
841.016	3515
841.153	3591
841.29	3793
841.427	3694
841.564	3709
841.701	3747
841.838	3690
841.975	3717
842.112	3713
842.249	3610
842.385	3614
842.522	3785
842.659	3709
842.796	3663
842.933	3679
843.069	3686
843.206	3679
843.343	3823
843.479	3762
843.616	3800
843.752	3622
843.889	3701
844.025	3785
844.162	3705
844.298	3884
844.435	3770
844.571	3720
844.708	3869
844.844	4002
844.98	3994
845.117	4032
845.253	3937
845.389	3892
845.525	3960
845.661	3941
845.798	3892
845.934	3991
846.07	3953
846.206	4048
846.342	4131
846.478	4051
846.614	3915
846.75	3915
846.886	3907
847.022	3972
847.158	3956
847.294	3987
847.429	3972
847.565	4017
847.701	4257
847.837	3892
847.972	3823
848.108	4048
848.244	3941
848.379	3865
848.515	3831
848.65	3793
848.786	3857
848.921	3869
849.057	3869
849.192	3922
849.328	3903
849.463	3903
849.598	3876
849.734	3797
849.869	3850
850.004	3789
850.14	3785
850.275	3740
850.41	3732
850.545	3778
850.68	3781
850.815	3766
850.95	3793
851.085	3949
851.22	3800
851.355	3819
851.49	3732
851.625	3808
851.76	3808
851.895	3755
852.03	3717
852.165	3736
852.299	3865
852.434	3907
852.569	3835
852.703	3896
852.838	3896
852.973	3960
853.107	3991
853.242	3892
853.376	3846
853.511	3743
853.645	3854
853.78	3968
853.914	3896
854.048	3911
854.183	3888
854.317	3941
854.451	4090
854.585	3926
854.72	3918
854.854	4036
854.988	3903
855.122	4017
855.256	3907
855.39	3983
855.524	4090
855.658	4097
855.792	4074
855.926	4139
856.06	4150
856.194	4234
856.327	4147
856.461	4090
856.595	4158
856.729	4135
856.862	4223
856.996	4223
857.13	4268
857.263	4306
857.397	4348
857.53	4291
857.664	4363
857.797	4337
857.931	4409
858.064	4348
858.197	4421
858.331	4409
858.464	4409
858.597	4325
858.731	4367
858.864	4409
858.997	4470
859.13	4500
859.263	4508
859.396	4546
859.529	4535
859.662	4497
859.795	4478
859.928	4565
860.061	4679
860.194	4702
860.327	4645
860.46	4649
860.592	4717
860.725	4771
860.858	4736
860.99	4706
861.123	4653
861.256	4694
861.388	4698
861.521	5478
861.653	4679
861.786	4698
861.918	4698
862.05	4782
862.183	4831
862.315	4870
862.447	4900
862.58	4870
862.712	4824
862.844	4767
862.976	4862
863.108	4839
863.24	5162
863.372	4843
863.504	4934
863.636	4896
863.768	4957
863.9	4919
864.032	4904
864.164	4927
864.296	5022
864.428	5045
864.559	5041
864.691	5121
864.823	5117
864.954	5086
865.086	5113
865.217	5117
865.349	5117
865.48	5220
865.612	5189
865.743	5277
865.875	5208
866.006	5189
866.137	5246
866.269	5212
866.4	5261
866.531	5246
866.662	5223
866.793	5223
866.924	5254
867.055	5395
867.186	5265
867.317	5315
867.448	5269
867.579	5288
867.71	5341
867.841	5364
867.972	5444
868.103	5482
868.233	5478
868.364	5524
868.495	5581
868.625	5638
868.756	5779
868.886	5680
869.017	5741
869.147	5794
869.278	5828
869.408	5813
869.539	5859
869.669	5840
869.799	5916
869.929	5958
870.06	5980
870.19	6144
870.32	6178
870.45	6251
870.58	6296
870.71	6452
870.84	6486
870.97	6369
871.1	6433
871.23	6593
871.36	6677
871.489	6620
871.619	6715
871.749	6741
871.879	6837
872.008	6958
872.138	6951
872.267	6993
872.397	7008
872.526	7015
872.656	7107
872.785	7118
872.915	7312
873.044	7502
873.173	7601
873.303	7639
873.432	7723
873.561	7868
873.69	7852
873.819	8046
873.948	8145
874.077	8214
874.206	8313
874.335	8537
874.464	8636
874.593	8864
874.722	8944
874.851	9123
874.979	9195
875.108	9344
875.237	9454
875.365	9538
875.494	9614
875.623	9800
875.751	9819
875.88	9937
876.008	10120
876.136	10291
876.265	10554
876.393	10733
876.521	10835
876.65	10816
876.778	10908
876.906	10934
877.034	10965
877.162	11113
877.29	11086
877.418	11201
877.546	11284
877.674	11471
877.802	11410
877.93	11509
878.058	11528
878.185	11558
878.313	11634
878.441	11726
878.568	11668
878.696	11733
878.824	11859
878.951	11870
879.079	11992
879.206	12087
879.333	12019
879.461	11942
879.588	12095
879.715	12049
879.842	12251
879.97	11988
880.097	11851
880.224	11878
880.351	11866
880.478	11855
880.605	11878
880.732	11821
880.859	11984
880.986	11764
881.112	11832
881.239	11714
881.366	11608
881.493	11619
881.619	11558
881.746	11596
881.872	11452
881.999	11379
882.125	11387
882.252	11592
882.378	11535
882.505	11604
882.631	11330
882.757	11296
882.883	11296
883.01	11265
883.136	11258
883.262	11094
883.388	11147
883.514	11170
883.64	11189
883.766	11098
883.892	10923
884.018	11003
884.143	11022
884.269	11105
884.395	10786
884.52	10790
884.646	10702
884.772	10755
884.897	10618
885.023	10626
885.148	10641
885.274	10740
885.399	10733
885.524	10637
885.65	10599
885.775	10660
885.9	10618
886.025	10641
886.15	10516
886.275	10440
886.4	10363
886.525	10447
886.65	10405
886.775	10352
886.9	10436
887.025	10531
887.149	10360
887.274	10162
887.399	10185
887.523	10131
887.648	10223
887.773	10154
887.897	10249
888.021	10219
888.146	10124
888.27	10192
888.395	10291
888.519	10128
888.643	10188
888.767	10211
888.891	10044
889.015	10006
889.139	10029
889.263	9972
889.387	10055
889.511	10188
889.635	10021
889.759	9937
889.883	9975
890.006	10025
890.13	10139
890.254	9911
890.377	9956
890.501	9861
890.624	9808
890.748	9873
890.871	9800
890.995	9720
891.118	9720
891.241	9755
891.364	9705
891.488	9903
891.611	9644
891.734	9770
891.857	9747
891.98	9652
892.103	9759
892.226	9698
892.349	9644
892.471	9511
892.594	9713
892.717	9633
892.839	9538
892.962	9625
893.085	9584
893.207	9549
893.33	9458
893.452	9504
893.575	9561
893.697	9523
893.819	9606
893.941	9625
894.064	9568
894.186	9439
894.308	9420
894.43	9568
894.552	9603
894.674	9534
894.796	9405
894.918	9397
895.04	9367
895.161	9386
895.283	9321
895.405	9279
895.526	9230
895.648	9294
895.769	9233
895.891	9294
896.012	9287
896.134	9188
896.255	9165
896.376	9142
896.498	9161
896.619	9123
896.74	9081
896.861	9085
896.982	9275
897.103	9241
897.224	9188
897.345	8994
897.466	9001
897.587	9036
897.708	9108
897.828	8971
897.949	8849
898.07	8788
898.19	8880
898.311	8921
898.431	8830
898.552	8929
898.672	8979
898.792	8933
898.913	8853
899.033	8762
899.153	8735
899.273	8613
899.393	8598
899.513	8705
899.633	8727
899.753	8720
899.873	8697
899.993	8724
900.113	8667
900.232	8610
900.352	8606
900.472	8564
900.591	8571
900.711	8602
900.83	8564
900.95	8705
901.069	8667
901.189	8511
901.308	8366
901.427	8366
901.546	8393
901.665	8454
901.784	8488
901.904	8377
902.023	8389
902.141	8225
902.26	8252
902.379	8225
902.498	8195
902.617	8187
902.735	8370
902.854	8290
902.973	8252
903.091	8115
903.21	8138
903.328	8153
903.446	8054
903.565	8024
903.683	8046
903.801	8016
903.919	8142
904.038	8142
904.156	8005
904.274	8069
904.392	8035
904.51	8081
904.627	8084
904.745	8107
904.863	8005
904.981	7864
905.098	7875
905.216	7833
905.334	7967
905.451	7833
905.569	7788
905.686	7875
905.803	7925
905.921	7814
906.038	7871
906.155	7795
906.272	7712
906.389	7700
906.506	7643
906.623	7616
906.74	7639
906.857	7594
906.974	7563
907.091	7658
907.208	7700
907.324	7632
907.441	7575
907.557	7430
907.674	7449
907.79	7400
907.907	7388
908.023	7430
908.139	7419
908.256	7373
908.372	7331
908.488	7320
908.604	7251
908.72	7251
908.836	7278
908.952	7285
909.068	7244
909.184	7305
909.3	7225
909.415	7285
909.531	7282
909.647	7114
909.762	7126
909.878	7133
909.993	7114
910.108	7107
910.224	7088
910.339	7023
910.454	6989
910.57	6951
910.685	7008
910.8	7141
910.915	7050
911.03	6993
911.145	6840
911.259	6806
911.374	6894
911.489	6818
911.604	6825
911.718	6700
911.833	6703
911.947	6658
912.062	6597
912.176	6684
912.291	6722
912.405	6684
912.519	6787
912.633	6821
912.748	6684
912.862	6677
912.976	6559
913.09	6509
913.204	6578
913.318	6570
913.431	6665
913.545	6658
913.659	6711
913.772	6631
913.886	6555
914	6593
914.113	6589
914.226	6650
914.34	6582
914.453	6467
914.566	6563
914.68	6551
914.793	6509
914.906	6452
915.019	6448
915.132	6369
915.245	6464
915.358	6422
915.47	6429
915.583	6452
915.696	6429
915.809	6563
915.921	6479
916.034	6437
916.146	6418
916.259	6380
916.371	6467
916.483	6456
916.595	6418
916.708	6350
916.82	6456
916.932	6372
917.044	6403
917.156	6426
917.268	6357
917.38	6319
917.491	6319
917.603	6350
917.715	6410
917.826	6426
917.938	6315
918.049	6239
918.161	6292
918.272	6357
918.384	6460
918.495	6285
918.606	6228
918.717	6220
918.828	6232
918.939	6254
919.05	6125
919.161	6296
919.272	6136
919.383	6194
919.494	6289
919.604	6410
919.715	6331
919.826	6262
919.936	6266
920.047	6281
920.157	6273
920.267	6483
920.378	6319
920.488	6289
920.598	6437
920.708	6525
920.818	6418
920.928	6410
921.038	6601
921.148	6536
921.258	6365
921.368	6285
921.477	6171
921.587	6102
921.697	6159
921.806	6144
921.916	6045
922.025	5920
922.134	5851
922.244	5874
922.353	5931
922.462	5817
922.571	5779
922.68	5699
922.789	5695
922.898	5668
923.007	5672
923.116	5653
923.224	5699
923.333	5608
923.442	5551
923.55	5604
923.659	5577
923.767	5558
923.876	5524
923.984	5608
924.092	5577
924.201	5543
924.309	5505
924.417	5573
924.525	5493
924.633	5467
924.741	6292
924.849	5364
924.956	5459
925.064	5376
925.172	5307
925.279	5254
925.387	5368
925.494	5299
925.602	5440
925.709	5410
925.816	5273
925.924	5315
926.031	5360
926.138	5307
926.245	5277
926.352	5269
926.459	5318
926.566	5273
926.673	5162
926.779	5090
926.886	5121
926.993	5041
927.099	4984
927.206	4991
927.312	4938
927.419	5067
927.525	4972
927.631	4995
927.737	4843
927.843	4858
927.95	4771
928.056	4782
928.162	4778
928.267	4801
928.373	5197
928.479	4839
928.585	4668
928.69	4790
928.796	4748
928.901	4710
929.007	4645
929.112	4649
929.218	4599
929.323	4588
929.428	4531
929.533	4618
929.638	4527
929.743	4516
929.848	4527
929.953	4489
930.058	4428
930.163	4284
930.267	4356
930.372	4417
930.477	4276
930.581	4459
930.685	4348
930.79	4242
930.894	4249
930.998	4253
931.103	4386
931.207	4116
931.311	4074
931.415	3998
931.519	3956
931.623	3903
