Data from glass_V78500241_2032.txt Node
Date: Wed Sep 01 19:28:35 CST 2021
User: usil
Spectrometer: V785-0024
Trigger mode: 0
Integration Time (sec): 4.000000E-1
Scans to average: 1
Nonlinearity correction enabled: false
Boxcar width: 0
Storing dark spectrum: false
XAxis mode: Wavelengths
Number of Pixels in Spectrum: 1024
>>>>>Begin Spectral Data<<<<<
801.071	3694
801.214	3762
801.356	3682
801.499	3808
801.641	3694
801.783	3766
801.926	3873
802.068	3797
802.211	3823
802.353	3854
802.496	3861
802.638	3861
802.78	3922
802.923	3907
803.065	3880
803.208	3842
803.35	3865
803.492	3922
803.635	3934
803.777	3800
803.919	3876
804.061	4128
804.204	3979
804.346	3934
804.488	3911
804.63	4029
804.773	3964
804.915	4036
805.057	4173
805.199	3994
805.341	4097
805.483	4166
805.626	4128
805.768	4093
805.91	4204
806.052	4257
806.194	4169
806.336	4356
806.478	4219
806.62	4154
806.762	4139
806.904	4253
807.046	4306
807.188	4242
807.33	4162
807.472	4192
807.614	4272
807.756	4223
807.898	4234
808.04	4196
808.182	4284
808.324	4325
808.465	4379
808.607	4516
808.749	4421
808.891	4474
809.033	4531
809.174	4398
809.316	4223
809.458	4242
809.6	4147
809.741	4112
809.883	4154
810.025	4211
810.166	4249
810.308	4185
810.45	4192
810.591	4192
810.733	4291
810.875	4485
811.016	4793
811.158	5071
811.299	5242
811.441	5292
811.582	5067
811.724	4702
811.865	4455
812.007	4443
812.148	4413
812.29	4413
812.431	4398
812.573	4405
812.714	4367
812.855	4402
812.997	4436
813.138	4493
813.279	4375
813.421	4337
813.562	4398
813.703	4325
813.845	4314
813.986	4246
814.127	4204
814.268	4200
814.41	4276
814.551	4249
814.692	4291
814.833	4234
814.974	4284
815.115	4318
815.256	4242
815.397	4227
815.539	4268
815.68	4253
815.821	4211
815.962	4344
816.103	4246
816.244	4234
816.385	4196
816.526	4299
816.666	4173
816.807	4078
816.948	4204
817.089	4147
817.23	4124
817.371	4036
817.512	4090
817.653	4078
817.793	4051
817.934	4051
818.075	4063
818.216	4093
818.356	4131
818.497	3964
818.638	3915
818.778	3922
818.919	3823
819.06	3854
819.2	3930
819.341	3880
819.481	3880
819.622	3934
819.762	4048
819.903	3899
820.043	3857
820.184	3793
820.324	3831
820.465	3861
820.605	3819
820.746	3915
820.886	3861
821.026	3937
821.167	3903
821.307	3956
821.447	3964
821.588	3975
821.728	3945
821.868	3953
822.008	3857
822.149	3953
822.289	3941
822.429	3743
822.569	3736
822.709	3789
822.849	3682
822.99	3713
823.13	3762
823.27	3789
823.41	3686
823.55	3732
823.69	3720
823.83	3728
823.97	3637
824.11	3580
824.25	3591
824.389	3652
824.529	3663
824.669	3644
824.809	3694
824.949	3755
825.089	3740
825.228	3698
825.368	3625
825.508	3534
825.648	3572
825.787	3572
825.927	3610
826.067	3641
826.206	3663
826.346	3778
826.485	3835
826.625	3838
826.765	3926
826.904	3846
827.044	3606
827.183	3492
827.323	3389
827.462	3492
827.601	3424
827.741	3393
827.88	3443
828.02	3386
828.159	3439
828.298	3504
828.437	3507
828.577	3481
828.716	3538
828.855	3481
828.994	3374
829.134	3382
829.273	3389
829.412	3317
829.551	3329
829.69	3317
829.829	3439
829.968	3462
830.107	3481
830.246	3439
830.385	3370
830.524	3386
830.663	3298
830.802	3230
830.941	3230
831.08	3226
831.219	3237
831.357	3253
831.496	3409
831.635	3218
831.774	3165
831.913	3195
832.051	3089
832.19	3138
832.329	3207
832.467	3154
832.606	3066
832.744	3188
832.883	3184
833.022	3195
833.16	3245
833.299	3291
833.437	3336
833.576	3332
833.714	3409
833.852	3412
833.991	3431
834.129	3481
834.267	3454
834.406	3389
834.544	3386
834.682	3454
834.821	3443
834.959	3557
835.097	3424
835.235	3530
835.373	3477
835.511	3458
835.65	3443
835.788	3443
835.926	3393
836.064	3367
836.202	3420
836.34	3564
836.478	3591
836.615	3542
836.753	3595
836.891	3641
837.029	3622
837.167	3568
837.305	3580
837.443	3534
837.58	3473
837.718	3564
837.856	3542
837.993	3538
838.131	3580
838.269	3568
838.406	3568
838.544	3542
838.681	3485
838.819	3416
838.956	3405
839.094	3367
839.231	3466
839.369	3485
839.506	3743
839.643	3644
839.781	3481
839.918	3447
840.055	3519
840.193	3496
840.33	3504
840.467	3530
840.604	3603
840.742	3793
840.879	3545
841.016	3591
841.153	3603
841.29	3751
841.427	3709
841.564	3732
841.701	3717
841.838	3709
841.975	3652
842.112	3728
842.249	3652
842.385	3641
842.522	3797
842.659	3679
842.796	3652
842.933	3717
843.069	3682
843.206	3671
843.343	3835
843.479	3759
843.616	3793
843.752	3660
843.889	3701
844.025	3884
844.162	3717
844.298	3888
844.435	3766
844.571	3812
844.708	3892
844.844	3991
844.98	4051
845.117	3987
845.253	3896
845.389	3884
845.525	3926
845.661	3994
845.798	3926
845.934	4010
846.07	3953
846.206	4059
846.342	4105
846.478	4059
846.614	3991
846.75	3915
846.886	3873
847.022	4036
847.158	3987
847.294	3991
847.429	4025
847.565	3960
847.701	4238
847.837	3884
847.972	3865
848.108	4013
848.244	3937
848.379	3838
848.515	3831
848.65	3800
848.786	3816
848.921	3854
849.057	3911
849.192	3941
849.328	3888
849.463	3888
849.598	3854
849.734	3850
849.869	3823
850.004	3751
850.14	3793
850.275	3819
850.41	3743
850.545	3717
850.68	3816
850.815	3812
850.95	3789
851.085	3918
851.22	3892
851.355	3861
851.49	3778
851.625	3797
851.76	3804
851.895	3732
852.03	3732
852.165	3759
852.299	3854
852.434	3903
852.569	3873
852.703	3854
852.838	3911
852.973	3998
853.107	3998
853.242	3884
853.376	3861
853.511	3797
853.645	3816
853.78	4002
853.914	3934
854.048	3903
854.183	3899
854.317	3960
854.451	4048
854.585	3930
854.72	3930
854.854	4029
854.988	3945
855.122	3991
855.256	3888
855.39	4017
855.524	4093
855.658	4071
855.792	4082
855.926	4109
856.06	4162
856.194	4188
856.327	4128
856.461	4116
856.595	4166
856.729	4192
856.862	4280
856.996	4242
857.13	4230
857.263	4268
857.397	4318
857.53	4227
857.664	4310
857.797	4394
857.931	4459
858.064	4367
858.197	4470
858.331	4428
858.464	4352
858.597	4333
858.731	4443
858.864	4455
858.997	4440
859.13	4478
859.263	4504
859.396	4592
859.529	4489
859.662	4516
859.795	4531
859.928	4596
860.061	4710
860.194	4748
860.327	4603
860.46	4618
860.592	4744
860.725	4771
860.858	4755
860.99	4653
861.123	4668
861.256	4714
861.388	4748
861.521	5444
861.653	4725
861.786	4710
861.918	4759
862.05	4816
862.183	4816
862.315	4904
862.447	4957
862.58	4908
862.712	4786
862.844	4782
862.976	4881
863.108	4904
863.24	5166
863.372	4835
863.504	4854
863.636	4858
863.768	4946
863.9	4968
864.032	4961
864.164	4938
864.296	5018
864.428	5079
864.559	5060
864.691	5140
864.823	5094
864.954	5090
865.086	5090
865.217	5132
865.349	5086
865.48	5208
865.612	5208
865.743	5273
865.875	5170
866.006	5212
866.137	5250
866.269	5242
866.4	5235
866.531	5273
866.662	5174
866.793	5288
866.924	5239
867.055	5337
867.186	5307
867.317	5265
867.448	5349
867.579	5368
867.71	5337
867.841	5341
867.972	5459
868.103	5433
868.233	5482
868.364	5535
868.495	5581
868.625	5676
868.756	5764
868.886	5714
869.017	5710
869.147	5836
869.278	5863
869.408	5824
869.539	5824
869.669	5904
869.799	5885
869.929	5973
870.06	6057
870.19	6209
870.32	6152
870.45	6270
870.58	6338
870.71	6448
870.84	6437
870.97	6399
871.1	6426
871.23	6639
871.36	6673
871.489	6662
871.619	6711
871.749	6749
871.879	6810
872.008	6951
872.138	7027
872.267	7000
872.397	6947
872.526	6958
872.656	7095
872.785	7289
872.915	7381
873.044	7464
873.173	7563
873.303	7636
873.432	7750
873.561	7826
873.69	8005
873.819	8024
873.948	8240
874.077	8275
874.206	8298
874.335	8408
874.464	8632
874.593	8849
874.722	8902
874.851	9058
874.979	9264
875.108	9336
875.237	9439
875.365	9450
875.494	9591
875.623	9838
875.751	9835
875.88	9979
876.008	10162
876.136	10265
876.265	10428
876.393	10740
876.521	10740
876.65	10736
876.778	10938
876.906	10869
877.034	11003
877.162	11075
877.29	11227
877.418	11250
877.546	11288
877.674	11433
877.802	11471
877.93	11520
878.058	11585
878.185	11611
878.313	11623
878.441	11817
878.568	11657
878.696	11733
878.824	11847
878.951	11942
879.079	12045
879.206	12144
879.333	12087
879.461	12007
879.588	12091
879.715	12007
879.842	12144
879.97	12083
880.097	11874
880.224	11874
880.351	11893
880.478	11961
880.605	11870
880.732	11771
880.859	12034
880.986	11870
881.112	11859
881.239	11748
881.366	11665
881.493	11615
881.619	11611
881.746	11535
881.872	11577
881.999	11501
882.125	11429
882.252	11573
882.378	11543
882.505	11581
882.631	11334
882.757	11239
882.883	11254
883.01	11201
883.136	11147
883.262	11162
883.388	11029
883.514	11147
883.64	11140
883.766	11098
883.892	11025
884.018	10946
884.143	11102
884.269	11025
884.395	10847
884.52	10797
884.646	10797
884.772	10740
884.897	10634
885.023	10687
885.148	10721
885.274	10740
885.399	10687
885.524	10645
885.65	10603
885.775	10615
885.9	10523
886.025	10542
886.15	10516
886.275	10440
886.4	10428
886.525	10466
886.65	10329
886.775	10352
886.9	10497
887.025	10516
887.149	10314
887.274	10211
887.399	10120
887.523	10120
887.648	10082
887.773	10101
887.897	10188
888.021	10219
888.146	10154
888.27	10215
888.395	10204
888.519	10204
888.643	10139
888.767	10230
888.891	10055
889.015	10044
889.139	10040
889.263	9937
889.387	10090
889.511	10150
889.635	10059
889.759	9915
889.883	10006
890.006	9991
890.13	10101
890.254	9937
890.377	9991
890.501	9838
890.624	9922
890.748	9857
890.871	9861
890.995	9755
891.118	9728
891.241	9743
891.364	9724
891.488	9797
891.611	9747
891.734	9682
891.857	9740
891.98	9736
892.103	9789
892.226	9644
892.349	9637
892.471	9561
892.594	9542
892.717	9564
892.839	9584
892.962	9625
893.085	9610
893.207	9580
893.33	9542
893.452	9420
893.575	9622
893.697	9443
893.819	9663
893.941	9603
894.064	9561
894.186	9477
894.308	9416
894.43	9530
894.552	9572
894.674	9553
894.796	9359
894.918	9306
895.04	9359
895.161	9412
895.283	9332
895.405	9222
895.526	9176
895.648	9249
895.769	9222
895.891	9237
896.012	9302
896.134	9161
896.255	9188
896.376	9081
896.498	9184
896.619	9138
896.74	9070
896.861	9097
896.982	9260
897.103	9317
897.224	9142
897.345	9081
897.466	9001
897.587	9043
897.708	9074
897.828	9028
897.949	8921
898.07	8838
898.19	8929
898.311	9009
898.431	8887
898.552	8887
898.672	9020
898.792	8910
898.913	8956
899.033	8792
899.153	8769
899.273	8629
899.393	8693
899.513	8758
899.633	8670
899.753	8727
899.873	8693
899.993	8712
900.113	8670
900.232	8686
900.352	8629
900.472	8602
900.591	8571
900.711	8610
900.83	8556
900.95	8606
901.069	8705
901.189	8587
901.308	8370
901.427	8377
901.546	8457
901.665	8488
901.784	8545
901.904	8339
902.023	8332
902.141	8214
902.26	8233
902.379	8309
902.498	8206
902.617	8161
902.735	8256
902.854	8263
902.973	8214
903.091	8092
903.21	8069
903.328	8164
903.446	8073
903.565	8081
903.683	8088
903.801	8062
903.919	8119
904.038	8008
904.156	8005
904.274	8107
904.392	8008
904.51	8027
904.627	8031
904.745	8024
904.863	8103
904.981	7936
905.098	7887
905.216	7799
905.334	7906
905.451	7856
905.569	7849
905.686	7944
905.803	7890
905.921	7856
906.038	7913
906.155	7845
906.272	7708
906.389	7734
906.506	7609
906.623	7605
906.74	7537
906.857	7537
906.974	7578
907.091	7658
907.208	7677
907.324	7575
907.441	7624
907.557	7472
907.674	7430
907.79	7430
907.907	7445
908.023	7434
908.139	7419
908.256	7388
908.372	7388
908.488	7365
908.604	7244
908.72	7228
908.836	7320
908.952	7247
909.068	7247
909.184	7331
909.3	7263
909.415	7240
909.531	7312
909.647	7084
909.762	7084
909.878	7122
909.993	7114
910.108	7126
910.224	7129
910.339	7149
910.454	7046
910.57	7015
910.685	7004
910.8	7084
910.915	7129
911.03	7015
911.145	6909
911.259	6863
911.374	6958
911.489	6859
911.604	6734
911.718	6692
911.833	6730
911.947	6623
912.062	6631
912.176	6673
912.291	6684
912.405	6658
912.519	6825
912.633	6844
912.748	6738
912.862	6722
912.976	6578
913.09	6563
913.204	6582
913.318	6604
913.431	6665
913.545	6658
913.659	6688
913.772	6612
913.886	6513
914	6555
914.113	6642
914.226	6616
914.34	6608
914.453	6513
914.566	6658
914.68	6559
914.793	6532
914.906	6426
915.019	6399
915.132	6418
915.245	6372
915.358	6441
915.47	6475
915.583	6452
915.696	6464
915.809	6479
915.921	6532
916.034	6437
916.146	6429
916.259	6422
916.371	6452
916.483	6445
916.595	6384
916.708	6410
916.82	6388
916.932	6353
917.044	6376
917.156	6407
917.268	6327
917.38	6334
917.491	6323
917.603	6285
917.715	6403
917.826	6372
917.938	6304
918.049	6224
918.161	6350
918.272	6422
918.384	6361
918.495	6289
918.606	6209
918.717	6247
918.828	6251
918.939	6243
919.05	6171
919.161	6209
919.272	6117
919.383	6102
919.494	6304
919.604	6445
919.715	6254
919.826	6308
919.936	6213
920.047	6350
920.157	6300
920.267	6452
920.378	6327
920.488	6296
920.598	6486
920.708	6536
920.818	6467
920.928	6475
921.038	6604
921.148	6570
921.258	6342
921.368	6327
921.477	6182
921.587	6155
921.697	6049
921.806	6175
921.916	6076
922.025	5939
922.134	5874
922.244	5908
922.353	5999
922.462	5836
922.571	5783
922.68	5703
922.789	5699
922.898	5661
923.007	5615
923.116	5695
923.224	5699
923.333	5581
923.442	5611
923.55	5577
923.659	5600
923.767	5653
923.876	5478
923.984	5562
924.092	5512
924.201	5551
924.309	5547
924.417	5524
924.525	5478
924.633	5516
924.741	6216
924.849	5376
924.956	5493
925.064	5353
925.172	5379
925.279	5273
925.387	5364
925.494	5261
925.602	5436
925.709	5372
925.816	5258
925.924	5273
926.031	5334
926.138	5364
926.245	5296
926.352	5223
926.459	5334
926.566	5330
926.673	5227
926.779	5124
926.886	5117
926.993	5041
927.099	5014
927.206	5006
927.312	4949
927.419	5025
927.525	4980
927.631	4957
927.737	4866
927.843	4877
927.95	4786
928.056	4877
928.162	4850
928.267	4847
928.373	5280
928.479	4850
928.585	4653
928.69	4771
928.796	4793
928.901	4656
929.007	4569
929.112	4660
929.218	4664
929.323	4561
929.428	4569
929.533	4618
929.638	4493
929.743	4580
929.848	4546
929.953	4489
930.058	4455
930.163	4333
930.267	4325
930.372	4428
930.477	4322
930.581	4470
930.685	4360
930.79	4287
930.894	4272
930.998	4253
931.103	4367
931.207	4135
931.311	4105
931.415	4032
931.519	3934
931.623	3964
