Data from glass_V78500241_2843.txt Node
Date: Wed Sep 01 19:34:12 CST 2021
User: usil
Spectrometer: V785-0024
Trigger mode: 0
Integration Time (sec): 4.000000E-1
Scans to average: 1
Nonlinearity correction enabled: false
Boxcar width: 0
Storing dark spectrum: false
XAxis mode: Wavelengths
Number of Pixels in Spectrum: 1024
>>>>>Begin Spectral Data<<<<<
801.071	3694
801.214	3740
801.356	3671
801.499	3720
801.641	3698
801.783	3736
801.926	3854
802.068	3766
802.211	3865
802.353	3842
802.496	3789
802.638	3846
802.78	3892
802.923	3888
803.065	3880
803.208	3850
803.35	3835
803.492	3903
803.635	3876
803.777	3770
803.919	3896
804.061	4143
804.204	3937
804.346	3934
804.488	3873
804.63	3991
804.773	3934
804.915	3968
805.057	4173
805.199	4032
805.341	4067
805.483	4139
805.626	4116
805.768	4071
805.91	4192
806.052	4249
806.194	4131
806.336	4303
806.478	4215
806.62	4131
806.762	4192
806.904	4192
807.046	4310
807.188	4196
807.33	4169
807.472	4154
807.614	4166
807.756	4230
807.898	4154
808.04	4185
808.182	4246
808.324	4303
808.465	4356
808.607	4436
808.749	4417
808.891	4459
809.033	4489
809.174	4398
809.316	4249
809.458	4230
809.6	4158
809.741	4116
809.883	4097
810.025	4139
810.166	4177
810.308	4185
810.45	4207
810.591	4227
810.733	4299
810.875	4519
811.016	4835
811.158	5075
811.299	5216
811.441	5208
811.582	5045
811.724	4721
811.865	4451
812.007	4440
812.148	4402
812.29	4428
812.431	4383
812.573	4363
812.714	4360
812.855	4375
812.997	4386
813.138	4436
813.279	4363
813.421	4371
813.562	4325
813.703	4276
813.845	4287
813.986	4227
814.127	4196
814.268	4265
814.41	4246
814.551	4227
814.692	4329
814.833	4223
814.974	4284
815.115	4287
815.256	4234
815.397	4211
815.539	4219
815.68	4219
815.821	4215
815.962	4257
816.103	4284
816.244	4211
816.385	4234
816.526	4268
816.666	4154
816.807	4044
816.948	4097
817.089	4173
817.23	4097
817.371	4063
817.512	4025
817.653	4021
817.793	3960
817.934	4044
818.075	4093
818.216	4029
818.356	4055
818.497	4029
818.638	3907
818.778	3888
818.919	3842
819.06	3869
819.2	3911
819.341	3823
819.481	3865
819.622	3865
819.762	3968
819.903	3945
820.043	3804
820.184	3819
820.324	3793
820.465	3869
820.605	3861
820.746	3823
820.886	3808
821.026	3873
821.167	3888
821.307	3983
821.447	3937
821.588	3937
821.728	3899
821.868	3945
822.008	3888
822.149	3896
822.289	3918
822.429	3747
822.569	3755
822.709	3774
822.849	3694
822.99	3713
823.13	3736
823.27	3732
823.41	3656
823.55	3724
823.69	3728
823.83	3656
823.97	3671
824.11	3610
824.25	3603
824.389	3663
824.529	3682
824.669	3610
824.809	3705
824.949	3762
825.089	3705
825.228	3701
825.368	3549
825.508	3542
825.648	3549
825.787	3595
825.927	3633
826.067	3595
826.206	3641
826.346	3785
826.485	3789
826.625	3880
826.765	3941
826.904	3808
827.044	3618
827.183	3553
827.323	3431
827.462	3462
827.601	3382
827.741	3435
827.88	3447
828.02	3344
828.159	3473
828.298	3450
828.437	3504
828.577	3424
828.716	3523
828.855	3481
828.994	3359
829.134	3313
829.273	3386
829.412	3348
829.551	3332
829.69	3355
829.829	3424
829.968	3500
830.107	3450
830.246	3412
830.385	3389
830.524	3367
830.663	3272
830.802	3226
830.941	3188
831.08	3161
831.219	3245
831.357	3241
831.496	3359
831.635	3218
831.774	3188
831.913	3207
832.051	3119
832.19	3108
832.329	3173
832.467	3108
832.606	3108
832.744	3138
832.883	3199
833.022	3180
833.16	3237
833.299	3287
833.437	3306
833.576	3359
833.714	3401
833.852	3428
833.991	3382
834.129	3458
834.267	3416
834.406	3409
834.544	3382
834.682	3450
834.821	3389
834.959	3561
835.097	3405
835.235	3507
835.373	3458
835.511	3507
835.65	3435
835.788	3462
835.926	3386
836.064	3359
836.202	3374
836.34	3572
836.478	3553
836.615	3496
836.753	3580
836.891	3614
837.029	3595
837.167	3606
837.305	3545
837.443	3542
837.58	3477
837.718	3610
837.856	3557
837.993	3504
838.131	3572
838.269	3572
838.406	3549
838.544	3587
838.681	3469
838.819	3466
838.956	3329
839.094	3386
839.231	3443
839.369	3515
839.506	3736
839.643	3652
839.781	3450
839.918	3466
840.055	3538
840.193	3519
840.33	3477
840.467	3572
840.604	3606
840.742	3751
840.879	3519
841.016	3545
841.153	3595
841.29	3728
841.427	3701
841.564	3701
841.701	3713
841.838	3747
841.975	3641
842.112	3679
842.249	3580
842.385	3599
842.522	3827
842.659	3652
842.796	3679
842.933	3705
843.069	3690
843.206	3622
843.343	3797
843.479	3800
843.616	3804
843.752	3652
843.889	3675
844.025	3842
844.162	3717
844.298	3835
844.435	3797
844.571	3755
844.708	3899
844.844	3960
844.98	4048
845.117	4010
845.253	3926
845.389	3888
845.525	3956
845.661	3907
845.798	3899
845.934	3998
846.07	3918
846.206	4032
846.342	4116
846.478	4055
846.614	3953
846.75	3930
846.886	3876
847.022	4010
847.158	3964
847.294	4010
847.429	3991
847.565	3953
847.701	4211
847.837	3892
847.972	3816
848.108	4017
848.244	3907
848.379	3857
848.515	3762
848.65	3819
848.786	3808
848.921	3785
849.057	3873
849.192	3960
849.328	3896
849.463	3918
849.598	3850
849.734	3823
849.869	3785
850.004	3774
850.14	3816
850.275	3778
850.41	3728
850.545	3720
850.68	3762
850.815	3812
850.95	3774
851.085	3918
851.22	3835
851.355	3831
851.49	3781
851.625	3797
851.76	3762
851.895	3709
852.03	3740
852.165	3797
852.299	3831
852.434	3876
852.569	3873
852.703	3888
852.838	3907
852.973	4010
853.107	3972
853.242	3861
853.376	3804
853.511	3770
853.645	3800
853.78	3930
853.914	3888
854.048	3838
854.183	3857
854.317	3926
854.451	4086
854.585	3922
854.72	3915
854.854	4036
854.988	3930
855.122	3968
855.256	3857
855.39	4002
855.524	4067
855.658	4067
855.792	4055
855.926	4128
856.06	4139
856.194	4131
856.327	4124
856.461	4147
856.595	4124
856.729	4173
856.862	4246
856.996	4219
857.13	4280
857.263	4284
857.397	4356
857.53	4299
857.664	4310
857.797	4394
857.931	4386
858.064	4371
858.197	4459
858.331	4352
858.464	4341
858.597	4318
858.731	4421
858.864	4409
858.997	4474
859.13	4485
859.263	4531
859.396	4584
859.529	4516
859.662	4508
859.795	4523
859.928	4558
860.061	4729
860.194	4725
860.327	4637
860.46	4645
860.592	4683
860.725	4710
860.858	4748
860.99	4660
861.123	4687
861.256	4679
861.388	4706
861.521	5223
861.653	4725
861.786	4698
861.918	4752
862.05	4782
862.183	4797
862.315	4854
862.447	4904
862.58	4870
862.712	4812
862.844	4729
862.976	4889
863.108	4805
863.24	5189
863.372	4858
863.504	4850
863.636	4889
863.768	4930
863.9	4900
864.032	4889
864.164	4858
864.296	5018
864.428	5060
864.559	5029
864.691	5124
864.823	5086
864.954	5022
865.086	5128
865.217	5124
865.349	5071
865.48	5185
865.612	5159
865.743	5292
865.875	5124
866.006	5208
866.137	5201
866.269	5204
866.4	5223
866.531	5299
866.662	5220
866.793	5269
866.924	5231
867.055	5379
867.186	5303
867.317	5296
867.448	5246
867.579	5360
867.71	5357
867.841	5387
867.972	5414
868.103	5505
868.233	5501
868.364	5482
868.495	5554
868.625	5589
868.756	5710
868.886	5668
869.017	5726
869.147	5885
869.278	5836
869.408	5805
869.539	5794
869.669	5859
869.799	5844
869.929	5973
870.06	5980
870.19	6220
870.32	6148
870.45	6262
870.58	6327
870.71	6388
870.84	6429
870.97	6422
871.1	6452
871.23	6620
871.36	6631
871.489	6623
871.619	6711
871.749	6798
871.879	6791
872.008	6905
872.138	6981
872.267	6989
872.397	6970
872.526	7008
872.656	7053
872.785	7145
872.915	7365
873.044	7540
873.173	7586
873.303	7559
873.432	7696
873.561	7814
873.69	7890
873.819	8024
873.948	8164
874.077	8214
874.206	8317
874.335	8438
874.464	8682
874.593	8891
874.722	8925
874.851	9104
874.979	9157
875.108	9363
875.237	9458
875.365	9359
875.494	9641
875.623	9766
875.751	9785
875.88	9991
876.008	10086
876.136	10261
876.265	10523
876.393	10725
876.521	10607
876.65	10793
876.778	10866
876.906	10873
877.034	10968
877.162	11117
877.29	11143
877.418	11311
877.546	11372
877.674	11444
877.802	11398
877.93	11459
878.058	11459
878.185	11581
878.313	11604
878.441	11726
878.568	11642
878.696	11786
878.824	11874
878.951	11942
879.079	11988
879.206	12019
879.333	12068
879.461	11942
879.588	12041
879.715	12030
879.842	12205
879.97	12152
880.097	11817
880.224	11794
880.351	11843
880.478	11817
880.605	11786
880.732	11840
880.859	12049
880.986	11745
881.112	11824
881.239	11722
881.366	11714
881.493	11627
881.619	11543
881.746	11516
881.872	11501
881.999	11532
882.125	11474
882.252	11516
882.378	11520
882.505	11497
882.631	11345
882.757	11318
882.883	11315
883.01	11185
883.136	11201
883.262	11102
883.388	11098
883.514	11201
883.64	11159
883.766	11113
883.892	10987
884.018	10965
884.143	11105
884.269	10999
884.395	10843
884.52	10675
884.646	10714
884.772	10691
884.897	10611
885.023	10660
885.148	10706
885.274	10801
885.399	10691
885.524	10561
885.65	10573
885.775	10618
885.9	10558
886.025	10592
886.15	10516
886.275	10386
886.4	10341
886.525	10348
886.65	10363
886.775	10352
886.9	10443
887.025	10489
887.149	10375
887.274	10169
887.399	10173
887.523	10154
887.648	10101
887.773	10162
887.897	10181
888.021	10150
888.146	10093
888.27	10173
888.395	10207
888.519	10124
888.643	10120
888.767	10204
888.891	10082
889.015	10078
889.139	9968
889.263	9972
889.387	10116
889.511	10044
889.635	10017
889.759	10036
889.883	9972
890.006	9991
890.13	10032
890.254	9884
890.377	9968
890.501	9827
890.624	9949
890.748	9892
890.871	9797
890.995	9800
891.118	9732
891.241	9736
891.364	9709
891.488	9850
891.611	9694
891.734	9682
891.857	9705
891.98	9713
892.103	9770
892.226	9724
892.349	9644
892.471	9492
892.594	9580
892.717	9599
892.839	9557
892.962	9595
893.085	9682
893.207	9625
893.33	9469
893.452	9439
893.575	9606
893.697	9462
893.819	9530
893.941	9519
894.064	9591
894.186	9336
894.308	9378
894.43	9485
894.552	9553
894.674	9511
894.796	9340
894.918	9340
895.04	9302
895.161	9302
895.283	9306
895.405	9222
895.526	9176
895.648	9161
895.769	9192
895.891	9203
896.012	9256
896.134	9230
896.255	9108
896.376	9077
896.498	9192
896.619	9135
896.74	9051
896.861	9085
896.982	9256
897.103	9203
897.224	9119
897.345	9024
897.466	9024
897.587	9028
897.708	9097
897.828	8975
897.949	8944
898.07	8918
898.19	8872
898.311	9001
898.431	8861
898.552	8914
898.672	8960
898.792	8998
898.913	8902
899.033	8743
899.153	8697
899.273	8670
899.393	8705
899.513	8720
899.633	8629
899.753	8682
899.873	8663
899.993	8762
900.113	8750
900.232	8689
900.352	8606
900.472	8606
900.591	8545
900.711	8537
900.83	8632
900.95	8674
901.069	8659
901.189	8533
901.308	8389
901.427	8377
901.546	8434
901.665	8438
901.784	8412
901.904	8374
902.023	8275
902.141	8244
902.26	8210
902.379	8221
902.498	8172
902.617	8202
902.735	8279
902.854	8237
902.973	8267
903.091	8103
903.21	8153
903.328	8225
903.446	8069
903.565	8054
903.683	8054
903.801	8065
903.919	8142
904.038	8115
904.156	7932
904.274	8096
904.392	7967
904.51	8005
904.627	7993
904.745	8035
904.863	8016
904.981	7925
905.098	7780
905.216	7883
905.334	7845
905.451	7845
905.569	7864
905.686	7959
905.803	7898
905.921	7689
906.038	7830
906.155	7761
906.272	7655
906.389	7662
906.506	7571
906.623	7563
906.74	7582
906.857	7533
906.974	7571
907.091	7616
907.208	7647
907.324	7620
907.441	7609
907.557	7415
907.674	7419
907.79	7236
907.907	7305
908.023	7388
908.139	7377
908.256	7381
908.372	7331
908.488	7324
908.604	7247
908.72	7228
908.836	7247
908.952	7244
909.068	7263
909.184	7278
909.3	7228
909.415	7228
909.531	7247
909.647	7129
909.762	7095
909.878	7091
909.993	7137
910.108	7031
910.224	7015
910.339	7088
910.454	7061
910.57	6996
910.685	6913
910.8	7168
910.915	7114
911.03	6977
911.145	6905
911.259	6897
911.374	6863
911.489	6810
911.604	6806
911.718	6646
911.833	6707
911.947	6616
912.062	6582
912.176	6662
912.291	6681
912.405	6631
912.519	6776
912.633	6783
912.748	6726
912.862	6654
912.976	6578
913.09	6528
913.204	6544
913.318	6601
913.431	6665
913.545	6692
913.659	6741
913.772	6692
913.886	6513
914	6528
914.113	6585
914.226	6616
914.34	6566
914.453	6517
914.566	6555
914.68	6509
914.793	6517
914.906	6410
915.019	6509
915.132	6327
915.245	6407
915.358	6467
915.47	6437
915.583	6433
915.696	6498
915.809	6506
915.921	6544
916.034	6422
916.146	6380
916.259	6365
916.371	6407
916.483	6403
916.595	6384
916.708	6388
916.82	6388
916.932	6391
917.044	6311
917.156	6388
917.268	6258
917.38	6346
917.491	6350
917.603	6338
917.715	6323
917.826	6471
917.938	6384
918.049	6220
918.161	6338
918.272	6452
918.384	6429
918.495	6331
918.606	6243
918.717	6159
918.828	6292
918.939	6228
919.05	6209
919.161	6266
919.272	6068
919.383	6110
919.494	6247
919.604	6395
919.715	6235
919.826	6178
919.936	6258
920.047	6296
920.157	6197
920.267	6445
920.378	6277
920.488	6277
920.598	6361
920.708	6555
920.818	6441
920.928	6490
921.038	6525
921.148	6620
921.258	6369
921.368	6262
921.477	6190
921.587	6190
921.697	6079
921.806	6133
921.916	6068
922.025	5977
922.134	5885
922.244	5885
922.353	5863
922.462	5817
922.571	5821
922.68	5714
922.789	5634
922.898	5642
923.007	5642
923.116	5688
923.224	5699
923.333	5657
923.442	5554
923.55	5562
923.659	5600
923.767	5630
923.876	5516
923.984	5570
924.092	5474
924.201	5558
924.309	5528
924.417	5528
924.525	5505
924.633	5543
924.741	6079
924.849	5341
924.956	5467
925.064	5258
925.172	5315
925.279	5288
925.387	5261
925.494	5326
925.602	5376
925.709	5322
925.816	5288
925.924	5269
926.031	5379
926.138	5296
926.245	5322
926.352	5223
926.459	5315
926.566	5315
926.673	5197
926.779	5048
926.886	5083
926.993	4976
927.099	4976
927.206	4946
927.312	4927
927.419	4972
927.525	4949
927.631	4949
927.737	4892
927.843	4889
927.95	4755
928.056	4850
928.162	4797
928.267	4809
928.373	5170
928.479	4805
928.585	4645
928.69	4767
928.796	4767
928.901	4656
929.007	4569
929.112	4653
929.218	4554
929.323	4641
929.428	4523
929.533	4649
929.638	4508
929.743	4523
929.848	4538
929.953	4485
930.058	4485
930.163	4303
930.267	4341
930.372	4405
930.477	4310
930.581	4459
930.685	4268
930.79	4219
930.894	4276
930.998	4253
931.103	4383
931.207	4139
931.311	4048
931.415	4040
931.519	3911
931.623	3903
