Data from glass_V78500241_2497.txt Node
Date: Wed Sep 01 19:31:48 CST 2021
User: usil
Spectrometer: V785-0024
Trigger mode: 0
Integration Time (sec): 4.000000E-1
Scans to average: 1
Nonlinearity correction enabled: false
Boxcar width: 0
Storing dark spectrum: false
XAxis mode: Wavelengths
Number of Pixels in Spectrum: 1024
>>>>>Begin Spectral Data<<<<<
801.071	3759
801.214	3785
801.356	3675
801.499	3713
801.641	3736
801.783	3793
801.926	3846
802.068	3827
802.211	3812
802.353	3869
802.496	3835
802.638	3869
802.78	3873
802.923	3968
803.065	3854
803.208	3861
803.35	3823
803.492	3918
803.635	3911
803.777	3808
803.919	3896
804.061	4112
804.204	3960
804.346	3918
804.488	3880
804.63	4021
804.773	3991
804.915	3998
805.057	4112
805.199	4017
805.341	4063
805.483	4169
805.626	4147
805.768	4093
805.91	4185
806.052	4219
806.194	4211
806.336	4344
806.478	4276
806.62	4090
806.762	4192
806.904	4246
807.046	4352
807.188	4158
807.33	4162
807.472	4246
807.614	4162
807.756	4268
807.898	4234
808.04	4246
808.182	4238
808.324	4299
808.465	4360
808.607	4481
808.749	4447
808.891	4462
809.033	4497
809.174	4360
809.316	4230
809.458	4238
809.6	4158
809.741	4128
809.883	4154
810.025	4204
810.166	4188
810.308	4192
810.45	4219
810.591	4188
810.733	4310
810.875	4519
811.016	4828
811.158	5079
811.299	5208
811.441	5242
811.582	5064
811.724	4668
811.865	4455
812.007	4527
812.148	4428
812.29	4405
812.431	4405
812.573	4394
812.714	4352
812.855	4405
812.997	4417
813.138	4447
813.279	4459
813.421	4383
813.562	4390
813.703	4356
813.845	4329
813.986	4211
814.127	4246
814.268	4268
814.41	4295
814.551	4215
814.692	4363
814.833	4227
814.974	4265
815.115	4344
815.256	4219
815.397	4238
815.539	4265
815.68	4219
815.821	4227
815.962	4310
816.103	4253
816.244	4211
816.385	4211
816.526	4257
816.666	4219
816.807	4067
816.948	4177
817.089	4139
817.23	4124
817.371	4048
817.512	4048
817.653	4086
817.793	4051
817.934	4063
818.075	4105
818.216	4036
818.356	4078
818.497	3979
818.638	3884
818.778	3896
818.919	3861
819.06	3861
819.2	3892
819.341	3888
819.481	3808
819.622	3884
819.762	4013
819.903	3949
820.043	3876
820.184	3861
820.324	3850
820.465	3884
820.605	3835
820.746	3842
820.886	3766
821.026	3918
821.167	3896
821.307	3937
821.447	3983
821.588	3987
821.728	3926
821.868	3907
822.008	3873
822.149	3888
822.289	3869
822.429	3778
822.569	3789
822.709	3804
822.849	3682
822.99	3667
823.13	3755
823.27	3766
823.41	3679
823.55	3736
823.69	3701
823.83	3778
823.97	3663
824.11	3603
824.25	3542
824.389	3587
824.529	3679
824.669	3648
824.809	3660
824.949	3751
825.089	3694
825.228	3701
825.368	3564
825.508	3515
825.648	3564
825.787	3644
825.927	3629
826.067	3614
826.206	3591
826.346	3762
826.485	3819
826.625	3823
826.765	3941
826.904	3762
827.044	3641
827.183	3523
827.323	3450
827.462	3496
827.601	3393
827.741	3393
827.88	3485
828.02	3344
828.159	3431
828.298	3473
828.437	3534
828.577	3466
828.716	3542
828.855	3447
828.994	3401
829.134	3321
829.273	3431
829.412	3332
829.551	3336
829.69	3317
829.829	3405
829.968	3515
830.107	3416
830.246	3462
830.385	3409
830.524	3340
830.663	3287
830.802	3237
830.941	3188
831.08	3180
831.219	3203
831.357	3287
831.496	3397
831.635	3211
831.774	3218
831.913	3116
832.051	3123
832.19	3100
832.329	3169
832.467	3093
832.606	3077
832.744	3195
832.883	3207
833.022	3207
833.16	3260
833.299	3313
833.437	3321
833.576	3355
833.714	3405
833.852	3428
833.991	3401
834.129	3447
834.267	3450
834.406	3386
834.544	3431
834.682	3393
834.821	3367
834.959	3580
835.097	3431
835.235	3526
835.373	3458
835.511	3462
835.65	3473
835.788	3450
835.926	3389
836.064	3359
836.202	3355
836.34	3557
836.478	3637
836.615	3542
836.753	3595
836.891	3625
837.029	3614
837.167	3610
837.305	3564
837.443	3481
837.58	3481
837.718	3606
837.856	3557
837.993	3519
838.131	3603
838.269	3561
838.406	3557
838.544	3557
838.681	3420
838.819	3450
838.956	3389
839.094	3367
839.231	3450
839.369	3519
839.506	3698
839.643	3618
839.781	3507
839.918	3431
840.055	3523
840.193	3519
840.33	3511
840.467	3526
840.604	3568
840.742	3823
840.879	3564
841.016	3526
841.153	3637
841.29	3755
841.427	3717
841.564	3720
841.701	3740
841.838	3690
841.975	3656
842.112	3709
842.249	3637
842.385	3610
842.522	3831
842.659	3698
842.796	3641
842.933	3675
843.069	3679
843.206	3686
843.343	3797
843.479	3743
843.616	3812
843.752	3694
843.889	3743
844.025	3812
844.162	3724
844.298	3876
844.435	3800
844.571	3819
844.708	3884
844.844	3964
844.98	3991
845.117	3998
845.253	3941
845.389	3918
845.525	3968
845.661	3953
845.798	3915
845.934	3987
846.07	3918
846.206	3975
846.342	4082
846.478	4093
846.614	3956
846.75	3945
846.886	3949
847.022	4021
847.158	3964
847.294	3979
847.429	3972
847.565	3998
847.701	4223
847.837	3880
847.972	3835
848.108	3991
848.244	3934
848.379	3842
848.515	3766
848.65	3861
848.786	3793
848.921	3800
849.057	3930
849.192	3930
849.328	3884
849.463	3949
849.598	3857
849.734	3812
849.869	3835
850.004	3774
850.14	3774
850.275	3789
850.41	3740
850.545	3724
850.68	3747
850.815	3789
850.95	3770
851.085	3922
851.22	3888
851.355	3838
851.49	3781
851.625	3774
851.76	3793
851.895	3713
852.03	3759
852.165	3819
852.299	3819
852.434	3899
852.569	3823
852.703	3892
852.838	3884
852.973	3975
853.107	3960
853.242	3903
853.376	3842
853.511	3736
853.645	3797
853.78	3998
853.914	3869
854.048	3873
854.183	3884
854.317	3964
854.451	4086
854.585	3930
854.72	3964
854.854	4032
854.988	3926
855.122	3991
855.256	3896
855.39	4010
855.524	4105
855.658	4071
855.792	4150
855.926	4143
856.06	4139
856.194	4158
856.327	4128
856.461	4093
856.595	4135
856.729	4154
856.862	4276
856.996	4230
857.13	4268
857.263	4322
857.397	4352
857.53	4280
857.664	4367
857.797	4413
857.931	4413
858.064	4413
858.197	4462
858.331	4402
858.464	4325
858.597	4314
858.731	4436
858.864	4455
858.997	4428
859.13	4481
859.263	4462
859.396	4592
859.529	4519
859.662	4535
859.795	4527
859.928	4622
860.061	4717
860.194	4729
860.327	4645
860.46	4626
860.592	4736
860.725	4748
860.858	4687
860.99	4675
861.123	4664
861.256	4664
861.388	4740
861.521	5474
861.653	4740
861.786	4672
861.918	4778
862.05	4774
862.183	4835
862.315	4839
862.447	4976
862.58	4889
862.712	4778
862.844	4744
862.976	4904
863.108	4873
863.24	5269
863.372	4862
863.504	4908
863.636	4843
863.768	4949
863.9	4946
864.032	4870
864.164	4957
864.296	4991
864.428	5113
864.559	5083
864.691	5147
864.823	5079
864.954	5121
865.086	5124
865.217	5185
865.349	5094
865.48	5117
865.612	5208
865.743	5299
865.875	5193
866.006	5170
866.137	5212
866.269	5193
866.4	5288
866.531	5208
866.662	5265
866.793	5292
866.924	5280
867.055	5337
867.186	5315
867.317	5311
867.448	5307
867.579	5337
867.71	5444
867.841	5414
867.972	5436
868.103	5474
868.233	5516
868.364	5493
868.495	5581
868.625	5661
868.756	5809
868.886	5619
869.017	5691
869.147	5828
869.278	5832
869.408	5798
869.539	5821
869.669	5961
869.799	5844
869.929	5973
870.06	5980
870.19	6239
870.32	6163
870.45	6228
870.58	6319
870.71	6384
870.84	6433
870.97	6452
871.1	6464
871.23	6620
871.36	6673
871.489	6639
871.619	6715
871.749	6814
871.879	6825
872.008	6970
872.138	7034
872.267	6966
872.397	6985
872.526	7000
872.656	7076
872.785	7187
872.915	7297
873.044	7518
873.173	7594
873.303	7639
873.432	7723
873.561	7837
873.69	7925
873.819	8024
873.948	8073
874.077	8328
874.206	8252
874.335	8492
874.464	8693
874.593	8853
874.722	8883
874.851	9081
874.979	9218
875.108	9332
875.237	9359
875.365	9458
875.494	9614
875.623	9869
875.751	9831
875.88	10017
876.008	10124
876.136	10322
876.265	10436
876.393	10694
876.521	10660
876.65	10755
876.778	10854
876.906	10908
877.034	10987
877.162	11071
877.29	11090
877.418	11250
877.546	11311
877.674	11467
877.802	11414
877.93	11573
878.058	11581
878.185	11532
878.313	11634
878.441	11733
878.568	11676
878.696	11832
878.824	11809
878.951	11950
879.079	11999
879.206	12167
879.333	12072
879.461	11958
879.588	12053
879.715	12060
879.842	12178
879.97	11988
880.097	11863
880.224	11969
880.351	11828
880.478	11779
880.605	11885
880.732	11775
880.859	11984
880.986	11805
881.112	11836
881.239	11646
881.366	11547
881.493	11642
881.619	11535
881.746	11592
881.872	11497
881.999	11528
882.125	11448
882.252	11505
882.378	11448
882.505	11535
882.631	11406
882.757	11292
882.883	11318
883.01	11212
883.136	11136
883.262	11109
883.388	11079
883.514	11189
883.64	11204
883.766	11006
883.892	10980
884.018	10911
884.143	11052
884.269	11067
884.395	10839
884.52	10717
884.646	10828
884.772	10710
884.897	10706
885.023	10694
885.148	10744
885.274	10721
885.399	10649
885.524	10634
885.65	10702
885.775	10558
885.9	10523
886.025	10550
886.15	10588
886.275	10493
886.4	10329
886.525	10356
886.65	10402
886.775	10390
886.9	10428
887.025	10535
887.149	10371
887.274	10227
887.399	10246
887.523	10234
887.648	10116
887.773	10169
887.897	10295
888.021	10234
888.146	10169
888.27	10185
888.395	10158
888.519	10166
888.643	10215
888.767	10169
888.891	10093
889.015	10017
889.139	10044
889.263	10002
889.387	10032
889.511	10086
889.635	10002
889.759	9934
889.883	9968
890.006	9968
890.13	10013
890.254	9975
890.377	9926
890.501	9865
890.624	9899
890.748	9930
890.871	9812
890.995	9724
891.118	9698
891.241	9800
891.364	9682
891.488	9804
891.611	9701
891.734	9766
891.857	9740
891.98	9770
892.103	9808
892.226	9667
892.349	9614
892.471	9568
892.594	9526
892.717	9587
892.839	9648
892.962	9561
893.085	9717
893.207	9511
893.33	9428
893.452	9515
893.575	9587
893.697	9496
893.819	9595
893.941	9561
894.064	9644
894.186	9424
894.308	9344
894.43	9538
894.552	9622
894.674	9545
894.796	9389
894.918	9447
895.04	9363
895.161	9393
895.283	9359
895.405	9264
895.526	9233
895.648	9222
895.769	9233
895.891	9207
896.012	9291
896.134	9192
896.255	9180
896.376	9116
896.498	9241
896.619	9127
896.74	9039
896.861	9188
896.982	9203
897.103	9230
897.224	9173
897.345	9039
897.466	8994
897.587	8982
897.708	9009
897.828	9009
897.949	8921
898.07	8864
898.19	8960
898.311	9005
898.431	8838
898.552	8918
898.672	8971
898.792	8948
898.913	8868
899.033	8758
899.153	8743
899.273	8663
899.393	8697
899.513	8720
899.633	8743
899.753	8739
899.873	8674
899.993	8720
900.113	8701
900.232	8731
900.352	8682
900.472	8636
900.591	8518
900.711	8590
900.83	8541
900.95	8659
901.069	8724
901.189	8579
901.308	8446
901.427	8412
901.546	8461
901.665	8419
901.784	8518
901.904	8317
902.023	8332
902.141	8180
902.26	8240
902.379	8259
902.498	8149
902.617	8275
902.735	8210
902.854	8259
902.973	8244
903.091	8111
903.21	8153
903.328	8119
903.446	8157
903.565	8043
903.683	8100
903.801	8103
903.919	8103
904.038	8107
904.156	8001
904.274	8115
904.392	7997
904.51	8020
904.627	8107
904.745	8100
904.863	8096
904.981	7951
905.098	7814
905.216	7963
905.334	7940
905.451	7921
905.569	7883
905.686	7955
905.803	7898
905.921	7753
906.038	7875
906.155	7803
906.272	7700
906.389	7715
906.506	7632
906.623	7575
906.74	7563
906.857	7483
906.974	7556
907.091	7647
907.208	7731
907.324	7613
907.441	7567
907.557	7464
907.674	7384
907.79	7339
907.907	7415
908.023	7438
908.139	7419
908.256	7384
908.372	7324
908.488	7350
908.604	7240
908.72	7217
908.836	7270
908.952	7194
909.068	7179
909.184	7282
909.3	7255
909.415	7266
909.531	7293
909.647	7095
909.762	7118
909.878	7110
909.993	7164
910.108	7126
910.224	7065
910.339	7129
910.454	7050
910.57	6993
910.685	6943
910.8	7152
910.915	7122
911.03	7008
911.145	6882
911.259	6882
911.374	6901
911.489	6772
911.604	6772
911.718	6673
911.833	6764
911.947	6662
912.062	6574
912.176	6684
912.291	6635
912.405	6711
912.519	6745
912.633	6833
912.748	6711
912.862	6669
912.976	6620
913.09	6486
913.204	6585
913.318	6631
913.431	6703
913.545	6631
913.659	6722
913.772	6658
913.886	6566
914	6475
914.113	6582
914.226	6570
914.34	6658
914.453	6471
914.566	6620
914.68	6536
914.793	6540
914.906	6391
915.019	6403
915.132	6422
915.245	6410
915.358	6380
915.47	6426
915.583	6445
915.696	6437
915.809	6517
915.921	6551
916.034	6384
916.146	6372
916.259	6399
916.371	6433
916.483	6418
916.595	6384
916.708	6334
916.82	6369
916.932	6429
917.044	6357
917.156	6350
917.268	6266
917.38	6327
917.491	6319
917.603	6357
917.715	6429
917.826	6441
917.938	6292
918.049	6258
918.161	6300
918.272	6422
918.384	6441
918.495	6338
918.606	6209
918.717	6224
918.828	6251
918.939	6270
919.05	6182
919.161	6243
919.272	6095
919.383	6091
919.494	6277
919.604	6391
919.715	6254
919.826	6235
919.936	6239
920.047	6327
920.157	6277
920.267	6410
920.378	6292
920.488	6239
920.598	6483
920.708	6559
920.818	6467
920.928	6456
921.038	6589
921.148	6525
921.258	6323
921.368	6334
921.477	6205
921.587	6133
921.697	6095
921.806	6152
921.916	6057
922.025	5927
922.134	5893
922.244	5889
922.353	5961
922.462	5866
922.571	5748
922.68	5748
922.789	5638
922.898	5710
923.007	5589
923.116	5703
923.224	5653
923.333	5646
923.442	5619
923.55	5585
923.659	5585
923.767	5566
923.876	5585
923.984	5596
924.092	5524
924.201	5524
924.309	5520
924.417	5467
924.525	5497
924.633	5509
924.741	6213
924.849	5357
924.956	5433
925.064	5368
925.172	5334
925.279	5315
925.387	5330
925.494	5345
925.602	5417
925.709	5383
925.816	5239
925.924	5258
926.031	5334
926.138	5269
926.245	5315
926.352	5201
926.459	5280
926.566	5326
926.673	5212
926.779	5124
926.886	5121
926.993	5025
927.099	5022
927.206	5018
927.312	4957
927.419	5006
927.525	4995
927.631	4976
927.737	4923
927.843	4835
927.95	4774
928.056	4820
928.162	4812
928.267	4839
928.373	5284
928.479	4896
928.585	4634
928.69	4771
928.796	4763
928.901	4706
929.007	4596
929.112	4683
929.218	4645
929.323	4584
929.428	4504
929.533	4672
929.638	4527
929.743	4527
929.848	4584
929.953	4489
930.058	4409
930.163	4303
930.267	4337
930.372	4432
930.477	4306
930.581	4470
930.685	4337
930.79	4249
930.894	4276
930.998	4253
931.103	4356
931.207	4093
931.311	4097
931.415	4017
931.519	3896
931.623	3926
