Data from glass_V78500241_1896.txt Node
Date: Wed Sep 01 19:27:38 CST 2021
User: usil
Spectrometer: V785-0024
Trigger mode: 0
Integration Time (sec): 4.000000E-1
Scans to average: 1
Nonlinearity correction enabled: false
Boxcar width: 0
Storing dark spectrum: false
XAxis mode: Wavelengths
Number of Pixels in Spectrum: 1024
>>>>>Begin Spectral Data<<<<<
801.071	3759
801.214	3755
801.356	3679
801.499	3747
801.641	3740
801.783	3770
801.926	3892
802.068	3808
802.211	3857
802.353	3869
802.496	3842
802.638	3873
802.78	3876
802.923	3937
803.065	3850
803.208	3861
803.35	3880
803.492	3915
803.635	3915
803.777	3797
803.919	3888
804.061	4166
804.204	3994
804.346	3949
804.488	3926
804.63	4040
804.773	3956
804.915	3994
805.057	4093
805.199	4010
805.341	4063
805.483	4124
805.626	4120
805.768	4097
805.91	4227
806.052	4257
806.194	4181
806.336	4337
806.478	4185
806.62	4177
806.762	4116
806.904	4246
807.046	4310
807.188	4211
807.33	4166
807.472	4227
807.614	4185
807.756	4268
807.898	4246
808.04	4223
808.182	4280
808.324	4344
808.465	4329
808.607	4443
808.749	4462
808.891	4455
809.033	4455
809.174	4363
809.316	4223
809.458	4215
809.6	4177
809.741	4139
809.883	4112
810.025	4200
810.166	4166
810.308	4246
810.45	4238
810.591	4227
810.733	4272
810.875	4508
811.016	4824
811.158	5098
811.299	5311
811.441	5315
811.582	5086
811.724	4698
811.865	4443
812.007	4481
812.148	4508
812.29	4421
812.431	4421
812.573	4398
812.714	4360
812.855	4367
812.997	4413
813.138	4455
813.279	4402
813.421	4360
813.562	4367
813.703	4306
813.845	4383
813.986	4265
814.127	4227
814.268	4276
814.41	4287
814.551	4299
814.692	4318
814.833	4291
814.974	4291
815.115	4329
815.256	4261
815.397	4234
815.539	4268
815.68	4147
815.821	4188
815.962	4310
816.103	4227
816.244	4242
816.385	4253
816.526	4303
816.666	4181
816.807	4101
816.948	4150
817.089	4196
817.23	4116
817.371	4002
817.512	4013
817.653	4029
817.793	4051
817.934	4059
818.075	4097
818.216	4101
818.356	4067
818.497	4044
818.638	3915
818.778	3922
818.919	3926
819.06	3854
819.2	3884
819.341	3846
819.481	3831
819.622	3896
819.762	4040
819.903	3949
820.043	3911
820.184	3876
820.324	3800
820.465	3888
820.605	3873
820.746	3865
820.886	3800
821.026	3892
821.167	3922
821.307	3911
821.447	3922
821.588	3979
821.728	3960
821.868	3960
822.008	3823
822.149	3873
822.289	3926
822.429	3804
822.569	3736
822.709	3804
822.849	3686
822.99	3679
823.13	3774
823.27	3800
823.41	3717
823.55	3713
823.69	3732
823.83	3762
823.97	3660
824.11	3580
824.25	3599
824.389	3641
824.529	3644
824.669	3633
824.809	3690
824.949	3740
825.089	3736
825.228	3679
825.368	3595
825.508	3519
825.648	3584
825.787	3629
825.927	3641
826.067	3595
826.206	3705
826.346	3785
826.485	3789
826.625	3861
826.765	3918
826.904	3808
827.044	3625
827.183	3511
827.323	3424
827.462	3450
827.601	3431
827.741	3458
827.88	3416
828.02	3336
828.159	3405
828.298	3454
828.437	3515
828.577	3454
828.716	3606
828.855	3526
828.994	3378
829.134	3332
829.273	3405
829.412	3378
829.551	3332
829.69	3340
829.829	3416
829.968	3477
830.107	3447
830.246	3424
830.385	3401
830.524	3340
830.663	3268
830.802	3260
830.941	3184
831.08	3188
831.219	3264
831.357	3279
831.496	3420
831.635	3222
831.774	3192
831.913	3195
832.051	3119
832.19	3127
832.329	3199
832.467	3154
832.606	3112
832.744	3195
832.883	3142
833.022	3199
833.16	3256
833.299	3294
833.437	3291
833.576	3393
833.714	3363
833.852	3405
833.991	3435
834.129	3462
834.267	3420
834.406	3382
834.544	3428
834.682	3389
834.821	3401
834.959	3549
835.097	3389
835.235	3542
835.373	3458
835.511	3447
835.65	3462
835.788	3443
835.926	3393
836.064	3405
836.202	3435
836.34	3603
836.478	3595
836.615	3561
836.753	3538
836.891	3660
837.029	3614
837.167	3580
837.305	3545
837.443	3526
837.58	3511
837.718	3614
837.856	3568
837.993	3545
838.131	3587
838.269	3584
838.406	3545
838.544	3553
838.681	3466
838.819	3424
838.956	3370
839.094	3367
839.231	3443
839.369	3519
839.506	3747
839.643	3610
839.781	3504
839.918	3450
840.055	3523
840.193	3507
840.33	3504
840.467	3557
840.604	3568
840.742	3816
840.879	3530
841.016	3515
841.153	3576
841.29	3770
841.427	3770
841.564	3682
841.701	3732
841.838	3679
841.975	3652
842.112	3743
842.249	3629
842.385	3610
842.522	3778
842.659	3667
842.796	3709
842.933	3720
843.069	3698
843.206	3709
843.343	3804
843.479	3793
843.616	3838
843.752	3663
843.889	3660
844.025	3835
844.162	3694
844.298	3808
844.435	3793
844.571	3789
844.708	3911
844.844	3991
844.98	4040
845.117	4048
845.253	3903
845.389	3899
845.525	4021
845.661	3975
845.798	3915
845.934	4010
846.07	3991
846.206	4059
846.342	4112
846.478	4048
846.614	3975
846.75	3903
846.886	3865
847.022	4013
847.158	3956
847.294	3994
847.429	4048
847.565	4013
847.701	4223
847.837	3865
847.972	3869
848.108	3968
848.244	3934
848.379	3899
848.515	3785
848.65	3808
848.786	3827
848.921	3835
849.057	3922
849.192	3911
849.328	3896
849.463	3896
849.598	3884
849.734	3861
849.869	3789
850.004	3781
850.14	3789
850.275	3789
850.41	3747
850.545	3743
850.68	3759
850.815	3732
850.95	3778
851.085	3922
851.22	3850
851.355	3812
851.49	3766
851.625	3751
851.76	3800
851.895	3724
852.03	3709
852.165	3778
852.299	3838
852.434	3892
852.569	3869
852.703	3869
852.838	3888
852.973	3979
853.107	3964
853.242	3880
853.376	3854
853.511	3774
853.645	3850
853.78	3968
853.914	3903
854.048	3892
854.183	3884
854.317	3968
854.451	4055
854.585	3964
854.72	3922
854.854	4029
854.988	3956
855.122	4021
855.256	3888
855.39	4025
855.524	4090
855.658	4063
855.792	4101
855.926	4128
856.06	4162
856.194	4200
856.327	4166
856.461	4120
856.595	4154
856.729	4128
856.862	4227
856.996	4230
857.13	4291
857.263	4325
857.397	4356
857.53	4253
857.664	4314
857.797	4383
857.931	4383
858.064	4409
858.197	4447
858.331	4383
858.464	4363
858.597	4318
858.731	4432
858.864	4459
858.997	4478
859.13	4535
859.263	4497
859.396	4542
859.529	4542
859.662	4504
859.795	4542
859.928	4618
860.061	4706
860.194	4733
860.327	4649
860.46	4672
860.592	4729
860.725	4740
860.858	4778
860.99	4679
861.123	4668
861.256	4710
861.388	4763
861.521	5357
861.653	4706
861.786	4679
861.918	4733
862.05	4774
862.183	4858
862.315	4866
862.447	4934
862.58	4866
862.712	4809
862.844	4797
862.976	4866
863.108	4824
863.24	5162
863.372	4835
863.504	4889
863.636	4873
863.768	4987
863.9	4961
864.032	4900
864.164	4987
864.296	4999
864.428	5071
864.559	5151
864.691	5117
864.823	5128
864.954	5121
865.086	5166
865.217	5083
865.349	5102
865.48	5189
865.612	5201
865.743	5277
865.875	5208
866.006	5159
866.137	5197
866.269	5246
866.4	5231
866.531	5242
866.662	5193
866.793	5242
866.924	5250
867.055	5337
867.186	5296
867.317	5318
867.448	5315
867.579	5353
867.71	5368
867.841	5395
867.972	5474
868.103	5452
868.233	5482
868.364	5482
868.495	5558
868.625	5642
868.756	5847
868.886	5619
869.017	5718
869.147	5882
869.278	5878
869.408	5790
869.539	5855
869.669	5931
869.799	5885
869.929	5942
870.06	6057
870.19	6235
870.32	6171
870.45	6258
870.58	6331
870.71	6452
870.84	6445
870.97	6441
871.1	6418
871.23	6642
871.36	6719
871.489	6654
871.619	6753
871.749	6833
871.879	6859
872.008	6920
872.138	6966
872.267	7004
872.397	7000
872.526	7027
872.656	7122
872.785	7244
872.915	7369
873.044	7476
873.173	7559
873.303	7586
873.432	7689
873.561	7887
873.69	7947
873.819	7947
873.948	8138
874.077	8206
874.206	8347
874.335	8385
874.464	8617
874.593	8826
874.722	8899
874.851	9097
874.979	9264
875.108	9351
875.237	9424
875.365	9530
875.494	9564
875.623	9797
875.751	9785
875.88	10002
876.008	10131
876.136	10223
876.265	10508
876.393	10630
876.521	10725
876.65	10778
876.778	10911
876.906	10923
877.034	11048
877.162	11090
877.29	11193
877.418	11337
877.546	11444
877.674	11337
877.802	11414
877.93	11520
878.058	11501
878.185	11619
878.313	11668
878.441	11775
878.568	11733
878.696	11748
878.824	11859
878.951	11904
879.079	12026
879.206	12114
879.333	12045
879.461	12038
879.588	12057
879.715	12068
879.842	12235
879.97	12034
880.097	11931
880.224	11901
880.351	11866
880.478	11893
880.605	11897
880.732	11756
880.859	11999
880.986	11802
881.112	11851
881.239	11661
881.366	11642
881.493	11573
881.619	11528
881.746	11535
881.872	11547
881.999	11467
882.125	11398
882.252	11452
882.378	11486
882.505	11516
882.631	11368
882.757	11376
882.883	11326
883.01	11239
883.136	11102
883.262	11105
883.388	11056
883.514	11235
883.64	11151
883.766	11052
883.892	10953
884.018	10972
884.143	11071
884.269	11121
884.395	10828
884.52	10778
884.646	10847
884.772	10622
884.897	10706
885.023	10656
885.148	10801
885.274	10675
885.399	10748
885.524	10649
885.65	10596
885.775	10580
885.9	10546
886.025	10580
886.15	10489
886.275	10481
886.4	10390
886.525	10344
886.65	10382
886.775	10284
886.9	10523
887.025	10550
887.149	10363
887.274	10257
887.399	10185
887.523	10185
887.648	10086
887.773	10192
887.897	10257
888.021	10211
888.146	10200
888.27	10207
888.395	10215
888.519	10204
888.643	10086
888.767	10150
888.891	10013
889.015	10017
889.139	10112
889.263	9987
889.387	10116
889.511	10082
889.635	10017
889.759	9979
889.883	10002
890.006	9953
890.13	10059
890.254	9956
890.377	9960
890.501	9854
890.624	9781
890.748	9918
890.871	9770
890.995	9686
891.118	9713
891.241	9766
891.364	9690
891.488	9785
891.611	9667
891.734	9713
891.857	9709
891.98	9686
892.103	9740
892.226	9709
892.349	9743
892.471	9530
892.594	9564
892.717	9545
892.839	9534
892.962	9622
893.085	9591
893.207	9587
893.33	9568
893.452	9473
893.575	9648
893.697	9568
893.819	9652
893.941	9568
894.064	9553
894.186	9458
894.308	9378
894.43	9473
894.552	9595
894.674	9458
894.796	9370
894.918	9378
895.04	9386
895.161	9428
895.283	9348
895.405	9233
895.526	9264
895.648	9184
895.769	9226
895.891	9199
896.012	9237
896.134	9264
896.255	9203
896.376	9123
896.498	9195
896.619	9135
896.74	9131
896.861	9146
896.982	9279
897.103	9260
897.224	9192
897.345	9036
897.466	8956
897.587	8971
897.708	9108
897.828	8948
897.949	8960
898.07	8902
898.19	8925
898.311	9024
898.431	8929
898.552	8937
898.672	9009
898.792	9028
898.913	8952
899.033	8800
899.153	8788
899.273	8632
899.393	8727
899.513	8781
899.633	8731
899.753	8697
899.873	8670
899.993	8670
900.113	8701
900.232	8678
900.352	8670
900.472	8617
900.591	8568
900.711	8583
900.83	8629
900.95	8686
901.069	8716
901.189	8541
901.308	8385
901.427	8423
901.546	8362
901.665	8457
901.784	8526
901.904	8408
902.023	8362
902.141	8183
902.26	8180
902.379	8298
902.498	8199
902.617	8244
902.735	8301
902.854	8328
902.973	8294
903.091	8214
903.21	8119
903.328	8168
903.446	8138
903.565	8035
903.683	8138
903.801	8039
903.919	8119
904.038	8084
904.156	8046
904.274	8027
904.392	7989
904.51	8035
904.627	8012
904.745	8111
904.863	8134
904.981	7906
905.098	7841
905.216	7849
905.334	7879
905.451	7894
905.569	7868
905.686	7940
905.803	7913
905.921	7776
906.038	7871
906.155	7776
906.272	7696
906.389	7658
906.506	7712
906.623	7586
906.74	7639
906.857	7548
906.974	7544
907.091	7632
907.208	7712
907.324	7689
907.441	7529
907.557	7403
907.674	7476
907.79	7381
907.907	7449
908.023	7422
908.139	7388
908.256	7331
908.372	7388
908.488	7312
908.604	7266
908.72	7206
908.836	7244
908.952	7217
909.068	7244
909.184	7308
909.3	7274
909.415	7259
909.531	7263
909.647	7110
909.762	7133
909.878	7080
909.993	7122
910.108	7133
910.224	7110
910.339	7088
910.454	7050
910.57	6996
910.685	6894
910.8	7179
910.915	7164
911.03	7046
911.145	6939
911.259	6897
911.374	6890
911.489	6848
911.604	6810
911.718	6707
911.833	6768
911.947	6631
912.062	6585
912.176	6688
912.291	6654
912.405	6719
912.519	6837
912.633	6829
912.748	6722
912.862	6688
912.976	6517
913.09	6521
913.204	6608
913.318	6623
913.431	6665
913.545	6646
913.659	6673
913.772	6555
913.886	6551
914	6566
914.113	6589
914.226	6654
914.34	6604
914.453	6464
914.566	6639
914.68	6502
914.793	6536
914.906	6403
915.019	6369
915.132	6372
915.245	6456
915.358	6452
915.47	6418
915.583	6479
915.696	6498
915.809	6528
915.921	6528
916.034	6433
916.146	6376
916.259	6361
916.371	6494
916.483	6452
916.595	6407
916.708	6433
916.82	6388
916.932	6376
917.044	6376
917.156	6437
917.268	6308
917.38	6346
917.491	6285
917.603	6346
917.715	6391
917.826	6426
917.938	6289
918.049	6300
918.161	6311
918.272	6441
918.384	6414
918.495	6311
918.606	6239
918.717	6163
918.828	6224
918.939	6247
919.05	6190
919.161	6205
919.272	6117
919.383	6171
919.494	6239
919.604	6414
919.715	6254
919.826	6235
919.936	6273
920.047	6323
920.157	6216
920.267	6456
920.378	6289
920.488	6247
920.598	6460
920.708	6536
920.818	6429
920.928	6395
921.038	6604
921.148	6517
921.258	6346
921.368	6331
921.477	6175
921.587	6140
921.697	6117
921.806	6171
921.916	6072
922.025	6015
922.134	5931
922.244	5832
922.353	5969
922.462	5885
922.571	5802
922.68	5676
922.789	5665
922.898	5710
923.007	5627
923.116	5657
923.224	5642
923.333	5668
923.442	5604
923.55	5535
923.659	5627
923.767	5611
923.876	5512
923.984	5623
924.092	5509
924.201	5528
924.309	5577
924.417	5570
924.525	5478
924.633	5512
924.741	6235
924.849	5315
924.956	5535
925.064	5326
925.172	5292
925.279	5318
925.387	5307
925.494	5326
925.602	5448
925.709	5379
925.816	5280
925.924	5341
926.031	5322
926.138	5269
926.245	5299
926.352	5220
926.459	5303
926.566	5292
926.673	5212
926.779	5109
926.886	5178
926.993	5029
927.099	5033
927.206	4999
927.312	4980
927.419	5052
927.525	4976
927.631	4999
927.737	4900
927.843	4839
927.95	4714
928.056	4801
928.162	4835
928.267	4839
928.373	5227
928.479	4839
928.585	4675
928.69	4774
928.796	4763
928.901	4687
929.007	4550
929.112	4664
929.218	4630
929.323	4645
929.428	4546
929.533	4691
929.638	4531
929.743	4516
929.848	4519
929.953	4500
930.058	4451
930.163	4291
930.267	4306
930.372	4440
930.477	4287
930.581	4455
930.685	4360
930.79	4230
930.894	4303
930.998	4242
931.103	4402
931.207	4154
931.311	4078
931.415	4013
931.519	3941
931.623	3972
