Data from glass_V78500241_1836.txt Node
Date: Wed Sep 01 19:27:13 CST 2021
User: usil
Spectrometer: V785-0024
Trigger mode: 0
Integration Time (sec): 4.000000E-1
Scans to average: 1
Nonlinearity correction enabled: false
Boxcar width: 0
Storing dark spectrum: false
XAxis mode: Wavelengths
Number of Pixels in Spectrum: 1024
>>>>>Begin Spectral Data<<<<<
801.071	3740
801.214	3808
801.356	3679
801.499	3762
801.641	3720
801.783	3705
801.926	3835
802.068	3804
802.211	3876
802.353	3865
802.496	3827
802.638	3911
802.78	3903
802.923	3934
803.065	3884
803.208	3823
803.35	3915
803.492	3888
803.635	3918
803.777	3797
803.919	3884
804.061	4150
804.204	3972
804.346	3941
804.488	3937
804.63	4059
804.773	3972
804.915	4017
805.057	4131
805.199	4082
805.341	4059
805.483	4109
805.626	4112
805.768	4078
805.91	4242
806.052	4234
806.194	4211
806.336	4421
806.478	4215
806.62	4166
806.762	4181
806.904	4230
807.046	4268
807.188	4192
807.33	4192
807.472	4230
807.614	4223
807.756	4295
807.898	4196
808.04	4207
808.182	4314
808.324	4329
808.465	4360
808.607	4451
808.749	4424
808.891	4497
809.033	4489
809.174	4379
809.316	4261
809.458	4295
809.6	4154
809.741	4143
809.883	4188
810.025	4162
810.166	4211
810.308	4230
810.45	4238
810.591	4261
810.733	4284
810.875	4584
811.016	4847
811.158	5185
811.299	5280
811.441	5273
811.582	5037
811.724	4683
811.865	4512
812.007	4478
812.148	4421
812.29	4443
812.431	4421
812.573	4424
812.714	4363
812.855	4413
812.997	4424
813.138	4462
813.279	4390
813.421	4367
813.562	4383
813.703	4341
813.845	4318
813.986	4268
814.127	4227
814.268	4306
814.41	4291
814.551	4268
814.692	4322
814.833	4318
814.974	4284
815.115	4329
815.256	4215
815.397	4234
815.539	4238
815.68	4173
815.821	4162
815.962	4314
816.103	4291
816.244	4261
816.385	4246
816.526	4299
816.666	4227
816.807	4090
816.948	4128
817.089	4185
817.23	4078
817.371	4036
817.512	4071
817.653	4051
817.793	4048
817.934	4055
818.075	4124
818.216	4082
818.356	4051
818.497	4006
818.638	3903
818.778	3930
818.919	3857
819.06	3854
819.2	3941
819.341	3865
819.481	3835
819.622	3876
819.762	4002
819.903	3949
820.043	3896
820.184	3850
820.324	3850
820.465	3918
820.605	3880
820.746	3842
820.886	3819
821.026	3911
821.167	3934
821.307	3949
821.447	3979
821.588	3949
821.728	3930
821.868	3945
822.008	3892
822.149	3911
822.289	3922
822.429	3766
822.569	3743
822.709	3823
822.849	3713
822.99	3671
823.13	3740
823.27	3774
823.41	3717
823.55	3800
823.69	3747
823.83	3724
823.97	3690
824.11	3633
824.25	3545
824.389	3660
824.529	3667
824.669	3629
824.809	3694
824.949	3732
825.089	3713
825.228	3751
825.368	3603
825.508	3584
825.648	3557
825.787	3603
825.927	3637
826.067	3603
826.206	3663
826.346	3785
826.485	3812
826.625	3854
826.765	3956
826.904	3838
827.044	3614
827.183	3534
827.323	3450
827.462	3443
827.601	3416
827.741	3412
827.88	3481
828.02	3351
828.159	3447
828.298	3469
828.437	3515
828.577	3469
828.716	3637
828.855	3481
828.994	3382
829.134	3340
829.273	3374
829.412	3374
829.551	3389
829.69	3336
829.829	3439
829.968	3523
830.107	3428
830.246	3450
830.385	3378
830.524	3363
830.663	3332
830.802	3237
830.941	3211
831.08	3154
831.219	3268
831.357	3279
831.496	3409
831.635	3233
831.774	3184
831.913	3218
832.051	3173
832.19	3169
832.329	3180
832.467	3142
832.606	3116
832.744	3199
832.883	3173
833.022	3184
833.16	3230
833.299	3279
833.437	3344
833.576	3401
833.714	3401
833.852	3439
833.991	3469
834.129	3458
834.267	3466
834.406	3443
834.544	3363
834.682	3401
834.821	3424
834.959	3580
835.097	3397
835.235	3530
835.373	3511
835.511	3481
835.65	3454
835.788	3496
835.926	3370
836.064	3389
836.202	3431
836.34	3526
836.478	3629
836.615	3572
836.753	3599
836.891	3641
837.029	3595
837.167	3572
837.305	3553
837.443	3534
837.58	3504
837.718	3576
837.856	3591
837.993	3538
838.131	3568
838.269	3580
838.406	3603
838.544	3564
838.681	3454
838.819	3450
838.956	3355
839.094	3355
839.231	3439
839.369	3511
839.506	3740
839.643	3622
839.781	3473
839.918	3466
840.055	3496
840.193	3481
840.33	3549
840.467	3572
840.604	3542
840.742	3774
840.879	3538
841.016	3584
841.153	3625
841.29	3759
841.427	3705
841.564	3755
841.701	3751
841.838	3713
841.975	3698
842.112	3740
842.249	3660
842.385	3656
842.522	3812
842.659	3648
842.796	3648
842.933	3717
843.069	3736
843.206	3694
843.343	3800
843.479	3793
843.616	3789
843.752	3694
843.889	3709
844.025	3865
844.162	3732
844.298	3812
844.435	3743
844.571	3781
844.708	3896
844.844	3968
844.98	4036
845.117	4010
845.253	3960
845.389	3854
845.525	3949
845.661	3979
845.798	3926
845.934	3994
846.07	3983
846.206	4010
846.342	4139
846.478	4059
846.614	3983
846.75	3922
846.886	3884
847.022	4010
847.158	3972
847.294	3983
847.429	3979
847.565	4006
847.701	4242
847.837	3865
847.972	3846
848.108	3994
848.244	4002
848.379	3861
848.515	3812
848.65	3838
848.786	3899
848.921	3865
849.057	3949
849.192	3911
849.328	3918
849.463	3907
849.598	3903
849.734	3892
849.869	3816
850.004	3808
850.14	3823
850.275	3823
850.41	3713
850.545	3781
850.68	3770
850.815	3781
850.95	3770
851.085	3934
851.22	3884
851.355	3816
851.49	3785
851.625	3797
851.76	3785
851.895	3751
852.03	3728
852.165	3751
852.299	3865
852.434	3899
852.569	3907
852.703	3903
852.838	3907
852.973	4013
853.107	3979
853.242	3922
853.376	3831
853.511	3785
853.645	3850
853.78	3937
853.914	3880
854.048	3941
854.183	3892
854.317	3945
854.451	4078
854.585	3941
854.72	3941
854.854	4025
854.988	3960
855.122	4006
855.256	3941
855.39	4013
855.524	4074
855.658	4063
855.792	4071
855.926	4078
856.06	4162
856.194	4192
856.327	4135
856.461	4101
856.595	4158
856.729	4139
856.862	4284
856.996	4219
857.13	4284
857.263	4329
857.397	4383
857.53	4253
857.664	4352
857.797	4394
857.931	4428
858.064	4386
858.197	4481
858.331	4348
858.464	4322
858.597	4375
858.731	4462
858.864	4478
858.997	4489
859.13	4531
859.263	4512
859.396	4611
859.529	4523
859.662	4542
859.795	4554
859.928	4580
860.061	4725
860.194	4729
860.327	4672
860.46	4645
860.592	4725
860.725	4736
860.858	4786
860.99	4664
861.123	4664
861.256	4683
861.388	4744
861.521	5353
861.653	4740
861.786	4683
861.918	4771
862.05	4816
862.183	4816
862.315	4824
862.447	4908
862.58	4881
862.712	4767
862.844	4786
862.976	4892
863.108	4847
863.24	5265
863.372	4828
863.504	4957
863.636	4889
863.768	4972
863.9	4938
864.032	4927
864.164	4965
864.296	5025
864.428	5037
864.559	5052
864.691	5151
864.823	5117
864.954	5094
865.086	5136
865.217	5075
865.349	5124
865.48	5155
865.612	5204
865.743	5315
865.875	5189
866.006	5201
866.137	5201
866.269	5223
866.4	5299
866.531	5220
866.662	5212
866.793	5277
866.924	5330
867.055	5322
867.186	5277
867.317	5318
867.448	5265
867.579	5372
867.71	5372
867.841	5402
867.972	5436
868.103	5482
868.233	5512
868.364	5497
868.495	5524
868.625	5615
868.756	5760
868.886	5589
869.017	5741
869.147	5832
869.278	5859
869.408	5809
869.539	5813
869.669	5920
869.799	5889
869.929	5958
870.06	5988
870.19	6155
870.32	6182
870.45	6289
870.58	6429
870.71	6357
870.84	6456
870.97	6407
871.1	6407
871.23	6620
871.36	6722
871.489	6688
871.619	6772
871.749	6814
871.879	6859
872.008	6951
872.138	6901
872.267	6958
872.397	6962
872.526	7000
872.656	7065
872.785	7244
872.915	7400
873.044	7544
873.173	7567
873.303	7677
873.432	7761
873.561	7887
873.69	7871
873.819	7947
873.948	8187
874.077	8244
874.206	8328
874.335	8511
874.464	8659
874.593	8830
874.722	8910
874.851	9157
874.979	9230
875.108	9408
875.237	9424
875.365	9473
875.494	9610
875.623	9899
875.751	9755
875.88	10051
876.008	10143
876.136	10280
876.265	10459
876.393	10740
876.521	10710
876.65	10839
876.778	10782
876.906	10927
877.034	10923
877.162	11090
877.29	11132
877.418	11296
877.546	11379
877.674	11383
877.802	11520
877.93	11516
878.058	11600
878.185	11528
878.313	11657
878.441	11779
878.568	11676
878.696	11836
878.824	11836
878.951	11988
879.079	11999
879.206	12144
879.333	11973
879.461	12022
879.588	12121
879.715	12110
879.842	12228
879.97	12045
880.097	11847
880.224	11870
880.351	11904
880.478	11821
880.605	11840
880.732	11832
880.859	11961
880.986	11840
881.112	11824
881.239	11863
881.366	11676
881.493	11649
881.619	11623
881.746	11581
881.872	11619
881.999	11516
882.125	11524
882.252	11573
882.378	11474
882.505	11630
882.631	11406
882.757	11337
882.883	11284
883.01	11269
883.136	11189
883.262	11178
883.388	11022
883.514	11197
883.64	11208
883.766	11086
883.892	10972
884.018	11014
884.143	11022
884.269	11140
884.395	10892
884.52	10755
884.646	10790
884.772	10687
884.897	10656
885.023	10637
885.148	10778
885.274	10786
885.399	10702
885.524	10656
885.65	10577
885.775	10649
885.9	10569
886.025	10573
886.15	10531
886.275	10455
886.4	10360
886.525	10428
886.65	10432
886.775	10337
886.9	10554
887.025	10504
887.149	10333
887.274	10219
887.399	10162
887.523	10230
887.648	10139
887.773	10040
887.897	10261
888.021	10135
888.146	10150
888.27	10234
888.395	10238
888.519	10276
888.643	10173
888.767	10154
888.891	10090
889.015	9964
889.139	10040
889.263	10013
889.387	10097
889.511	10090
889.635	10006
889.759	9956
889.883	10055
890.006	10017
890.13	10181
890.254	9987
890.377	9991
890.501	9869
890.624	9869
890.748	9930
890.871	9819
890.995	9800
891.118	9698
891.241	9785
891.364	9747
891.488	9861
891.611	9682
891.734	9720
891.857	9797
891.98	9698
892.103	9720
892.226	9679
892.349	9679
892.471	9515
892.594	9549
892.717	9648
892.839	9553
892.962	9614
893.085	9686
893.207	9523
893.33	9530
893.452	9450
893.575	9591
893.697	9485
893.819	9667
893.941	9633
894.064	9584
894.186	9473
894.308	9511
894.43	9557
894.552	9564
894.674	9504
894.796	9382
894.918	9401
895.04	9340
895.161	9412
895.283	9317
895.405	9298
895.526	9306
895.648	9268
895.769	9218
895.891	9249
896.012	9245
896.134	9260
896.255	9135
896.376	9112
896.498	9146
896.619	9093
896.74	8982
896.861	9100
896.982	9298
897.103	9317
897.224	9169
897.345	9051
897.466	9028
897.587	8975
897.708	9195
897.828	8971
897.949	8921
898.07	8792
898.19	8906
898.311	8979
898.431	8929
898.552	8941
898.672	8963
898.792	8921
898.913	8952
899.033	8807
899.153	8762
899.273	8678
899.393	8674
899.513	8720
899.633	8712
899.753	8811
899.873	8705
899.993	8788
900.113	8754
900.232	8708
900.352	8632
900.472	8560
900.591	8533
900.711	8545
900.83	8598
900.95	8701
901.069	8636
901.189	8583
901.308	8446
901.427	8374
901.546	8415
901.665	8438
901.784	8579
901.904	8431
902.023	8290
902.141	8183
902.26	8187
902.379	8313
902.498	8168
902.617	8199
902.735	8233
902.854	8279
902.973	8259
903.091	8168
903.21	8073
903.328	8134
903.446	8119
903.565	8073
903.683	8096
903.801	8058
903.919	8180
904.038	8119
904.156	8027
904.274	8065
904.392	8005
904.51	8065
904.627	8062
904.745	8111
904.863	8130
904.981	7925
905.098	7928
905.216	7883
905.334	7906
905.451	7928
905.569	7849
905.686	7890
905.803	7875
905.921	7757
906.038	7898
906.155	7803
906.272	7685
906.389	7689
906.506	7624
906.623	7632
906.74	7655
906.857	7491
906.974	7514
907.091	7609
907.208	7636
907.324	7632
907.441	7567
907.557	7457
907.674	7434
907.79	7411
907.907	7396
908.023	7396
908.139	7396
908.256	7419
908.372	7362
908.488	7388
908.604	7270
908.72	7236
908.836	7251
908.952	7217
909.068	7209
909.184	7365
909.3	7221
909.415	7255
909.531	7305
909.647	7072
909.762	7080
909.878	7145
909.993	7107
910.108	7088
910.224	7095
910.339	7145
910.454	7027
910.57	6970
910.685	6989
910.8	7137
910.915	7141
911.03	6977
911.145	6928
911.259	6848
911.374	6829
911.489	6825
911.604	6806
911.718	6711
911.833	6703
911.947	6722
912.062	6574
912.176	6707
912.291	6772
912.405	6677
912.519	6863
912.633	6840
912.748	6734
912.862	6726
912.976	6593
913.09	6578
913.204	6635
913.318	6616
913.431	6673
913.545	6719
913.659	6711
913.772	6650
913.886	6559
914	6532
914.113	6525
914.226	6722
914.34	6616
914.453	6506
914.566	6665
914.68	6471
914.793	6532
914.906	6403
915.019	6350
915.132	6384
915.245	6384
915.358	6403
915.47	6410
915.583	6445
915.696	6479
915.809	6525
915.921	6513
916.034	6407
916.146	6372
916.259	6361
916.371	6494
916.483	6395
916.595	6407
916.708	6372
916.82	6395
916.932	6304
917.044	6426
917.156	6426
917.268	6315
917.38	6369
917.491	6281
917.603	6365
917.715	6342
917.826	6445
917.938	6350
918.049	6277
918.161	6304
918.272	6483
918.384	6483
918.495	6331
918.606	6235
918.717	6243
918.828	6243
918.939	6304
919.05	6258
919.161	6209
919.272	6159
919.383	6144
919.494	6254
919.604	6418
919.715	6300
919.826	6205
919.936	6220
920.047	6357
920.157	6277
920.267	6467
920.378	6319
920.488	6251
920.598	6429
920.708	6532
920.818	6429
920.928	6452
921.038	6620
921.148	6528
921.258	6338
921.368	6281
921.477	6289
921.587	6228
921.697	6076
921.806	6197
921.916	6072
922.025	5942
922.134	5939
922.244	5889
922.353	5901
922.462	5783
922.571	5786
922.68	5680
922.789	5668
922.898	5695
923.007	5634
923.116	5714
923.224	5680
923.333	5665
923.442	5592
923.55	5627
923.659	5562
923.767	5638
923.876	5589
923.984	5585
924.092	5547
924.201	5512
924.309	5577
924.417	5532
924.525	5452
924.633	5486
924.741	6251
924.849	5357
924.956	5448
925.064	5288
925.172	5250
925.279	5322
925.387	5368
925.494	5334
925.602	5414
925.709	5417
925.816	5311
925.924	5364
926.031	5357
926.138	5296
926.245	5318
926.352	5223
926.459	5349
926.566	5307
926.673	5220
926.779	5109
926.886	5086
926.993	5006
927.099	4953
927.206	5037
927.312	4991
927.419	5071
927.525	4980
927.631	4972
927.737	4930
927.843	4915
927.95	4793
928.056	4786
928.162	4816
928.267	4892
928.373	5250
928.479	4843
928.585	4649
928.69	4809
928.796	4778
928.901	4668
929.007	4622
929.112	4683
929.218	4596
929.323	4668
929.428	4561
929.533	4702
929.638	4485
929.743	4550
929.848	4565
929.953	4538
930.058	4508
930.163	4371
930.267	4360
930.372	4451
930.477	4284
930.581	4485
930.685	4379
930.79	4261
930.894	4306
930.998	4200
931.103	4329
931.207	4135
931.311	4074
931.415	4021
931.519	3960
931.623	3968
