Data from glass_V78500241_1223.txt Node
Date: Wed Sep 01 19:22:58 CST 2021
User: usil
Spectrometer: V785-0024
Trigger mode: 0
Integration Time (sec): 4.000000E-1
Scans to average: 1
Nonlinearity correction enabled: false
Boxcar width: 0
Storing dark spectrum: false
XAxis mode: Wavelengths
Number of Pixels in Spectrum: 1024
>>>>>Begin Spectral Data<<<<<
801.071	3770
801.214	3766
801.356	3732
801.499	3770
801.641	3732
801.783	3774
801.926	3896
802.068	3819
802.211	3865
802.353	3903
802.496	3842
802.638	3911
802.78	3934
802.923	3983
803.065	3937
803.208	3846
803.35	3854
803.492	3934
803.635	3884
803.777	3797
803.919	3926
804.061	4158
804.204	3960
804.346	3945
804.488	3934
804.63	4086
804.773	3964
804.915	4055
805.057	4162
805.199	4036
805.341	4074
805.483	4128
805.626	4128
805.768	4139
805.91	4181
806.052	4261
806.194	4185
806.336	4318
806.478	4234
806.62	4192
806.762	4181
806.904	4268
807.046	4363
807.188	4181
807.33	4177
807.472	4280
807.614	4192
807.756	4280
807.898	4249
808.04	4227
808.182	4310
808.324	4303
808.465	4352
808.607	4485
808.749	4466
808.891	4489
809.033	4500
809.174	4455
809.316	4287
809.458	4234
809.6	4169
809.741	4143
809.883	4147
810.025	4204
810.166	4238
810.308	4246
810.45	4234
810.591	4230
810.733	4272
810.875	4504
811.016	4809
811.158	5166
811.299	5265
811.441	5318
811.582	5025
811.724	4706
811.865	4447
812.007	4455
812.148	4466
812.29	4386
812.431	4443
812.573	4428
812.714	4398
812.855	4440
812.997	4424
813.138	4504
813.279	4451
813.421	4344
813.562	4383
813.703	4337
813.845	4367
813.986	4299
814.127	4242
814.268	4310
814.41	4265
814.551	4291
814.692	4314
814.833	4329
814.974	4352
815.115	4367
815.256	4276
815.397	4246
815.539	4234
815.68	4181
815.821	4242
815.962	4299
816.103	4318
816.244	4234
816.385	4261
816.526	4306
816.666	4234
816.807	4105
816.948	4207
817.089	4196
817.23	4074
817.371	4063
817.512	4097
817.653	4082
817.793	4051
817.934	4029
818.075	4055
818.216	4071
818.356	4112
818.497	4017
818.638	3922
818.778	3934
818.919	3873
819.06	3907
819.2	3934
819.341	3922
819.481	3880
819.622	3896
819.762	4067
819.903	3964
820.043	3854
820.184	3823
820.324	3808
820.465	3835
820.605	3846
820.746	3857
820.886	3789
821.026	3915
821.167	3991
821.307	4013
821.447	4013
821.588	3937
821.728	3941
821.868	3918
822.008	3873
822.149	3922
822.289	3861
822.429	3770
822.569	3800
822.709	3800
822.849	3740
822.99	3671
823.13	3793
823.27	3842
823.41	3690
823.55	3724
823.69	3747
823.83	3766
823.97	3694
824.11	3633
824.25	3591
824.389	3625
824.529	3679
824.669	3641
824.809	3728
824.949	3800
825.089	3720
825.228	3705
825.368	3622
825.508	3564
825.648	3584
825.787	3610
825.927	3610
826.067	3625
826.206	3675
826.346	3793
826.485	3846
826.625	3915
826.765	3945
826.904	3846
827.044	3633
827.183	3534
827.323	3458
827.462	3519
827.601	3435
827.741	3416
827.88	3435
828.02	3397
828.159	3477
828.298	3542
828.437	3534
828.577	3477
828.716	3580
828.855	3504
828.994	3382
829.134	3363
829.273	3382
829.412	3355
829.551	3283
829.69	3370
829.829	3447
829.968	3549
830.107	3416
830.246	3473
830.385	3355
830.524	3374
830.663	3321
830.802	3241
830.941	3214
831.08	3192
831.219	3253
831.357	3279
831.496	3386
831.635	3260
831.774	3241
831.913	3214
832.051	3161
832.19	3138
832.329	3188
832.467	3131
832.606	3123
832.744	3146
832.883	3222
833.022	3214
833.16	3264
833.299	3298
833.437	3351
833.576	3359
833.714	3382
833.852	3481
833.991	3424
834.129	3519
834.267	3454
834.406	3405
834.544	3428
834.682	3409
834.821	3393
834.959	3591
835.097	3447
835.235	3526
835.373	3504
835.511	3519
835.65	3435
835.788	3504
835.926	3389
836.064	3389
836.202	3431
836.34	3549
836.478	3591
836.615	3603
836.753	3587
836.891	3644
837.029	3606
837.167	3587
837.305	3549
837.443	3553
837.58	3523
837.718	3603
837.856	3568
837.993	3530
838.131	3610
838.269	3576
838.406	3561
838.544	3599
838.681	3477
838.819	3405
838.956	3332
839.094	3363
839.231	3428
839.369	3538
839.506	3732
839.643	3644
839.781	3485
839.918	3469
840.055	3557
840.193	3538
840.33	3564
840.467	3561
840.604	3599
840.742	3800
840.879	3542
841.016	3561
841.153	3591
841.29	3740
841.427	3736
841.564	3736
841.701	3736
841.838	3724
841.975	3690
842.112	3762
842.249	3679
842.385	3652
842.522	3797
842.659	3709
842.796	3660
842.933	3720
843.069	3701
843.206	3663
843.343	3854
843.479	3762
843.616	3823
843.752	3622
843.889	3743
844.025	3842
844.162	3736
844.298	3861
844.435	3781
844.571	3808
844.708	3865
844.844	4036
844.98	3987
845.117	4013
845.253	3922
845.389	3915
845.525	3960
845.661	3975
845.798	3903
845.934	3975
846.07	4017
846.206	4025
846.342	4090
846.478	4048
846.614	3960
846.75	3941
846.886	3945
847.022	4086
847.158	3972
847.294	3987
847.429	4048
847.565	4017
847.701	4246
847.837	3911
847.972	3857
848.108	4006
848.244	3964
848.379	3827
848.515	3762
848.65	3808
848.786	3838
848.921	3857
849.057	3918
849.192	3979
849.328	3941
849.463	3930
849.598	3884
849.734	3869
849.869	3823
850.004	3804
850.14	3785
850.275	3797
850.41	3732
850.545	3751
850.68	3781
850.815	3827
850.95	3778
851.085	3953
851.22	3827
851.355	3850
851.49	3774
851.625	3838
851.76	3808
851.895	3759
852.03	3743
852.165	3842
852.299	3827
852.434	3922
852.569	3850
852.703	3888
852.838	3922
852.973	4025
853.107	3968
853.242	3903
853.376	3846
853.511	3793
853.645	3880
853.78	3964
853.914	3934
854.048	3915
854.183	3892
854.317	3930
854.451	4093
854.585	3953
854.72	3964
854.854	4074
854.988	3911
855.122	4044
855.256	3884
855.39	4059
855.524	4124
855.658	4093
855.792	4112
855.926	4177
856.06	4150
856.194	4192
856.327	4135
856.461	4139
856.595	4116
856.729	4147
856.862	4272
856.996	4295
857.13	4299
857.263	4356
857.397	4360
857.53	4325
857.664	4352
857.797	4383
857.931	4436
858.064	4386
858.197	4466
858.331	4424
858.464	4394
858.597	4337
858.731	4455
858.864	4459
858.997	4432
859.13	4527
859.263	4554
859.396	4569
859.529	4554
859.662	4546
859.795	4554
859.928	4634
860.061	4645
860.194	4767
860.327	4679
860.46	4687
860.592	4786
860.725	4740
860.858	4797
860.99	4672
861.123	4702
861.256	4729
861.388	4763
861.521	5318
861.653	4752
861.786	4706
861.918	4744
862.05	4774
862.183	4820
862.315	4866
862.447	4938
862.58	4866
862.712	4816
862.844	4736
862.976	4904
863.108	4824
863.24	5220
863.372	4816
863.504	4866
863.636	4911
863.768	4987
863.9	5018
864.032	4991
864.164	4965
864.296	5014
864.428	5075
864.559	5102
864.691	5132
864.823	5098
864.954	5124
865.086	5159
865.217	5083
865.349	5102
865.48	5136
865.612	5166
865.743	5292
865.875	5174
866.006	5189
866.137	5239
866.269	5178
866.4	5265
866.531	5273
866.662	5208
866.793	5292
866.924	5299
867.055	5364
867.186	5326
867.317	5334
867.448	5269
867.579	5353
867.71	5455
867.841	5402
867.972	5490
868.103	5486
868.233	5493
868.364	5539
868.495	5524
868.625	5699
868.756	5805
868.886	5680
869.017	5752
869.147	5870
869.278	5863
869.408	5882
869.539	5836
869.669	5920
869.799	5920
869.929	6015
870.06	6030
870.19	6190
870.32	6171
870.45	6266
870.58	6334
870.71	6429
870.84	6448
870.97	6498
871.1	6448
871.23	6650
871.36	6665
871.489	6673
871.619	6760
871.749	6783
871.879	6844
872.008	7034
872.138	6985
872.267	6966
872.397	6966
872.526	7034
872.656	7156
872.785	7194
872.915	7392
873.044	7556
873.173	7563
873.303	7613
873.432	7746
873.561	7860
873.69	7906
873.819	8043
873.948	8123
874.077	8301
874.206	8339
874.335	8442
874.464	8674
874.593	8857
874.722	8921
874.851	9203
874.979	9249
875.108	9370
875.237	9443
875.365	9595
875.494	9690
875.623	9888
875.751	9793
875.88	10013
876.008	10074
876.136	10306
876.265	10500
876.393	10622
876.521	10801
876.65	10847
876.778	10850
876.906	10965
877.034	10953
877.162	11041
877.29	11155
877.418	11280
877.546	11303
877.674	11417
877.802	11421
877.93	11596
878.058	11558
878.185	11596
878.313	11661
878.441	11824
878.568	11703
878.696	11824
878.824	11935
878.951	11882
879.079	12091
879.206	12182
879.333	12072
879.461	11969
879.588	12026
879.715	12064
879.842	12205
879.97	12102
880.097	11836
880.224	11847
880.351	11920
880.478	11863
880.605	11840
880.732	11813
880.859	11965
880.986	11874
881.112	11824
881.239	11672
881.366	11558
881.493	11649
881.619	11497
881.746	11604
881.872	11535
881.999	11493
882.125	11516
882.252	11558
882.378	11490
882.505	11611
882.631	11448
882.757	11273
882.883	11383
883.01	11185
883.136	11223
883.262	11071
883.388	11109
883.514	11170
883.64	11132
883.766	11151
883.892	10991
884.018	10972
884.143	11174
884.269	11098
884.395	10816
884.52	10778
884.646	10691
884.772	10706
884.897	10691
885.023	10714
885.148	10767
885.274	10755
885.399	10759
885.524	10622
885.65	10637
885.775	10599
885.9	10558
886.025	10615
886.15	10558
886.275	10481
886.4	10363
886.525	10398
886.65	10386
886.775	10390
886.9	10462
887.025	10535
887.149	10382
887.274	10265
887.399	10150
887.523	10223
887.648	10192
887.773	10162
887.897	10291
888.021	10306
888.146	10135
888.27	10219
888.395	10204
888.519	10147
888.643	10219
888.767	10185
888.891	10036
889.015	10017
889.139	10093
889.263	9964
889.387	10139
889.511	10173
889.635	10074
889.759	9964
889.883	10006
890.006	10032
890.13	10188
890.254	9941
890.377	9964
890.501	9880
890.624	9892
890.748	9915
890.871	9770
890.995	9759
891.118	9838
891.241	9751
891.364	9736
891.488	9823
891.611	9747
891.734	9774
891.857	9793
891.98	9720
892.103	9800
892.226	9701
892.349	9671
892.471	9534
892.594	9542
892.717	9606
892.839	9538
892.962	9648
893.085	9671
893.207	9625
893.33	9519
893.452	9519
893.575	9641
893.697	9386
893.819	9584
893.941	9713
894.064	9660
894.186	9439
894.308	9386
894.43	9530
894.552	9591
894.674	9496
894.796	9405
894.918	9435
895.04	9336
895.161	9443
895.283	9302
895.405	9287
895.526	9241
895.648	9268
895.769	9287
895.891	9332
896.012	9291
896.134	9260
896.255	9116
896.376	9165
896.498	9131
896.619	9161
896.74	9142
896.861	9123
896.982	9237
897.103	9313
897.224	9199
897.345	9043
897.466	8948
897.587	8986
897.708	9074
897.828	9100
897.949	8925
898.07	8880
898.19	8887
898.311	8937
898.431	8956
898.552	8899
898.672	8952
898.792	8948
898.913	8963
899.033	8739
899.153	8746
899.273	8667
899.393	8777
899.513	8762
899.633	8762
899.753	8743
899.873	8754
899.993	8792
900.113	8758
900.232	8705
900.352	8705
900.472	8655
900.591	8560
900.711	8602
900.83	8545
900.95	8670
901.069	8689
901.189	8625
901.308	8476
901.427	8476
901.546	8408
901.665	8423
901.784	8514
901.904	8427
902.023	8370
902.141	8259
902.26	8301
902.379	8313
902.498	8195
902.617	8271
902.735	8317
902.854	8240
902.973	8195
903.091	8130
903.21	8145
903.328	8202
903.446	8164
903.565	8031
903.683	8111
903.801	8119
903.919	8123
904.038	8180
904.156	8058
904.274	8050
904.392	8031
904.51	8084
904.627	8065
904.745	8123
904.863	8081
904.981	7902
905.098	7849
905.216	7894
905.334	7917
905.451	7864
905.569	7921
905.686	7936
905.803	7955
905.921	7868
906.038	7845
906.155	7746
906.272	7772
906.389	7788
906.506	7632
906.623	7658
906.74	7628
906.857	7544
906.974	7590
907.091	7677
907.208	7723
907.324	7662
907.441	7601
907.557	7514
907.674	7483
907.79	7400
907.907	7339
908.023	7468
908.139	7460
908.256	7396
908.372	7312
908.488	7354
908.604	7232
908.72	7225
908.836	7236
908.952	7270
909.068	7240
909.184	7354
909.3	7190
909.415	7247
909.531	7297
909.647	7118
909.762	7129
909.878	7110
909.993	7168
910.108	7122
910.224	7061
910.339	7080
910.454	7065
910.57	7012
910.685	6920
910.8	7179
910.915	7114
911.03	7050
911.145	6878
911.259	6867
911.374	6859
911.489	6757
911.604	6871
911.718	6745
911.833	6730
911.947	6654
912.062	6639
912.176	6726
912.291	6696
912.405	6711
912.519	6829
912.633	6852
912.748	6677
912.862	6700
912.976	6635
913.09	6597
913.204	6551
913.318	6623
913.431	6688
913.545	6711
913.659	6696
913.772	6692
913.886	6532
914	6563
914.113	6559
914.226	6677
914.34	6578
914.453	6536
914.566	6635
914.68	6551
914.793	6551
914.906	6445
915.019	6445
915.132	6369
915.245	6414
915.358	6376
915.47	6437
915.583	6445
915.696	6486
915.809	6536
915.921	6528
916.034	6399
916.146	6437
916.259	6369
916.371	6475
916.483	6517
916.595	6372
916.708	6418
916.82	6384
916.932	6376
917.044	6391
917.156	6437
917.268	6304
917.38	6410
917.491	6334
917.603	6361
917.715	6433
917.826	6372
917.938	6334
918.049	6247
918.161	6365
918.272	6452
918.384	6414
918.495	6391
918.606	6273
918.717	6182
918.828	6277
918.939	6277
919.05	6194
919.161	6285
919.272	6068
919.383	6140
919.494	6327
919.604	6407
919.715	6285
919.826	6266
919.936	6262
920.047	6369
920.157	6266
920.267	6475
920.378	6327
920.488	6331
920.598	6441
920.708	6585
920.818	6486
920.928	6456
921.038	6616
921.148	6582
921.258	6357
921.368	6254
921.477	6235
921.587	6205
921.697	6091
921.806	6159
921.916	6068
922.025	5954
922.134	5942
922.244	5912
922.353	5958
922.462	5832
922.571	5809
922.68	5775
922.789	5737
922.898	5676
923.007	5653
923.116	5684
923.224	5745
923.333	5672
923.442	5600
923.55	5627
923.659	5543
923.767	5608
923.876	5589
923.984	5592
924.092	5482
924.201	5547
924.309	5558
924.417	5547
924.525	5516
924.633	5455
924.741	6292
924.849	5364
924.956	5459
925.064	5376
925.172	5337
925.279	5372
925.387	5337
925.494	5337
925.602	5402
925.709	5353
925.816	5280
925.924	5326
926.031	5360
926.138	5288
926.245	5326
926.352	5162
926.459	5303
926.566	5296
926.673	5227
926.779	5132
926.886	5136
926.993	5003
927.099	5045
927.206	4991
927.312	5003
927.419	5060
927.525	5018
927.631	4946
927.737	4915
927.843	4904
927.95	4793
928.056	4847
928.162	4850
928.267	4900
928.373	5376
928.479	4881
928.585	4675
928.69	4786
928.796	4793
928.901	4656
929.007	4573
929.112	4755
929.218	4656
929.323	4607
929.428	4554
929.533	4691
929.638	4504
929.743	4546
929.848	4569
929.953	4535
930.058	4440
930.163	4306
930.267	4352
930.372	4417
930.477	4299
930.581	4447
930.685	4390
930.79	4306
930.894	4310
930.998	4223
931.103	4402
931.207	4166
931.311	4101
931.415	4044
931.519	3911
931.623	3979
