Data from glass_V78500241_725.txt Node
Date: Wed Sep 01 19:19:31 CST 2021
User: usil
Spectrometer: V785-0024
Trigger mode: 0
Integration Time (sec): 4.000000E-1
Scans to average: 1
Nonlinearity correction enabled: false
Boxcar width: 0
Storing dark spectrum: false
XAxis mode: Wavelengths
Number of Pixels in Spectrum: 1024
>>>>>Begin Spectral Data<<<<<
801.071	3800
801.214	3751
801.356	3759
801.499	3728
801.641	3740
801.783	3766
801.926	3838
802.068	3816
802.211	3827
802.353	3884
802.496	3838
802.638	3926
802.78	3953
802.923	3941
803.065	3892
803.208	3865
803.35	3899
803.492	3941
803.635	3956
803.777	3838
803.919	3960
804.061	4154
804.204	3968
804.346	3964
804.488	3922
804.63	4025
804.773	3975
804.915	4017
805.057	4147
805.199	4051
805.341	4105
805.483	4150
805.626	4128
805.768	4051
805.91	4196
806.052	4249
806.194	4207
806.336	4333
806.478	4287
806.62	4196
806.762	4192
806.904	4234
807.046	4329
807.188	4200
807.33	4200
807.472	4261
807.614	4223
807.756	4287
807.898	4242
808.04	4211
808.182	4333
808.324	4284
808.465	4344
808.607	4508
808.749	4462
808.891	4493
809.033	4554
809.174	4386
809.316	4280
809.458	4276
809.6	4181
809.741	4147
809.883	4139
810.025	4227
810.166	4211
810.308	4230
810.45	4272
810.591	4257
810.733	4310
810.875	4489
811.016	4812
811.158	5166
811.299	5254
811.441	5299
811.582	5048
811.724	4740
811.865	4478
812.007	4455
812.148	4497
812.29	4413
812.431	4466
812.573	4383
812.714	4386
812.855	4462
812.997	4440
813.138	4508
813.279	4428
813.421	4386
813.562	4383
813.703	4356
813.845	4360
813.986	4230
814.127	4211
814.268	4291
814.41	4291
814.551	4265
814.692	4348
814.833	4234
814.974	4295
815.115	4341
815.256	4303
815.397	4261
815.539	4276
815.68	4223
815.821	4207
815.962	4276
816.103	4318
816.244	4196
816.385	4261
816.526	4261
816.666	4253
816.807	4101
816.948	4185
817.089	4162
817.23	4116
817.371	4097
817.512	4051
817.653	4097
817.793	4048
817.934	4013
818.075	4097
818.216	4093
818.356	4074
818.497	4002
818.638	3956
818.778	3949
818.919	3911
819.06	3888
819.2	3975
819.341	3857
819.481	3831
819.622	3915
819.762	4013
819.903	3918
820.043	3838
820.184	3854
820.324	3838
820.465	3892
820.605	3835
820.746	3915
820.886	3804
821.026	3903
821.167	3884
821.307	4029
821.447	3975
821.588	3964
821.728	3987
821.868	3918
822.008	3884
822.149	3888
822.289	3975
822.429	3819
822.569	3778
822.709	3819
822.849	3736
822.99	3736
823.13	3770
823.27	3785
823.41	3717
823.55	3713
823.69	3736
823.83	3740
823.97	3724
824.11	3587
824.25	3614
824.389	3660
824.529	3663
824.669	3652
824.809	3766
824.949	3778
825.089	3713
825.228	3686
825.368	3591
825.508	3591
825.648	3568
825.787	3633
825.927	3641
826.067	3644
826.206	3679
826.346	3766
826.485	3861
826.625	3876
826.765	3998
826.904	3827
827.044	3599
827.183	3564
827.323	3507
827.462	3519
827.601	3443
827.741	3412
827.88	3466
828.02	3374
828.159	3450
828.298	3500
828.437	3545
828.577	3500
828.716	3610
828.855	3507
828.994	3386
829.134	3397
829.273	3416
829.412	3363
829.551	3378
829.69	3382
829.829	3469
829.968	3523
830.107	3481
830.246	3447
830.385	3401
830.524	3389
830.663	3306
830.802	3272
830.941	3207
831.08	3222
831.219	3214
831.357	3214
831.496	3412
831.635	3287
831.774	3192
831.913	3203
832.051	3161
832.19	3154
832.329	3211
832.467	3154
832.606	3055
832.744	3188
832.883	3157
833.022	3214
833.16	3264
833.299	3340
833.437	3370
833.576	3378
833.714	3405
833.852	3447
833.991	3450
834.129	3466
834.267	3469
834.406	3420
834.544	3378
834.682	3443
834.821	3450
834.959	3572
835.097	3439
835.235	3561
835.373	3507
835.511	3545
835.65	3435
835.788	3511
835.926	3378
836.064	3401
836.202	3416
836.34	3576
836.478	3641
836.615	3557
836.753	3580
836.891	3656
837.029	3603
837.167	3580
837.305	3625
837.443	3538
837.58	3496
837.718	3614
837.856	3595
837.993	3542
838.131	3606
838.269	3545
838.406	3572
838.544	3553
838.681	3485
838.819	3462
838.956	3351
839.094	3412
839.231	3485
839.369	3568
839.506	3736
839.643	3656
839.781	3511
839.918	3481
840.055	3500
840.193	3542
840.33	3572
840.467	3591
840.604	3629
840.742	3850
840.879	3530
841.016	3591
841.153	3614
841.29	3751
841.427	3698
841.564	3732
841.701	3755
841.838	3724
841.975	3743
842.112	3732
842.249	3652
842.385	3629
842.522	3819
842.659	3690
842.796	3713
842.933	3743
843.069	3698
843.206	3717
843.343	3873
843.479	3797
843.616	3846
843.752	3701
843.889	3705
844.025	3865
844.162	3728
844.298	3846
844.435	3823
844.571	3835
844.708	3861
844.844	3991
844.98	3998
845.117	4025
845.253	3949
845.389	3915
845.525	3987
845.661	3956
845.798	3979
845.934	4036
846.07	3953
846.206	4093
846.342	4105
846.478	4078
846.614	3960
846.75	3892
846.886	3945
847.022	4048
847.158	3991
847.294	3994
847.429	3987
847.565	4002
847.701	4204
847.837	3876
847.972	3896
848.108	4010
848.244	3994
848.379	3880
848.515	3831
848.65	3838
848.786	3846
848.921	3835
849.057	3956
849.192	3930
849.328	3945
849.463	3956
849.598	3892
849.734	3857
849.869	3846
850.004	3774
850.14	3812
850.275	3819
850.41	3717
850.545	3778
850.68	3835
850.815	3804
850.95	3804
851.085	3968
851.22	3884
851.355	3816
851.49	3781
851.625	3789
851.76	3797
851.895	3759
852.03	3743
852.165	3831
852.299	3846
852.434	3896
852.569	3861
852.703	3873
852.838	3937
852.973	4002
853.107	4002
853.242	3915
853.376	3857
853.511	3781
853.645	3846
853.78	3994
853.914	3945
854.048	3930
854.183	3907
854.317	3949
854.451	4078
854.585	3968
854.72	3941
854.854	4017
854.988	3960
855.122	4044
855.256	3907
855.39	4025
855.524	4177
855.658	4112
855.792	4105
855.926	4139
856.06	4181
856.194	4234
856.327	4181
856.461	4147
856.595	4147
856.729	4147
856.862	4276
856.996	4257
857.13	4318
857.263	4352
857.397	4356
857.53	4280
857.664	4375
857.797	4375
857.931	4451
858.064	4386
858.197	4432
858.331	4428
858.464	4341
858.597	4371
858.731	4474
858.864	4432
858.997	4489
859.13	4527
859.263	4535
859.396	4588
859.529	4531
859.662	4523
859.795	4504
859.928	4618
860.061	4698
860.194	4801
860.327	4653
860.46	4725
860.592	4790
860.725	4736
860.858	4797
860.99	4702
861.123	4710
861.256	4668
861.388	4786
861.521	5391
861.653	4733
861.786	4736
861.918	4706
862.05	4816
862.183	4805
862.315	4923
862.447	4961
862.58	4938
862.712	4850
862.844	4790
862.976	4870
863.108	4889
863.24	5220
863.372	4885
863.504	4847
863.636	4938
863.768	4987
863.9	5003
864.032	4934
864.164	4980
864.296	5075
864.428	5105
864.559	5132
864.691	5128
864.823	5132
864.954	5105
865.086	5136
865.217	5143
865.349	5178
865.48	5159
865.612	5185
865.743	5277
865.875	5204
866.006	5151
866.137	5254
866.269	5254
866.4	5261
866.531	5296
866.662	5258
866.793	5315
866.924	5330
867.055	5345
867.186	5330
867.317	5341
867.448	5383
867.579	5376
867.71	5337
867.841	5357
867.972	5436
868.103	5490
868.233	5505
868.364	5547
868.495	5535
868.625	5684
868.756	5798
868.886	5680
869.017	5695
869.147	5897
869.278	5870
869.408	5817
869.539	5851
869.669	5958
869.799	5927
869.929	5980
870.06	5992
870.19	6205
870.32	6209
870.45	6232
870.58	6372
870.71	6467
870.84	6490
870.97	6467
871.1	6456
871.23	6688
871.36	6688
871.489	6673
871.619	6772
871.749	6837
871.879	6909
872.008	6958
872.138	7027
872.267	7023
872.397	6989
872.526	7050
872.656	7129
872.785	7110
872.915	7365
873.044	7510
873.173	7594
873.303	7693
873.432	7792
873.561	7894
873.69	7837
873.819	8024
873.948	8164
874.077	8275
874.206	8290
874.335	8419
874.464	8705
874.593	8834
874.722	8914
874.851	9165
874.979	9245
875.108	9481
875.237	9405
875.365	9523
875.494	9690
875.623	9838
875.751	9880
875.88	10063
876.008	10177
876.136	10249
876.265	10497
876.393	10816
876.521	10733
876.65	10801
876.778	10824
876.906	10946
877.034	10972
877.162	11178
877.29	11140
877.418	11372
877.546	11414
877.674	11414
877.802	11421
877.93	11566
878.058	11543
878.185	11520
878.313	11604
878.441	11836
878.568	11668
878.696	11748
878.824	11901
878.951	11977
879.079	12011
879.206	12178
879.333	12011
879.461	12034
879.588	12091
879.715	12087
879.842	12327
879.97	12182
880.097	11863
880.224	11897
880.351	11863
880.478	11912
880.605	11904
880.732	11878
880.859	11935
880.986	11802
881.112	11832
881.239	11821
881.366	11676
881.493	11665
881.619	11539
881.746	11467
881.872	11532
881.999	11543
882.125	11463
882.252	11509
882.378	11573
882.505	11589
882.631	11356
882.757	11258
882.883	11307
883.01	11246
883.136	11246
883.262	11147
883.388	11124
883.514	11246
883.64	11174
883.766	11056
883.892	11003
884.018	10953
884.143	11071
884.269	11075
884.395	10877
884.52	10847
884.646	10824
884.772	10714
884.897	10618
885.023	10698
885.148	10721
885.274	10805
885.399	10675
885.524	10615
885.65	10596
885.775	10554
885.9	10512
886.025	10561
886.15	10531
886.275	10447
886.4	10367
886.525	10478
886.65	10386
886.775	10398
886.9	10405
887.025	10569
887.149	10428
887.274	10348
887.399	10238
887.523	10101
887.648	10200
887.773	10211
887.897	10223
888.021	10242
888.146	10139
888.27	10215
888.395	10261
888.519	10154
888.643	10246
888.767	10204
888.891	10162
889.015	10105
889.139	10010
889.263	10021
889.387	10082
889.511	10112
889.635	10116
889.759	9960
889.883	10017
890.006	10032
890.13	10109
890.254	9949
890.377	9956
890.501	9880
890.624	9869
890.748	9850
890.871	9842
890.995	9778
891.118	9724
891.241	9816
891.364	9732
891.488	9880
891.611	9778
891.734	9781
891.857	9770
891.98	9732
892.103	9846
892.226	9766
892.349	9717
892.471	9553
892.594	9648
892.717	9747
892.839	9580
892.962	9622
893.085	9614
893.207	9606
893.33	9523
893.452	9504
893.575	9572
893.697	9469
893.819	9629
893.941	9622
894.064	9595
894.186	9428
894.308	9428
894.43	9542
894.552	9606
894.674	9625
894.796	9363
894.918	9378
895.04	9325
895.161	9340
895.283	9378
895.405	9249
895.526	9306
895.648	9279
895.769	9294
895.891	9241
896.012	9275
896.134	9260
896.255	9211
896.376	9142
896.498	9161
896.619	9119
896.74	9108
896.861	9066
896.982	9241
897.103	9207
897.224	9176
897.345	9100
897.466	9001
897.587	9070
897.708	9085
897.828	9070
897.949	8971
898.07	8902
898.19	8925
898.311	9062
898.431	8906
898.552	8876
898.672	8937
898.792	8933
898.913	8937
899.033	8826
899.153	8750
899.273	8632
899.393	8644
899.513	8811
899.633	8819
899.753	8720
899.873	8674
899.993	8788
900.113	8697
900.232	8697
900.352	8651
900.472	8648
900.591	8625
900.711	8587
900.83	8560
900.95	8689
901.069	8739
901.189	8663
901.308	8469
901.427	8412
901.546	8434
901.665	8488
901.784	8526
901.904	8358
902.023	8339
902.141	8286
902.26	8233
902.379	8279
902.498	8225
902.617	8244
902.735	8267
902.854	8290
902.973	8218
903.091	8157
903.21	8153
903.328	8176
903.446	8172
903.565	8073
903.683	8145
903.801	8065
903.919	8123
904.038	8172
904.156	8107
904.274	8077
904.392	8024
904.51	8043
904.627	8111
904.745	8123
904.863	8142
904.981	7959
905.098	7932
905.216	7906
905.334	7959
905.451	7936
905.569	7928
905.686	7879
905.803	7883
905.921	7860
906.038	7898
906.155	7788
906.272	7696
906.389	7715
906.506	7651
906.623	7609
906.74	7597
906.857	7525
906.974	7548
907.091	7704
907.208	7693
907.324	7662
907.441	7609
907.557	7480
907.674	7403
907.79	7430
907.907	7422
908.023	7464
908.139	7480
908.256	7449
908.372	7377
908.488	7377
908.604	7251
908.72	7236
908.836	7324
908.952	7236
909.068	7301
909.184	7324
909.3	7270
909.415	7285
909.531	7312
909.647	7145
909.762	7137
909.878	7084
909.993	7122
910.108	7137
910.224	7072
910.339	7095
910.454	7046
910.57	7015
910.685	6985
910.8	7244
910.915	7118
911.03	7012
911.145	6909
911.259	6875
911.374	6916
911.489	6806
911.604	6791
911.718	6700
911.833	6753
911.947	6612
912.062	6608
912.176	6738
912.291	6753
912.405	6711
912.519	6818
912.633	6856
912.748	6749
912.862	6650
912.976	6570
913.09	6574
913.204	6627
913.318	6673
913.431	6642
913.545	6715
913.659	6673
913.772	6604
913.886	6566
914	6582
914.113	6646
914.226	6642
914.34	6631
914.453	6464
914.566	6616
914.68	6525
914.793	6566
914.906	6395
915.019	6418
915.132	6388
915.245	6441
915.358	6456
915.47	6452
915.583	6445
915.696	6464
915.809	6513
915.921	6536
916.034	6445
916.146	6445
916.259	6365
916.371	6494
916.483	6452
916.595	6365
916.708	6403
916.82	6422
916.932	6327
917.044	6395
917.156	6391
917.268	6331
917.38	6395
917.491	6327
917.603	6342
917.715	6361
917.826	6426
917.938	6319
918.049	6285
918.161	6407
918.272	6388
918.384	6365
918.495	6353
918.606	6327
918.717	6220
918.828	6254
918.939	6289
919.05	6243
919.161	6266
919.272	6053
919.383	6201
919.494	6296
919.604	6475
919.715	6342
919.826	6228
919.936	6254
920.047	6380
920.157	6232
920.267	6479
920.378	6331
920.488	6327
920.598	6475
920.708	6612
920.818	6460
920.928	6464
921.038	6601
921.148	6597
921.258	6380
921.368	6232
921.477	6220
921.587	6171
921.697	6083
921.806	6182
921.916	6129
922.025	5897
922.134	5916
922.244	5855
922.353	5939
922.462	5859
922.571	5870
922.68	5707
922.789	5691
922.898	5741
923.007	5608
923.116	5703
923.224	5672
923.333	5649
923.442	5630
923.55	5600
923.659	5592
923.767	5653
923.876	5581
923.984	5623
924.092	5505
924.201	5547
924.309	5562
924.417	5558
924.525	5497
924.633	5482
924.741	6197
924.849	5341
924.956	5497
925.064	5429
925.172	5330
925.279	5311
925.387	5357
925.494	5318
925.602	5421
925.709	5368
925.816	5345
925.924	5345
926.031	5406
926.138	5337
926.245	5322
926.352	5261
926.459	5391
926.566	5284
926.673	5193
926.779	5140
926.886	5105
926.993	5064
927.099	5014
927.206	4984
927.312	4984
927.419	5045
927.525	4957
927.631	5018
927.737	4911
927.843	4866
927.95	4778
928.056	4900
928.162	4816
928.267	4892
928.373	5376
928.479	4862
928.585	4714
928.69	4797
928.796	4752
928.901	4717
929.007	4573
929.112	4672
929.218	4683
929.323	4611
929.428	4580
929.533	4672
929.638	4535
929.743	4580
929.848	4569
929.953	4497
930.058	4500
930.163	4295
930.267	4329
930.372	4462
930.477	4318
930.581	4417
930.685	4367
930.79	4291
930.894	4303
930.998	4265
931.103	4383
931.207	4131
931.311	4067
931.415	4109
931.519	3918
931.623	3953
