Data from glass_V78500241_2599.txt Node
Date: Wed Sep 01 19:32:31 CST 2021
User: usil
Spectrometer: V785-0024
Trigger mode: 0
Integration Time (sec): 4.000000E-1
Scans to average: 1
Nonlinearity correction enabled: false
Boxcar width: 0
Storing dark spectrum: false
XAxis mode: Wavelengths
Number of Pixels in Spectrum: 1024
>>>>>Begin Spectral Data<<<<<
801.071	3755
801.214	3732
801.356	3682
801.499	3717
801.641	3713
801.783	3732
801.926	3831
802.068	3812
802.211	3831
802.353	3918
802.496	3823
802.638	3869
802.78	3888
802.923	3945
803.065	3884
803.208	3873
803.35	3865
803.492	3903
803.635	3880
803.777	3774
803.919	3865
804.061	4120
804.204	3968
804.346	3949
804.488	3945
804.63	4032
804.773	3934
804.915	4017
805.057	4169
805.199	4044
805.341	4067
805.483	4124
805.626	4162
805.768	4109
805.91	4185
806.052	4207
806.194	4219
806.336	4333
806.478	4196
806.62	4120
806.762	4150
806.904	4299
807.046	4276
807.188	4230
807.33	4147
807.472	4204
807.614	4147
807.756	4276
807.898	4234
808.04	4223
808.182	4242
808.324	4306
808.465	4348
808.607	4405
808.749	4398
808.891	4421
809.033	4497
809.174	4394
809.316	4246
809.458	4223
809.6	4101
809.741	4166
809.883	4177
810.025	4207
810.166	4192
810.308	4211
810.45	4242
810.591	4120
810.733	4238
810.875	4504
811.016	4835
811.158	5090
811.299	5239
811.441	5280
811.582	5056
811.724	4664
811.865	4443
812.007	4424
812.148	4417
812.29	4402
812.431	4409
812.573	4405
812.714	4363
812.855	4394
812.997	4413
813.138	4432
813.279	4417
813.421	4383
813.562	4371
813.703	4333
813.845	4318
813.986	4204
814.127	4200
814.268	4238
814.41	4268
814.551	4272
814.692	4314
814.833	4268
814.974	4249
815.115	4379
815.256	4173
815.397	4234
815.539	4185
815.68	4150
815.821	4211
815.962	4318
816.103	4238
816.244	4185
816.385	4249
816.526	4249
816.666	4196
816.807	4097
816.948	4143
817.089	4177
817.23	4090
817.371	4029
817.512	3983
817.653	4032
817.793	4059
817.934	4025
818.075	4086
818.216	4040
818.356	4017
818.497	4006
818.638	3915
818.778	3880
818.919	3869
819.06	3869
819.2	3937
819.341	3869
819.481	3842
819.622	3896
819.762	4048
819.903	3934
820.043	3819
820.184	3804
820.324	3827
820.465	3857
820.605	3880
820.746	3854
820.886	3800
821.026	3930
821.167	3850
821.307	3998
821.447	3983
821.588	3934
821.728	3941
821.868	3949
822.008	3819
822.149	3892
822.289	3876
822.429	3781
822.569	3755
822.709	3759
822.849	3671
822.99	3690
823.13	3694
823.27	3743
823.41	3698
823.55	3717
823.69	3762
823.83	3720
823.97	3644
824.11	3591
824.25	3564
824.389	3622
824.529	3656
824.669	3644
824.809	3732
824.949	3736
825.089	3717
825.228	3724
825.368	3595
825.508	3545
825.648	3587
825.787	3603
825.927	3644
826.067	3599
826.206	3698
826.346	3808
826.485	3800
826.625	3857
826.765	3888
826.904	3823
827.044	3606
827.183	3504
827.323	3397
827.462	3481
827.601	3424
827.741	3416
827.88	3473
828.02	3336
828.159	3450
828.298	3504
828.437	3530
828.577	3447
828.716	3614
828.855	3466
828.994	3344
829.134	3340
829.273	3370
829.412	3287
829.551	3370
829.69	3363
829.829	3412
829.968	3545
830.107	3450
830.246	3450
830.385	3367
830.524	3306
830.663	3283
830.802	3245
830.941	3192
831.08	3169
831.219	3275
831.357	3222
831.496	3363
831.635	3233
831.774	3203
831.913	3192
832.051	3138
832.19	3142
832.329	3230
832.467	3138
832.606	3055
832.744	3154
832.883	3150
833.022	3138
833.16	3264
833.299	3317
833.437	3344
833.576	3355
833.714	3397
833.852	3439
833.991	3431
834.129	3507
834.267	3462
834.406	3389
834.544	3389
834.682	3420
834.821	3420
834.959	3515
835.097	3416
835.235	3572
835.373	3473
835.511	3492
835.65	3458
835.788	3511
835.926	3386
836.064	3367
836.202	3378
836.34	3538
836.478	3595
836.615	3542
836.753	3580
836.891	3618
837.029	3618
837.167	3564
837.305	3534
837.443	3542
837.58	3530
837.718	3580
837.856	3557
837.993	3534
838.131	3580
838.269	3534
838.406	3568
838.544	3549
838.681	3485
838.819	3424
838.956	3351
839.094	3351
839.231	3462
839.369	3507
839.506	3698
839.643	3660
839.781	3500
839.918	3447
840.055	3492
840.193	3485
840.33	3488
840.467	3530
840.604	3610
840.742	3770
840.879	3549
841.016	3523
841.153	3564
841.29	3724
841.427	3705
841.564	3694
841.701	3709
841.838	3694
841.975	3701
842.112	3690
842.249	3637
842.385	3622
842.522	3778
842.659	3656
842.796	3663
842.933	3663
843.069	3679
843.206	3736
843.343	3778
843.479	3751
843.616	3838
843.752	3663
843.889	3694
844.025	3819
844.162	3713
844.298	3808
844.435	3789
844.571	3774
844.708	3873
844.844	3945
844.98	3994
845.117	3968
845.253	3953
845.389	3899
845.525	3953
845.661	3983
845.798	3937
845.934	4021
846.07	3937
846.206	4055
846.342	4128
846.478	4074
846.614	3979
846.75	3937
846.886	3892
847.022	3998
847.158	4010
847.294	3998
847.429	3983
847.565	3979
847.701	4215
847.837	3842
847.972	3876
848.108	3979
848.244	3960
848.379	3850
848.515	3812
848.65	3854
848.786	3831
848.921	3869
849.057	3911
849.192	3922
849.328	3846
849.463	3899
849.598	3884
849.734	3835
849.869	3850
850.004	3823
850.14	3759
850.275	3778
850.41	3740
850.545	3747
850.68	3766
850.815	3804
850.95	3732
851.085	3880
851.22	3819
851.355	3808
851.49	3759
851.625	3808
851.76	3774
851.895	3720
852.03	3682
852.165	3793
852.299	3854
852.434	3876
852.569	3850
852.703	3857
852.838	3865
852.973	3994
853.107	3975
853.242	3876
853.376	3819
853.511	3747
853.645	3842
853.78	3968
853.914	3915
854.048	3892
854.183	3880
854.317	3953
854.451	4055
854.585	3907
854.72	3918
854.854	4067
854.988	3884
855.122	3968
855.256	3899
855.39	4048
855.524	4124
855.658	4120
855.792	4067
855.926	4147
856.06	4169
856.194	4211
856.327	4177
856.461	4120
856.595	4154
856.729	4154
856.862	4276
856.996	4242
857.13	4310
857.263	4322
857.397	4402
857.53	4306
857.664	4341
857.797	4371
857.931	4417
858.064	4363
858.197	4413
858.331	4390
858.464	4329
858.597	4344
858.731	4405
858.864	4443
858.997	4447
859.13	4512
859.263	4554
859.396	4599
859.529	4527
859.662	4523
859.795	4512
859.928	4569
860.061	4679
860.194	4725
860.327	4649
860.46	4645
860.592	4702
860.725	4759
860.858	4733
860.99	4725
861.123	4706
861.256	4668
861.388	4782
861.521	5315
861.653	4702
861.786	4733
861.918	4714
862.05	4774
862.183	4831
862.315	4843
862.447	4900
862.58	4881
862.712	4755
862.844	4721
862.976	4896
863.108	4873
863.24	5189
863.372	4831
863.504	4854
863.636	4911
863.768	4938
863.9	4965
864.032	4957
864.164	4999
864.296	5041
864.428	5033
864.559	5105
864.691	5094
864.823	5090
864.954	5102
865.086	5102
865.217	5117
865.349	5102
865.48	5166
865.612	5166
865.743	5246
865.875	5193
866.006	5185
866.137	5208
866.269	5208
866.4	5269
866.531	5220
866.662	5181
866.793	5220
866.924	5296
867.055	5311
867.186	5383
867.317	5357
867.448	5326
867.579	5326
867.71	5322
867.841	5349
867.972	5425
868.103	5421
868.233	5493
868.364	5463
868.495	5497
868.625	5646
868.756	5779
868.886	5600
869.017	5733
869.147	5828
869.278	5863
869.408	5832
869.539	5794
869.669	5851
869.799	5874
869.929	6022
870.06	5999
870.19	6182
870.32	6159
870.45	6216
870.58	6346
870.71	6426
870.84	6410
870.97	6357
871.1	6403
871.23	6646
871.36	6692
871.489	6604
871.619	6738
871.749	6726
871.879	6791
872.008	6970
872.138	6951
872.267	6985
872.397	7008
872.526	7004
872.656	7050
872.785	7194
872.915	7354
873.044	7537
873.173	7537
873.303	7575
873.432	7731
873.561	7875
873.69	7894
873.819	8092
873.948	8138
874.077	8221
874.206	8408
874.335	8450
874.464	8701
874.593	8807
874.722	8887
874.851	9085
874.979	9268
875.108	9389
875.237	9374
875.365	9526
875.494	9667
875.623	9819
875.751	9812
875.88	10021
876.008	10124
876.136	10230
876.265	10489
876.393	10714
876.521	10771
876.65	10820
876.778	10881
876.906	10885
877.034	11037
877.162	11143
877.29	11121
877.418	11277
877.546	11307
877.674	11345
877.802	11410
877.93	11493
878.058	11524
878.185	11668
878.313	11627
878.441	11733
878.568	11695
878.696	11813
878.824	11821
878.951	11958
879.079	11977
879.206	12034
879.333	12117
879.461	11969
879.588	12125
879.715	12087
879.842	12224
879.97	12019
880.097	11904
880.224	11824
880.351	11882
880.478	11859
880.605	11866
880.732	11741
880.859	11973
880.986	11786
881.112	11821
881.239	11672
881.366	11691
881.493	11627
881.619	11490
881.746	11459
881.872	11501
881.999	11570
882.125	11505
882.252	11554
882.378	11497
882.505	11566
882.631	11398
882.757	11242
882.883	11364
883.01	11231
883.136	11162
883.262	11083
883.388	11048
883.514	11185
883.64	11022
883.766	11033
883.892	10957
884.018	10938
884.143	11109
884.269	11102
884.395	10869
884.52	10767
884.646	10729
884.772	10717
884.897	10641
885.023	10717
885.148	10710
885.274	10778
885.399	10710
885.524	10645
885.65	10615
885.775	10649
885.9	10535
886.025	10577
886.15	10542
886.275	10474
886.4	10386
886.525	10436
886.65	10390
886.775	10382
886.9	10447
887.025	10535
887.149	10390
887.274	10169
887.399	10284
887.523	10173
887.648	10139
887.773	10139
887.897	10227
888.021	10223
888.146	10074
888.27	10253
888.395	10211
888.519	10207
888.643	10158
888.767	10196
888.891	10063
889.015	9918
889.139	10055
889.263	10021
889.387	10101
889.511	10055
889.635	9998
889.759	9937
889.883	9979
890.006	10002
890.13	10036
890.254	10010
890.377	9964
890.501	9800
890.624	9816
890.748	9854
890.871	9762
890.995	9762
891.118	9652
891.241	9781
891.364	9736
891.488	9854
891.611	9804
891.734	9713
891.857	9694
891.98	9656
892.103	9823
892.226	9717
892.349	9599
892.471	9496
892.594	9538
892.717	9622
892.839	9580
892.962	9542
893.085	9553
893.207	9580
893.33	9526
893.452	9485
893.575	9568
893.697	9515
893.819	9557
893.941	9747
894.064	9622
894.186	9447
894.308	9408
894.43	9561
894.552	9549
894.674	9496
894.796	9348
894.918	9412
895.04	9355
895.161	9389
895.283	9336
895.405	9157
895.526	9226
895.648	9287
895.769	9256
895.891	9249
896.012	9245
896.134	9218
896.255	9142
896.376	9192
896.498	9077
896.619	9097
896.74	9108
896.861	9116
896.982	9241
897.103	9268
897.224	9108
897.345	9013
897.466	9028
897.587	9009
897.708	9119
897.828	9032
897.949	8963
898.07	8895
898.19	8853
898.311	8986
898.431	8899
898.552	8864
898.672	8902
898.792	8971
898.913	8925
899.033	8746
899.153	8678
899.273	8625
899.393	8651
899.513	8769
899.633	8724
899.753	8712
899.873	8659
899.993	8739
900.113	8705
900.232	8693
900.352	8617
900.472	8610
900.591	8598
900.711	8606
900.83	8568
900.95	8663
901.069	8697
901.189	8495
901.308	8423
901.427	8355
901.546	8457
901.665	8480
901.784	8434
901.904	8419
902.023	8275
902.141	8161
902.26	8214
902.379	8248
902.498	8153
902.617	8229
902.735	8263
902.854	8290
902.973	8279
903.091	8084
903.21	8134
903.328	8130
903.446	8134
903.565	8123
903.683	8103
903.801	8073
903.919	8100
904.038	8096
904.156	8054
904.274	8062
904.392	8050
904.51	8001
904.627	8050
904.745	8039
904.863	8073
904.981	7989
905.098	7875
905.216	7898
905.334	7875
905.451	7822
905.569	7833
905.686	7856
905.803	7807
905.921	7765
906.038	7822
906.155	7788
906.272	7765
906.389	7731
906.506	7609
906.623	7578
906.74	7597
906.857	7529
906.974	7571
907.091	7655
907.208	7693
907.324	7639
907.441	7552
907.557	7388
907.674	7457
907.79	7411
907.907	7384
908.023	7396
908.139	7358
908.256	7331
908.372	7392
908.488	7305
908.604	7206
908.72	7190
908.836	7263
908.952	7198
909.068	7232
909.184	7327
909.3	7217
909.415	7198
909.531	7259
909.647	7080
909.762	7084
909.878	7114
909.993	7110
910.108	7122
910.224	7129
910.339	7038
910.454	7034
910.57	6981
910.685	7004
910.8	7126
910.915	7122
911.03	7072
911.145	6901
911.259	6878
911.374	6837
911.489	6825
911.604	6821
911.718	6726
911.833	6700
911.947	6646
912.062	6623
912.176	6665
912.291	6707
912.405	6673
912.519	6810
912.633	6833
912.748	6726
912.862	6662
912.976	6585
913.09	6570
913.204	6574
913.318	6593
913.431	6578
913.545	6696
913.659	6658
913.772	6631
913.886	6582
914	6479
914.113	6616
914.226	6623
914.34	6604
914.453	6498
914.566	6566
914.68	6494
914.793	6509
914.906	6410
915.019	6418
915.132	6372
915.245	6388
915.358	6441
915.47	6437
915.583	6395
915.696	6433
915.809	6528
915.921	6521
916.034	6388
916.146	6365
916.259	6422
916.371	6525
916.483	6418
916.595	6365
916.708	6407
916.82	6422
916.932	6357
917.044	6384
917.156	6380
917.268	6308
917.38	6251
917.491	6270
917.603	6361
917.715	6433
917.826	6410
917.938	6357
918.049	6251
918.161	6266
918.272	6410
918.384	6410
918.495	6350
918.606	6292
918.717	6209
918.828	6315
918.939	6266
919.05	6201
919.161	6258
919.272	6117
919.383	6159
919.494	6247
919.604	6426
919.715	6296
919.826	6190
919.936	6216
920.047	6311
920.157	6281
920.267	6456
920.378	6300
920.488	6277
920.598	6403
920.708	6509
920.818	6475
920.928	6441
921.038	6559
921.148	6578
921.258	6327
921.368	6296
921.477	6125
921.587	6201
921.697	6057
921.806	6175
921.916	6060
922.025	5946
922.134	5901
922.244	5859
922.353	5923
922.462	5813
922.571	5745
922.68	5672
922.789	5703
922.898	5691
923.007	5638
923.116	5714
923.224	5680
923.333	5604
923.442	5562
923.55	5577
923.659	5596
923.767	5627
923.876	5539
923.984	5543
924.092	5478
924.201	5543
924.309	5558
924.417	5532
924.525	5497
924.633	5505
924.741	6289
924.849	5330
924.956	5497
925.064	5414
925.172	5299
925.279	5303
925.387	5341
925.494	5299
925.602	5459
925.709	5345
925.816	5315
925.924	5303
926.031	5341
926.138	5296
926.245	5322
926.352	5235
926.459	5227
926.566	5368
926.673	5193
926.779	5140
926.886	5136
926.993	5048
927.099	4991
927.206	4946
927.312	4949
927.419	5010
927.525	4946
927.631	5006
927.737	4957
927.843	4839
927.95	4771
928.056	4812
928.162	4809
928.267	4858
928.373	5231
928.479	4824
928.585	4683
928.69	4744
928.796	4759
928.901	4687
929.007	4565
929.112	4687
929.218	4577
929.323	4634
929.428	4550
929.533	4675
929.638	4500
929.743	4523
929.848	4554
929.953	4470
930.058	4402
930.163	4344
930.267	4333
930.372	4432
930.477	4322
930.581	4455
930.685	4341
930.79	4211
930.894	4257
930.998	4223
931.103	4363
931.207	4112
931.311	4105
931.415	4048
931.519	3884
931.623	3937
