Data from glass_V78500241_2262.txt Node
Date: Wed Sep 01 19:30:10 CST 2021
User: usil
Spectrometer: V785-0024
Trigger mode: 0
Integration Time (sec): 4.000000E-1
Scans to average: 1
Nonlinearity correction enabled: false
Boxcar width: 0
Storing dark spectrum: false
XAxis mode: Wavelengths
Number of Pixels in Spectrum: 1024
>>>>>Begin Spectral Data<<<<<
801.071	3755
801.214	3724
801.356	3698
801.499	3736
801.641	3747
801.783	3755
801.926	3827
802.068	3816
802.211	3831
802.353	3854
802.496	3842
802.638	3880
802.78	3842
802.923	3899
803.065	3892
803.208	3850
803.35	3873
803.492	3876
803.635	3911
803.777	3800
803.919	3930
804.061	4128
804.204	3994
804.346	3899
804.488	3945
804.63	4090
804.773	3960
804.915	4044
805.057	4093
805.199	4029
805.341	4067
805.483	4078
805.626	4097
805.768	4139
805.91	4200
806.052	4219
806.194	4169
806.336	4333
806.478	4204
806.62	4158
806.762	4223
806.904	4227
807.046	4344
807.188	4207
807.33	4185
807.472	4227
807.614	4150
807.756	4261
807.898	4173
808.04	4207
808.182	4249
808.324	4295
808.465	4360
808.607	4466
808.749	4440
808.891	4497
809.033	4497
809.174	4402
809.316	4230
809.458	4227
809.6	4143
809.741	4154
809.883	4150
810.025	4177
810.166	4204
810.308	4204
810.45	4246
810.591	4261
810.733	4265
810.875	4493
811.016	4786
811.158	5136
811.299	5269
811.441	5299
811.582	5071
811.724	4691
811.865	4440
812.007	4455
812.148	4375
812.29	4424
812.431	4421
812.573	4398
812.714	4367
812.855	4405
812.997	4379
813.138	4481
813.279	4413
813.421	4383
813.562	4405
813.703	4367
813.845	4318
813.986	4246
814.127	4185
814.268	4265
814.41	4219
814.551	4223
814.692	4394
814.833	4303
814.974	4276
815.115	4322
815.256	4253
815.397	4196
815.539	4234
815.68	4200
815.821	4192
815.962	4299
816.103	4246
816.244	4192
816.385	4211
816.526	4291
816.666	4192
816.807	4097
816.948	4147
817.089	4181
817.23	4120
817.371	4051
817.512	4055
817.653	4063
817.793	4044
817.934	4032
818.075	4101
818.216	4109
818.356	4048
818.497	3968
818.638	3876
818.778	3915
818.919	3949
819.06	3873
819.2	3941
819.341	3842
819.481	3812
819.622	3880
819.762	3983
819.903	3899
820.043	3880
820.184	3812
820.324	3846
820.465	3865
820.605	3835
820.746	3854
820.886	3797
821.026	3903
821.167	3918
821.307	3972
821.447	3964
821.588	3918
821.728	3945
821.868	3945
822.008	3850
822.149	3964
822.289	3922
822.429	3740
822.569	3778
822.709	3781
822.849	3641
822.99	3698
823.13	3762
823.27	3785
823.41	3694
823.55	3728
823.69	3732
823.83	3717
823.97	3690
824.11	3584
824.25	3572
824.389	3637
824.529	3633
824.669	3629
824.809	3709
824.949	3774
825.089	3728
825.228	3705
825.368	3568
825.508	3526
825.648	3572
825.787	3618
825.927	3660
826.067	3591
826.206	3644
826.346	3797
826.485	3831
826.625	3888
826.765	3953
826.904	3812
827.044	3629
827.183	3515
827.323	3450
827.462	3458
827.601	3431
827.741	3431
827.88	3447
828.02	3374
828.159	3435
828.298	3431
828.437	3507
828.577	3439
828.716	3644
828.855	3488
828.994	3340
829.134	3389
829.273	3351
829.412	3329
829.551	3310
829.69	3370
829.829	3428
829.968	3523
830.107	3401
830.246	3439
830.385	3340
830.524	3336
830.663	3310
830.802	3241
830.941	3214
831.08	3192
831.219	3226
831.357	3249
831.496	3386
831.635	3211
831.774	3211
831.913	3218
832.051	3154
832.19	3135
832.329	3203
832.467	3108
832.606	3089
832.744	3165
832.883	3184
833.022	3184
833.16	3237
833.299	3306
833.437	3329
833.576	3389
833.714	3409
833.852	3420
833.991	3405
834.129	3477
834.267	3435
834.406	3397
834.544	3416
834.682	3450
834.821	3389
834.959	3561
835.097	3412
835.235	3557
835.373	3519
835.511	3462
835.65	3416
835.788	3485
835.926	3397
836.064	3401
836.202	3462
836.34	3599
836.478	3618
836.615	3595
836.753	3595
836.891	3622
837.029	3610
837.167	3542
837.305	3568
837.443	3538
837.58	3500
837.718	3587
837.856	3553
837.993	3523
838.131	3603
838.269	3561
838.406	3614
838.544	3538
838.681	3496
838.819	3458
838.956	3363
839.094	3363
839.231	3462
839.369	3469
839.506	3713
839.643	3667
839.781	3496
839.918	3420
840.055	3504
840.193	3519
840.33	3530
840.467	3511
840.604	3606
840.742	3774
840.879	3561
841.016	3523
841.153	3625
841.29	3755
841.427	3671
841.564	3713
841.701	3728
841.838	3728
841.975	3686
842.112	3698
842.249	3656
842.385	3610
842.522	3831
842.659	3682
842.796	3660
842.933	3709
843.069	3701
843.206	3633
843.343	3804
843.479	3781
843.616	3816
843.752	3686
843.889	3652
844.025	3838
844.162	3694
844.298	3869
844.435	3812
844.571	3797
844.708	3892
844.844	3945
844.98	4002
845.117	3994
845.253	3899
845.389	3907
845.525	3953
845.661	3922
845.798	3937
845.934	4010
846.07	3918
846.206	4063
846.342	4166
846.478	4086
846.614	4013
846.75	3896
846.886	3876
847.022	4032
847.158	3983
847.294	4013
847.429	4029
847.565	3979
847.701	4181
847.837	3911
847.972	3804
848.108	3998
848.244	3953
848.379	3911
848.515	3827
848.65	3774
848.786	3823
848.921	3857
849.057	3953
849.192	3975
849.328	3861
849.463	3903
849.598	3861
849.734	3857
849.869	3846
850.004	3778
850.14	3800
850.275	3766
850.41	3732
850.545	3766
850.68	3759
850.815	3766
850.95	3793
851.085	3960
851.22	3880
851.355	3831
851.49	3770
851.625	3785
851.76	3800
851.895	3713
852.03	3713
852.165	3808
852.299	3857
852.434	3899
852.569	3850
852.703	3888
852.838	3892
852.973	3934
853.107	4013
853.242	3892
853.376	3846
853.511	3808
853.645	3850
853.78	3964
853.914	3903
854.048	3880
854.183	3857
854.317	3956
854.451	4010
854.585	3956
854.72	3941
854.854	4013
854.988	3953
855.122	3994
855.256	3899
855.39	4074
855.524	4067
855.658	4055
855.792	4074
855.926	4158
856.06	4150
856.194	4188
856.327	4143
856.461	4124
856.595	4101
856.729	4139
856.862	4257
856.996	4230
857.13	4249
857.263	4268
857.397	4310
857.53	4276
857.664	4375
857.797	4363
857.931	4398
858.064	4325
858.197	4451
858.331	4386
858.464	4379
858.597	4371
858.731	4432
858.864	4443
858.997	4440
859.13	4485
859.263	4500
859.396	4573
859.529	4481
859.662	4497
859.795	4508
859.928	4618
860.061	4733
860.194	4733
860.327	4607
860.46	4660
860.592	4714
860.725	4748
860.858	4767
860.99	4694
861.123	4679
861.256	4702
861.388	4752
861.521	5539
861.653	4694
861.786	4698
861.918	4721
862.05	4763
862.183	4805
862.315	4881
862.447	4976
862.58	4877
862.712	4786
862.844	4702
862.976	4900
863.108	4911
863.24	5162
863.372	4885
863.504	4908
863.636	4900
863.768	4987
863.9	4953
864.032	4927
864.164	4919
864.296	4980
864.428	5029
864.559	5064
864.691	5109
864.823	5121
864.954	5113
865.086	5189
865.217	5124
865.349	5128
865.48	5124
865.612	5155
865.743	5239
865.875	5231
866.006	5170
866.137	5223
866.269	5201
866.4	5231
866.531	5212
866.662	5178
866.793	5220
866.924	5284
867.055	5318
867.186	5303
867.317	5280
867.448	5315
867.579	5345
867.71	5383
867.841	5414
867.972	5421
868.103	5482
868.233	5444
868.364	5448
868.495	5520
868.625	5646
868.756	5767
868.886	5661
869.017	5691
869.147	5840
869.278	5828
869.408	5779
869.539	5817
869.669	5961
869.799	5870
869.929	6003
870.06	5973
870.19	6175
870.32	6205
870.45	6281
870.58	6338
870.71	6418
870.84	6460
870.97	6391
871.1	6445
871.23	6623
871.36	6677
871.489	6684
871.619	6741
871.749	6848
871.879	6844
872.008	6985
872.138	6962
872.267	7046
872.397	6973
872.526	7023
872.656	7072
872.785	7149
872.915	7373
873.044	7525
873.173	7529
873.303	7662
873.432	7769
873.561	7826
873.69	7921
873.819	7997
873.948	8206
874.077	8229
874.206	8328
874.335	8404
874.464	8613
874.593	8792
874.722	8948
874.851	9123
874.979	9249
875.108	9332
875.237	9443
875.365	9511
875.494	9720
875.623	9846
875.751	9918
875.88	9934
876.008	10150
876.136	10234
876.265	10512
876.393	10668
876.521	10679
876.65	10828
876.778	10824
876.906	10885
877.034	10927
877.162	11083
877.29	11128
877.418	11216
877.546	11318
877.674	11417
877.802	11482
877.93	11535
878.058	11547
878.185	11505
878.313	11600
878.441	11676
878.568	11680
878.696	11893
878.824	11771
878.951	11969
879.079	11996
879.206	12129
879.333	12076
879.461	11954
879.588	12068
879.715	12072
879.842	12224
879.97	12072
880.097	11897
880.224	11942
880.351	11939
880.478	11946
880.605	11840
880.732	11756
880.859	11939
880.986	11783
881.112	11775
881.239	11714
881.366	11665
881.493	11688
881.619	11547
881.746	11665
881.872	11577
881.999	11490
882.125	11524
882.252	11512
882.378	11452
882.505	11501
882.631	11326
882.757	11284
882.883	11360
883.01	11170
883.136	11201
883.262	11094
883.388	11052
883.514	11132
883.64	11140
883.766	11029
883.892	10980
884.018	10999
884.143	11064
884.269	11083
884.395	10866
884.52	10752
884.646	10778
884.772	10725
884.897	10687
885.023	10637
885.148	10714
885.274	10725
885.399	10752
885.524	10588
885.65	10599
885.775	10634
885.9	10554
886.025	10569
886.15	10596
886.275	10417
886.4	10485
886.525	10417
886.65	10394
886.775	10329
886.9	10447
887.025	10527
887.149	10363
887.274	10181
887.399	10147
887.523	10169
887.648	10124
887.773	10177
887.897	10196
888.021	10211
888.146	10124
888.27	10188
888.395	10185
888.519	10169
888.643	10131
888.767	10150
888.891	10105
889.015	10017
889.139	10029
889.263	10010
889.387	10040
889.511	10147
889.635	10059
889.759	9934
889.883	9960
890.006	10021
890.13	10105
890.254	9892
890.377	9922
890.501	9774
890.624	9880
890.748	9930
890.871	9800
890.995	9778
891.118	9648
891.241	9724
891.364	9641
891.488	9823
891.611	9755
891.734	9789
891.857	9781
891.98	9720
892.103	9789
892.226	9740
892.349	9713
892.471	9564
892.594	9614
892.717	9576
892.839	9614
892.962	9606
893.085	9614
893.207	9564
893.33	9530
893.452	9519
893.575	9564
893.697	9473
893.819	9644
893.941	9625
894.064	9603
894.186	9435
894.308	9431
894.43	9435
894.552	9591
894.674	9488
894.796	9363
894.918	9420
895.04	9287
895.161	9367
895.283	9332
895.405	9211
895.526	9180
895.648	9249
895.769	9211
895.891	9264
896.012	9287
896.134	9203
896.255	9180
896.376	9203
896.498	9123
896.619	9157
896.74	9062
896.861	9157
896.982	9272
897.103	9272
897.224	9165
897.345	9138
897.466	8960
897.587	8994
897.708	9077
897.828	9017
897.949	8910
898.07	8857
898.19	8921
898.311	8998
898.431	8929
898.552	8883
898.672	8887
898.792	8937
898.913	8853
899.033	8792
899.153	8716
899.273	8708
899.393	8644
899.513	8686
899.633	8697
899.753	8781
899.873	8629
899.993	8731
900.113	8697
900.232	8678
900.352	8644
900.472	8590
900.591	8583
900.711	8549
900.83	8526
900.95	8667
901.069	8739
901.189	8549
901.308	8427
901.427	8469
901.546	8412
901.665	8431
901.784	8450
901.904	8309
902.023	8366
902.141	8229
902.26	8210
902.379	8324
902.498	8183
902.617	8187
902.735	8313
902.854	8286
902.973	8271
903.091	8073
903.21	8107
903.328	8138
903.446	8130
903.565	8111
903.683	8202
903.801	8062
903.919	8081
904.038	8168
904.156	8069
904.274	8084
904.392	8050
904.51	8027
904.627	8027
904.745	8100
904.863	8100
904.981	7898
905.098	7864
905.216	7890
905.334	7902
905.451	7932
905.569	7898
905.686	7928
905.803	7860
905.921	7746
906.038	7864
906.155	7780
906.272	7620
906.389	7708
906.506	7662
906.623	7643
906.74	7559
906.857	7540
906.974	7609
907.091	7636
907.208	7677
907.324	7616
907.441	7620
907.557	7400
907.674	7434
907.79	7335
907.907	7407
908.023	7358
908.139	7422
908.256	7426
908.372	7289
908.488	7403
908.604	7225
908.72	7202
908.836	7221
908.952	7285
909.068	7285
909.184	7343
909.3	7213
909.415	7327
909.531	7274
909.647	7171
909.762	7122
909.878	7000
909.993	7099
910.108	7091
910.224	7099
910.339	7095
910.454	7027
910.57	6954
910.685	6962
910.8	7175
910.915	7057
911.03	6985
911.145	6878
911.259	6878
911.374	6875
911.489	6833
911.604	6810
911.718	6639
911.833	6715
911.947	6673
912.062	6555
912.176	6700
912.291	6681
912.405	6711
912.519	6829
912.633	6779
912.748	6722
912.862	6642
912.976	6570
913.09	6498
913.204	6566
913.318	6601
913.431	6654
913.545	6627
913.659	6684
913.772	6623
913.886	6597
914	6525
914.113	6677
914.226	6646
914.34	6601
914.453	6502
914.566	6601
914.68	6555
914.793	6521
914.906	6391
915.019	6384
915.132	6391
915.245	6407
915.358	6410
915.47	6448
915.583	6437
915.696	6460
915.809	6555
915.921	6563
916.034	6429
916.146	6418
916.259	6380
916.371	6456
916.483	6399
916.595	6369
916.708	6388
916.82	6384
916.932	6346
917.044	6426
917.156	6429
917.268	6319
917.38	6296
917.491	6300
917.603	6376
917.715	6407
917.826	6403
917.938	6270
918.049	6213
918.161	6308
918.272	6429
918.384	6407
918.495	6300
918.606	6311
918.717	6155
918.828	6224
918.939	6285
919.05	6178
919.161	6232
919.272	6049
919.383	6201
919.494	6304
919.604	6464
919.715	6251
919.826	6232
919.936	6213
920.047	6342
920.157	6270
920.267	6437
920.378	6228
920.488	6277
920.598	6471
920.708	6578
920.818	6467
920.928	6441
921.038	6612
921.148	6551
921.258	6357
921.368	6289
921.477	6178
921.587	6152
921.697	6076
921.806	6155
921.916	6022
922.025	5927
922.134	5927
922.244	5882
922.353	5920
922.462	5828
922.571	5809
922.68	5718
922.789	5646
922.898	5691
923.007	5649
923.116	5680
923.224	5634
923.333	5638
923.442	5646
923.55	5543
923.659	5512
923.767	5596
923.876	5532
923.984	5535
924.092	5501
924.201	5547
924.309	5532
924.417	5611
924.525	5524
924.633	5501
924.741	6251
924.849	5330
924.956	5467
925.064	5315
925.172	5261
925.279	5379
925.387	5334
925.494	5330
925.602	5353
925.709	5349
925.816	5273
925.924	5326
926.031	5364
926.138	5318
926.245	5353
926.352	5250
926.459	5246
926.566	5341
926.673	5258
926.779	5136
926.886	5147
926.993	5014
927.099	5022
927.206	4942
927.312	4927
927.419	5003
927.525	4927
927.631	4976
927.737	4870
927.843	4816
927.95	4736
928.056	4843
928.162	4820
928.267	4850
928.373	5273
928.479	4831
928.585	4702
928.69	4721
928.796	4729
928.901	4660
929.007	4577
929.112	4664
929.218	4599
929.323	4588
929.428	4561
929.533	4649
929.638	4481
929.743	4516
929.848	4611
929.953	4516
930.058	4398
930.163	4352
930.267	4363
930.372	4432
930.477	4287
930.581	4428
930.685	4337
930.79	4200
930.894	4303
930.998	4185
931.103	4371
931.207	4139
931.311	4097
931.415	4044
931.519	3922
931.623	3907
