Data from glass_V78500241_827.txt Node
Date: Wed Sep 01 19:20:13 CST 2021
User: usil
Spectrometer: V785-0024
Trigger mode: 0
Integration Time (sec): 4.000000E-1
Scans to average: 1
Nonlinearity correction enabled: false
Boxcar width: 0
Storing dark spectrum: false
XAxis mode: Wavelengths
Number of Pixels in Spectrum: 1024
>>>>>Begin Spectral Data<<<<<
801.071	3713
801.214	3762
801.356	3717
801.499	3743
801.641	3728
801.783	3781
801.926	3903
802.068	3804
802.211	3869
802.353	3941
802.496	3850
802.638	3896
802.78	3899
802.923	3968
803.065	3911
803.208	3846
803.35	3880
803.492	3896
803.635	3926
803.777	3819
803.919	3903
804.061	4131
804.204	3987
804.346	3953
804.488	3888
804.63	4048
804.773	4025
804.915	3987
805.057	4150
805.199	4067
805.341	4071
805.483	4181
805.626	4120
805.768	4128
805.91	4188
806.052	4219
806.194	4192
806.336	4379
806.478	4192
806.62	4181
806.762	4177
806.904	4303
807.046	4341
807.188	4249
807.33	4234
807.472	4234
807.614	4227
807.756	4284
807.898	4234
808.04	4185
808.182	4280
808.324	4325
808.465	4405
808.607	4402
808.749	4470
808.891	4489
809.033	4500
809.174	4390
809.316	4265
809.458	4272
809.6	4166
809.741	4109
809.883	4204
810.025	4196
810.166	4215
810.308	4230
810.45	4246
810.591	4234
810.733	4318
810.875	4523
811.016	4812
811.158	5117
811.299	5345
811.441	5284
811.582	5071
811.724	4736
811.865	4466
812.007	4462
812.148	4451
812.29	4394
812.431	4413
812.573	4405
812.714	4417
812.855	4424
812.997	4436
813.138	4459
813.279	4394
813.421	4409
813.562	4428
813.703	4348
813.845	4333
813.986	4291
814.127	4200
814.268	4265
814.41	4314
814.551	4249
814.692	4360
814.833	4306
814.974	4310
815.115	4363
815.256	4268
815.397	4268
815.539	4284
815.68	4207
815.821	4242
815.962	4318
816.103	4299
816.244	4219
816.385	4265
816.526	4291
816.666	4207
816.807	4139
816.948	4192
817.089	4124
817.23	4158
817.371	4044
817.512	4071
817.653	4105
817.793	4048
817.934	4078
818.075	4074
818.216	4086
818.356	4093
818.497	3968
818.638	3888
818.778	3983
818.919	3903
819.06	3926
819.2	3934
819.341	3896
819.481	3854
819.622	3937
819.762	4021
819.903	3964
820.043	3876
820.184	3861
820.324	3812
820.465	3888
820.605	3869
820.746	3819
820.886	3800
821.026	3945
821.167	3899
821.307	3979
821.447	3960
821.588	3930
821.728	3968
821.868	3956
822.008	3873
822.149	3930
822.289	3956
822.429	3812
822.569	3793
822.709	3816
822.849	3675
822.99	3728
823.13	3755
823.27	3770
823.41	3728
823.55	3770
823.69	3747
823.83	3781
823.97	3694
824.11	3591
824.25	3606
824.389	3667
824.529	3713
824.669	3641
824.809	3766
824.949	3751
825.089	3747
825.228	3686
825.368	3591
825.508	3542
825.648	3576
825.787	3644
825.927	3625
826.067	3663
826.206	3690
826.346	3827
826.485	3861
826.625	3892
826.765	3964
826.904	3816
827.044	3625
827.183	3549
827.323	3466
827.462	3485
827.601	3439
827.741	3420
827.88	3477
828.02	3348
828.159	3488
828.298	3507
828.437	3526
828.577	3435
828.716	3625
828.855	3519
828.994	3393
829.134	3351
829.273	3428
829.412	3363
829.551	3329
829.69	3393
829.829	3458
829.968	3542
830.107	3473
830.246	3454
830.385	3389
830.524	3382
830.663	3317
830.802	3264
830.941	3188
831.08	3207
831.219	3294
831.357	3291
831.496	3382
831.635	3260
831.774	3203
831.913	3211
832.051	3169
832.19	3146
832.329	3188
832.467	3154
832.606	3066
832.744	3161
832.883	3192
833.022	3203
833.16	3256
833.299	3302
833.437	3355
833.576	3363
833.714	3428
833.852	3447
833.991	3443
834.129	3477
834.267	3416
834.406	3412
834.544	3409
834.682	3416
834.821	3416
834.959	3595
835.097	3428
835.235	3557
835.373	3519
835.511	3492
835.65	3462
835.788	3507
835.926	3409
836.064	3367
836.202	3428
836.34	3580
836.478	3584
836.615	3557
836.753	3606
836.891	3679
837.029	3637
837.167	3591
837.305	3553
837.443	3530
837.58	3504
837.718	3618
837.856	3530
837.993	3584
838.131	3584
838.269	3599
838.406	3606
838.544	3580
838.681	3473
838.819	3473
838.956	3382
839.094	3447
839.231	3477
839.369	3496
839.506	3747
839.643	3610
839.781	3485
839.918	3492
840.055	3534
840.193	3580
840.33	3523
840.467	3561
840.604	3633
840.742	3823
840.879	3557
841.016	3580
841.153	3591
841.29	3808
841.427	3762
841.564	3766
841.701	3781
841.838	3732
841.975	3713
842.112	3720
842.249	3652
842.385	3564
842.522	3850
842.659	3705
842.796	3652
842.933	3736
843.069	3728
843.206	3705
843.343	3800
843.479	3797
843.616	3857
843.752	3660
843.889	3679
844.025	3835
844.162	3724
844.298	3819
844.435	3762
844.571	3766
844.708	3918
844.844	4017
844.98	4059
845.117	4006
845.253	3953
845.389	3930
845.525	3930
845.661	3949
845.798	3930
845.934	4036
846.07	3953
846.206	4074
846.342	4120
846.478	4040
846.614	3972
846.75	3968
846.886	3922
847.022	4010
847.158	3937
847.294	3975
847.429	4040
847.565	4017
847.701	4257
847.837	3850
847.972	3903
848.108	3964
848.244	4010
848.379	3896
848.515	3816
848.65	3819
848.786	3876
848.921	3861
849.057	3945
849.192	3968
849.328	3937
849.463	3903
849.598	3911
849.734	3850
849.869	3823
850.004	3785
850.14	3781
850.275	3781
850.41	3740
850.545	3755
850.68	3789
850.815	3789
850.95	3827
851.085	3956
851.22	3903
851.355	3846
851.49	3861
851.625	3819
851.76	3785
851.895	3740
852.03	3755
852.165	3808
852.299	3876
852.434	3896
852.569	3869
852.703	3888
852.838	3968
852.973	4032
853.107	3960
853.242	3941
853.376	3937
853.511	3740
853.645	3831
853.78	4002
853.914	3941
854.048	3930
854.183	3876
854.317	3949
854.451	4067
854.585	3964
854.72	3975
854.854	4059
854.988	3956
855.122	3994
855.256	3922
855.39	4055
855.524	4131
855.658	4101
855.792	4124
855.926	4128
856.06	4204
856.194	4227
856.327	4166
856.461	4093
856.595	4173
856.729	4173
856.862	4280
856.996	4249
857.13	4333
857.263	4329
857.397	4325
857.53	4314
857.664	4386
857.797	4421
857.931	4398
858.064	4375
858.197	4466
858.331	4402
858.464	4413
858.597	4356
858.731	4428
858.864	4478
858.997	4493
859.13	4519
859.263	4573
859.396	4577
859.529	4485
859.662	4558
859.795	4516
859.928	4622
860.061	4771
860.194	4801
860.327	4626
860.46	4656
860.592	4714
860.725	4786
860.858	4786
860.99	4748
861.123	4687
861.256	4687
861.388	4733
861.521	5421
861.653	4767
861.786	4721
861.918	4702
862.05	4843
862.183	4866
862.315	4873
862.447	4923
862.58	4908
862.712	4812
862.844	4790
862.976	4927
863.108	4816
863.24	5273
863.372	4824
863.504	4934
863.636	4911
863.768	4976
863.9	4934
864.032	4972
864.164	5006
864.296	5003
864.428	5052
864.559	5086
864.691	5102
864.823	5124
864.954	5105
865.086	5121
865.217	5136
865.349	5128
865.48	5189
865.612	5231
865.743	5284
865.875	5231
866.006	5216
866.137	5231
866.269	5220
866.4	5254
866.531	5246
866.662	5197
866.793	5307
866.924	5220
867.055	5372
867.186	5292
867.317	5334
867.448	5307
867.579	5326
867.71	5360
867.841	5353
867.972	5493
868.103	5463
868.233	5486
868.364	5512
868.495	5604
868.625	5630
868.756	5764
868.886	5684
869.017	5779
869.147	5802
869.278	5790
869.408	5821
869.539	5893
869.669	5939
869.799	5935
869.929	5992
870.06	6072
870.19	6182
870.32	6235
870.45	6262
870.58	6350
870.71	6448
870.84	6467
870.97	6414
871.1	6525
871.23	6627
871.36	6715
871.489	6662
871.619	6696
871.749	6795
871.879	6848
872.008	6973
872.138	6943
872.267	7000
872.397	7042
872.526	7038
872.656	7080
872.785	7202
872.915	7388
873.044	7537
873.173	7529
873.303	7700
873.432	7712
873.561	7871
873.69	7959
873.819	8012
873.948	8195
874.077	8298
874.206	8351
874.335	8522
874.464	8594
874.593	8891
874.722	8948
874.851	9165
874.979	9260
875.108	9378
875.237	9511
875.365	9477
875.494	9660
875.623	9854
875.751	9899
875.88	10017
876.008	10135
876.136	10287
876.265	10516
876.393	10668
876.521	10706
876.65	10915
876.778	10923
876.906	10892
877.034	10995
877.162	11090
877.29	11178
877.418	11326
877.546	11303
877.674	11482
877.802	11566
877.93	11619
878.058	11539
878.185	11532
878.313	11699
878.441	11760
878.568	11627
878.696	11794
878.824	11874
878.951	11885
879.079	12068
879.206	12201
879.333	12106
879.461	11954
879.588	12045
879.715	12133
879.842	12167
879.97	12117
880.097	11897
880.224	11901
880.351	11809
880.478	11882
880.605	11767
880.732	11874
880.859	12011
880.986	11726
881.112	11855
881.239	11771
881.366	11592
881.493	11684
881.619	11497
881.746	11532
881.872	11589
881.999	11535
882.125	11463
882.252	11566
882.378	11497
882.505	11627
882.631	11341
882.757	11353
882.883	11349
883.01	11307
883.136	11155
883.262	11174
883.388	11052
883.514	11250
883.64	11102
883.766	11079
883.892	10965
884.018	10949
884.143	11045
884.269	11151
884.395	10839
884.52	10831
884.646	10866
884.772	10744
884.897	10691
885.023	10702
885.148	10809
885.274	10774
885.399	10622
885.524	10634
885.65	10607
885.775	10569
885.9	10527
886.025	10588
886.15	10592
886.275	10497
886.4	10398
886.525	10382
886.65	10440
886.775	10371
886.9	10516
887.025	10615
887.149	10417
887.274	10265
887.399	10188
887.523	10143
887.648	10162
887.773	10116
887.897	10268
888.021	10215
888.146	10207
888.27	10188
888.395	10261
888.519	10268
888.643	10147
888.767	10154
888.891	10124
889.015	10090
889.139	10040
889.263	10017
889.387	10109
889.511	10192
889.635	10139
889.759	9892
889.883	10002
890.006	10002
890.13	10097
890.254	9930
890.377	9949
890.501	9835
890.624	9888
890.748	9964
890.871	9793
890.995	9800
891.118	9720
891.241	9755
891.364	9713
891.488	9804
891.611	9755
891.734	9728
891.857	9835
891.98	9793
892.103	9713
892.226	9686
892.349	9717
892.471	9576
892.594	9633
892.717	9599
892.839	9599
892.962	9648
893.085	9641
893.207	9614
893.33	9557
893.452	9553
893.575	9595
893.697	9534
893.819	9599
893.941	9595
894.064	9557
894.186	9340
894.308	9447
894.43	9622
894.552	9587
894.674	9549
894.796	9359
894.918	9424
895.04	9389
895.161	9435
895.283	9351
895.405	9279
895.526	9268
895.648	9287
895.769	9245
895.891	9245
896.012	9367
896.134	9241
896.255	9150
896.376	9108
896.498	9146
896.619	9150
896.74	9100
896.861	9173
896.982	9272
897.103	9363
897.224	9226
897.345	9051
897.466	9020
897.587	9013
897.708	9085
897.828	9017
897.949	8960
898.07	8868
898.19	8887
898.311	9085
898.431	8933
898.552	8883
898.672	8971
898.792	8956
898.913	8906
899.033	8792
899.153	8785
899.273	8632
899.393	8773
899.513	8800
899.633	8735
899.753	8727
899.873	8697
899.993	8708
900.113	8777
900.232	8758
900.352	8674
900.472	8632
900.591	8594
900.711	8613
900.83	8568
900.95	8670
901.069	8701
901.189	8598
901.308	8431
901.427	8374
901.546	8431
901.665	8465
901.784	8476
901.904	8396
902.023	8396
902.141	8267
902.26	8221
902.379	8233
902.498	8195
902.617	8275
902.735	8320
902.854	8309
902.973	8294
903.091	8115
903.21	8142
903.328	8191
903.446	8164
903.565	8077
903.683	8062
903.801	8058
903.919	8164
904.038	8100
904.156	8058
904.274	8062
904.392	8081
904.51	8081
904.627	8065
904.745	8100
904.863	8100
904.981	8016
905.098	7898
905.216	7833
905.334	7959
905.451	7944
905.569	7883
905.686	7967
905.803	7993
905.921	7879
906.038	7852
906.155	7788
906.272	7712
906.389	7792
906.506	7605
906.623	7670
906.74	7639
906.857	7578
906.974	7605
907.091	7704
907.208	7753
907.324	7715
907.441	7594
907.557	7480
907.674	7384
907.79	7407
907.907	7407
908.023	7499
908.139	7468
908.256	7358
908.372	7445
908.488	7384
908.604	7289
908.72	7168
908.836	7331
908.952	7251
909.068	7240
909.184	7266
909.3	7354
909.415	7293
909.531	7324
909.647	7088
909.762	7141
909.878	7095
909.993	7129
910.108	7099
910.224	7042
910.339	7126
910.454	7015
910.57	6996
910.685	6981
910.8	7190
910.915	7091
911.03	7015
911.145	6890
911.259	6913
911.374	6871
911.489	6840
911.604	6787
911.718	6722
911.833	6684
911.947	6673
912.062	6631
912.176	6681
912.291	6707
912.405	6684
912.519	6818
912.633	6825
912.748	6791
912.862	6677
912.976	6635
913.09	6513
913.204	6589
913.318	6711
913.431	6669
913.545	6753
913.659	6741
913.772	6650
913.886	6551
914	6574
914.113	6627
914.226	6669
914.34	6578
914.453	6517
914.566	6650
914.68	6559
914.793	6604
914.906	6471
915.019	6426
915.132	6391
915.245	6399
915.358	6494
915.47	6486
915.583	6464
915.696	6437
915.809	6589
915.921	6536
916.034	6471
916.146	6353
916.259	6426
916.371	6525
916.483	6391
916.595	6334
916.708	6460
916.82	6456
916.932	6361
917.044	6376
917.156	6460
917.268	6342
917.38	6266
917.491	6315
917.603	6327
917.715	6502
917.826	6437
917.938	6357
918.049	6262
918.161	6452
918.272	6486
918.384	6464
918.495	6365
918.606	6285
918.717	6220
918.828	6262
918.939	6296
919.05	6213
919.161	6254
919.272	6144
919.383	6186
919.494	6331
919.604	6475
919.715	6232
919.826	6243
919.936	6300
920.047	6365
920.157	6285
920.267	6471
920.378	6376
920.488	6304
920.598	6460
920.708	6536
920.818	6479
920.928	6490
921.038	6642
921.148	6570
921.258	6395
921.368	6277
921.477	6178
921.587	6152
921.697	6121
921.806	6117
921.916	6102
922.025	5935
922.134	5889
922.244	5904
922.353	5901
922.462	5844
922.571	5847
922.68	5714
922.789	5718
922.898	5737
923.007	5661
923.116	5710
923.224	5703
923.333	5691
923.442	5676
923.55	5585
923.659	5581
923.767	5638
923.876	5562
923.984	5581
924.092	5512
924.201	5562
924.309	5528
924.417	5619
924.525	5482
924.633	5524
924.741	6133
924.849	5410
924.956	5520
925.064	5277
925.172	5341
925.279	5296
925.387	5372
925.494	5341
925.602	5406
925.709	5391
925.816	5303
925.924	5341
926.031	5376
926.138	5318
926.245	5311
926.352	5277
926.459	5261
926.566	5307
926.673	5235
926.779	5105
926.886	5083
926.993	5025
927.099	5052
927.206	5006
927.312	4980
927.419	5041
927.525	4980
927.631	5010
927.737	4934
927.843	4900
927.95	4778
928.056	4854
928.162	4862
928.267	4896
928.373	5349
928.479	4873
928.585	4664
928.69	4786
928.796	4782
928.901	4721
929.007	4603
929.112	4702
929.218	4630
929.323	4656
929.428	4565
929.533	4637
929.638	4508
929.743	4538
929.848	4565
929.953	4519
930.058	4478
930.163	4344
930.267	4383
930.372	4466
930.477	4375
930.581	4478
930.685	4402
930.79	4268
930.894	4280
930.998	4257
931.103	4405
931.207	4124
931.311	4078
931.415	4063
931.519	3918
931.623	3960
