Data from glass_V78500241_2652.txt Node
Date: Wed Sep 01 19:32:53 CST 2021
User: usil
Spectrometer: V785-0024
Trigger mode: 0
Integration Time (sec): 4.000000E-1
Scans to average: 1
Nonlinearity correction enabled: false
Boxcar width: 0
Storing dark spectrum: false
XAxis mode: Wavelengths
Number of Pixels in Spectrum: 1024
>>>>>Begin Spectral Data<<<<<
801.071	3713
801.214	3720
801.356	3694
801.499	3755
801.641	3720
801.783	3774
801.926	3854
802.068	3850
802.211	3873
802.353	3861
802.496	3838
802.638	3831
802.78	3888
802.923	3922
803.065	3892
803.208	3865
803.35	3835
803.492	3896
803.635	3899
803.777	3789
803.919	3903
804.061	4101
804.204	3922
804.346	3953
804.488	3865
804.63	4013
804.773	3945
804.915	4029
805.057	4154
805.199	4010
805.341	4109
805.483	4143
805.626	4139
805.768	4139
805.91	4242
806.052	4196
806.194	4177
806.336	4337
806.478	4196
806.62	4128
806.762	4188
806.904	4223
807.046	4314
807.188	4219
807.33	4169
807.472	4188
807.614	4162
807.756	4284
807.898	4215
808.04	4219
808.182	4287
808.324	4276
808.465	4325
808.607	4474
808.749	4459
808.891	4527
809.033	4535
809.174	4383
809.316	4238
809.458	4227
809.6	4109
809.741	4150
809.883	4124
810.025	4200
810.166	4230
810.308	4253
810.45	4219
810.591	4211
810.733	4287
810.875	4436
811.016	4831
811.158	5113
811.299	5239
811.441	5254
811.582	5037
811.724	4694
811.865	4481
812.007	4447
812.148	4402
812.29	4371
812.431	4402
812.573	4383
812.714	4371
812.855	4386
812.997	4455
813.138	4462
813.279	4356
813.421	4386
813.562	4390
813.703	4329
813.845	4306
813.986	4238
814.127	4219
814.268	4253
814.41	4287
814.551	4287
814.692	4261
814.833	4249
814.974	4291
815.115	4299
815.256	4246
815.397	4246
815.539	4238
815.68	4166
815.821	4242
815.962	4276
816.103	4272
816.244	4196
816.385	4234
816.526	4280
816.666	4200
816.807	4093
816.948	4147
817.089	4097
817.23	4097
817.371	4036
817.512	4055
817.653	4074
817.793	4032
817.934	4051
818.075	4143
818.216	4086
818.356	4078
818.497	3945
818.638	3930
818.778	3899
818.919	3892
819.06	3873
819.2	3892
819.341	3850
819.481	3850
819.622	3876
819.762	3983
819.903	3903
820.043	3827
820.184	3812
820.324	3835
820.465	3873
820.605	3865
820.746	3850
820.886	3812
821.026	3899
821.167	3888
821.307	3979
821.447	3964
821.588	3956
821.728	3930
821.868	3896
822.008	3812
822.149	3888
822.289	3937
822.429	3778
822.569	3747
822.709	3812
822.849	3690
822.99	3747
823.13	3747
823.27	3770
823.41	3675
823.55	3766
823.69	3713
823.83	3724
823.97	3686
824.11	3599
824.25	3542
824.389	3644
824.529	3686
824.669	3637
824.809	3713
824.949	3724
825.089	3709
825.228	3701
825.368	3542
825.508	3580
825.648	3568
825.787	3542
825.927	3644
826.067	3641
826.206	3652
826.346	3800
826.485	3812
826.625	3854
826.765	3918
826.904	3789
827.044	3599
827.183	3568
827.323	3458
827.462	3462
827.601	3447
827.741	3416
827.88	3374
828.02	3321
828.159	3439
828.298	3473
828.437	3530
828.577	3477
828.716	3576
828.855	3481
828.994	3393
829.134	3351
829.273	3370
829.412	3321
829.551	3317
829.69	3332
829.829	3412
829.968	3504
830.107	3466
830.246	3458
830.385	3359
830.524	3393
830.663	3325
830.802	3211
830.941	3199
831.08	3161
831.219	3306
831.357	3249
831.496	3374
831.635	3249
831.774	3207
831.913	3207
832.051	3150
832.19	3138
832.329	3230
832.467	3123
832.606	3104
832.744	3161
832.883	3188
833.022	3173
833.16	3253
833.299	3321
833.437	3367
833.576	3382
833.714	3374
833.852	3454
833.991	3420
834.129	3469
834.267	3424
834.406	3420
834.544	3431
834.682	3397
834.821	3374
834.959	3568
835.097	3412
835.235	3530
835.373	3469
835.511	3485
835.65	3488
835.788	3431
835.926	3389
836.064	3412
836.202	3393
836.34	3545
836.478	3549
836.615	3519
836.753	3576
836.891	3603
837.029	3599
837.167	3595
837.305	3538
837.443	3515
837.58	3481
837.718	3610
837.856	3515
837.993	3526
838.131	3599
838.269	3572
838.406	3599
838.544	3561
838.681	3458
838.819	3435
838.956	3359
839.094	3374
839.231	3412
839.369	3450
839.506	3701
839.643	3606
839.781	3496
839.918	3431
840.055	3496
840.193	3511
840.33	3511
840.467	3591
840.604	3610
840.742	3766
840.879	3580
841.016	3534
841.153	3572
841.29	3713
841.427	3724
841.564	3720
841.701	3717
841.838	3663
841.975	3618
842.112	3705
842.249	3660
842.385	3622
842.522	3842
842.659	3667
842.796	3641
842.933	3690
843.069	3690
843.206	3709
843.343	3797
843.479	3762
843.616	3774
843.752	3660
843.889	3690
844.025	3842
844.162	3694
844.298	3831
844.435	3762
844.571	3759
844.708	3880
844.844	4013
844.98	4006
845.117	3987
845.253	3922
845.389	3934
845.525	3941
845.661	4002
845.798	3896
845.934	3972
846.07	3934
846.206	4029
846.342	4063
846.478	4071
846.614	3918
846.75	3941
846.886	3854
847.022	4021
847.158	3964
847.294	3991
847.429	4029
847.565	3979
847.701	4200
847.837	3884
847.972	3816
848.108	4006
848.244	3964
848.379	3835
848.515	3774
848.65	3812
848.786	3812
848.921	3827
849.057	3941
849.192	3907
849.328	3888
849.463	3937
849.598	3876
849.734	3854
849.869	3869
850.004	3819
850.14	3778
850.275	3778
850.41	3736
850.545	3740
850.68	3781
850.815	3778
850.95	3762
851.085	3896
851.22	3823
851.355	3762
851.49	3766
851.625	3797
851.76	3785
851.895	3736
852.03	3690
852.165	3740
852.299	3831
852.434	3918
852.569	3842
852.703	3865
852.838	3899
852.973	4017
853.107	3979
853.242	3861
853.376	3869
853.511	3755
853.645	3838
853.78	3960
853.914	3922
854.048	3861
854.183	3896
854.317	3945
854.451	4051
854.585	3896
854.72	3926
854.854	4093
854.988	3941
855.122	3960
855.256	3918
855.39	4032
855.524	4105
855.658	4063
855.792	4082
855.926	4112
856.06	4169
856.194	4185
856.327	4166
856.461	4071
856.595	4101
856.729	4139
856.862	4268
856.996	4223
857.13	4268
857.263	4341
857.397	4337
857.53	4284
857.664	4371
857.797	4379
857.931	4371
858.064	4390
858.197	4459
858.331	4371
858.464	4409
858.597	4356
858.731	4405
858.864	4432
858.997	4451
859.13	4493
859.263	4546
859.396	4596
859.529	4500
859.662	4516
859.795	4542
859.928	4569
860.061	4702
860.194	4698
860.327	4691
860.46	4672
860.592	4710
860.725	4778
860.858	4767
860.99	4672
861.123	4664
861.256	4710
861.388	4759
861.521	5429
861.653	4740
861.786	4691
861.918	4755
862.05	4782
862.183	4809
862.315	4885
862.447	4885
862.58	4892
862.712	4831
862.844	4740
862.976	4870
863.108	4831
863.24	5201
863.372	4828
863.504	4881
863.636	4866
863.768	4949
863.9	4976
864.032	4957
864.164	4942
864.296	5071
864.428	5052
864.559	5067
864.691	5090
864.823	5113
864.954	5162
865.086	5178
865.217	5143
865.349	5071
865.48	5162
865.612	5170
865.743	5288
865.875	5185
866.006	5166
866.137	5189
866.269	5292
866.4	5208
866.531	5254
866.662	5223
866.793	5258
866.924	5303
867.055	5364
867.186	5337
867.317	5311
867.448	5284
867.579	5334
867.71	5372
867.841	5395
867.972	5459
868.103	5455
868.233	5417
868.364	5448
868.495	5535
868.625	5642
868.756	5756
868.886	5661
869.017	5745
869.147	5844
869.278	5874
869.408	5863
869.539	5870
869.669	5889
869.799	5931
869.929	5950
870.06	5965
870.19	6175
870.32	6159
870.45	6247
870.58	6292
870.71	6407
870.84	6471
870.97	6346
871.1	6471
871.23	6601
871.36	6677
871.489	6639
871.619	6692
871.749	6798
871.879	6875
872.008	6966
872.138	6947
872.267	7012
872.397	6939
872.526	7031
872.656	7091
872.785	7232
872.915	7343
873.044	7571
873.173	7514
873.303	7655
873.432	7727
873.561	7849
873.69	7852
873.819	8039
873.948	8176
874.077	8214
874.206	8267
874.335	8370
874.464	8682
874.593	8819
874.722	9005
874.851	9104
874.979	9214
875.108	9405
875.237	9367
875.365	9435
875.494	9648
875.623	9816
875.751	9831
875.88	9922
876.008	10135
876.136	10276
876.265	10554
876.393	10615
876.521	10736
876.65	10885
876.778	10759
876.906	10896
877.034	11022
877.162	11048
877.29	11155
877.418	11368
877.546	11337
877.674	11455
877.802	11429
877.93	11566
878.058	11547
878.185	11512
878.313	11539
878.441	11779
878.568	11661
878.696	11824
878.824	11775
878.951	11843
879.079	11980
879.206	12148
879.333	12026
879.461	11988
879.588	12098
879.715	12019
879.842	12133
879.97	12102
880.097	11958
880.224	11897
880.351	11855
880.478	11874
880.605	11840
880.732	11859
880.859	11980
880.986	11805
881.112	11737
881.239	11707
881.366	11649
881.493	11630
881.619	11570
881.746	11505
881.872	11520
881.999	11509
882.125	11455
882.252	11570
882.378	11455
882.505	11558
882.631	11376
882.757	11303
882.883	11341
883.01	11277
883.136	11212
883.262	11170
883.388	11075
883.514	11212
883.64	11109
883.766	11109
883.892	11022
884.018	10980
884.143	11064
884.269	11174
884.395	10835
884.52	10797
884.646	10729
884.772	10786
884.897	10656
885.023	10618
885.148	10672
885.274	10793
885.399	10649
885.524	10580
885.65	10622
885.775	10550
885.9	10569
886.025	10603
886.15	10531
886.275	10424
886.4	10390
886.525	10325
886.65	10314
886.775	10341
886.9	10504
887.025	10519
887.149	10337
887.274	10253
887.399	10131
887.523	10131
887.648	10166
887.773	10078
887.897	10257
888.021	10196
888.146	10150
888.27	10238
888.395	10207
888.519	10131
888.643	10192
888.767	10246
888.891	10090
889.015	10040
889.139	10040
889.263	9987
889.387	10090
889.511	10093
889.635	10040
889.759	10036
889.883	9911
890.006	10055
890.13	10120
890.254	9907
890.377	9979
890.501	9797
890.624	9873
890.748	9945
890.871	9751
890.995	9709
891.118	9675
891.241	9743
891.364	9736
891.488	9816
891.611	9743
891.734	9736
891.857	9770
891.98	9641
892.103	9774
892.226	9705
892.349	9743
892.471	9523
892.594	9580
892.717	9591
892.839	9580
892.962	9641
893.085	9667
893.207	9580
893.33	9477
893.452	9439
893.575	9564
893.697	9557
893.819	9629
893.941	9584
894.064	9576
894.186	9370
894.308	9302
894.43	9500
894.552	9584
894.674	9443
894.796	9310
894.918	9469
895.04	9317
895.161	9363
895.283	9317
895.405	9291
895.526	9222
895.648	9233
895.769	9226
895.891	9237
896.012	9264
896.134	9260
896.255	9211
896.376	9192
896.498	9230
896.619	9093
896.74	9142
896.861	9116
896.982	9199
897.103	9283
897.224	9161
897.345	9028
897.466	9062
897.587	9017
897.708	9066
897.828	9032
897.949	8986
898.07	8876
898.19	8914
898.311	9009
898.431	8933
898.552	8956
898.672	8986
898.792	8979
898.913	8861
899.033	8895
899.153	8754
899.273	8670
899.393	8720
899.513	8758
899.633	8689
899.753	8743
899.873	8674
899.993	8705
900.113	8689
900.232	8636
900.352	8613
900.472	8632
900.591	8526
900.711	8590
900.83	8492
900.95	8663
901.069	8648
901.189	8549
901.308	8404
901.427	8381
901.546	8385
901.665	8415
901.784	8427
901.904	8374
902.023	8301
902.141	8252
902.26	8256
902.379	8256
902.498	8225
902.617	8191
902.735	8248
902.854	8252
902.973	8233
903.091	8107
903.21	8084
903.328	8168
903.446	8069
903.565	8054
903.683	8096
903.801	8020
903.919	8031
904.038	8065
904.156	7959
904.274	8043
904.392	8035
904.51	8073
904.627	8054
904.745	8039
904.863	8008
904.981	7932
905.098	7898
905.216	7849
905.334	7860
905.451	7906
905.569	7860
905.686	7913
905.803	7940
905.921	7723
906.038	7788
906.155	7776
906.272	7715
906.389	7670
906.506	7582
906.623	7613
906.74	7548
906.857	7556
906.974	7655
907.091	7636
907.208	7704
907.324	7575
907.441	7430
907.557	7426
907.674	7438
907.79	7426
907.907	7464
908.023	7396
908.139	7362
908.256	7316
908.372	7457
908.488	7350
908.604	7274
908.72	7274
908.836	7236
908.952	7190
909.068	7255
909.184	7324
909.3	7175
909.415	7228
909.531	7202
909.647	7031
909.762	7099
909.878	7084
909.993	7076
910.108	7084
910.224	7088
910.339	7080
910.454	7046
910.57	7023
910.685	6958
910.8	7129
910.915	7091
911.03	7057
911.145	6867
911.259	6852
911.374	6863
911.489	6810
911.604	6795
911.718	6779
911.833	6749
911.947	6623
912.062	6654
912.176	6684
912.291	6673
912.405	6688
912.519	6768
912.633	6856
912.748	6768
912.862	6673
912.976	6585
913.09	6509
913.204	6620
913.318	6623
913.431	6665
913.545	6623
913.659	6688
913.772	6677
913.886	6551
914	6517
914.113	6601
914.226	6627
914.34	6563
914.453	6418
914.566	6566
914.68	6578
914.793	6536
914.906	6452
915.019	6410
915.132	6334
915.245	6384
915.358	6445
915.47	6422
915.583	6467
915.696	6509
915.809	6475
915.921	6532
916.034	6384
916.146	6395
916.259	6346
916.371	6483
916.483	6441
916.595	6426
916.708	6410
916.82	6399
916.932	6300
917.044	6376
917.156	6391
917.268	6300
917.38	6254
917.491	6277
917.603	6308
917.715	6369
917.826	6452
917.938	6308
918.049	6228
918.161	6372
918.272	6395
918.384	6479
918.495	6357
918.606	6232
918.717	6224
918.828	6277
918.939	6232
919.05	6216
919.161	6270
919.272	6144
919.383	6144
919.494	6342
919.604	6475
919.715	6281
919.826	6171
919.936	6292
920.047	6300
920.157	6266
920.267	6429
920.378	6331
920.488	6262
920.598	6448
920.708	6574
920.818	6464
920.928	6414
921.038	6601
921.148	6582
921.258	6395
921.368	6311
921.477	6175
921.587	6163
921.697	6034
921.806	6159
921.916	6064
922.025	5942
922.134	5916
922.244	5874
922.353	5885
922.462	5851
922.571	5809
922.68	5699
922.789	5688
922.898	5699
923.007	5627
923.116	5676
923.224	5676
923.333	5638
923.442	5608
923.55	5543
923.659	5577
923.767	5543
923.876	5547
923.984	5566
924.092	5520
924.201	5558
924.309	5611
924.417	5532
924.525	5490
924.633	5440
924.741	6220
924.849	5383
924.956	5520
925.064	5376
925.172	5292
925.279	5307
925.387	5357
925.494	5296
925.602	5391
925.709	5372
925.816	5231
925.924	5334
926.031	5395
926.138	5341
926.245	5261
926.352	5212
926.459	5303
926.566	5353
926.673	5242
926.779	5143
926.886	5048
926.993	4972
927.099	5006
927.206	4949
927.312	4919
927.419	5025
927.525	5010
927.631	5014
927.737	4873
927.843	4835
927.95	4771
928.056	4763
928.162	4771
928.267	4835
928.373	5376
928.479	4839
928.585	4683
928.69	4767
928.796	4725
928.901	4698
929.007	4611
929.112	4649
929.218	4637
929.323	4599
929.428	4554
929.533	4698
929.638	4504
929.743	4573
929.848	4538
929.953	4478
930.058	4405
930.163	4314
930.267	4363
930.372	4402
930.477	4287
930.581	4440
930.685	4371
930.79	4276
930.894	4257
930.998	4249
931.103	4360
931.207	4112
931.311	4063
931.415	4032
931.519	3930
931.623	3907
