Data from glass_V78500241_154.txt Node
Date: Wed Sep 01 19:15:34 CST 2021
User: usil
Spectrometer: V785-0024
Trigger mode: 0
Integration Time (sec): 4.000000E-1
Scans to average: 1
Nonlinearity correction enabled: false
Boxcar width: 0
Storing dark spectrum: false
XAxis mode: Wavelengths
Number of Pixels in Spectrum: 1024
>>>>>Begin Spectral Data<<<<<
801.071	3759
801.214	3781
801.356	3728
801.499	3759
801.641	3751
801.783	3793
801.926	3884
802.068	3846
802.211	3899
802.353	3865
802.496	3869
802.638	3907
802.78	3918
802.923	3949
803.065	3857
803.208	3876
803.35	3876
803.492	3945
803.635	3903
803.777	3808
803.919	3918
804.061	4173
804.204	4010
804.346	3972
804.488	3930
804.63	4021
804.773	3991
804.915	4055
805.057	4181
805.199	4032
805.341	4131
805.483	4158
805.626	4150
805.768	4124
805.91	4246
806.052	4253
806.194	4219
806.336	4383
806.478	4253
806.62	4181
806.762	4200
806.904	4295
807.046	4333
807.188	4257
807.33	4211
807.472	4268
807.614	4185
807.756	4314
807.898	4238
808.04	4211
808.182	4265
808.324	4295
808.465	4375
808.607	4462
808.749	4470
808.891	4508
809.033	4466
809.174	4443
809.316	4242
809.458	4249
809.6	4166
809.741	4162
809.883	4166
810.025	4234
810.166	4215
810.308	4253
810.45	4242
810.591	4249
810.733	4291
810.875	4523
811.016	4839
811.158	5166
811.299	5284
811.441	5273
811.582	5048
811.724	4683
811.865	4455
812.007	4462
812.148	4413
812.29	4474
812.431	4424
812.573	4386
812.714	4402
812.855	4413
812.997	4417
813.138	4474
813.279	4421
813.421	4386
813.562	4398
813.703	4367
813.845	4375
813.986	4265
814.127	4234
814.268	4295
814.41	4295
814.551	4291
814.692	4348
814.833	4291
814.974	4299
815.115	4405
815.256	4276
815.397	4207
815.539	4249
815.68	4223
815.821	4230
815.962	4333
816.103	4344
816.244	4253
816.385	4284
816.526	4268
816.666	4204
816.807	4139
816.948	4166
817.089	4162
817.23	4131
817.371	4044
817.512	4086
817.653	4124
817.793	4051
817.934	4017
818.075	4101
818.216	4112
818.356	4124
818.497	4010
818.638	3911
818.778	3956
818.919	3907
819.06	3869
819.2	3964
819.341	3861
819.481	3812
819.622	3926
819.762	4013
819.903	3956
820.043	3915
820.184	3838
820.324	3846
820.465	3937
820.605	3869
820.746	3823
820.886	3770
821.026	3934
821.167	3930
821.307	3979
821.447	3987
821.588	3968
821.728	3987
821.868	3960
822.008	3903
822.149	3949
822.289	3937
822.429	3827
822.569	3800
822.709	3812
822.849	3679
822.99	3736
823.13	3778
823.27	3766
823.41	3743
823.55	3774
823.69	3698
823.83	3793
823.97	3713
824.11	3667
824.25	3595
824.389	3652
824.529	3705
824.669	3610
824.809	3698
824.949	3762
825.089	3679
825.228	3709
825.368	3606
825.508	3591
825.648	3633
825.787	3656
825.927	3618
826.067	3641
826.206	3663
826.346	3854
826.485	3831
826.625	3865
826.765	3930
826.904	3876
827.044	3641
827.183	3564
827.323	3481
827.462	3450
827.601	3428
827.741	3454
827.88	3466
828.02	3409
828.159	3450
828.298	3515
828.437	3526
828.577	3507
828.716	3606
828.855	3477
828.994	3344
829.134	3420
829.273	3416
829.412	3363
829.551	3321
829.69	3363
829.829	3409
829.968	3568
830.107	3458
830.246	3481
830.385	3401
830.524	3344
830.663	3313
830.802	3272
830.941	3260
831.08	3203
831.219	3310
831.357	3283
831.496	3420
831.635	3214
831.774	3226
831.913	3222
832.051	3161
832.19	3173
832.329	3211
832.467	3131
832.606	3169
832.744	3180
832.883	3192
833.022	3207
833.16	3253
833.299	3340
833.437	3332
833.576	3386
833.714	3424
833.852	3435
833.991	3458
834.129	3515
834.267	3439
834.406	3389
834.544	3428
834.682	3424
834.821	3443
834.959	3603
835.097	3435
835.235	3530
835.373	3450
835.511	3504
835.65	3507
835.788	3454
835.926	3405
836.064	3416
836.202	3420
836.34	3580
836.478	3641
836.615	3564
836.753	3606
836.891	3667
837.029	3606
837.167	3591
837.305	3564
837.443	3557
837.58	3485
837.718	3614
837.856	3564
837.993	3538
838.131	3595
838.269	3587
838.406	3637
838.544	3584
838.681	3439
838.819	3458
838.956	3450
839.094	3428
839.231	3473
839.369	3507
839.506	3778
839.643	3648
839.781	3580
839.918	3500
840.055	3519
840.193	3553
840.33	3542
840.467	3614
840.604	3595
840.742	3842
840.879	3606
841.016	3561
841.153	3595
841.29	3728
841.427	3671
841.564	3709
841.701	3759
841.838	3698
841.975	3671
842.112	3717
842.249	3652
842.385	3660
842.522	3800
842.659	3679
842.796	3656
842.933	3728
843.069	3740
843.206	3740
843.343	3835
843.479	3819
843.616	3804
843.752	3686
843.889	3682
844.025	3884
844.162	3728
844.298	3831
844.435	3838
844.571	3800
844.708	3896
844.844	3991
844.98	4021
845.117	3998
845.253	3926
845.389	3945
845.525	3972
845.661	4010
845.798	3934
845.934	4006
846.07	3991
846.206	4025
846.342	4147
846.478	4090
846.614	3968
846.75	3960
846.886	3934
847.022	4036
847.158	3979
847.294	4006
847.429	4051
847.565	4071
847.701	4280
847.837	3926
847.972	3838
848.108	4017
848.244	3968
848.379	3903
848.515	3808
848.65	3789
848.786	3865
848.921	3915
849.057	3907
849.192	3968
849.328	3926
849.463	3892
849.598	3876
849.734	3892
849.869	3827
850.004	3846
850.14	3861
850.275	3838
850.41	3774
850.545	3793
850.68	3774
850.815	3816
850.95	3797
851.085	3926
851.22	3896
851.355	3823
851.49	3846
851.625	3812
851.76	3778
851.895	3751
852.03	3743
852.165	3838
852.299	3915
852.434	3964
852.569	3838
852.703	3880
852.838	3979
852.973	3975
853.107	4017
853.242	3915
853.376	3869
853.511	3766
853.645	3865
853.78	3983
853.914	3911
854.048	3899
854.183	3915
854.317	3994
854.451	4074
854.585	4010
854.72	3945
854.854	4074
854.988	3987
855.122	4048
855.256	3945
855.39	4013
855.524	4128
855.658	4090
855.792	4128
855.926	4143
856.06	4188
856.194	4234
856.327	4158
856.461	4162
856.595	4169
856.729	4131
856.862	4310
856.996	4223
857.13	4337
857.263	4375
857.397	4360
857.53	4280
857.664	4390
857.797	4363
857.931	4447
858.064	4451
858.197	4478
858.331	4451
858.464	4402
858.597	4379
858.731	4497
858.864	4504
858.997	4481
859.13	4478
859.263	4519
859.396	4577
859.529	4573
859.662	4569
859.795	4554
859.928	4603
860.061	4725
860.194	4733
860.327	4649
860.46	4672
860.592	4744
860.725	4824
860.858	4809
860.99	4694
861.123	4714
861.256	4691
861.388	4793
861.521	5543
861.653	4774
861.786	4729
861.918	4748
862.05	4831
862.183	4835
862.315	4919
862.447	4972
862.58	4904
862.712	4797
862.844	4755
862.976	4896
863.108	4801
863.24	5303
863.372	4843
863.504	4946
863.636	4881
863.768	4991
863.9	4923
864.032	4938
864.164	4972
864.296	5060
864.428	5052
864.559	5147
864.691	5143
864.823	5151
864.954	5124
865.086	5159
865.217	5189
865.349	5079
865.48	5178
865.612	5223
865.743	5341
865.875	5216
866.006	5204
866.137	5227
866.269	5292
866.4	5250
866.531	5273
866.662	5220
866.793	5280
866.924	5315
867.055	5315
867.186	5307
867.317	5292
867.448	5318
867.579	5357
867.71	5406
867.841	5391
867.972	5459
868.103	5474
868.233	5478
868.364	5516
868.495	5562
868.625	5661
868.756	5775
868.886	5680
869.017	5786
869.147	5878
869.278	5931
869.408	5775
869.539	5889
869.669	5946
869.799	5912
869.929	6049
870.06	6034
870.19	6232
870.32	6205
870.45	6262
870.58	6369
870.71	6441
870.84	6452
870.97	6441
871.1	6502
871.23	6616
871.36	6684
871.489	6681
871.619	6776
871.749	6821
871.879	6810
872.008	6996
872.138	6989
872.267	7110
872.397	7031
872.526	7084
872.656	7145
872.785	7206
872.915	7339
873.044	7571
873.173	7559
873.303	7655
873.432	7750
873.561	7852
873.69	7925
873.819	8005
873.948	8279
874.077	8202
874.206	8320
874.335	8457
874.464	8678
874.593	8872
874.722	8914
874.851	9127
874.979	9138
875.108	9344
875.237	9408
875.365	9534
875.494	9701
875.623	9808
875.751	9850
875.88	10032
876.008	10196
876.136	10291
876.265	10455
876.393	10698
876.521	10645
876.65	10839
876.778	10869
876.906	10934
877.034	11006
877.162	11143
877.29	11193
877.418	11284
877.546	11353
877.674	11356
877.802	11486
877.93	11493
878.058	11490
878.185	11581
878.313	11611
878.441	11832
878.568	11703
878.696	11748
878.824	11874
878.951	11958
879.079	11980
879.206	12076
879.333	12072
879.461	11950
879.588	12114
879.715	12057
879.842	12254
879.97	12102
880.097	11893
880.224	11916
880.351	11912
880.478	11878
880.605	11813
880.732	11836
880.859	12072
880.986	11836
881.112	11843
881.239	11737
881.366	11672
881.493	11573
881.619	11509
881.746	11570
881.872	11638
881.999	11482
882.125	11490
882.252	11592
882.378	11528
882.505	11558
882.631	11334
882.757	11368
882.883	11318
883.01	11261
883.136	11197
883.262	11128
883.388	11140
883.514	11140
883.64	11193
883.766	11185
883.892	11006
884.018	11014
884.143	11086
884.269	11140
884.395	10858
884.52	10740
884.646	10839
884.772	10759
884.897	10653
885.023	10660
885.148	10687
885.274	10790
885.399	10748
885.524	10664
885.65	10565
885.775	10626
885.9	10615
886.025	10588
886.15	10603
886.275	10436
886.4	10428
886.525	10485
886.65	10371
886.775	10432
886.9	10497
887.025	10558
887.149	10352
887.274	10268
887.399	10234
887.523	10211
887.648	10131
887.773	10139
887.897	10200
888.021	10276
888.146	10097
888.27	10253
888.395	10139
888.519	10211
888.643	10204
888.767	10246
888.891	10128
889.015	9968
889.139	10090
889.263	9960
889.387	10131
889.511	10109
889.635	10059
889.759	9994
889.883	10013
890.006	9945
890.13	10158
890.254	9968
890.377	9987
890.501	9861
890.624	9884
890.748	9876
890.871	9781
890.995	9740
891.118	9747
891.241	9770
891.364	9766
891.488	9819
891.611	9770
891.734	9720
891.857	9804
891.98	9686
892.103	9812
892.226	9728
892.349	9679
892.471	9496
892.594	9595
892.717	9572
892.839	9599
892.962	9606
893.085	9660
893.207	9644
893.33	9458
893.452	9580
893.575	9553
893.697	9580
893.819	9618
893.941	9610
894.064	9625
894.186	9485
894.308	9389
894.43	9572
894.552	9595
894.674	9496
894.796	9386
894.918	9367
895.04	9329
895.161	9416
895.283	9340
895.405	9275
895.526	9214
895.648	9253
895.769	9283
895.891	9325
896.012	9317
896.134	9275
896.255	9199
896.376	9199
896.498	9199
896.619	9154
896.74	9066
896.861	9089
896.982	9325
897.103	9351
897.224	9233
897.345	9055
897.466	9066
897.587	9028
897.708	9028
897.828	9028
897.949	8994
898.07	8914
898.19	8929
898.311	8979
898.431	8941
898.552	8902
898.672	8986
898.792	9005
898.913	8883
899.033	8902
899.153	8746
899.273	8693
899.393	8705
899.513	8796
899.633	8785
899.753	8769
899.873	8697
899.993	8705
900.113	8746
900.232	8716
900.352	8621
900.472	8564
900.591	8583
900.711	8606
900.83	8556
900.95	8716
901.069	8746
901.189	8545
901.308	8518
901.427	8400
901.546	8446
901.665	8492
901.784	8526
901.904	8450
902.023	8317
902.141	8248
902.26	8214
902.379	8248
902.498	8290
902.617	8256
902.735	8309
902.854	8298
902.973	8248
903.091	8149
903.21	8145
903.328	8168
903.446	8126
903.565	8084
903.683	8130
903.801	8100
903.919	8210
904.038	8096
904.156	8027
904.274	8084
904.392	8084
904.51	8096
904.627	8020
904.745	8183
904.863	8134
904.981	7928
905.098	7814
905.216	7871
905.334	7894
905.451	7898
905.569	7902
905.686	8043
905.803	7902
905.921	7811
906.038	7917
906.155	7811
906.272	7753
906.389	7738
906.506	7636
906.623	7712
906.74	7601
906.857	7518
906.974	7559
907.091	7655
907.208	7708
907.324	7628
907.441	7563
907.557	7521
907.674	7491
907.79	7407
907.907	7438
908.023	7483
908.139	7468
908.256	7411
908.372	7464
908.488	7407
908.604	7282
908.72	7240
908.836	7263
908.952	7270
909.068	7232
909.184	7316
909.3	7331
909.415	7247
909.531	7320
909.647	7141
909.762	7118
909.878	7057
909.993	7095
910.108	7114
910.224	7137
910.339	7118
910.454	7015
910.57	7053
910.685	6966
910.8	7225
910.915	7103
911.03	6935
911.145	6909
911.259	6837
911.374	6867
911.489	6791
911.604	6768
911.718	6741
911.833	6776
911.947	6658
912.062	6639
912.176	6738
912.291	6749
912.405	6654
912.519	6882
912.633	6791
912.748	6696
912.862	6711
912.976	6658
913.09	6540
913.204	6616
913.318	6601
913.431	6654
913.545	6677
913.659	6692
913.772	6616
913.886	6570
914	6566
914.113	6665
914.226	6639
914.34	6623
914.453	6574
914.566	6612
914.68	6502
914.793	6509
914.906	6426
915.019	6388
915.132	6365
915.245	6445
915.358	6464
915.47	6429
915.583	6452
915.696	6471
915.809	6555
915.921	6570
916.034	6483
916.146	6448
916.259	6388
916.371	6502
916.483	6479
916.595	6399
916.708	6429
916.82	6464
916.932	6391
917.044	6429
917.156	6464
917.268	6334
917.38	6346
917.491	6315
917.603	6388
917.715	6426
917.826	6372
917.938	6338
918.049	6251
918.161	6296
918.272	6426
918.384	6483
918.495	6338
918.606	6266
918.717	6144
918.828	6300
918.939	6289
919.05	6239
919.161	6266
919.272	6167
919.383	6194
919.494	6315
919.604	6456
919.715	6300
919.826	6289
919.936	6292
920.047	6315
920.157	6262
920.267	6445
920.378	6338
920.488	6338
920.598	6441
920.708	6566
920.818	6471
920.928	6479
921.038	6620
921.148	6506
921.258	6376
921.368	6308
921.477	6213
921.587	6194
921.697	6068
921.806	6167
921.916	6038
922.025	5980
922.134	5954
922.244	5885
922.353	5992
922.462	5878
922.571	5805
922.68	5718
922.789	5653
922.898	5691
923.007	5608
923.116	5737
923.224	5684
923.333	5707
923.442	5611
923.55	5547
923.659	5638
923.767	5630
923.876	5585
923.984	5577
924.092	5501
924.201	5570
924.309	5554
924.417	5554
924.525	5497
924.633	5478
924.741	6159
924.849	5387
924.956	5532
925.064	5372
925.172	5349
925.279	5326
925.387	5414
925.494	5357
925.602	5459
925.709	5421
925.816	5277
925.924	5372
926.031	5417
926.138	5246
926.245	5311
926.352	5250
926.459	5277
926.566	5372
926.673	5212
926.779	5105
926.886	5147
926.993	5037
927.099	5025
927.206	5018
927.312	4980
927.419	4991
927.525	4968
927.631	4991
927.737	4923
927.843	4850
927.95	4877
928.056	4835
928.162	4790
928.267	4816
928.373	5349
928.479	4820
928.585	4702
928.69	4782
928.796	4801
928.901	4691
929.007	4558
929.112	4691
929.218	4660
929.323	4645
929.428	4577
929.533	4714
929.638	4569
929.743	4561
929.848	4580
929.953	4493
930.058	4462
930.163	4356
930.267	4390
930.372	4459
930.477	4314
930.581	4523
930.685	4325
930.79	4261
930.894	4284
930.998	4360
931.103	4390
931.207	4185
931.311	4086
931.415	4090
931.519	3949
931.623	3964
