Data from glass_V78500241_2779.txt Node
Date: Wed Sep 01 19:33:45 CST 2021
User: usil
Spectrometer: V785-0024
Trigger mode: 0
Integration Time (sec): 4.000000E-1
Scans to average: 1
Nonlinearity correction enabled: false
Boxcar width: 0
Storing dark spectrum: false
XAxis mode: Wavelengths
Number of Pixels in Spectrum: 1024
>>>>>Begin Spectral Data<<<<<
801.071	3713
801.214	3751
801.356	3686
801.499	3736
801.641	3705
801.783	3732
801.926	3812
802.068	3823
802.211	3835
802.353	3896
802.496	3789
802.638	3892
802.78	3884
802.923	3930
803.065	3876
803.208	3812
803.35	3850
803.492	3892
803.635	3880
803.777	3812
803.919	3899
804.061	4158
804.204	3983
804.346	3934
804.488	3918
804.63	4021
804.773	3968
804.915	4055
805.057	4158
805.199	4040
805.341	4071
805.483	4169
805.626	4097
805.768	4150
805.91	4227
806.052	4230
806.194	4177
806.336	4371
806.478	4227
806.62	4135
806.762	4162
806.904	4200
807.046	4303
807.188	4230
807.33	4109
807.472	4246
807.614	4173
807.756	4253
807.898	4200
808.04	4192
808.182	4238
808.324	4272
808.465	4363
808.607	4409
808.749	4451
808.891	4447
809.033	4478
809.174	4383
809.316	4272
809.458	4169
809.6	4166
809.741	4116
809.883	4150
810.025	4204
810.166	4166
810.308	4207
810.45	4238
810.591	4227
810.733	4310
810.875	4485
811.016	4820
811.158	5105
811.299	5223
811.441	5254
811.582	5083
811.724	4721
811.865	4440
812.007	4470
812.148	4371
812.29	4394
812.431	4421
812.573	4352
812.714	4341
812.855	4383
812.997	4352
813.138	4455
813.279	4402
813.421	4363
813.562	4333
813.703	4360
813.845	4306
813.986	4234
814.127	4215
814.268	4238
814.41	4265
814.551	4257
814.692	4337
814.833	4219
814.974	4272
815.115	4276
815.256	4227
815.397	4196
815.539	4227
815.68	4200
815.821	4177
815.962	4322
816.103	4249
816.244	4223
816.385	4173
816.526	4291
816.666	4158
816.807	4109
816.948	4154
817.089	4124
817.23	4116
817.371	4063
817.512	4055
817.653	4029
817.793	4017
817.934	4071
818.075	4082
818.216	4010
818.356	4036
818.497	3956
818.638	3838
818.778	3880
818.919	3861
819.06	3823
819.2	3907
819.341	3850
819.481	3854
819.622	3896
819.762	3987
819.903	3876
820.043	3831
820.184	3800
820.324	3812
820.465	3888
820.605	3854
820.746	3819
820.886	3816
821.026	3956
821.167	3869
821.307	3922
821.447	4006
821.588	3953
821.728	3991
821.868	3899
822.008	3907
822.149	3884
822.289	3865
822.429	3743
822.569	3755
822.709	3789
822.849	3644
822.99	3698
823.13	3736
823.27	3762
823.41	3675
823.55	3698
823.69	3671
823.83	3709
823.97	3686
824.11	3603
824.25	3603
824.389	3610
824.529	3671
824.669	3599
824.809	3720
824.949	3736
825.089	3743
825.228	3701
825.368	3538
825.508	3534
825.648	3523
825.787	3591
825.927	3584
826.067	3610
826.206	3633
826.346	3778
826.485	3835
826.625	3861
826.765	3926
826.904	3808
827.044	3610
827.183	3492
827.323	3431
827.462	3443
827.601	3374
827.741	3431
827.88	3443
828.02	3351
828.159	3397
828.298	3454
828.437	3492
828.577	3420
828.716	3580
828.855	3466
828.994	3340
829.134	3359
829.273	3367
829.412	3351
829.551	3332
829.69	3317
829.829	3428
829.968	3519
830.107	3393
830.246	3428
830.385	3351
830.524	3294
830.663	3332
830.802	3260
830.941	3176
831.08	3195
831.219	3222
831.357	3253
831.496	3405
831.635	3256
831.774	3173
831.913	3180
832.051	3093
832.19	3157
832.329	3214
832.467	3131
832.606	3127
832.744	3142
832.883	3184
833.022	3195
833.16	3211
833.299	3306
833.437	3336
833.576	3370
833.714	3405
833.852	3401
833.991	3409
834.129	3420
834.267	3473
834.406	3382
834.544	3416
834.682	3405
834.821	3416
834.959	3557
835.097	3389
835.235	3511
835.373	3500
835.511	3504
835.65	3454
835.788	3450
835.926	3378
836.064	3351
836.202	3389
836.34	3557
836.478	3587
836.615	3542
836.753	3542
836.891	3625
837.029	3584
837.167	3595
837.305	3549
837.443	3572
837.58	3485
837.718	3561
837.856	3572
837.993	3538
838.131	3526
838.269	3542
838.406	3603
838.544	3549
838.681	3454
838.819	3439
838.956	3370
839.094	3397
839.231	3428
839.369	3481
839.506	3698
839.643	3587
839.781	3500
839.918	3458
840.055	3507
840.193	3492
840.33	3523
840.467	3500
840.604	3622
840.742	3827
840.879	3534
841.016	3568
841.153	3576
841.29	3717
841.427	3690
841.564	3717
841.701	3728
841.838	3690
841.975	3660
842.112	3709
842.249	3637
842.385	3587
842.522	3812
842.659	3656
842.796	3690
842.933	3667
843.069	3701
843.206	3671
843.343	3797
843.479	3743
843.616	3774
843.752	3694
843.889	3701
844.025	3838
844.162	3751
844.298	3884
844.435	3781
844.571	3766
844.708	3876
844.844	3956
844.98	3953
845.117	3991
845.253	3918
845.389	3892
845.525	3892
845.661	3945
845.798	3899
845.934	3991
846.07	3968
846.206	4044
846.342	4112
846.478	4067
846.614	3945
846.75	3903
846.886	3892
847.022	3998
847.158	3949
847.294	3949
847.429	4017
847.565	3983
847.701	4207
847.837	3854
847.972	3804
848.108	3998
848.244	3945
848.379	3842
848.515	3781
848.65	3770
848.786	3876
848.921	3816
849.057	3915
849.192	3876
849.328	3888
849.463	3907
849.598	3854
849.734	3819
849.869	3869
850.004	3793
850.14	3827
850.275	3785
850.41	3759
850.545	3740
850.68	3808
850.815	3743
850.95	3755
851.085	3907
851.22	3876
851.355	3778
851.49	3770
851.625	3789
851.76	3781
851.895	3728
852.03	3724
852.165	3770
852.299	3842
852.434	3876
852.569	3850
852.703	3831
852.838	3861
852.973	3953
853.107	3994
853.242	3838
853.376	3835
853.511	3816
853.645	3835
853.78	3949
853.914	3915
854.048	3850
854.183	3880
854.317	3964
854.451	4025
854.585	3949
854.72	3949
854.854	4029
854.988	3934
855.122	3987
855.256	3941
855.39	3998
855.524	4101
855.658	4101
855.792	4101
855.926	4109
856.06	4135
856.194	4192
856.327	4150
856.461	4116
856.595	4082
856.729	4124
856.862	4246
856.996	4242
857.13	4299
857.263	4257
857.397	4322
857.53	4268
857.664	4280
857.797	4333
857.931	4413
858.064	4371
858.197	4447
858.331	4390
858.464	4360
858.597	4341
858.731	4424
858.864	4451
858.997	4436
859.13	4535
859.263	4516
859.396	4531
859.529	4481
859.662	4508
859.795	4500
859.928	4565
860.061	4664
860.194	4755
860.327	4573
860.46	4641
860.592	4702
860.725	4736
860.858	4729
860.99	4702
861.123	4668
861.256	4641
861.388	4763
861.521	5292
861.653	4702
861.786	4675
861.918	4786
862.05	4755
862.183	4873
862.315	4877
862.447	4904
862.58	4911
862.712	4744
862.844	4797
862.976	4858
863.108	4900
863.24	5280
863.372	4782
863.504	4858
863.636	4908
863.768	4908
863.9	4968
864.032	4953
864.164	4938
864.296	5006
864.428	5052
864.559	5045
864.691	5079
864.823	5117
864.954	5094
865.086	5124
865.217	5105
865.349	5109
865.48	5140
865.612	5159
865.743	5265
865.875	5136
866.006	5098
866.137	5220
866.269	5242
866.4	5246
866.531	5216
866.662	5151
866.793	5235
866.924	5223
867.055	5288
867.186	5337
867.317	5318
867.448	5307
867.579	5353
867.71	5410
867.841	5387
867.972	5436
868.103	5429
868.233	5486
868.364	5463
868.495	5570
868.625	5611
868.756	5794
868.886	5672
869.017	5752
869.147	5844
869.278	5821
869.408	5767
869.539	5859
869.669	5912
869.799	5946
869.929	5988
870.06	5992
870.19	6121
870.32	6133
870.45	6197
870.58	6285
870.71	6410
870.84	6433
870.97	6376
871.1	6486
871.23	6589
871.36	6681
871.489	6623
871.619	6753
871.749	6840
871.879	6840
872.008	6943
872.138	6947
872.267	7015
872.397	6966
872.526	6973
872.656	7095
872.785	7244
872.915	7350
873.044	7460
873.173	7499
873.303	7616
873.432	7772
873.561	7875
873.69	7875
873.819	7940
873.948	8168
874.077	8145
874.206	8355
874.335	8385
874.464	8644
874.593	8830
874.722	8826
874.851	9009
874.979	9184
875.108	9325
875.237	9420
875.365	9473
875.494	9656
875.623	9793
875.751	9793
875.88	9941
876.008	10055
876.136	10261
876.265	10512
876.393	10706
876.521	10675
876.65	10755
876.778	10862
876.906	10858
877.034	11056
877.162	11048
877.29	11159
877.418	11349
877.546	11292
877.674	11440
877.802	11474
877.93	11471
878.058	11551
878.185	11558
878.313	11627
878.441	11783
878.568	11604
878.696	11745
878.824	11840
878.951	11889
879.079	12053
879.206	12026
879.333	12022
879.461	11999
879.588	12091
879.715	12049
879.842	12076
879.97	12034
880.097	11863
880.224	11965
880.351	11855
880.478	11901
880.605	11878
880.732	11790
880.859	12015
880.986	11882
881.112	11843
881.239	11748
881.366	11710
881.493	11657
881.619	11554
881.746	11562
881.872	11501
881.999	11532
882.125	11452
882.252	11577
882.378	11512
882.505	11547
882.631	11391
882.757	11288
882.883	11364
883.01	11162
883.136	11185
883.262	11113
883.388	11056
883.514	11181
883.64	11162
883.766	11155
883.892	11033
884.018	10984
884.143	10999
884.269	11045
884.395	10847
884.52	10755
884.646	10759
884.772	10717
884.897	10702
885.023	10649
885.148	10710
885.274	10717
885.399	10744
885.524	10626
885.65	10615
885.775	10637
885.9	10588
886.025	10558
886.15	10561
886.275	10409
886.4	10306
886.525	10402
886.65	10371
886.775	10234
886.9	10436
887.025	10459
887.149	10352
887.274	10230
887.399	10204
887.523	10169
887.648	10105
887.773	10162
887.897	10299
888.021	10158
888.146	10124
888.27	10192
888.395	10185
888.519	10150
888.643	10192
888.767	10162
888.891	10036
889.015	9983
889.139	9975
889.263	10078
889.387	10021
889.511	10074
889.635	10093
889.759	9918
889.883	10090
890.006	10010
890.13	10150
890.254	9960
890.377	9941
890.501	9800
890.624	9903
890.748	9895
890.871	9812
890.995	9747
891.118	9698
891.241	9747
891.364	9747
891.488	9808
891.611	9686
891.734	9762
891.857	9785
891.98	9694
892.103	9701
892.226	9675
892.349	9660
892.471	9507
892.594	9564
892.717	9622
892.839	9568
892.962	9610
893.085	9629
893.207	9538
893.33	9519
893.452	9408
893.575	9561
893.697	9515
893.819	9545
893.941	9629
894.064	9572
894.186	9393
894.308	9393
894.43	9557
894.552	9549
894.674	9477
894.796	9351
894.918	9355
895.04	9412
895.161	9348
895.283	9348
895.405	9272
895.526	9264
895.648	9287
895.769	9237
895.891	9214
896.012	9279
896.134	9222
896.255	9081
896.376	9119
896.498	9127
896.619	9135
896.74	9043
896.861	9077
896.982	9161
897.103	9313
897.224	9165
897.345	9024
897.466	8994
897.587	9028
897.708	9020
897.828	9070
897.949	8929
898.07	8853
898.19	8902
898.311	8994
898.431	8933
898.552	8834
898.672	8952
898.792	8952
898.913	8906
899.033	8788
899.153	8727
899.273	8594
899.393	8708
899.513	8750
899.633	8743
899.753	8788
899.873	8655
899.993	8682
900.113	8693
900.232	8739
900.352	8697
900.472	8613
900.591	8533
900.711	8537
900.83	8495
900.95	8689
901.069	8663
901.189	8590
901.308	8480
901.427	8385
901.546	8393
901.665	8389
901.784	8495
901.904	8393
902.023	8339
902.141	8221
902.26	8157
902.379	8309
902.498	8149
902.617	8199
902.735	8233
902.854	8221
902.973	8305
903.091	8130
903.21	8134
903.328	8202
903.446	8096
903.565	8062
903.683	8073
903.801	8054
903.919	8111
904.038	8138
904.156	8153
904.274	8115
904.392	8062
904.51	8039
904.627	8050
904.745	8100
904.863	8081
904.981	7997
905.098	7826
905.216	7811
905.334	7925
905.451	7963
905.569	7849
905.686	7951
905.803	7894
905.921	7799
906.038	7814
906.155	7753
906.272	7704
906.389	7715
906.506	7620
906.623	7658
906.74	7590
906.857	7521
906.974	7605
907.091	7590
907.208	7681
907.324	7594
907.441	7518
907.557	7460
907.674	7441
907.79	7476
907.907	7308
908.023	7453
908.139	7476
908.256	7377
908.372	7362
908.488	7270
908.604	7285
908.72	7202
908.836	7221
908.952	7225
909.068	7221
909.184	7289
909.3	7225
909.415	7225
909.531	7301
909.647	7099
909.762	7110
909.878	7095
909.993	7137
910.108	7080
910.224	7031
910.339	7099
910.454	6996
910.57	6958
910.685	6970
910.8	7175
910.915	7091
911.03	7000
911.145	6848
911.259	6852
911.374	6954
911.489	6829
911.604	6810
911.718	6627
911.833	6772
911.947	6608
912.062	6547
912.176	6639
912.291	6692
912.405	6677
912.519	6840
912.633	6779
912.748	6684
912.862	6673
912.976	6620
913.09	6509
913.204	6612
913.318	6623
913.431	6669
913.545	6642
913.659	6726
913.772	6620
913.886	6620
914	6525
914.113	6627
914.226	6555
914.34	6544
914.453	6448
914.566	6563
914.68	6559
914.793	6502
914.906	6395
915.019	6376
915.132	6350
915.245	6410
915.358	6422
915.47	6422
915.583	6486
915.696	6422
915.809	6525
915.921	6544
916.034	6433
916.146	6407
916.259	6334
916.371	6494
916.483	6403
916.595	6353
916.708	6372
916.82	6361
916.932	6448
917.044	6376
917.156	6426
917.268	6327
917.38	6327
917.491	6251
917.603	6342
917.715	6338
917.826	6418
917.938	6296
918.049	6213
918.161	6350
918.272	6391
918.384	6369
918.495	6357
918.606	6224
918.717	6190
918.828	6266
918.939	6213
919.05	6194
919.161	6228
919.272	6098
919.383	6125
919.494	6254
919.604	6448
919.715	6323
919.826	6213
919.936	6209
920.047	6311
920.157	6285
920.267	6429
920.378	6296
920.488	6232
920.598	6414
920.708	6551
920.818	6467
920.928	6437
921.038	6547
921.148	6506
921.258	6346
921.368	6292
921.477	6163
921.587	6182
921.697	6045
921.806	6175
921.916	6060
922.025	5954
922.134	5908
922.244	5878
922.353	5916
922.462	5851
922.571	5767
922.68	5718
922.789	5688
922.898	5684
923.007	5566
923.116	5672
923.224	5695
923.333	5707
923.442	5623
923.55	5558
923.659	5589
923.767	5638
923.876	5520
923.984	5547
924.092	5539
924.201	5566
924.309	5512
924.417	5570
924.525	5467
924.633	5520
924.741	6258
924.849	5372
924.956	5493
925.064	5345
925.172	5258
925.279	5277
925.387	5379
925.494	5277
925.602	5376
925.709	5417
925.816	5261
925.924	5280
926.031	5326
926.138	5315
926.245	5322
926.352	5242
926.459	5337
926.566	5341
926.673	5170
926.779	5132
926.886	5121
926.993	5022
927.099	4987
927.206	4980
927.312	4991
927.419	4972
927.525	4984
927.631	4934
927.737	4877
927.843	4816
927.95	4790
928.056	4839
928.162	4847
928.267	4809
928.373	5330
928.479	4790
928.585	4668
928.69	4729
928.796	4805
928.901	4615
929.007	4546
929.112	4691
929.218	4599
929.323	4603
929.428	4554
929.533	4626
929.638	4512
929.743	4489
929.848	4550
929.953	4523
930.058	4443
930.163	4341
930.267	4337
930.372	4379
930.477	4261
930.581	4459
930.685	4371
930.79	4295
930.894	4253
930.998	4268
931.103	4386
931.207	4105
931.311	4078
931.415	3994
931.519	3865
931.623	3915
