Data from glass_V78500241_334.txt Node
Date: Wed Sep 01 19:16:48 CST 2021
User: usil
Spectrometer: V785-0024
Trigger mode: 0
Integration Time (sec): 4.000000E-1
Scans to average: 1
Nonlinearity correction enabled: false
Boxcar width: 0
Storing dark spectrum: false
XAxis mode: Wavelengths
Number of Pixels in Spectrum: 1024
>>>>>Begin Spectral Data<<<<<
801.071	3755
801.214	3759
801.356	3762
801.499	3759
801.641	3736
801.783	3812
801.926	3892
802.068	3854
802.211	3857
802.353	3896
802.496	3816
802.638	3899
802.78	3918
802.923	3941
803.065	3922
803.208	3876
803.35	3876
803.492	3918
803.635	3903
803.777	3804
803.919	3926
804.061	4204
804.204	4002
804.346	3994
804.488	3941
804.63	4082
804.773	3964
804.915	4025
805.057	4188
805.199	4067
805.341	4067
805.483	4139
805.626	4139
805.768	4109
805.91	4177
806.052	4238
806.194	4219
806.336	4363
806.478	4238
806.62	4185
806.762	4238
806.904	4303
807.046	4344
807.188	4280
807.33	4219
807.472	4261
807.614	4185
807.756	4253
807.898	4246
808.04	4257
808.182	4276
808.324	4348
808.465	4413
808.607	4474
808.749	4481
808.891	4489
809.033	4519
809.174	4455
809.316	4219
809.458	4253
809.6	4192
809.741	4166
809.883	4154
810.025	4219
810.166	4223
810.308	4230
810.45	4272
810.591	4238
810.733	4284
810.875	4607
811.016	4843
811.158	5170
811.299	5261
811.441	5303
811.582	5105
811.724	4710
811.865	4504
812.007	4459
812.148	4417
812.29	4443
812.431	4383
812.573	4386
812.714	4421
812.855	4470
812.997	4440
813.138	4523
813.279	4417
813.421	4432
813.562	4409
813.703	4322
813.845	4333
813.986	4249
814.127	4261
814.268	4303
814.41	4344
814.551	4257
814.692	4322
814.833	4322
814.974	4329
815.115	4371
815.256	4249
815.397	4249
815.539	4272
815.68	4223
815.821	4238
815.962	4325
816.103	4287
816.244	4253
816.385	4265
816.526	4284
816.666	4204
816.807	4150
816.948	4223
817.089	4223
817.23	4200
817.371	4086
817.512	4048
817.653	4067
817.793	4032
817.934	4063
818.075	4124
818.216	4105
818.356	4078
818.497	4029
818.638	3991
818.778	3964
818.919	3907
819.06	3907
819.2	3922
819.341	3854
819.481	3854
819.622	3915
819.762	4013
819.903	3949
820.043	3880
820.184	3854
820.324	3808
820.465	3880
820.605	3838
820.746	3907
820.886	3781
821.026	3964
821.167	3941
821.307	3975
821.447	3968
821.588	3979
821.728	3930
821.868	3945
822.008	3903
822.149	3937
822.289	3941
822.429	3797
822.569	3747
822.709	3846
822.849	3698
822.99	3732
823.13	3808
823.27	3778
823.41	3682
823.55	3766
823.69	3743
823.83	3736
823.97	3633
824.11	3610
824.25	3618
824.389	3667
824.529	3717
824.669	3660
824.809	3709
824.949	3793
825.089	3755
825.228	3736
825.368	3568
825.508	3564
825.648	3538
825.787	3633
825.927	3641
826.067	3618
826.206	3675
826.346	3781
826.485	3876
826.625	3907
826.765	3926
826.904	3838
827.044	3603
827.183	3553
827.323	3469
827.462	3549
827.601	3439
827.741	3431
827.88	3477
828.02	3382
828.159	3496
828.298	3515
828.437	3515
828.577	3473
828.716	3648
828.855	3530
828.994	3389
829.134	3382
829.273	3367
829.412	3348
829.551	3370
829.69	3386
829.829	3443
829.968	3519
830.107	3439
830.246	3428
830.385	3367
830.524	3340
830.663	3329
830.802	3245
830.941	3214
831.08	3184
831.219	3260
831.357	3306
831.496	3382
831.635	3268
831.774	3192
831.913	3218
832.051	3146
832.19	3146
832.329	3218
832.467	3131
832.606	3112
832.744	3161
832.883	3214
833.022	3176
833.16	3291
833.299	3287
833.437	3359
833.576	3370
833.714	3428
833.852	3458
833.991	3488
834.129	3462
834.267	3424
834.406	3428
834.544	3420
834.682	3439
834.821	3454
834.959	3564
835.097	3439
835.235	3549
835.373	3534
835.511	3530
835.65	3450
835.788	3466
835.926	3397
836.064	3420
836.202	3370
836.34	3599
836.478	3606
836.615	3557
836.753	3622
836.891	3682
837.029	3625
837.167	3610
837.305	3534
837.443	3557
837.58	3545
837.718	3641
837.856	3557
837.993	3564
838.131	3606
838.269	3576
838.406	3610
838.544	3572
838.681	3477
838.819	3473
838.956	3412
839.094	3393
839.231	3466
839.369	3542
839.506	3743
839.643	3644
839.781	3534
839.918	3466
840.055	3523
840.193	3557
840.33	3572
840.467	3584
840.604	3625
840.742	3808
840.879	3587
841.016	3580
841.153	3625
841.29	3759
841.427	3762
841.564	3747
841.701	3800
841.838	3724
841.975	3698
842.112	3766
842.249	3648
842.385	3641
842.522	3842
842.659	3690
842.796	3682
842.933	3736
843.069	3728
843.206	3713
843.343	3793
843.479	3819
843.616	3789
843.752	3667
843.889	3717
844.025	3888
844.162	3751
844.298	3838
844.435	3827
844.571	3766
844.708	3896
844.844	4021
844.98	4086
845.117	4002
845.253	3983
845.389	3926
845.525	3987
845.661	3987
845.798	3922
845.934	4032
846.07	3994
846.206	4029
846.342	4112
846.478	4067
846.614	3983
846.75	3949
846.886	3983
847.022	4051
847.158	4029
847.294	3991
847.429	4006
847.565	3983
847.701	4268
847.837	3888
847.972	3842
848.108	3994
848.244	4074
848.379	3873
848.515	3850
848.65	3816
848.786	3876
848.921	3850
849.057	3949
849.192	3953
849.328	3899
849.463	3964
849.598	3915
849.734	3876
849.869	3827
850.004	3797
850.14	3827
850.275	3819
850.41	3778
850.545	3759
850.68	3774
850.815	3789
850.95	3873
851.085	3964
851.22	3838
851.355	3865
851.49	3800
851.625	3819
851.76	3778
851.895	3701
852.03	3759
852.165	3804
852.299	3884
852.434	3888
852.569	3869
852.703	3918
852.838	3956
852.973	4021
853.107	3968
853.242	3911
853.376	3888
853.511	3774
853.645	3865
853.78	3987
853.914	3880
854.048	3953
854.183	3937
854.317	3983
854.451	4067
854.585	3987
854.72	3960
854.854	4078
854.988	3956
855.122	4036
855.256	3972
855.39	4063
855.524	4101
855.658	4109
855.792	4131
855.926	4154
856.06	4143
856.194	4181
856.327	4150
856.461	4105
856.595	4173
856.729	4223
856.862	4287
856.996	4219
857.13	4276
857.263	4322
857.397	4379
857.53	4280
857.664	4360
857.797	4474
857.931	4432
858.064	4466
858.197	4432
858.331	4409
858.464	4390
858.597	4337
858.731	4417
858.864	4462
858.997	4417
859.13	4485
859.263	4565
859.396	4603
859.529	4573
859.662	4550
859.795	4550
859.928	4607
860.061	4691
860.194	4774
860.327	4679
860.46	4694
860.592	4767
860.725	4771
860.858	4744
860.99	4729
861.123	4683
861.256	4725
861.388	4816
861.521	5406
861.653	4778
861.786	4778
861.918	4755
862.05	4774
862.183	4854
862.315	4877
862.447	4957
862.58	4896
862.712	4847
862.844	4850
862.976	4915
863.108	4885
863.24	5223
863.372	4870
863.504	4908
863.636	4942
863.768	5006
863.9	4961
864.032	4957
864.164	4927
864.296	5094
864.428	5132
864.559	5147
864.691	5071
864.823	5109
864.954	5140
865.086	5159
865.217	5208
865.349	5117
865.48	5193
865.612	5174
865.743	5296
865.875	5201
866.006	5185
866.137	5227
866.269	5216
866.4	5292
866.531	5299
866.662	5261
866.793	5269
866.924	5280
867.055	5372
867.186	5364
867.317	5326
867.448	5292
867.579	5414
867.71	5410
867.841	5383
867.972	5429
868.103	5455
868.233	5509
868.364	5547
868.495	5581
868.625	5653
868.756	5844
868.886	5688
869.017	5695
869.147	5847
869.278	5802
869.408	5866
869.539	5809
869.669	5946
869.799	5912
869.929	5988
870.06	6003
870.19	6224
870.32	6194
870.45	6304
870.58	6334
870.71	6395
870.84	6433
870.97	6414
871.1	6418
871.23	6623
871.36	6703
871.489	6681
871.619	6726
871.749	6783
871.879	6928
872.008	6947
872.138	6977
872.267	7019
872.397	7008
872.526	7072
872.656	7118
872.785	7187
872.915	7434
873.044	7521
873.173	7567
873.303	7655
873.432	7742
873.561	7917
873.69	7921
873.819	7993
873.948	8130
874.077	8244
874.206	8385
874.335	8484
874.464	8678
874.593	8826
874.722	8933
874.851	9138
874.979	9279
875.108	9298
875.237	9458
875.365	9511
875.494	9648
875.623	9778
875.751	9892
875.88	10086
876.008	10139
876.136	10268
876.265	10489
876.393	10740
876.521	10717
876.65	10805
876.778	10908
876.906	10930
877.034	10972
877.162	11109
877.29	11117
877.418	11246
877.546	11387
877.674	11433
877.802	11562
877.93	11501
878.058	11615
878.185	11596
878.313	11642
878.441	11786
878.568	11627
878.696	11760
878.824	11794
878.951	11916
879.079	12026
879.206	12072
879.333	12098
879.461	11999
879.588	12152
879.715	12060
879.842	12251
879.97	12095
880.097	11893
880.224	11908
880.351	11923
880.478	11996
880.605	11866
880.732	11859
880.859	11969
880.986	11870
881.112	11863
881.239	11786
881.366	11627
881.493	11592
881.619	11551
881.746	11566
881.872	11551
881.999	11520
882.125	11512
882.252	11467
882.378	11570
882.505	11547
882.631	11368
882.757	11311
882.883	11299
883.01	11284
883.136	11208
883.262	11048
883.388	11022
883.514	11193
883.64	11265
883.766	11090
883.892	11056
884.018	10999
884.143	11128
884.269	11147
884.395	10869
884.52	10729
884.646	10854
884.772	10714
884.897	10717
885.023	10691
885.148	10767
885.274	10809
885.399	10710
885.524	10630
885.65	10641
885.775	10675
885.9	10630
886.025	10630
886.15	10558
886.275	10508
886.4	10398
886.525	10466
886.65	10417
886.775	10386
886.9	10519
887.025	10493
887.149	10375
887.274	10261
887.399	10242
887.523	10188
887.648	10128
887.773	10139
887.897	10299
888.021	10200
888.146	10120
888.27	10287
888.395	10238
888.519	10230
888.643	10154
888.767	10207
888.891	10097
889.015	9994
889.139	10067
889.263	10048
889.387	10097
889.511	10150
889.635	10063
889.759	9983
889.883	9983
890.006	10032
890.13	10010
890.254	9869
890.377	10032
890.501	9926
890.624	9819
890.748	9808
890.871	9793
890.995	9781
891.118	9686
891.241	9736
891.364	9743
891.488	9808
891.611	9751
891.734	9667
891.857	9797
891.98	9747
892.103	9785
892.226	9740
892.349	9690
892.471	9473
892.594	9561
892.717	9667
892.839	9591
892.962	9629
893.085	9675
893.207	9584
893.33	9545
893.452	9507
893.575	9614
893.697	9568
893.819	9553
893.941	9622
894.064	9515
894.186	9492
894.308	9454
894.43	9542
894.552	9584
894.674	9492
894.796	9466
894.918	9428
895.04	9363
895.161	9386
895.283	9416
895.405	9253
895.526	9241
895.648	9245
895.769	9260
895.891	9199
896.012	9241
896.134	9283
896.255	9150
896.376	9131
896.498	9180
896.619	9085
896.74	9077
896.861	9070
896.982	9283
897.103	9340
897.224	9192
897.345	9024
897.466	9028
897.587	9051
897.708	9074
897.828	9039
897.949	8971
898.07	8899
898.19	8914
898.311	9020
898.431	8880
898.552	8864
898.672	8929
898.792	9009
898.913	8853
899.033	8762
899.153	8724
899.273	8632
899.393	8701
899.513	8743
899.633	8781
899.753	8785
899.873	8758
899.993	8743
900.113	8739
900.232	8716
900.352	8663
900.472	8594
900.591	8556
900.711	8613
900.83	8492
900.95	8697
901.069	8705
901.189	8549
901.308	8446
901.427	8423
901.546	8450
901.665	8431
901.784	8465
901.904	8412
902.023	8400
902.141	8240
902.26	8233
902.379	8229
902.498	8202
902.617	8191
902.735	8317
902.854	8324
902.973	8366
903.091	8187
903.21	8081
903.328	8187
903.446	8092
903.565	8092
903.683	8145
903.801	8058
903.919	8229
904.038	8100
904.156	8084
904.274	8073
904.392	8016
904.51	8020
904.627	8039
904.745	8092
904.863	8107
904.981	7860
905.098	7879
905.216	7974
905.334	7917
905.451	7947
905.569	7841
905.686	7909
905.803	7944
905.921	7772
906.038	7879
906.155	7750
906.272	7738
906.389	7689
906.506	7647
906.623	7662
906.74	7674
906.857	7613
906.974	7639
907.091	7715
907.208	7677
907.324	7651
907.441	7544
907.557	7422
907.674	7499
907.79	7411
907.907	7411
908.023	7434
908.139	7411
908.256	7316
908.372	7350
908.488	7373
908.604	7327
908.72	7244
908.836	7312
908.952	7232
909.068	7198
909.184	7403
909.3	7297
909.415	7320
909.531	7247
909.647	7168
909.762	7095
909.878	7057
909.993	7145
910.108	7179
910.224	7110
910.339	7103
910.454	7110
910.57	6989
910.685	6951
910.8	7171
910.915	7069
911.03	7027
911.145	6947
911.259	6897
911.374	6905
911.489	6871
911.604	6886
911.718	6730
911.833	6715
911.947	6673
912.062	6563
912.176	6738
912.291	6684
912.405	6696
912.519	6852
912.633	6901
912.748	6719
912.862	6711
912.976	6589
913.09	6593
913.204	6616
913.318	6627
913.431	6673
913.545	6703
913.659	6650
913.772	6662
913.886	6555
914	6627
914.113	6635
914.226	6662
914.34	6566
914.453	6532
914.566	6574
914.68	6585
914.793	6528
914.906	6433
915.019	6445
915.132	6422
915.245	6414
915.358	6475
915.47	6433
915.583	6445
915.696	6448
915.809	6555
915.921	6559
916.034	6445
916.146	6483
916.259	6407
916.371	6509
916.483	6448
916.595	6433
916.708	6376
916.82	6429
916.932	6357
917.044	6388
917.156	6353
917.268	6334
917.38	6380
917.491	6296
917.603	6361
917.715	6376
917.826	6414
917.938	6334
918.049	6258
918.161	6380
918.272	6414
918.384	6521
918.495	6331
918.606	6262
918.717	6175
918.828	6334
918.939	6292
919.05	6163
919.161	6232
919.272	6133
919.383	6148
919.494	6273
919.604	6418
919.715	6311
919.826	6239
919.936	6300
920.047	6319
920.157	6289
920.267	6437
920.378	6372
920.488	6285
920.598	6433
920.708	6528
920.818	6448
920.928	6509
921.038	6658
921.148	6650
921.258	6296
921.368	6323
921.477	6262
921.587	6239
921.697	6019
921.806	6220
921.916	6095
922.025	5958
922.134	5874
922.244	5916
922.353	5999
922.462	5870
922.571	5863
922.68	5764
922.789	5661
922.898	5745
923.007	5630
923.116	5733
923.224	5653
923.333	5680
923.442	5596
923.55	5604
923.659	5604
923.767	5684
923.876	5589
923.984	5600
924.092	5539
924.201	5562
924.309	5566
924.417	5547
924.525	5471
924.633	5482
924.741	6323
924.849	5345
924.956	5471
925.064	5360
925.172	5337
925.279	5277
925.387	5349
925.494	5322
925.602	5459
925.709	5414
925.816	5299
925.924	5349
926.031	5299
926.138	5299
926.245	5341
926.352	5231
926.459	5277
926.566	5360
926.673	5258
926.779	5174
926.886	5147
926.993	5029
927.099	5041
927.206	4938
927.312	4995
927.419	5067
927.525	4968
927.631	5022
927.737	4870
927.843	4866
927.95	4790
928.056	4854
928.162	4816
928.267	4885
928.373	5231
928.479	4828
928.585	4729
928.69	4778
928.796	4828
928.901	4683
929.007	4618
929.112	4679
929.218	4630
929.323	4649
929.428	4546
929.533	4683
929.638	4531
929.743	4519
929.848	4592
929.953	4512
930.058	4424
930.163	4322
930.267	4333
930.372	4451
930.477	4299
930.581	4535
930.685	4348
930.79	4303
930.894	4318
930.998	4291
931.103	4375
931.207	4135
931.311	4109
931.415	4097
931.519	3911
931.623	3972
