Data from glass_V78500241_2171.txt Node
Date: Wed Sep 01 19:29:33 CST 2021
User: usil
Spectrometer: V785-0024
Trigger mode: 0
Integration Time (sec): 4.000000E-1
Scans to average: 1
Nonlinearity correction enabled: false
Boxcar width: 0
Storing dark spectrum: false
XAxis mode: Wavelengths
Number of Pixels in Spectrum: 1024
>>>>>Begin Spectral Data<<<<<
801.071	3728
801.214	3755
801.356	3698
801.499	3724
801.641	3709
801.783	3797
801.926	3838
802.068	3804
802.211	3838
802.353	3896
802.496	3819
802.638	3876
802.78	3896
802.923	3907
803.065	3873
803.208	3816
803.35	3865
803.492	3850
803.635	3899
803.777	3789
803.919	3899
804.061	4166
804.204	3918
804.346	3975
804.488	3934
804.63	4032
804.773	3926
804.915	4036
805.057	4135
805.199	4010
805.341	4093
805.483	4112
805.626	4150
805.768	4147
805.91	4223
806.052	4204
806.194	4185
806.336	4337
806.478	4177
806.62	4154
806.762	4204
806.904	4200
807.046	4322
807.188	4150
807.33	4200
807.472	4276
807.614	4185
807.756	4223
807.898	4242
808.04	4219
808.182	4291
808.324	4329
808.465	4363
808.607	4424
808.749	4455
808.891	4478
809.033	4512
809.174	4383
809.316	4246
809.458	4242
809.6	4139
809.741	4131
809.883	4109
810.025	4196
810.166	4211
810.308	4185
810.45	4276
810.591	4272
810.733	4253
810.875	4493
811.016	4763
811.158	5143
811.299	5265
811.441	5242
811.582	5025
811.724	4698
811.865	4474
812.007	4504
812.148	4451
812.29	4379
812.431	4428
812.573	4337
812.714	4348
812.855	4409
812.997	4409
813.138	4493
813.279	4424
813.421	4344
813.562	4383
813.703	4318
813.845	4303
813.986	4257
814.127	4219
814.268	4238
814.41	4295
814.551	4238
814.692	4337
814.833	4230
814.974	4242
815.115	4295
815.256	4265
815.397	4257
815.539	4219
815.68	4192
815.821	4204
815.962	4303
816.103	4287
816.244	4272
816.385	4242
816.526	4272
816.666	4211
816.807	4071
816.948	4154
817.089	4173
817.23	4128
817.371	4048
817.512	4051
817.653	4090
817.793	4021
817.934	4055
818.075	4090
818.216	4044
818.356	4078
818.497	3975
818.638	3896
818.778	3915
818.919	3842
819.06	3842
819.2	3911
819.341	3857
819.481	3804
819.622	3911
819.762	3998
819.903	3926
820.043	3869
820.184	3838
820.324	3827
820.465	3827
820.605	3876
820.746	3854
820.886	3800
821.026	3915
821.167	3869
821.307	3983
821.447	3991
821.588	3934
821.728	3956
821.868	3956
822.008	3835
822.149	3896
822.289	3918
822.429	3766
822.569	3762
822.709	3804
822.849	3698
822.99	3709
823.13	3713
823.27	3778
823.41	3713
823.55	3698
823.69	3728
823.83	3766
823.97	3686
824.11	3584
824.25	3587
824.389	3656
824.529	3709
824.669	3595
824.809	3732
824.949	3762
825.089	3701
825.228	3656
825.368	3576
825.508	3568
825.648	3557
825.787	3587
825.927	3656
826.067	3625
826.206	3660
826.346	3785
826.485	3804
826.625	3888
826.765	3918
826.904	3861
827.044	3603
827.183	3538
827.323	3397
827.462	3462
827.601	3401
827.741	3401
827.88	3450
828.02	3389
828.159	3450
828.298	3466
828.437	3542
828.577	3439
828.716	3603
828.855	3504
828.994	3409
829.134	3393
829.273	3397
829.412	3363
829.551	3355
829.69	3370
829.829	3412
829.968	3481
830.107	3435
830.246	3428
830.385	3351
830.524	3378
830.663	3268
830.802	3218
830.941	3176
831.08	3211
831.219	3241
831.357	3245
831.496	3389
831.635	3264
831.774	3195
831.913	3188
832.051	3112
832.19	3123
832.329	3195
832.467	3116
832.606	3093
832.744	3150
832.883	3192
833.022	3154
833.16	3237
833.299	3302
833.437	3329
833.576	3363
833.714	3382
833.852	3450
833.991	3439
834.129	3473
834.267	3431
834.406	3370
834.544	3439
834.682	3401
834.821	3447
834.959	3519
835.097	3439
835.235	3519
835.373	3435
835.511	3492
835.65	3439
835.788	3500
835.926	3405
836.064	3386
836.202	3389
836.34	3572
836.478	3576
836.615	3538
836.753	3538
836.891	3633
837.029	3641
837.167	3557
837.305	3545
837.443	3538
837.58	3485
837.718	3568
837.856	3549
837.993	3568
838.131	3587
838.269	3572
838.406	3576
838.544	3549
838.681	3450
838.819	3409
838.956	3351
839.094	3382
839.231	3447
839.369	3526
839.506	3747
839.643	3606
839.781	3469
839.918	3481
840.055	3530
840.193	3549
840.33	3538
840.467	3530
840.604	3576
840.742	3778
840.879	3542
841.016	3557
841.153	3591
841.29	3747
841.427	3694
841.564	3698
841.701	3724
841.838	3686
841.975	3656
842.112	3694
842.249	3610
842.385	3610
842.522	3812
842.659	3690
842.796	3679
842.933	3652
843.069	3682
843.206	3671
843.343	3797
843.479	3789
843.616	3823
843.752	3641
843.889	3660
844.025	3838
844.162	3701
844.298	3865
844.435	3785
844.571	3766
844.708	3876
844.844	3964
844.98	4029
845.117	3987
845.253	3953
845.389	3903
845.525	3998
845.661	3937
845.798	3922
845.934	3991
846.07	3983
846.206	4048
846.342	4120
846.478	4078
846.614	3972
846.75	3964
846.886	3934
847.022	3964
847.158	3945
847.294	3979
847.429	4048
847.565	3968
847.701	4207
847.837	3854
847.972	3903
848.108	3934
848.244	3956
848.379	3823
848.515	3804
848.65	3842
848.786	3838
848.921	3857
849.057	3941
849.192	3922
849.328	3907
849.463	3926
849.598	3861
849.734	3873
849.869	3804
850.004	3755
850.14	3793
850.275	3846
850.41	3720
850.545	3728
850.68	3797
850.815	3774
850.95	3793
851.085	3926
851.22	3850
851.355	3816
851.49	3835
851.625	3797
851.76	3785
851.895	3759
852.03	3717
852.165	3781
852.299	3846
852.434	3896
852.569	3846
852.703	3869
852.838	3896
852.973	3941
853.107	3968
853.242	3869
853.376	3869
853.511	3762
853.645	3797
853.78	3937
853.914	3880
854.048	3918
854.183	3861
854.317	3949
854.451	4074
854.585	3991
854.72	3945
854.854	4017
854.988	3907
855.122	3945
855.256	3907
855.39	4040
855.524	4139
855.658	4097
855.792	4071
855.926	4147
856.06	4166
856.194	4173
856.327	4082
856.461	4109
856.595	4143
856.729	4139
856.862	4284
856.996	4230
857.13	4276
857.263	4287
857.397	4337
857.53	4299
857.664	4356
857.797	4417
857.931	4409
858.064	4409
858.197	4462
858.331	4379
858.464	4375
858.597	4348
858.731	4390
858.864	4459
858.997	4424
859.13	4542
859.263	4569
859.396	4588
859.529	4497
859.662	4504
859.795	4523
859.928	4599
860.061	4717
860.194	4733
860.327	4641
860.46	4637
860.592	4736
860.725	4759
860.858	4801
860.99	4706
861.123	4698
861.256	4702
861.388	4733
861.521	5425
861.653	4714
861.786	4748
861.918	4782
862.05	4786
862.183	4816
862.315	4877
862.447	4949
862.58	4843
862.712	4812
862.844	4793
862.976	4972
863.108	4854
863.24	5185
863.372	4725
863.504	4919
863.636	4866
863.768	4953
863.9	4953
864.032	4957
864.164	4953
864.296	4984
864.428	5029
864.559	5098
864.691	5090
864.823	5090
864.954	5098
865.086	5105
865.217	5136
865.349	5124
865.48	5166
865.612	5174
865.743	5296
865.875	5212
866.006	5189
866.137	5235
866.269	5189
866.4	5250
866.531	5273
866.662	5216
866.793	5223
866.924	5254
867.055	5311
867.186	5296
867.317	5364
867.448	5311
867.579	5337
867.71	5395
867.841	5448
867.972	5467
868.103	5467
868.233	5524
868.364	5509
868.495	5596
868.625	5630
868.756	5794
868.886	5668
869.017	5737
869.147	5870
869.278	5908
869.408	5824
869.539	5779
869.669	5866
869.799	5912
869.929	5996
870.06	5977
870.19	6175
870.32	6175
870.45	6239
870.58	6334
870.71	6471
870.84	6475
870.97	6342
871.1	6464
871.23	6623
871.36	6662
871.489	6612
871.619	6791
871.749	6825
871.879	6856
872.008	6947
872.138	6947
872.267	7008
872.397	6977
872.526	7050
872.656	7141
872.785	7202
872.915	7343
873.044	7491
873.173	7540
873.303	7628
873.432	7715
873.561	7909
873.69	7830
873.819	8008
873.948	8130
874.077	8248
874.206	8377
874.335	8476
874.464	8598
874.593	8868
874.722	8876
874.851	9089
874.979	9249
875.108	9348
875.237	9443
875.365	9500
875.494	9614
875.623	9812
875.751	9823
875.88	9998
876.008	10086
876.136	10227
876.265	10478
876.393	10664
876.521	10634
876.65	10824
876.778	10820
876.906	10885
877.034	11048
877.162	11052
877.29	11174
877.418	11231
877.546	11425
877.674	11391
877.802	11463
877.93	11455
878.058	11558
878.185	11611
878.313	11642
878.441	11707
878.568	11653
878.696	11722
878.824	11824
878.951	11969
879.079	11977
879.206	12117
879.333	12041
879.461	11988
879.588	12159
879.715	12068
879.842	12270
879.97	12087
880.097	11863
880.224	11832
880.351	11927
880.478	11866
880.605	11828
880.732	11786
880.859	11996
880.986	11840
881.112	11935
881.239	11699
881.366	11718
881.493	11528
881.619	11493
881.746	11558
881.872	11505
881.999	11551
882.125	11421
882.252	11562
882.378	11558
882.505	11585
882.631	11368
882.757	11261
882.883	11299
883.01	11284
883.136	11208
883.262	11124
883.388	11128
883.514	11223
883.64	11258
883.766	11102
883.892	10999
884.018	11018
884.143	11010
884.269	11090
884.395	10858
884.52	10782
884.646	10771
884.772	10744
884.897	10664
885.023	10736
885.148	10748
885.274	10805
885.399	10687
885.524	10634
885.65	10493
885.775	10577
885.9	10611
886.025	10592
886.15	10550
886.275	10466
886.4	10375
886.525	10341
886.65	10402
886.775	10337
886.9	10497
887.025	10508
887.149	10352
887.274	10253
887.399	10181
887.523	10158
887.648	10162
887.773	10082
887.897	10291
888.021	10284
888.146	10131
888.27	10246
888.395	10143
888.519	10204
888.643	10265
888.767	10147
888.891	10131
889.015	10017
889.139	10078
889.263	9922
889.387	10032
889.511	10059
889.635	9998
889.759	9892
889.883	9972
890.006	10040
890.13	10128
890.254	10002
890.377	9964
890.501	9762
890.624	9903
890.748	9869
890.871	9774
890.995	9701
891.118	9740
891.241	9713
891.364	9690
891.488	9835
891.611	9682
891.734	9755
891.857	9766
891.98	9713
892.103	9808
892.226	9625
892.349	9660
892.471	9473
892.594	9637
892.717	9629
892.839	9488
892.962	9644
893.085	9660
893.207	9584
893.33	9443
893.452	9485
893.575	9530
893.697	9462
893.819	9603
893.941	9675
894.064	9618
894.186	9466
894.308	9378
894.43	9431
894.552	9542
894.674	9530
894.796	9367
894.918	9397
895.04	9336
895.161	9302
895.283	9298
895.405	9233
895.526	9291
895.648	9222
895.769	9260
895.891	9253
896.012	9325
896.134	9180
896.255	9184
896.376	9085
896.498	9123
896.619	9146
896.74	9116
896.861	9020
896.982	9226
897.103	9363
897.224	9112
897.345	9024
897.466	8982
897.587	8929
897.708	9047
897.828	9058
897.949	8948
898.07	8891
898.19	8880
898.311	9013
898.431	8914
898.552	8933
898.672	9005
898.792	8887
898.913	8967
899.033	8815
899.153	8712
899.273	8644
899.393	8743
899.513	8819
899.633	8701
899.753	8746
899.873	8682
899.993	8731
900.113	8693
900.232	8766
900.352	8674
900.472	8537
900.591	8552
900.711	8530
900.83	8594
900.95	8625
901.069	8705
901.189	8568
901.308	8404
901.427	8408
901.546	8431
901.665	8495
901.784	8438
901.904	8377
902.023	8328
902.141	8218
902.26	8229
902.379	8298
902.498	8256
902.617	8214
902.735	8290
902.854	8214
902.973	8244
903.091	8115
903.21	8183
903.328	8172
903.446	8138
903.565	8046
903.683	8088
903.801	8031
903.919	8142
904.038	8100
904.156	8001
904.274	8020
904.392	7993
904.51	7997
904.627	8054
904.745	8096
904.863	8119
904.981	7928
905.098	7902
905.216	7845
905.334	7917
905.451	7936
905.569	7845
905.686	7894
905.803	7913
905.921	7814
906.038	7803
906.155	7814
906.272	7723
906.389	7708
906.506	7685
906.623	7609
906.74	7628
906.857	7537
906.974	7556
907.091	7666
907.208	7727
907.324	7643
907.441	7590
907.557	7430
907.674	7411
907.79	7400
907.907	7422
908.023	7419
908.139	7472
908.256	7362
908.372	7316
908.488	7324
908.604	7331
908.72	7228
908.836	7278
908.952	7190
909.068	7289
909.184	7259
909.3	7160
909.415	7297
909.531	7244
909.647	7133
909.762	7091
909.878	7103
909.993	7095
910.108	7050
910.224	7015
910.339	7107
910.454	6962
910.57	6981
910.685	6962
910.8	7168
910.915	7091
911.03	6993
911.145	6947
911.259	6871
911.374	6848
911.489	6882
911.604	6798
911.718	6738
911.833	6764
911.947	6635
912.062	6604
912.176	6692
912.291	6745
912.405	6688
912.519	6818
912.633	6833
912.748	6757
912.862	6734
912.976	6616
913.09	6578
913.204	6601
913.318	6623
913.431	6696
913.545	6688
913.659	6711
913.772	6627
913.886	6551
914	6540
914.113	6582
914.226	6677
914.34	6639
914.453	6418
914.566	6593
914.68	6448
914.793	6532
914.906	6407
915.019	6342
915.132	6338
915.245	6384
915.358	6445
915.47	6464
915.583	6483
915.696	6490
915.809	6460
915.921	6528
916.034	6372
916.146	6391
916.259	6407
916.371	6486
916.483	6475
916.595	6380
916.708	6376
916.82	6410
916.932	6342
917.044	6384
917.156	6357
917.268	6342
917.38	6365
917.491	6300
917.603	6334
917.715	6399
917.826	6388
917.938	6327
918.049	6247
918.161	6327
918.272	6372
918.384	6422
918.495	6331
918.606	6216
918.717	6213
918.828	6216
918.939	6235
919.05	6186
919.161	6239
919.272	6197
919.383	6079
919.494	6273
919.604	6410
919.715	6285
919.826	6232
919.936	6247
920.047	6311
920.157	6239
920.267	6464
920.378	6315
920.488	6357
920.598	6410
920.708	6521
920.818	6475
920.928	6426
921.038	6612
921.148	6578
921.258	6361
921.368	6308
921.477	6205
921.587	6201
921.697	6106
921.806	6140
921.916	6060
922.025	5923
922.134	5912
922.244	5885
922.353	5935
922.462	5798
922.571	5828
922.68	5729
922.789	5649
922.898	5623
923.007	5638
923.116	5688
923.224	5646
923.333	5646
923.442	5562
923.55	5596
923.659	5604
923.767	5604
923.876	5520
923.984	5596
924.092	5436
924.201	5532
924.309	5539
924.417	5573
924.525	5547
924.633	5505
924.741	6289
924.849	5379
924.956	5455
925.064	5357
925.172	5334
925.279	5280
925.387	5417
925.494	5261
925.602	5417
925.709	5349
925.816	5265
925.924	5311
926.031	5303
926.138	5299
926.245	5322
926.352	5239
926.459	5292
926.566	5357
926.673	5208
926.779	5147
926.886	5128
926.993	5025
927.099	5033
927.206	4976
927.312	4934
927.419	4938
927.525	4965
927.631	4984
927.737	4873
927.843	4843
927.95	4793
928.056	4801
928.162	4812
928.267	4843
928.373	5273
928.479	4778
928.585	4691
928.69	4778
928.796	4797
928.901	4717
929.007	4584
929.112	4698
929.218	4626
929.323	4611
929.428	4542
929.533	4645
929.638	4481
929.743	4550
929.848	4569
929.953	4538
930.058	4432
930.163	4352
930.267	4341
930.372	4436
930.477	4284
930.581	4466
930.685	4341
930.79	4249
930.894	4215
930.998	4280
931.103	4375
931.207	4131
931.311	4086
931.415	4017
931.519	3915
931.623	3930
