Data from glass_V78500241_431.txt Node
Date: Wed Sep 01 19:17:29 CST 2021
User: usil
Spectrometer: V785-0024
Trigger mode: 0
Integration Time (sec): 4.000000E-1
Scans to average: 1
Nonlinearity correction enabled: false
Boxcar width: 0
Storing dark spectrum: false
XAxis mode: Wavelengths
Number of Pixels in Spectrum: 1024
>>>>>Begin Spectral Data<<<<<
801.071	3789
801.214	3785
801.356	3713
801.499	3747
801.641	3728
801.783	3759
801.926	3876
802.068	3838
802.211	3884
802.353	3945
802.496	3816
802.638	3937
802.78	3930
802.923	3987
803.065	3972
803.208	3880
803.35	3892
803.492	3918
803.635	3907
803.777	3827
803.919	3907
804.061	4196
804.204	3941
804.346	3949
804.488	3907
804.63	4029
804.773	3956
804.915	4067
805.057	4158
805.199	4063
805.341	4101
805.483	4124
805.626	4150
805.768	4101
805.91	4211
806.052	4211
806.194	4223
806.336	4363
806.478	4230
806.62	4158
806.762	4177
806.904	4284
807.046	4341
807.188	4234
807.33	4181
807.472	4238
807.614	4196
807.756	4261
807.898	4200
808.04	4257
808.182	4291
808.324	4352
808.465	4375
808.607	4428
808.749	4462
808.891	4508
809.033	4542
809.174	4447
809.316	4261
809.458	4234
809.6	4166
809.741	4158
809.883	4181
810.025	4196
810.166	4234
810.308	4265
810.45	4242
810.591	4204
810.733	4341
810.875	4527
811.016	4835
811.158	5121
811.299	5246
811.441	5330
811.582	5071
811.724	4736
811.865	4470
812.007	4436
812.148	4428
812.29	4413
812.431	4443
812.573	4428
812.714	4363
812.855	4402
812.997	4462
813.138	4519
813.279	4398
813.421	4402
813.562	4409
813.703	4348
813.845	4352
813.986	4299
814.127	4223
814.268	4291
814.41	4284
814.551	4295
814.692	4329
814.833	4280
814.974	4333
815.115	4360
815.256	4253
815.397	4246
815.539	4272
815.68	4200
815.821	4200
815.962	4341
816.103	4295
816.244	4272
816.385	4192
816.526	4257
816.666	4261
816.807	4078
816.948	4215
817.089	4166
817.23	4124
817.371	4067
817.512	4040
817.653	4032
817.793	4051
817.934	4086
818.075	4082
818.216	4105
818.356	4101
818.497	4013
818.638	3880
818.778	3926
818.919	3896
819.06	3903
819.2	3918
819.341	3873
819.481	3861
819.622	3899
819.762	4032
819.903	3960
820.043	3835
820.184	3869
820.324	3880
820.465	3850
820.605	3911
820.746	3854
820.886	3846
821.026	3934
821.167	3926
821.307	3991
821.447	3994
821.588	3968
821.728	3941
821.868	3922
822.008	3896
822.149	3915
822.289	3956
822.429	3831
822.569	3804
822.709	3819
822.849	3701
822.99	3743
823.13	3785
823.27	3819
823.41	3698
823.55	3736
823.69	3740
823.83	3755
823.97	3675
824.11	3667
824.25	3606
824.389	3656
824.529	3686
824.669	3663
824.809	3736
824.949	3755
825.089	3766
825.228	3724
825.368	3614
825.508	3576
825.648	3580
825.787	3648
825.927	3660
826.067	3679
826.206	3690
826.346	3831
826.485	3831
826.625	3892
826.765	3937
826.904	3816
827.044	3591
827.183	3549
827.323	3458
827.462	3473
827.601	3435
827.741	3473
827.88	3469
828.02	3389
828.159	3473
828.298	3481
828.437	3549
828.577	3492
828.716	3637
828.855	3469
828.994	3409
829.134	3405
829.273	3363
829.412	3370
829.551	3363
829.69	3382
829.829	3469
829.968	3549
830.107	3485
830.246	3504
830.385	3393
830.524	3351
830.663	3310
830.802	3233
830.941	3241
831.08	3184
831.219	3237
831.357	3294
831.496	3462
831.635	3226
831.774	3214
831.913	3222
832.051	3146
832.19	3146
832.329	3222
832.467	3180
832.606	3108
832.744	3173
832.883	3207
833.022	3241
833.16	3253
833.299	3336
833.437	3340
833.576	3370
833.714	3439
833.852	3443
833.991	3447
834.129	3492
834.267	3420
834.406	3435
834.544	3435
834.682	3409
834.821	3439
834.959	3545
835.097	3435
835.235	3534
835.373	3488
835.511	3523
835.65	3454
835.788	3534
835.926	3412
836.064	3370
836.202	3443
836.34	3587
836.478	3648
836.615	3534
836.753	3599
836.891	3644
837.029	3610
837.167	3618
837.305	3561
837.443	3545
837.58	3561
837.718	3603
837.856	3622
837.993	3523
838.131	3652
838.269	3595
838.406	3610
838.544	3561
838.681	3485
838.819	3466
838.956	3424
839.094	3412
839.231	3473
839.369	3515
839.506	3751
839.643	3633
839.781	3519
839.918	3492
840.055	3576
840.193	3534
840.33	3519
840.467	3584
840.604	3599
840.742	3831
840.879	3572
841.016	3580
841.153	3641
841.29	3762
841.427	3774
841.564	3751
841.701	3774
841.838	3724
841.975	3713
842.112	3724
842.249	3679
842.385	3599
842.522	3797
842.659	3724
842.796	3717
842.933	3701
843.069	3705
843.206	3728
843.343	3804
843.479	3774
843.616	3884
843.752	3709
843.889	3694
844.025	3880
844.162	3701
844.298	3857
844.435	3789
844.571	3808
844.708	3896
844.844	4025
844.98	4036
845.117	3998
845.253	3941
845.389	3884
845.525	4010
845.661	3983
845.798	3953
845.934	4010
846.07	3968
846.206	4116
846.342	4162
846.478	4101
846.614	4013
846.75	3983
846.886	3941
847.022	4074
847.158	3975
847.294	3994
847.429	3991
847.565	4017
847.701	4249
847.837	3869
847.972	3835
848.108	3972
848.244	3964
848.379	3850
848.515	3812
848.65	3827
848.786	3888
848.921	3873
849.057	3937
849.192	3930
849.328	3937
849.463	3918
849.598	3838
849.734	3857
849.869	3827
850.004	3766
850.14	3838
850.275	3800
850.41	3785
850.545	3766
850.68	3812
850.815	3766
850.95	3755
851.085	3994
851.22	3884
851.355	3835
851.49	3785
851.625	3819
851.76	3762
851.895	3751
852.03	3762
852.165	3762
852.299	3865
852.434	3937
852.569	3876
852.703	3907
852.838	3915
852.973	3975
853.107	3975
853.242	3896
853.376	3865
853.511	3778
853.645	3850
853.78	3972
853.914	3903
854.048	3922
854.183	3960
854.317	3960
854.451	4093
854.585	3968
854.72	3956
854.854	4063
854.988	3941
855.122	4017
855.256	3975
855.39	4051
855.524	4162
855.658	4097
855.792	4120
855.926	4120
856.06	4166
856.194	4219
856.327	4143
856.461	4105
856.595	4169
856.729	4227
856.862	4280
856.996	4284
857.13	4352
857.263	4337
857.397	4367
857.53	4291
857.664	4375
857.797	4443
857.931	4379
858.064	4424
858.197	4432
858.331	4394
858.464	4394
858.597	4348
858.731	4470
858.864	4538
858.997	4519
859.13	4500
859.263	4558
859.396	4615
859.529	4512
859.662	4516
859.795	4573
859.928	4626
860.061	4702
860.194	4793
860.327	4683
860.46	4687
860.592	4755
860.725	4809
860.858	4752
860.99	4736
861.123	4706
861.256	4733
861.388	4793
861.521	5421
861.653	4714
861.786	4714
861.918	4778
862.05	4797
862.183	4904
862.315	4946
862.447	4984
862.58	4873
862.712	4801
862.844	4774
862.976	4809
863.108	4908
863.24	5303
863.372	4835
863.504	4908
863.636	4881
863.768	4995
863.9	4946
864.032	4930
864.164	4949
864.296	5033
864.428	5102
864.559	5079
864.691	5113
864.823	5136
864.954	5128
865.086	5143
865.217	5121
865.349	5128
865.48	5113
865.612	5239
865.743	5280
865.875	5162
866.006	5204
866.137	5250
866.269	5204
866.4	5273
866.531	5208
866.662	5216
866.793	5277
866.924	5273
867.055	5353
867.186	5379
867.317	5368
867.448	5334
867.579	5337
867.71	5391
867.841	5482
867.972	5516
868.103	5524
868.233	5490
868.364	5535
868.495	5547
868.625	5680
868.756	5821
868.886	5699
869.017	5726
869.147	5813
869.278	5904
869.408	5805
869.539	5866
869.669	5958
869.799	5950
869.929	5961
870.06	6026
870.19	6201
870.32	6186
870.45	6273
870.58	6304
870.71	6475
870.84	6467
870.97	6437
871.1	6426
871.23	6662
871.36	6658
871.489	6639
871.619	6715
871.749	6818
871.879	6871
872.008	6993
872.138	7015
872.267	7061
872.397	6973
872.526	7000
872.656	7084
872.785	7247
872.915	7381
873.044	7525
873.173	7624
873.303	7647
873.432	7765
873.561	7909
873.69	7871
873.819	8001
873.948	8180
874.077	8294
874.206	8305
874.335	8404
874.464	8670
874.593	8933
874.722	8937
874.851	9138
874.979	9283
875.108	9393
875.237	9447
875.365	9523
875.494	9644
875.623	9835
875.751	9808
875.88	9972
876.008	10147
876.136	10276
876.265	10519
876.393	10771
876.521	10759
876.65	10877
876.778	10809
876.906	10946
877.034	11006
877.162	11151
877.29	11231
877.418	11296
877.546	11303
877.674	11471
877.802	11463
877.93	11604
878.058	11649
878.185	11562
878.313	11703
878.441	11642
878.568	11634
878.696	11809
878.824	11954
878.951	12011
879.079	12102
879.206	12182
879.333	12053
879.461	11996
879.588	12136
879.715	12114
879.842	12270
879.97	11996
880.097	11874
880.224	11859
880.351	11870
880.478	11916
880.605	11920
880.732	11882
880.859	12106
880.986	11916
881.112	11885
881.239	11809
881.366	11661
881.493	11611
881.619	11493
881.746	11566
881.872	11532
881.999	11486
882.125	11478
882.252	11600
882.378	11433
882.505	11463
882.631	11452
882.757	11227
882.883	11261
883.01	11330
883.136	11223
883.262	11094
883.388	11102
883.514	11166
883.64	11151
883.766	11151
883.892	11006
884.018	11048
884.143	11079
884.269	11094
884.395	10778
884.52	10759
884.646	10816
884.772	10736
884.897	10645
885.023	10748
885.148	10744
885.274	10729
885.399	10759
885.524	10577
885.65	10622
885.775	10546
885.9	10497
886.025	10615
886.15	10626
886.275	10424
886.4	10428
886.525	10382
886.65	10333
886.775	10306
886.9	10523
887.025	10546
887.149	10398
887.274	10234
887.399	10230
887.523	10131
887.648	10143
887.773	10143
887.897	10131
888.021	10268
888.146	10120
888.27	10246
888.395	10215
888.519	10173
888.643	10272
888.767	10181
888.891	10078
889.015	10021
889.139	10067
889.263	10017
889.387	10101
889.511	10112
889.635	10090
889.759	9964
889.883	9915
890.006	10013
890.13	10211
890.254	10010
890.377	9991
890.501	9846
890.624	9892
890.748	9892
890.871	9857
890.995	9724
891.118	9694
891.241	9812
891.364	9766
891.488	9819
891.611	9720
891.734	9816
891.857	9816
891.98	9694
892.103	9740
892.226	9701
892.349	9629
892.471	9519
892.594	9610
892.717	9682
892.839	9625
892.962	9656
893.085	9663
893.207	9599
893.33	9534
893.452	9504
893.575	9679
893.697	9504
893.819	9652
893.941	9618
894.064	9534
894.186	9488
894.308	9344
894.43	9572
894.552	9660
894.674	9526
894.796	9420
894.918	9477
895.04	9363
895.161	9351
895.283	9370
895.405	9355
895.526	9230
895.648	9230
895.769	9272
895.891	9302
896.012	9275
896.134	9306
896.255	9218
896.376	9119
896.498	9089
896.619	9093
896.74	9097
896.861	9081
896.982	9287
897.103	9306
897.224	9173
897.345	9005
897.466	9089
897.587	8963
897.708	9173
897.828	9032
897.949	8979
898.07	8857
898.19	8960
898.311	8986
898.431	8876
898.552	8937
898.672	8944
898.792	8967
898.913	8842
899.033	8842
899.153	8807
899.273	8701
899.393	8651
899.513	8720
899.633	8731
899.753	8708
899.873	8796
899.993	8701
900.113	8682
900.232	8644
900.352	8670
900.472	8613
900.591	8575
900.711	8579
900.83	8583
900.95	8663
901.069	8708
901.189	8629
901.308	8484
901.427	8377
901.546	8404
901.665	8499
901.784	8484
901.904	8377
902.023	8279
902.141	8275
902.26	8180
902.379	8259
902.498	8229
902.617	8225
902.735	8290
902.854	8358
902.973	8301
903.091	8138
903.21	8153
903.328	8157
903.446	8103
903.565	8081
903.683	8046
903.801	8008
903.919	8130
904.038	8153
904.156	8054
904.274	8073
904.392	7993
904.51	8039
904.627	8107
904.745	8153
904.863	8115
904.981	7955
905.098	7871
905.216	7830
905.334	7921
905.451	7932
905.569	7879
905.686	7894
905.803	7875
905.921	7822
906.038	7940
906.155	7776
906.272	7734
906.389	7769
906.506	7662
906.623	7582
906.74	7578
906.857	7506
906.974	7567
907.091	7677
907.208	7757
907.324	7658
907.441	7590
907.557	7457
907.674	7491
907.79	7381
907.907	7453
908.023	7430
908.139	7434
908.256	7422
908.372	7358
908.488	7358
908.604	7320
908.72	7247
908.836	7331
908.952	7225
909.068	7297
909.184	7293
909.3	7247
909.415	7293
909.531	7198
909.647	7141
909.762	7152
909.878	7061
909.993	7126
910.108	7164
910.224	7088
910.339	7118
910.454	7069
910.57	7004
910.685	6993
910.8	7114
910.915	7076
911.03	7110
911.145	6894
911.259	6882
911.374	6905
911.489	6837
911.604	6776
911.718	6719
911.833	6711
911.947	6692
912.062	6681
912.176	6734
912.291	6658
912.405	6719
912.519	6757
912.633	6829
912.748	6768
912.862	6711
912.976	6604
913.09	6498
913.204	6589
913.318	6623
913.431	6696
913.545	6658
913.659	6662
913.772	6646
913.886	6589
914	6578
914.113	6662
914.226	6616
914.34	6662
914.453	6494
914.566	6608
914.68	6498
914.793	6498
914.906	6445
915.019	6376
915.132	6437
915.245	6471
915.358	6475
915.47	6483
915.583	6517
915.696	6521
915.809	6532
915.921	6601
916.034	6399
916.146	6445
916.259	6403
916.371	6544
916.483	6426
916.595	6407
916.708	6452
916.82	6399
916.932	6418
917.044	6448
917.156	6395
917.268	6266
917.38	6315
917.491	6311
917.603	6407
917.715	6403
917.826	6471
917.938	6323
918.049	6216
918.161	6353
918.272	6445
918.384	6479
918.495	6410
918.606	6277
918.717	6144
918.828	6311
918.939	6258
919.05	6194
919.161	6224
919.272	6136
919.383	6197
919.494	6266
919.604	6506
919.715	6315
919.826	6220
919.936	6243
920.047	6353
920.157	6277
920.267	6437
920.378	6376
920.488	6361
920.598	6479
920.708	6555
920.818	6437
920.928	6490
921.038	6604
921.148	6570
921.258	6338
921.368	6331
921.477	6190
921.587	6178
921.697	6117
921.806	6205
921.916	6155
922.025	5969
922.134	5901
922.244	5923
922.353	5969
922.462	5851
922.571	5809
922.68	5737
922.789	5649
922.898	5680
923.007	5680
923.116	5707
923.224	5722
923.333	5688
923.442	5627
923.55	5581
923.659	5566
923.767	5668
923.876	5558
923.984	5634
924.092	5501
924.201	5554
924.309	5539
924.417	5596
924.525	5509
924.633	5543
924.741	6296
924.849	5444
924.956	5501
925.064	5334
925.172	5303
925.279	5299
925.387	5402
925.494	5360
925.602	5421
925.709	5398
925.816	5284
925.924	5307
926.031	5391
926.138	5303
926.245	5345
926.352	5277
926.459	5353
926.566	5303
926.673	5246
926.779	5143
926.886	5136
926.993	5052
927.099	4991
927.206	5037
927.312	4946
927.419	5079
927.525	5033
927.631	5033
927.737	4896
927.843	4896
927.95	4805
928.056	4835
928.162	4778
928.267	4889
928.373	5280
928.479	4957
928.585	4706
928.69	4805
928.796	4801
928.901	4672
929.007	4599
929.112	4668
929.218	4679
929.323	4645
929.428	4546
929.533	4672
929.638	4596
929.743	4558
929.848	4531
929.953	4569
930.058	4432
930.163	4367
930.267	4386
930.372	4462
930.477	4379
930.581	4497
930.685	4352
930.79	4246
930.894	4265
930.998	4295
931.103	4363
931.207	4116
931.311	4067
931.415	4093
931.519	3922
931.623	3968
