Data from glass_V78500241_407.txt Node
Date: Wed Sep 01 19:17:19 CST 2021
User: usil
Spectrometer: V785-0024
Trigger mode: 0
Integration Time (sec): 4.000000E-1
Scans to average: 1
Nonlinearity correction enabled: false
Boxcar width: 0
Storing dark spectrum: false
XAxis mode: Wavelengths
Number of Pixels in Spectrum: 1024
>>>>>Begin Spectral Data<<<<<
801.071	3778
801.214	3797
801.356	3743
801.499	3747
801.641	3740
801.783	3812
801.926	3880
802.068	3857
802.211	3876
802.353	3854
802.496	3827
802.638	3934
802.78	3880
802.923	3979
803.065	3915
803.208	3869
803.35	3899
803.492	3880
803.635	3926
803.777	3850
803.919	3930
804.061	4177
804.204	4002
804.346	3899
804.488	3930
804.63	4074
804.773	3968
804.915	4036
805.057	4166
805.199	4006
805.341	4101
805.483	4150
805.626	4112
805.768	4135
805.91	4230
806.052	4219
806.194	4185
806.336	4344
806.478	4230
806.62	4200
806.762	4196
806.904	4284
807.046	4363
807.188	4272
807.33	4188
807.472	4272
807.614	4185
807.756	4299
807.898	4234
808.04	4204
808.182	4325
808.324	4367
808.465	4367
808.607	4516
808.749	4497
808.891	4504
809.033	4474
809.174	4405
809.316	4249
809.458	4230
809.6	4150
809.741	4169
809.883	4109
810.025	4230
810.166	4227
810.308	4257
810.45	4242
810.591	4291
810.733	4318
810.875	4512
811.016	4805
811.158	5109
811.299	5322
811.441	5280
811.582	5067
811.724	4725
811.865	4436
812.007	4432
812.148	4481
812.29	4424
812.431	4379
812.573	4367
812.714	4325
812.855	4436
812.997	4436
813.138	4500
813.279	4402
813.421	4367
813.562	4371
813.703	4352
813.845	4344
813.986	4284
814.127	4204
814.268	4238
814.41	4299
814.551	4287
814.692	4329
814.833	4310
814.974	4261
815.115	4352
815.256	4287
815.397	4215
815.539	4261
815.68	4234
815.821	4196
815.962	4341
816.103	4356
816.244	4284
816.385	4257
816.526	4352
816.666	4242
816.807	4093
816.948	4181
817.089	4219
817.23	4139
817.371	4044
817.512	4101
817.653	4101
817.793	4048
817.934	4025
818.075	4124
818.216	4093
818.356	4040
818.497	4006
818.638	3949
818.778	3903
818.919	3892
819.06	3880
819.2	3934
819.341	3888
819.481	3869
819.622	3918
819.762	4025
819.903	3930
820.043	3873
820.184	3876
820.324	3808
820.465	3857
820.605	3861
820.746	3857
820.886	3797
821.026	3915
821.167	3918
821.307	3972
821.447	3975
821.588	3975
821.728	3998
821.868	3972
822.008	3884
822.149	3907
822.289	3945
822.429	3774
822.569	3743
822.709	3804
822.849	3713
822.99	3762
823.13	3751
823.27	3812
823.41	3728
823.55	3755
823.69	3804
823.83	3800
823.97	3740
824.11	3641
824.25	3610
824.389	3675
824.529	3686
824.669	3667
824.809	3751
824.949	3743
825.089	3774
825.228	3732
825.368	3610
825.508	3538
825.648	3538
825.787	3622
825.927	3633
826.067	3652
826.206	3660
826.346	3785
826.485	3857
826.625	3846
826.765	3953
826.904	3819
827.044	3614
827.183	3526
827.323	3492
827.462	3454
827.601	3431
827.741	3435
827.88	3500
828.02	3363
828.159	3458
828.298	3519
828.437	3526
828.577	3473
828.716	3633
828.855	3526
828.994	3397
829.134	3344
829.273	3397
829.412	3348
829.551	3405
829.69	3386
829.829	3481
829.968	3576
830.107	3462
830.246	3454
830.385	3397
830.524	3405
830.663	3306
830.802	3294
830.941	3184
831.08	3226
831.219	3298
831.357	3287
831.496	3447
831.635	3237
831.774	3207
831.913	3199
832.051	3127
832.19	3123
832.329	3214
832.467	3165
832.606	3119
832.744	3154
832.883	3165
833.022	3214
833.16	3268
833.299	3313
833.437	3389
833.576	3355
833.714	3409
833.852	3454
833.991	3477
834.129	3481
834.267	3458
834.406	3416
834.544	3431
834.682	3420
834.821	3405
834.959	3568
835.097	3393
835.235	3553
835.373	3504
835.511	3523
835.65	3496
835.788	3523
835.926	3405
836.064	3389
836.202	3409
836.34	3595
836.478	3595
836.615	3549
836.753	3610
836.891	3686
837.029	3618
837.167	3584
837.305	3576
837.443	3526
837.58	3553
837.718	3641
837.856	3618
837.993	3530
838.131	3572
838.269	3587
838.406	3591
838.544	3553
838.681	3485
838.819	3485
838.956	3397
839.094	3370
839.231	3462
839.369	3564
839.506	3770
839.643	3656
839.781	3515
839.918	3488
840.055	3572
840.193	3534
840.33	3545
840.467	3587
840.604	3629
840.742	3785
840.879	3519
841.016	3557
841.153	3618
841.29	3743
841.427	3743
841.564	3728
841.701	3759
841.838	3709
841.975	3701
842.112	3728
842.249	3652
842.385	3660
842.522	3819
842.659	3740
842.796	3667
842.933	3698
843.069	3694
843.206	3728
843.343	3854
843.479	3759
843.616	3823
843.752	3675
843.889	3728
844.025	3816
844.162	3717
844.298	3899
844.435	3781
844.571	3793
844.708	3880
844.844	3975
844.98	4025
845.117	4040
845.253	3953
845.389	3918
845.525	3945
845.661	4002
845.798	3922
845.934	3975
846.07	4036
846.206	4090
846.342	4147
846.478	4074
846.614	4002
846.75	4002
846.886	3907
847.022	4067
847.158	3987
847.294	4002
847.429	4063
847.565	4013
847.701	4223
847.837	3899
847.972	3873
848.108	3987
848.244	3953
848.379	3880
848.515	3831
848.65	3831
848.786	3827
848.921	3918
849.057	3941
849.192	3934
849.328	3892
849.463	3949
849.598	3899
849.734	3880
849.869	3808
850.004	3778
850.14	3861
850.275	3819
850.41	3781
850.545	3755
850.68	3785
850.815	3740
850.95	3831
851.085	3972
851.22	3861
851.355	3808
851.49	3835
851.625	3770
851.76	3793
851.895	3705
852.03	3770
852.165	3816
852.299	3823
852.434	3899
852.569	3865
852.703	3888
852.838	3945
852.973	3991
853.107	3964
853.242	3907
853.376	3876
853.511	3808
853.645	3861
853.78	4006
853.914	3907
854.048	3918
854.183	3880
854.317	3956
854.451	4074
854.585	3968
854.72	4010
854.854	4078
854.988	3937
855.122	4048
855.256	3907
855.39	4051
855.524	4154
855.658	4097
855.792	4124
855.926	4173
856.06	4158
856.194	4227
856.327	4131
856.461	4139
856.595	4158
856.729	4169
856.862	4246
856.996	4257
857.13	4333
857.263	4291
857.397	4341
857.53	4291
857.664	4375
857.797	4428
857.931	4459
858.064	4360
858.197	4470
858.331	4413
858.464	4383
858.597	4322
858.731	4462
858.864	4436
858.997	4489
859.13	4500
859.263	4561
859.396	4615
859.529	4497
859.662	4546
859.795	4538
859.928	4664
860.061	4664
860.194	4755
860.327	4649
860.46	4660
860.592	4744
860.725	4778
860.858	4771
860.99	4679
861.123	4710
861.256	4691
861.388	4733
861.521	5410
861.653	4714
861.786	4733
861.918	4717
862.05	4767
862.183	4839
862.315	4896
862.447	5025
862.58	4911
862.712	4816
862.844	4809
862.976	4892
863.108	4904
863.24	5265
863.372	4797
863.504	4934
863.636	4892
863.768	5003
863.9	4946
864.032	4961
864.164	4953
864.296	5033
864.428	5136
864.559	5075
864.691	5105
864.823	5083
864.954	5170
865.086	5174
865.217	5170
865.349	5121
865.48	5189
865.612	5242
865.743	5273
865.875	5204
866.006	5220
866.137	5235
866.269	5296
866.4	5273
866.531	5296
866.662	5242
866.793	5307
866.924	5322
867.055	5326
867.186	5341
867.317	5322
867.448	5311
867.579	5410
867.71	5345
867.841	5398
867.972	5448
868.103	5482
868.233	5516
868.364	5520
868.495	5573
868.625	5623
868.756	5794
868.886	5630
869.017	5756
869.147	5832
869.278	5863
869.408	5817
869.539	5786
869.669	5939
869.799	5889
869.929	6015
870.06	6072
870.19	6194
870.32	6194
870.45	6258
870.58	6380
870.71	6460
870.84	6464
870.97	6456
871.1	6410
871.23	6677
871.36	6734
871.489	6703
871.619	6814
871.749	6878
871.879	6951
872.008	6958
872.138	6977
872.267	6993
872.397	7031
872.526	7042
872.656	7038
872.785	7263
872.915	7400
873.044	7499
873.173	7605
873.303	7708
873.432	7772
873.561	7811
873.69	7852
873.819	8024
873.948	8092
874.077	8210
874.206	8381
874.335	8473
874.464	8629
874.593	8899
874.722	8910
874.851	9119
874.979	9184
875.108	9393
875.237	9416
875.365	9488
875.494	9644
875.623	9861
875.751	9892
875.88	9991
876.008	10147
876.136	10272
876.265	10523
876.393	10714
876.521	10820
876.65	10873
876.778	10847
876.906	10953
877.034	10953
877.162	11060
877.29	11128
877.418	11277
877.546	11383
877.674	11562
877.802	11486
877.93	11615
878.058	11543
878.185	11623
878.313	11604
878.441	11684
878.568	11726
878.696	11817
878.824	11809
878.951	11973
879.079	11988
879.206	12087
879.333	12106
879.461	11999
879.588	12110
879.715	12057
879.842	12110
879.97	12095
880.097	11847
880.224	11942
880.351	11901
880.478	11843
880.605	11878
880.732	11840
880.859	11977
880.986	11752
881.112	11828
881.239	11756
881.366	11672
881.493	11649
881.619	11516
881.746	11551
881.872	11532
881.999	11459
882.125	11539
882.252	11505
882.378	11611
882.505	11608
882.631	11414
882.757	11296
882.883	11364
883.01	11242
883.136	11261
883.262	11151
883.388	11181
883.514	11170
883.64	11185
883.766	11143
883.892	11022
884.018	10965
884.143	11109
884.269	11083
884.395	10896
884.52	10786
884.646	10820
884.772	10694
884.897	10649
885.023	10736
885.148	10679
885.274	10771
885.399	10736
885.524	10698
885.65	10615
885.775	10596
885.9	10481
886.025	10626
886.15	10497
886.275	10436
886.4	10421
886.525	10394
886.65	10402
886.775	10329
886.9	10531
887.025	10485
887.149	10341
887.274	10253
887.399	10268
887.523	10120
887.648	10131
887.773	10029
887.897	10246
888.021	10196
888.146	10173
888.27	10207
888.395	10234
888.519	10246
888.643	10211
888.767	10238
888.891	10074
889.015	10036
889.139	10063
889.263	9964
889.387	10086
889.511	10078
889.635	9975
889.759	9998
889.883	10055
890.006	10006
890.13	10131
890.254	9918
890.377	9956
890.501	9869
890.624	9857
890.748	9975
890.871	9800
890.995	9755
891.118	9690
891.241	9793
891.364	9732
891.488	9812
891.611	9755
891.734	9701
891.857	9736
891.98	9728
892.103	9797
892.226	9667
892.349	9713
892.471	9561
892.594	9610
892.717	9625
892.839	9637
892.962	9564
893.085	9618
893.207	9587
893.33	9526
893.452	9580
893.575	9644
893.697	9545
893.819	9625
893.941	9584
894.064	9610
894.186	9462
894.308	9374
894.43	9492
894.552	9599
894.674	9610
894.796	9466
894.918	9447
895.04	9363
895.161	9325
895.283	9351
895.405	9211
895.526	9298
895.648	9226
895.769	9207
895.891	9245
896.012	9351
896.134	9230
896.255	9188
896.376	9131
896.498	9169
896.619	9157
896.74	9093
896.861	9093
896.982	9291
897.103	9272
897.224	9150
897.345	9085
897.466	8982
897.587	9036
897.708	9180
897.828	9112
897.949	8967
898.07	8849
898.19	8933
898.311	8994
898.431	8914
898.552	8941
898.672	9001
898.792	8963
898.913	8906
899.033	8834
899.153	8819
899.273	8674
899.393	8716
899.513	8781
899.633	8758
899.753	8746
899.873	8750
899.993	8792
900.113	8792
900.232	8708
900.352	8648
900.472	8629
900.591	8560
900.711	8602
900.83	8621
900.95	8674
901.069	8746
901.189	8545
901.308	8499
901.427	8427
901.546	8412
901.665	8495
901.784	8507
901.904	8374
902.023	8301
902.141	8271
902.26	8267
902.379	8252
902.498	8187
902.617	8214
902.735	8301
902.854	8324
902.973	8225
903.091	8210
903.21	8142
903.328	8195
903.446	8126
903.565	8088
903.683	8107
903.801	8077
903.919	8126
904.038	8130
904.156	8077
904.274	8092
904.392	7989
904.51	8054
904.627	8020
904.745	8107
904.863	8103
904.981	7974
905.098	7822
905.216	7826
905.334	7944
905.451	7932
905.569	7864
905.686	7921
905.803	7963
905.921	7849
906.038	7928
906.155	7822
906.272	7799
906.389	7753
906.506	7624
906.623	7651
906.74	7628
906.857	7544
906.974	7605
907.091	7734
907.208	7693
907.324	7624
907.441	7472
907.557	7487
907.674	7407
907.79	7369
907.907	7396
908.023	7438
908.139	7472
908.256	7400
908.372	7335
908.488	7362
908.604	7278
908.72	7282
908.836	7278
908.952	7301
909.068	7266
909.184	7312
909.3	7259
909.415	7297
909.531	7270
909.647	7065
909.762	7152
909.878	7076
909.993	7149
910.108	7110
910.224	7057
910.339	7126
910.454	7053
910.57	7046
910.685	6962
910.8	7183
910.915	7129
911.03	7038
911.145	6939
911.259	6928
911.374	6852
911.489	6818
911.604	6852
911.718	6715
911.833	6692
911.947	6620
912.062	6585
912.176	6700
912.291	6741
912.405	6707
912.519	6875
912.633	6863
912.748	6681
912.862	6734
912.976	6612
913.09	6532
913.204	6642
913.318	6612
913.431	6677
913.545	6608
913.659	6738
913.772	6639
913.886	6639
914	6574
914.113	6677
914.226	6669
914.34	6616
914.453	6544
914.566	6646
914.68	6528
914.793	6540
914.906	6437
915.019	6372
915.132	6399
915.245	6464
915.358	6464
915.47	6494
915.583	6464
915.696	6437
915.809	6574
915.921	6589
916.034	6452
916.146	6380
916.259	6353
916.371	6471
916.483	6490
916.595	6376
916.708	6426
916.82	6376
916.932	6407
917.044	6471
917.156	6448
917.268	6399
917.38	6407
917.491	6338
917.603	6369
917.715	6384
917.826	6456
917.938	6319
918.049	6251
918.161	6311
918.272	6422
918.384	6456
918.495	6342
918.606	6285
918.717	6228
918.828	6247
918.939	6285
919.05	6194
919.161	6228
919.272	6152
919.383	6129
919.494	6300
919.604	6448
919.715	6296
919.826	6216
919.936	6270
920.047	6388
920.157	6300
920.267	6517
920.378	6399
920.488	6323
920.598	6517
920.708	6555
920.818	6460
920.928	6483
921.038	6669
921.148	6612
921.258	6388
921.368	6300
921.477	6239
921.587	6213
921.697	6140
921.806	6171
921.916	6144
922.025	5923
922.134	5942
922.244	5939
922.353	5931
922.462	5893
922.571	5851
922.68	5756
922.789	5638
922.898	5665
923.007	5661
923.116	5714
923.224	5695
923.333	5638
923.442	5638
923.55	5551
923.659	5611
923.767	5630
923.876	5535
923.984	5630
924.092	5509
924.201	5581
924.309	5573
924.417	5570
924.525	5535
924.633	5520
924.741	6270
924.849	5368
924.956	5448
925.064	5349
925.172	5326
925.279	5349
925.387	5376
925.494	5288
925.602	5448
925.709	5440
925.816	5296
925.924	5349
926.031	5349
926.138	5315
926.245	5376
926.352	5212
926.459	5296
926.566	5311
926.673	5178
926.779	5178
926.886	5136
926.993	5079
927.099	5018
927.206	5033
927.312	4995
927.419	5025
927.525	5003
927.631	4987
927.737	4873
927.843	4881
927.95	4801
928.056	4847
928.162	4843
928.267	4831
928.373	5277
928.479	4831
928.585	4649
928.69	4782
928.796	4790
928.901	4694
929.007	4592
929.112	4664
929.218	4660
929.323	4611
929.428	4588
929.533	4675
929.638	4535
929.743	4535
929.848	4584
929.953	4573
930.058	4523
930.163	4287
930.267	4314
930.372	4417
930.477	4322
930.581	4516
930.685	4363
930.79	4284
930.894	4257
930.998	4287
931.103	4451
931.207	4169
931.311	4078
931.415	4071
931.519	3987
931.623	3937
