Data from glass_V78500241_2343.txt Node
Date: Wed Sep 01 19:30:44 CST 2021
User: usil
Spectrometer: V785-0024
Trigger mode: 0
Integration Time (sec): 4.000000E-1
Scans to average: 1
Nonlinearity correction enabled: false
Boxcar width: 0
Storing dark spectrum: false
XAxis mode: Wavelengths
Number of Pixels in Spectrum: 1024
>>>>>Begin Spectral Data<<<<<
801.071	3724
801.214	3751
801.356	3728
801.499	3766
801.641	3709
801.783	3793
801.926	3812
802.068	3812
802.211	3869
802.353	3884
802.496	3842
802.638	3842
802.78	3896
802.923	3896
803.065	3835
803.208	3831
803.35	3854
803.492	3892
803.635	3869
803.777	3797
803.919	3876
804.061	4147
804.204	3945
804.346	3926
804.488	3953
804.63	4051
804.773	3953
804.915	4002
805.057	4124
805.199	4029
805.341	4044
805.483	4150
805.626	4109
805.768	4101
805.91	4223
806.052	4242
806.194	4173
806.336	4314
806.478	4242
806.62	4158
806.762	4215
806.904	4227
807.046	4329
807.188	4192
807.33	4173
807.472	4230
807.614	4139
807.756	4253
807.898	4204
808.04	4215
808.182	4325
808.324	4318
808.465	4333
808.607	4451
808.749	4455
808.891	4443
809.033	4504
809.174	4421
809.316	4253
809.458	4234
809.6	4181
809.741	4169
809.883	4078
810.025	4196
810.166	4215
810.308	4188
810.45	4257
810.591	4223
810.733	4246
810.875	4542
811.016	4820
811.158	5143
811.299	5258
811.441	5277
811.582	5029
811.724	4675
811.865	4432
812.007	4470
812.148	4413
812.29	4409
812.431	4390
812.573	4371
812.714	4360
812.855	4390
812.997	4447
813.138	4466
813.279	4447
813.421	4409
813.562	4344
813.703	4318
813.845	4291
813.986	4268
814.127	4234
814.268	4268
814.41	4223
814.551	4261
814.692	4344
814.833	4268
814.974	4299
815.115	4306
815.256	4265
815.397	4204
815.539	4238
815.68	4177
815.821	4200
815.962	4329
816.103	4272
816.244	4177
816.385	4230
816.526	4306
816.666	4230
816.807	4090
816.948	4154
817.089	4192
817.23	4131
817.371	4048
817.512	4048
817.653	4082
817.793	4063
817.934	3983
818.075	4093
818.216	4093
818.356	4082
818.497	3972
818.638	3892
818.778	3972
818.919	3899
819.06	3854
819.2	3911
819.341	3835
819.481	3812
819.622	3903
819.762	4029
819.903	3907
820.043	3850
820.184	3827
820.324	3838
820.465	3884
820.605	3884
820.746	3884
820.886	3789
821.026	3869
821.167	3892
821.307	3975
821.447	3968
821.588	3960
821.728	3903
821.868	3918
822.008	3880
822.149	3918
822.289	3941
822.429	3747
822.569	3778
822.709	3781
822.849	3667
822.99	3732
823.13	3740
823.27	3800
823.41	3709
823.55	3701
823.69	3709
823.83	3762
823.97	3656
824.11	3553
824.25	3580
824.389	3663
824.529	3641
824.669	3648
824.809	3641
824.949	3762
825.089	3720
825.228	3637
825.368	3568
825.508	3576
825.648	3587
825.787	3557
825.927	3618
826.067	3599
826.206	3679
826.346	3766
826.485	3808
826.625	3850
826.765	3930
826.904	3838
827.044	3625
827.183	3538
827.323	3454
827.462	3473
827.601	3424
827.741	3401
827.88	3447
828.02	3382
828.159	3416
828.298	3466
828.437	3526
828.577	3420
828.716	3530
828.855	3454
828.994	3374
829.134	3359
829.273	3359
829.412	3348
829.551	3336
829.69	3329
829.829	3401
829.968	3504
830.107	3409
830.246	3428
830.385	3386
830.524	3321
830.663	3287
830.802	3249
830.941	3169
831.08	3173
831.219	3279
831.357	3291
831.496	3389
831.635	3218
831.774	3180
831.913	3161
832.051	3116
832.19	3112
832.329	3230
832.467	3100
832.606	3074
832.744	3154
832.883	3169
833.022	3230
833.16	3245
833.299	3302
833.437	3325
833.576	3405
833.714	3389
833.852	3428
833.991	3435
834.129	3485
834.267	3412
834.406	3420
834.544	3416
834.682	3359
834.821	3370
834.959	3591
835.097	3428
835.235	3519
835.373	3473
835.511	3477
835.65	3466
835.788	3492
835.926	3382
836.064	3325
836.202	3393
836.34	3618
836.478	3618
836.615	3549
836.753	3599
836.891	3637
837.029	3606
837.167	3568
837.305	3572
837.443	3545
837.58	3477
837.718	3682
837.856	3561
837.993	3523
838.131	3568
838.269	3606
838.406	3599
838.544	3542
838.681	3477
838.819	3435
838.956	3363
839.094	3370
839.231	3439
839.369	3477
839.506	3747
839.643	3629
839.781	3530
839.918	3462
840.055	3545
840.193	3507
840.33	3530
840.467	3572
840.604	3568
840.742	3781
840.879	3538
841.016	3564
841.153	3557
841.29	3774
841.427	3736
841.564	3701
841.701	3732
841.838	3663
841.975	3667
842.112	3728
842.249	3641
842.385	3622
842.522	3831
842.659	3705
842.796	3644
842.933	3701
843.069	3720
843.206	3717
843.343	3793
843.479	3743
843.616	3857
843.752	3648
843.889	3694
844.025	3854
844.162	3701
844.298	3850
844.435	3797
844.571	3751
844.708	3899
844.844	3983
844.98	4032
845.117	4010
845.253	3926
845.389	3873
845.525	3926
845.661	3968
845.798	3896
845.934	3991
846.07	3934
846.206	4067
846.342	4055
846.478	4006
846.614	3956
846.75	3949
846.886	3915
847.022	4013
847.158	3937
847.294	3975
847.429	3998
847.565	3979
847.701	4268
847.837	3884
847.972	3880
848.108	3979
848.244	3960
848.379	3842
848.515	3808
848.65	3808
848.786	3831
848.921	3857
849.057	3926
849.192	3918
849.328	3869
849.463	3899
849.598	3869
849.734	3842
849.869	3808
850.004	3762
850.14	3808
850.275	3785
850.41	3717
850.545	3751
850.68	3751
850.815	3819
850.95	3766
851.085	3941
851.22	3880
851.355	3816
851.49	3831
851.625	3778
851.76	3812
851.895	3705
852.03	3743
852.165	3785
852.299	3850
852.434	3896
852.569	3842
852.703	3880
852.838	3903
852.973	4029
853.107	3991
853.242	3854
853.376	3865
853.511	3762
853.645	3827
853.78	3941
853.914	3899
854.048	3915
854.183	3831
854.317	3896
854.451	4105
854.585	3956
854.72	3915
854.854	4013
854.988	3949
855.122	4032
855.256	3930
855.39	3975
855.524	4044
855.658	4078
855.792	4150
855.926	4116
856.06	4116
856.194	4188
856.327	4124
856.461	4105
856.595	4120
856.729	4215
856.862	4303
856.996	4219
857.13	4265
857.263	4314
857.397	4413
857.53	4272
857.664	4386
857.797	4341
857.931	4383
858.064	4386
858.197	4394
858.331	4402
858.464	4375
858.597	4356
858.731	4436
858.864	4478
858.997	4443
859.13	4558
859.263	4516
859.396	4554
859.529	4459
859.662	4523
859.795	4478
859.928	4588
860.061	4729
860.194	4752
860.327	4706
860.46	4653
860.592	4698
860.725	4740
860.858	4771
860.99	4626
861.123	4683
861.256	4721
861.388	4744
861.521	5208
861.653	4714
861.786	4725
861.918	4702
862.05	4801
862.183	4866
862.315	4877
862.447	4927
862.58	4877
862.712	4786
862.844	4790
862.976	4843
863.108	4908
863.24	5159
863.372	4786
863.504	4904
863.636	4835
863.768	4984
863.9	4980
864.032	4923
864.164	4908
864.296	4995
864.428	5056
864.559	5113
864.691	5121
864.823	5140
864.954	5117
865.086	5105
865.217	5033
865.349	5037
865.48	5109
865.612	5159
865.743	5299
865.875	5201
866.006	5132
866.137	5223
866.269	5223
866.4	5242
866.531	5220
866.662	5216
866.793	5284
866.924	5299
867.055	5368
867.186	5303
867.317	5318
867.448	5303
867.579	5357
867.71	5360
867.841	5326
867.972	5421
868.103	5410
868.233	5448
868.364	5471
868.495	5554
868.625	5619
868.756	5798
868.886	5668
869.017	5752
869.147	5828
869.278	5912
869.408	5836
869.539	5824
869.669	5866
869.799	5828
869.929	5954
870.06	6030
870.19	6213
870.32	6190
870.45	6194
870.58	6334
870.71	6441
870.84	6433
870.97	6448
871.1	6452
871.23	6646
871.36	6700
871.489	6616
871.619	6776
871.749	6783
871.879	6848
872.008	7015
872.138	6939
872.267	7050
872.397	6947
872.526	6947
872.656	7088
872.785	7247
872.915	7362
873.044	7483
873.173	7647
873.303	7647
873.432	7738
873.561	7887
873.69	7909
873.819	8012
873.948	8202
874.077	8267
874.206	8259
874.335	8412
874.464	8670
874.593	8842
874.722	8982
874.851	9188
874.979	9199
875.108	9310
875.237	9428
875.365	9496
875.494	9671
875.623	9789
875.751	9865
875.88	9953
876.008	10124
876.136	10333
876.265	10554
876.393	10717
876.521	10755
876.65	10801
876.778	10858
876.906	10873
877.034	10972
877.162	10968
877.29	11174
877.418	11292
877.546	11353
877.674	11490
877.802	11436
877.93	11471
878.058	11707
878.185	11566
878.313	11688
878.441	11733
878.568	11680
878.696	11707
878.824	11863
878.951	11912
879.079	11999
879.206	12098
879.333	12079
879.461	12030
879.588	12068
879.715	12007
879.842	12129
879.97	12095
880.097	11927
880.224	11874
880.351	11855
880.478	11878
880.605	11847
880.732	11737
880.859	12022
880.986	11764
881.112	11805
881.239	11779
881.366	11627
881.493	11623
881.619	11592
881.746	11646
881.872	11551
881.999	11577
882.125	11455
882.252	11573
882.378	11490
882.505	11516
882.631	11395
882.757	11288
882.883	11376
883.01	11235
883.136	11227
883.262	11090
883.388	11102
883.514	11025
883.64	11128
883.766	11086
883.892	10946
884.018	11006
884.143	11048
884.269	11132
884.395	10812
884.52	10858
884.646	10736
884.772	10714
884.897	10656
885.023	10714
885.148	10755
885.274	10679
885.399	10649
885.524	10645
885.65	10577
885.775	10584
885.9	10523
886.025	10630
886.15	10546
886.275	10466
886.4	10367
886.525	10409
886.65	10352
886.775	10344
886.9	10481
887.025	10451
887.149	10337
887.274	10211
887.399	10242
887.523	10162
887.648	10139
887.773	10128
887.897	10265
888.021	10173
888.146	10109
888.27	10207
888.395	10211
888.519	10090
888.643	10154
888.767	10257
888.891	10105
889.015	9960
889.139	10044
889.263	10036
889.387	10067
889.511	10097
889.635	10040
889.759	9945
889.883	9991
890.006	9915
890.13	9991
890.254	9922
890.377	9918
890.501	9838
890.624	9934
890.748	9876
890.871	9793
890.995	9755
891.118	9637
891.241	9720
891.364	9755
891.488	9770
891.611	9732
891.734	9755
891.857	9701
891.98	9663
892.103	9816
892.226	9724
892.349	9603
892.471	9492
892.594	9568
892.717	9580
892.839	9644
892.962	9580
893.085	9618
893.207	9538
893.33	9504
893.452	9488
893.575	9614
893.697	9572
893.819	9720
893.941	9553
894.064	9610
894.186	9469
894.308	9416
894.43	9515
894.552	9595
894.674	9485
894.796	9272
894.918	9351
895.04	9329
895.161	9317
895.283	9317
895.405	9253
895.526	9237
895.648	9184
895.769	9214
895.891	9211
896.012	9279
896.134	9180
896.255	9135
896.376	9104
896.498	9123
896.619	9089
896.74	9089
896.861	9146
896.982	9188
897.103	9226
897.224	9222
897.345	9062
897.466	9009
897.587	9024
897.708	9089
897.828	9020
897.949	8910
898.07	8830
898.19	8918
898.311	8994
898.431	8925
898.552	8899
898.672	8944
898.792	8925
898.913	8982
899.033	8777
899.153	8739
899.273	8667
899.393	8705
899.513	8739
899.633	8777
899.753	8640
899.873	8682
899.993	8655
900.113	8655
900.232	8697
900.352	8590
900.472	8640
900.591	8545
900.711	8552
900.83	8533
900.95	8590
901.069	8693
901.189	8556
901.308	8408
901.427	8343
901.546	8419
901.665	8484
901.784	8526
901.904	8362
902.023	8309
902.141	8153
902.26	8199
902.379	8279
902.498	8157
902.617	8237
902.735	8237
902.854	8267
902.973	8244
903.091	8092
903.21	8161
903.328	8145
903.446	8111
903.565	8035
903.683	8123
903.801	7955
903.919	8092
904.038	8065
904.156	7997
904.274	8065
904.392	7989
904.51	8005
904.627	8039
904.745	8107
904.863	8058
904.981	7902
905.098	7845
905.216	7871
905.334	7864
905.451	7947
905.569	7860
905.686	7883
905.803	7921
905.921	7753
906.038	7875
906.155	7765
906.272	7708
906.389	7712
906.506	7639
906.623	7632
906.74	7605
906.857	7495
906.974	7559
907.091	7685
907.208	7708
907.324	7636
907.441	7552
907.557	7445
907.674	7419
907.79	7426
907.907	7373
908.023	7472
908.139	7415
908.256	7343
908.372	7369
908.488	7369
908.604	7263
908.72	7251
908.836	7206
908.952	7266
909.068	7228
909.184	7362
909.3	7263
909.415	7270
909.531	7263
909.647	7046
909.762	7053
909.878	7046
909.993	7126
910.108	7050
910.224	7141
910.339	7080
910.454	7034
910.57	7050
910.685	6916
910.8	7107
910.915	7027
911.03	6996
911.145	6916
911.259	6856
911.374	6875
911.489	6882
911.604	6764
911.718	6692
911.833	6749
911.947	6635
912.062	6623
912.176	6654
912.291	6749
912.405	6696
912.519	6848
912.633	6779
912.748	6738
912.862	6688
912.976	6536
913.09	6528
913.204	6547
913.318	6639
913.431	6654
913.545	6696
913.659	6749
913.772	6665
913.886	6540
914	6502
914.113	6608
914.226	6623
914.34	6544
914.453	6460
914.566	6597
914.68	6475
914.793	6471
914.906	6395
915.019	6376
915.132	6376
915.245	6403
915.358	6429
915.47	6418
915.583	6502
915.696	6441
915.809	6479
915.921	6544
916.034	6467
916.146	6445
916.259	6376
916.371	6479
916.483	6441
916.595	6403
916.708	6331
916.82	6380
916.932	6346
917.044	6376
917.156	6380
917.268	6281
917.38	6331
917.491	6311
917.603	6315
917.715	6380
917.826	6456
917.938	6289
918.049	6239
918.161	6327
918.272	6437
918.384	6388
918.495	6300
918.606	6251
918.717	6194
918.828	6281
918.939	6243
919.05	6232
919.161	6247
919.272	6057
919.383	6117
919.494	6251
919.604	6464
919.715	6323
919.826	6178
919.936	6235
920.047	6391
920.157	6285
920.267	6410
920.378	6270
920.488	6239
920.598	6441
920.708	6566
920.818	6429
920.928	6460
921.038	6585
921.148	6563
921.258	6331
921.368	6304
921.477	6190
921.587	6228
921.697	6155
921.806	6148
921.916	6068
922.025	5931
922.134	5904
922.244	5908
922.353	5904
922.462	5866
922.571	5745
922.68	5703
922.789	5699
922.898	5680
923.007	5623
923.116	5684
923.224	5680
923.333	5688
923.442	5596
923.55	5505
923.659	5539
923.767	5615
923.876	5509
923.984	5611
924.092	5497
924.201	5585
924.309	5520
924.417	5539
924.525	5486
924.633	5516
924.741	6235
924.849	5410
924.956	5474
925.064	5322
925.172	5269
925.279	5315
925.387	5387
925.494	5311
925.602	5376
925.709	5379
925.816	5258
925.924	5353
926.031	5337
926.138	5322
926.245	5292
926.352	5223
926.459	5280
926.566	5292
926.673	5212
926.779	5132
926.886	5147
926.993	5014
927.099	5025
927.206	4927
927.312	4934
927.419	5045
927.525	4915
927.631	5010
927.737	4923
927.843	4801
927.95	4759
928.056	4793
928.162	4831
928.267	4850
928.373	5368
928.479	4824
928.585	4698
928.69	4763
928.796	4778
928.901	4702
929.007	4538
929.112	4683
929.218	4622
929.323	4565
929.428	4554
929.533	4672
929.638	4500
929.743	4546
929.848	4554
929.953	4535
930.058	4443
930.163	4268
930.267	4348
930.372	4394
930.477	4325
930.581	4493
930.685	4314
930.79	4261
930.894	4272
930.998	4185
931.103	4383
931.207	4116
931.311	4025
931.415	4017
931.519	3922
931.623	3953
