Data from glass_V78500241_333.txt Node
Date: Wed Sep 01 19:16:48 CST 2021
User: usil
Spectrometer: V785-0024
Trigger mode: 0
Integration Time (sec): 4.000000E-1
Scans to average: 1
Nonlinearity correction enabled: false
Boxcar width: 0
Storing dark spectrum: false
XAxis mode: Wavelengths
Number of Pixels in Spectrum: 1024
>>>>>Begin Spectral Data<<<<<
801.071	3759
801.214	3770
801.356	3724
801.499	3747
801.641	3770
801.783	3819
801.926	3861
802.068	3865
802.211	3896
802.353	3930
802.496	3880
802.638	3899
802.78	3960
802.923	3941
803.065	3915
803.208	3903
803.35	3903
803.492	3911
803.635	3907
803.777	3823
803.919	3930
804.061	4200
804.204	3956
804.346	3964
804.488	3960
804.63	4036
804.773	3964
804.915	4044
805.057	4147
805.199	4063
805.341	4116
805.483	4162
805.626	4112
805.768	4105
805.91	4204
806.052	4261
806.194	4196
806.336	4341
806.478	4249
806.62	4188
806.762	4177
806.904	4272
807.046	4333
807.188	4234
807.33	4173
807.472	4257
807.614	4207
807.756	4261
807.898	4265
808.04	4204
808.182	4272
808.324	4341
808.465	4371
808.607	4443
808.749	4443
808.891	4455
809.033	4535
809.174	4417
809.316	4284
809.458	4287
809.6	4166
809.741	4200
809.883	4169
810.025	4188
810.166	4246
810.308	4230
810.45	4234
810.591	4238
810.733	4280
810.875	4546
811.016	4820
811.158	5201
811.299	5299
811.441	5284
811.582	5064
811.724	4729
811.865	4470
812.007	4485
812.148	4466
812.29	4436
812.431	4417
812.573	4402
812.714	4394
812.855	4424
812.997	4432
813.138	4493
813.279	4424
813.421	4367
813.562	4379
813.703	4352
813.845	4333
813.986	4268
814.127	4188
814.268	4310
814.41	4363
814.551	4280
814.692	4360
814.833	4268
814.974	4314
815.115	4390
815.256	4280
815.397	4261
815.539	4246
815.68	4215
815.821	4200
815.962	4322
816.103	4333
816.244	4272
816.385	4227
816.526	4314
816.666	4246
816.807	4154
816.948	4238
817.089	4204
817.23	4128
817.371	4040
817.512	4090
817.653	4063
817.793	4082
817.934	4074
818.075	4101
818.216	4143
818.356	4105
818.497	3991
818.638	3937
818.778	3918
818.919	3926
819.06	3880
819.2	3915
819.341	3899
819.481	3873
819.622	3888
819.762	3994
819.903	3975
820.043	3842
820.184	3854
820.324	3846
820.465	3915
820.605	3918
820.746	3861
820.886	3823
821.026	3937
821.167	3953
821.307	4002
821.447	4025
821.588	3953
821.728	3975
821.868	3972
822.008	3899
822.149	3934
822.289	3945
822.429	3778
822.569	3842
822.709	3812
822.849	3724
822.99	3778
823.13	3808
823.27	3762
823.41	3755
823.55	3720
823.69	3698
823.83	3751
823.97	3686
824.11	3606
824.25	3599
824.389	3652
824.529	3682
824.669	3652
824.809	3724
824.949	3762
825.089	3770
825.228	3728
825.368	3656
825.508	3561
825.648	3572
825.787	3641
825.927	3652
826.067	3663
826.206	3679
826.346	3785
826.485	3892
826.625	3892
826.765	3949
826.904	3816
827.044	3625
827.183	3572
827.323	3428
827.462	3496
827.601	3401
827.741	3443
827.88	3488
828.02	3428
828.159	3443
828.298	3488
828.437	3564
828.577	3481
828.716	3610
828.855	3477
828.994	3370
829.134	3351
829.273	3393
829.412	3348
829.551	3363
829.69	3401
829.829	3485
829.968	3492
830.107	3504
830.246	3469
830.385	3416
830.524	3382
830.663	3325
830.802	3294
830.941	3192
831.08	3207
831.219	3279
831.357	3283
831.496	3367
831.635	3245
831.774	3218
831.913	3180
832.051	3138
832.19	3135
832.329	3233
832.467	3146
832.606	3104
832.744	3184
832.883	3192
833.022	3233
833.16	3302
833.299	3321
833.437	3370
833.576	3367
833.714	3469
833.852	3507
833.991	3435
834.129	3473
834.267	3458
834.406	3397
834.544	3409
834.682	3466
834.821	3462
834.959	3587
835.097	3447
835.235	3553
835.373	3507
835.511	3492
835.65	3466
835.788	3519
835.926	3405
836.064	3401
836.202	3382
836.34	3584
836.478	3606
836.615	3538
836.753	3644
836.891	3663
837.029	3614
837.167	3603
837.305	3534
837.443	3568
837.58	3515
837.718	3587
837.856	3561
837.993	3568
838.131	3599
838.269	3591
838.406	3591
838.544	3614
838.681	3496
838.819	3488
838.956	3367
839.094	3397
839.231	3443
839.369	3545
839.506	3762
839.643	3637
839.781	3500
839.918	3466
840.055	3587
840.193	3526
840.33	3591
840.467	3610
840.604	3614
840.742	3804
840.879	3549
841.016	3561
841.153	3610
841.29	3751
841.427	3740
841.564	3732
841.701	3728
841.838	3759
841.975	3656
842.112	3736
842.249	3663
842.385	3644
842.522	3831
842.659	3717
842.796	3679
842.933	3740
843.069	3728
843.206	3705
843.343	3819
843.479	3785
843.616	3857
843.752	3675
843.889	3698
844.025	3876
844.162	3728
844.298	3838
844.435	3793
844.571	3781
844.708	3892
844.844	3975
844.98	4051
845.117	4017
845.253	3941
845.389	3953
845.525	3983
845.661	3991
845.798	3956
845.934	4002
846.07	3994
846.206	4063
846.342	4109
846.478	4131
846.614	4010
846.75	3968
846.886	3953
847.022	4078
847.158	4002
847.294	4021
847.429	4013
847.565	4017
847.701	4234
847.837	3896
847.972	3812
848.108	3968
848.244	3979
848.379	3842
848.515	3873
848.65	3789
848.786	3850
848.921	3876
849.057	3968
849.192	3918
849.328	3911
849.463	3918
849.598	3869
849.734	3873
849.869	3842
850.004	3797
850.14	3819
850.275	3804
850.41	3762
850.545	3759
850.68	3793
850.815	3819
850.95	3789
851.085	3960
851.22	3865
851.355	3873
851.49	3812
851.625	3785
851.76	3823
851.895	3770
852.03	3728
852.165	3781
852.299	3869
852.434	3937
852.569	3896
852.703	3876
852.838	3915
852.973	3998
853.107	4021
853.242	3880
853.376	3880
853.511	3789
853.645	3861
853.78	3994
853.914	3937
854.048	3945
854.183	3892
854.317	3975
854.451	4040
854.585	3960
854.72	3953
854.854	4101
854.988	3972
855.122	4010
855.256	3918
855.39	3979
855.524	4135
855.658	4097
855.792	4101
855.926	4135
856.06	4173
856.194	4177
856.327	4128
856.461	4147
856.595	4116
856.729	4181
856.862	4318
856.996	4284
857.13	4276
857.263	4337
857.397	4402
857.53	4299
857.664	4379
857.797	4344
857.931	4417
858.064	4386
858.197	4440
858.331	4379
858.464	4421
858.597	4314
858.731	4466
858.864	4447
858.997	4462
859.13	4527
859.263	4542
859.396	4634
859.529	4596
859.662	4603
859.795	4542
859.928	4626
860.061	4736
860.194	4736
860.327	4702
860.46	4675
860.592	4721
860.725	4771
860.858	4809
860.99	4706
861.123	4702
861.256	4740
861.388	4767
861.521	5341
861.653	4759
861.786	4714
861.918	4721
862.05	4854
862.183	4797
862.315	4900
862.447	4908
862.58	4892
862.712	4748
862.844	4782
862.976	4873
863.108	4835
863.24	5261
863.372	4820
863.504	4915
863.636	4915
863.768	5033
863.9	4965
864.032	4896
864.164	4976
864.296	5010
864.428	5071
864.559	5117
864.691	5132
864.823	5128
864.954	5105
865.086	5174
865.217	5147
865.349	5109
865.48	5178
865.612	5162
865.743	5337
865.875	5193
866.006	5170
866.137	5235
866.269	5269
866.4	5277
866.531	5220
866.662	5284
866.793	5250
866.924	5273
867.055	5357
867.186	5353
867.317	5425
867.448	5334
867.579	5395
867.71	5372
867.841	5406
867.972	5444
868.103	5478
868.233	5452
868.364	5573
868.495	5573
868.625	5703
868.756	5760
868.886	5718
869.017	5703
869.147	5870
869.278	5866
869.408	5912
869.539	5897
869.669	5961
869.799	5885
869.929	5992
870.06	5980
870.19	6209
870.32	6178
870.45	6239
870.58	6372
870.71	6418
870.84	6479
870.97	6418
871.1	6460
871.23	6715
871.36	6738
871.489	6677
871.619	6658
871.749	6848
871.879	6863
872.008	6973
872.138	7000
872.267	6996
872.397	7050
872.526	7126
872.656	7145
872.785	7221
872.915	7407
873.044	7525
873.173	7499
873.303	7636
873.432	7788
873.561	7887
873.69	7856
873.819	8069
873.948	8172
874.077	8202
874.206	8393
874.335	8427
874.464	8693
874.593	8918
874.722	8918
874.851	9165
874.979	9287
875.108	9443
875.237	9492
875.365	9496
875.494	9625
875.623	9808
875.751	9873
875.88	10040
876.008	10143
876.136	10265
876.265	10512
876.393	10736
876.521	10694
876.65	10748
876.778	10953
876.906	10839
877.034	10946
877.162	11105
877.29	11166
877.418	11254
877.546	11402
877.674	11505
877.802	11433
877.93	11535
878.058	11566
878.185	11524
878.313	11657
878.441	11783
878.568	11665
878.696	11764
878.824	11821
878.951	11992
879.079	11984
879.206	12098
879.333	11954
879.461	12068
879.588	12034
879.715	12015
879.842	12171
879.97	11996
880.097	11882
880.224	11870
880.351	11863
880.478	11912
880.605	11821
880.732	11935
880.859	12076
880.986	11836
881.112	11916
881.239	11729
881.366	11657
881.493	11646
881.619	11539
881.746	11600
881.872	11566
881.999	11535
882.125	11429
882.252	11581
882.378	11592
882.505	11558
882.631	11383
882.757	11311
882.883	11296
883.01	11273
883.136	11197
883.262	11140
883.388	11003
883.514	11162
883.64	11185
883.766	11155
883.892	11018
884.018	11041
884.143	11064
884.269	11079
884.395	10892
884.52	10801
884.646	10767
884.772	10664
884.897	10755
885.023	10675
885.148	10752
885.274	10759
885.399	10744
885.524	10630
885.65	10558
885.775	10584
885.9	10596
886.025	10622
886.15	10538
886.275	10451
886.4	10367
886.525	10436
886.65	10470
886.775	10306
886.9	10409
887.025	10493
887.149	10310
887.274	10200
887.399	10196
887.523	10147
887.648	10143
887.773	10154
887.897	10227
888.021	10181
888.146	10131
888.27	10200
888.395	10192
888.519	10227
888.643	10150
888.767	10204
888.891	10044
889.015	10025
889.139	10093
889.263	9953
889.387	10078
889.511	10154
889.635	10147
889.759	10032
889.883	9968
890.006	10074
890.13	10097
890.254	9926
890.377	9956
890.501	9876
890.624	9903
890.748	9854
890.871	9804
890.995	9778
891.118	9740
891.241	9850
891.364	9679
891.488	9838
891.611	9781
891.734	9770
891.857	9713
891.98	9740
892.103	9743
892.226	9778
892.349	9671
892.471	9545
892.594	9618
892.717	9698
892.839	9622
892.962	9629
893.085	9652
893.207	9580
893.33	9504
893.452	9633
893.575	9572
893.697	9523
893.819	9644
893.941	9572
894.064	9637
894.186	9450
894.308	9435
894.43	9545
894.552	9564
894.674	9519
894.796	9393
894.918	9374
895.04	9363
895.161	9393
895.283	9302
895.405	9253
895.526	9321
895.648	9268
895.769	9294
895.891	9264
896.012	9283
896.134	9264
896.255	9161
896.376	9157
896.498	9157
896.619	9157
896.74	9180
896.861	9085
896.982	9253
897.103	9291
897.224	9157
897.345	9104
897.466	9005
897.587	8990
897.708	9108
897.828	9055
897.949	9032
898.07	8861
898.19	8914
898.311	9024
898.431	8887
898.552	8956
898.672	8998
898.792	8937
898.913	8891
899.033	8800
899.153	8739
899.273	8621
899.393	8678
899.513	8754
899.633	8819
899.753	8735
899.873	8750
899.993	8781
900.113	8670
900.232	8727
900.352	8701
900.472	8625
900.591	8549
900.711	8594
900.83	8564
900.95	8636
901.069	8682
901.189	8556
901.308	8446
901.427	8412
901.546	8374
901.665	8446
901.784	8511
901.904	8370
902.023	8317
902.141	8271
902.26	8206
902.379	8210
902.498	8195
902.617	8183
902.735	8309
902.854	8263
902.973	8298
903.091	8107
903.21	8172
903.328	8191
903.446	8149
903.565	8088
903.683	8153
903.801	8126
903.919	8149
904.038	8153
904.156	8088
904.274	8073
904.392	8027
904.51	8054
904.627	8031
904.745	8069
904.863	8107
904.981	7944
905.098	7921
905.216	7909
905.334	7947
905.451	7909
905.569	7890
905.686	7963
905.803	7955
905.921	7776
906.038	7841
906.155	7780
906.272	7753
906.389	7723
906.506	7643
906.623	7689
906.74	7586
906.857	7628
906.974	7632
907.091	7681
907.208	7677
907.324	7582
907.441	7616
907.557	7460
907.674	7441
907.79	7373
907.907	7495
908.023	7468
908.139	7472
908.256	7415
908.372	7377
908.488	7422
908.604	7350
908.72	7274
908.836	7259
908.952	7217
909.068	7278
909.184	7289
909.3	7221
909.415	7274
909.531	7327
909.647	7190
909.762	7156
909.878	7042
909.993	7213
910.108	7046
910.224	7118
910.339	7110
910.454	7114
910.57	6970
910.685	6958
910.8	7183
910.915	7133
911.03	6985
911.145	6909
911.259	6848
911.374	6871
911.489	6814
911.604	6909
911.718	6726
911.833	6692
911.947	6642
912.062	6616
912.176	6772
912.291	6749
912.405	6734
912.519	6795
912.633	6928
912.748	6745
912.862	6749
912.976	6604
913.09	6540
913.204	6612
913.318	6631
913.431	6745
913.545	6673
913.659	6734
913.772	6627
913.886	6563
914	6544
914.113	6616
914.226	6578
914.34	6608
914.453	6513
914.566	6597
914.68	6532
914.793	6555
914.906	6410
915.019	6426
915.132	6407
915.245	6433
915.358	6437
915.47	6464
915.583	6441
915.696	6506
915.809	6578
915.921	6528
916.034	6479
916.146	6414
916.259	6350
916.371	6502
916.483	6445
916.595	6342
916.708	6441
916.82	6391
916.932	6414
917.044	6429
917.156	6361
917.268	6304
917.38	6357
917.491	6346
917.603	6418
917.715	6395
917.826	6422
917.938	6319
918.049	6289
918.161	6384
918.272	6445
918.384	6407
918.495	6346
918.606	6270
918.717	6251
918.828	6213
918.939	6323
919.05	6254
919.161	6270
919.272	6175
919.383	6167
919.494	6315
919.604	6445
919.715	6327
919.826	6209
919.936	6334
920.047	6380
920.157	6289
920.267	6456
920.378	6277
920.488	6346
920.598	6448
920.708	6620
920.818	6471
920.928	6441
921.038	6585
921.148	6608
921.258	6388
921.368	6273
921.477	6270
921.587	6178
921.697	6053
921.806	6228
921.916	6095
922.025	5988
922.134	5935
922.244	5870
922.353	5965
922.462	5844
922.571	5786
922.68	5741
922.789	5756
922.898	5741
923.007	5627
923.116	5764
923.224	5672
923.333	5718
923.442	5585
923.55	5577
923.659	5558
923.767	5703
923.876	5581
923.984	5630
924.092	5505
924.201	5581
924.309	5573
924.417	5516
924.525	5474
924.633	5532
924.741	6273
924.849	5357
924.956	5543
925.064	5372
925.172	5315
925.279	5318
925.387	5379
925.494	5349
925.602	5452
925.709	5402
925.816	5296
925.924	5357
926.031	5299
926.138	5349
926.245	5337
926.352	5227
926.459	5364
926.566	5334
926.673	5212
926.779	5189
926.886	5121
926.993	5094
927.099	5045
927.206	5010
927.312	4957
927.419	5048
927.525	4980
927.631	4999
927.737	4885
927.843	4877
927.95	4797
928.056	4801
928.162	4877
928.267	4858
928.373	5311
928.479	4885
928.585	4694
928.69	4778
928.796	4759
928.901	4710
929.007	4675
929.112	4672
929.218	4641
929.323	4611
929.428	4592
929.533	4698
929.638	4561
929.743	4558
929.848	4542
929.953	4569
930.058	4485
930.163	4341
930.267	4341
930.372	4356
930.477	4329
930.581	4474
930.685	4348
930.79	4306
930.894	4287
930.998	4230
931.103	4417
931.207	4154
931.311	4067
931.415	4067
931.519	3945
931.623	3922
