Data from glass_V78500241_2879.txt Node
Date: Wed Sep 01 19:34:27 CST 2021
User: usil
Spectrometer: V785-0024
Trigger mode: 0
Integration Time (sec): 4.000000E-1
Scans to average: 1
Nonlinearity correction enabled: false
Boxcar width: 0
Storing dark spectrum: false
XAxis mode: Wavelengths
Number of Pixels in Spectrum: 1024
>>>>>Begin Spectral Data<<<<<
801.071	3682
801.214	3701
801.356	3671
801.499	3728
801.641	3705
801.783	3717
801.926	3838
802.068	3797
802.211	3850
802.353	3850
802.496	3838
802.638	3861
802.78	3934
802.923	3941
803.065	3823
803.208	3800
803.35	3854
803.492	3884
803.635	3850
803.777	3781
803.919	3850
804.061	4143
804.204	3911
804.346	3945
804.488	3873
804.63	4010
804.773	3953
804.915	3979
805.057	4150
805.199	4029
805.341	4051
805.483	4093
805.626	4124
805.768	4059
805.91	4246
806.052	4219
806.194	4196
806.336	4348
806.478	4158
806.62	4143
806.762	4185
806.904	4223
807.046	4352
807.188	4207
807.33	4143
807.472	4192
807.614	4177
807.756	4268
807.898	4200
808.04	4192
808.182	4253
808.324	4329
808.465	4413
808.607	4489
808.749	4466
808.891	4497
809.033	4459
809.174	4383
809.316	4272
809.458	4185
809.6	4105
809.741	4120
809.883	4131
810.025	4185
810.166	4185
810.308	4200
810.45	4227
810.591	4215
810.733	4287
810.875	4489
811.016	4809
811.158	5086
811.299	5189
811.441	5250
811.582	5075
811.724	4694
811.865	4462
812.007	4459
812.148	4371
812.29	4367
812.431	4383
812.573	4409
812.714	4344
812.855	4383
812.997	4390
813.138	4413
813.279	4363
813.421	4360
813.562	4337
813.703	4284
813.845	4310
813.986	4272
814.127	4215
814.268	4253
814.41	4276
814.551	4276
814.692	4341
814.833	4276
814.974	4280
815.115	4306
815.256	4207
815.397	4188
815.539	4227
815.68	4196
815.821	4188
815.962	4276
816.103	4280
816.244	4249
816.385	4257
816.526	4242
816.666	4128
816.807	4025
816.948	4177
817.089	4162
817.23	4082
817.371	4051
817.512	4032
817.653	4048
817.793	3979
817.934	3968
818.075	4048
818.216	4002
818.356	4025
818.497	3934
818.638	3899
818.778	3922
818.919	3865
819.06	3854
819.2	3857
819.341	3835
819.481	3873
819.622	3873
819.762	4010
819.903	3915
820.043	3819
820.184	3819
820.324	3785
820.465	3857
820.605	3827
820.746	3857
820.886	3770
821.026	3915
821.167	3873
821.307	3937
821.447	3968
821.588	3911
821.728	3930
821.868	3926
822.008	3854
822.149	3896
822.289	3842
822.429	3800
822.569	3778
822.709	3827
822.849	3690
822.99	3701
823.13	3770
823.27	3781
823.41	3732
823.55	3667
823.69	3705
823.83	3682
823.97	3656
824.11	3564
824.25	3584
824.389	3618
824.529	3648
824.669	3587
824.809	3705
824.949	3709
825.089	3724
825.228	3660
825.368	3572
825.508	3542
825.648	3576
825.787	3587
825.927	3561
826.067	3549
826.206	3637
826.346	3759
826.485	3819
826.625	3838
826.765	3949
826.904	3816
827.044	3625
827.183	3488
827.323	3428
827.462	3462
827.601	3386
827.741	3420
827.88	3428
828.02	3389
828.159	3382
828.298	3496
828.437	3504
828.577	3439
828.716	3572
828.855	3481
828.994	3386
829.134	3378
829.273	3355
829.412	3310
829.551	3332
829.69	3367
829.829	3405
829.968	3473
830.107	3389
830.246	3393
830.385	3355
830.524	3332
830.663	3294
830.802	3226
830.941	3203
831.08	3173
831.219	3222
831.357	3218
831.496	3401
831.635	3169
831.774	3180
831.913	3184
832.051	3154
832.19	3131
832.329	3154
832.467	3093
832.606	3070
832.744	3150
832.883	3192
833.022	3180
833.16	3214
833.299	3268
833.437	3294
833.576	3355
833.714	3389
833.852	3389
833.991	3431
834.129	3477
834.267	3412
834.406	3374
834.544	3428
834.682	3386
834.821	3397
834.959	3534
835.097	3386
835.235	3500
835.373	3450
835.511	3523
835.65	3458
835.788	3454
835.926	3409
836.064	3363
836.202	3405
836.34	3561
836.478	3572
836.615	3507
836.753	3595
836.891	3622
837.029	3580
837.167	3580
837.305	3561
837.443	3507
837.58	3500
837.718	3614
837.856	3587
837.993	3530
838.131	3568
838.269	3572
838.406	3568
838.544	3576
838.681	3424
838.819	3401
838.956	3359
839.094	3401
839.231	3428
839.369	3511
839.506	3717
839.643	3595
839.781	3481
839.918	3443
840.055	3530
840.193	3492
840.33	3523
840.467	3568
840.604	3603
840.742	3781
840.879	3538
841.016	3526
841.153	3561
841.29	3724
841.427	3667
841.564	3667
841.701	3675
841.838	3709
841.975	3622
842.112	3701
842.249	3633
842.385	3618
842.522	3789
842.659	3679
842.796	3663
842.933	3698
843.069	3724
843.206	3671
843.343	3785
843.479	3770
843.616	3816
843.752	3667
843.889	3686
844.025	3819
844.162	3705
844.298	3797
844.435	3751
844.571	3747
844.708	3903
844.844	3975
844.98	3953
845.117	4006
845.253	3884
845.389	3880
845.525	3949
845.661	3937
845.798	3892
845.934	3998
846.07	3915
846.206	3994
846.342	4090
846.478	4044
846.614	3956
846.75	3922
846.886	3857
847.022	3994
847.158	3956
847.294	3941
847.429	3983
847.565	4006
847.701	4188
847.837	3831
847.972	3854
848.108	3956
848.244	3884
848.379	3857
848.515	3781
848.65	3800
848.786	3793
848.921	3854
849.057	3934
849.192	3903
849.328	3846
849.463	3903
849.598	3846
849.734	3842
849.869	3804
850.004	3774
850.14	3778
850.275	3785
850.41	3732
850.545	3732
850.68	3751
850.815	3751
850.95	3778
851.085	3937
851.22	3838
851.355	3823
851.49	3736
851.625	3797
851.76	3778
851.895	3743
852.03	3660
852.165	3762
852.299	3823
852.434	3888
852.569	3827
852.703	3838
852.838	3884
852.973	3968
853.107	3991
853.242	3869
853.376	3800
853.511	3774
853.645	3812
853.78	3930
853.914	3903
854.048	3903
854.183	3838
854.317	3903
854.451	4040
854.585	3941
854.72	3899
854.854	4036
854.988	3922
855.122	3945
855.256	3911
855.39	4021
855.524	4032
855.658	4044
855.792	4090
855.926	4090
856.06	4173
856.194	4169
856.327	4147
856.461	4090
856.595	4154
856.729	4150
856.862	4280
856.996	4230
857.13	4242
857.263	4348
857.397	4367
857.53	4234
857.664	4284
857.797	4348
857.931	4375
858.064	4402
858.197	4386
858.331	4360
858.464	4291
858.597	4379
858.731	4440
858.864	4413
858.997	4428
859.13	4474
859.263	4542
859.396	4569
859.529	4504
859.662	4531
859.795	4447
859.928	4599
860.061	4664
860.194	4782
860.327	4660
860.46	4653
860.592	4664
860.725	4714
860.858	4767
860.99	4717
861.123	4698
861.256	4698
861.388	4782
861.521	5372
861.653	4721
861.786	4702
861.918	4729
862.05	4797
862.183	4801
862.315	4854
862.447	4881
862.58	4847
862.712	4831
862.844	4725
862.976	4805
863.108	4881
863.24	5185
863.372	4782
863.504	4847
863.636	4915
863.768	4930
863.9	4877
864.032	4843
864.164	4930
864.296	5025
864.428	5117
864.559	5067
864.691	5109
864.823	5094
864.954	5086
865.086	5060
865.217	5094
865.349	5079
865.48	5185
865.612	5159
865.743	5208
865.875	5197
866.006	5155
866.137	5242
866.269	5162
866.4	5242
866.531	5197
866.662	5162
866.793	5254
866.924	5269
867.055	5284
867.186	5318
867.317	5315
867.448	5311
867.579	5410
867.71	5345
867.841	5357
867.972	5425
868.103	5436
868.233	5444
868.364	5421
868.495	5543
868.625	5657
868.756	5726
868.886	5642
869.017	5665
869.147	5809
869.278	5874
869.408	5798
869.539	5760
869.669	5866
869.799	5885
869.929	5939
870.06	5984
870.19	6083
870.32	6106
870.45	6205
870.58	6342
870.71	6395
870.84	6422
870.97	6315
871.1	6456
871.23	6616
871.36	6673
871.489	6639
871.619	6738
871.749	6810
871.879	6859
872.008	6913
872.138	6894
872.267	6947
872.397	6958
872.526	7034
872.656	7061
872.785	7221
872.915	7384
873.044	7510
873.173	7578
873.303	7605
873.432	7708
873.561	7860
873.69	7875
873.819	7944
873.948	8161
874.077	8210
874.206	8256
874.335	8412
874.464	8632
874.593	8811
874.722	8994
874.851	9222
874.979	9188
875.108	9405
875.237	9466
875.365	9492
875.494	9667
875.623	9766
875.751	9823
875.88	9968
876.008	10139
876.136	10230
876.265	10493
876.393	10626
876.521	10755
876.65	10721
876.778	10828
876.906	10843
877.034	10968
877.162	11071
877.29	11162
877.418	11246
877.546	11360
877.674	11421
877.802	11455
877.93	11512
878.058	11520
878.185	11532
878.313	11695
878.441	11661
878.568	11714
878.696	11729
878.824	11874
878.951	11897
879.079	11916
879.206	12144
879.333	12106
879.461	11969
879.588	12136
879.715	12038
879.842	12171
879.97	11999
880.097	11847
880.224	11794
880.351	11863
880.478	11950
880.605	11786
880.732	11843
880.859	11973
880.986	11779
881.112	11779
881.239	11676
881.366	11688
881.493	11615
881.619	11543
881.746	11589
881.872	11493
881.999	11493
882.125	11528
882.252	11596
882.378	11463
882.505	11486
882.631	11410
882.757	11258
882.883	11277
883.01	11235
883.136	11189
883.262	11143
883.388	11052
883.514	11121
883.64	11201
883.766	11067
883.892	10968
884.018	10957
884.143	11052
884.269	11086
884.395	10801
884.52	10733
884.646	10759
884.772	10672
884.897	10611
885.023	10691
885.148	10698
885.274	10774
885.399	10588
885.524	10577
885.65	10516
885.775	10584
885.9	10440
886.025	10596
886.15	10432
886.275	10417
886.4	10360
886.525	10394
886.65	10428
886.775	10333
886.9	10390
887.025	10459
887.149	10318
887.274	10192
887.399	10223
887.523	10120
887.648	10074
887.773	10074
887.897	10211
888.021	10166
888.146	10120
888.27	10181
888.395	10177
888.519	10135
888.643	10173
888.767	10105
888.891	10025
889.015	10036
889.139	10029
889.263	9953
889.387	10051
889.511	10071
889.635	10029
889.759	9930
889.883	9972
890.006	9968
890.13	10135
890.254	9937
890.377	9907
890.501	9861
890.624	9842
890.748	9880
890.871	9747
890.995	9686
891.118	9736
891.241	9686
891.364	9732
891.488	9804
891.611	9724
891.734	9751
891.857	9778
891.98	9732
892.103	9720
892.226	9698
892.349	9622
892.471	9496
892.594	9523
892.717	9618
892.839	9610
892.962	9599
893.085	9580
893.207	9511
893.33	9466
893.452	9469
893.575	9557
893.697	9523
893.819	9603
893.941	9663
894.064	9564
894.186	9401
894.308	9416
894.43	9515
894.552	9481
894.674	9485
894.796	9317
894.918	9397
895.04	9340
895.161	9317
895.283	9340
895.405	9192
895.526	9256
895.648	9161
895.769	9207
895.891	9165
896.012	9253
896.134	9161
896.255	9135
896.376	9058
896.498	9157
896.619	9150
896.74	9020
896.861	9020
896.982	9218
897.103	9249
897.224	9089
897.345	9043
897.466	8982
897.587	8967
897.708	9070
897.828	8960
897.949	8864
898.07	8864
898.19	8864
898.311	8960
898.431	8891
898.552	8868
898.672	8880
898.792	8857
898.913	8887
899.033	8861
899.153	8762
899.273	8625
899.393	8697
899.513	8724
899.633	8697
899.753	8708
899.873	8750
899.993	8716
900.113	8712
900.232	8651
900.352	8583
900.472	8587
900.591	8495
900.711	8598
900.83	8495
900.95	8583
901.069	8689
901.189	8518
901.308	8415
901.427	8396
901.546	8377
901.665	8480
901.784	8408
901.904	8393
902.023	8290
902.141	8183
902.26	8130
902.379	8301
902.498	8145
902.617	8210
902.735	8267
902.854	8191
902.973	8218
903.091	8046
903.21	8134
903.328	8172
903.446	8069
903.565	8001
903.683	8073
903.801	8050
903.919	8065
904.038	8062
904.156	8027
904.274	8012
904.392	7967
904.51	7963
904.627	8054
904.745	8145
904.863	8077
904.981	7856
905.098	7845
905.216	7845
905.334	7849
905.451	7887
905.569	7841
905.686	7875
905.803	7837
905.921	7734
906.038	7826
906.155	7803
906.272	7674
906.389	7666
906.506	7632
906.623	7632
906.74	7514
906.857	7548
906.974	7567
907.091	7636
907.208	7620
907.324	7639
907.441	7525
907.557	7411
907.674	7426
907.79	7350
907.907	7400
908.023	7426
908.139	7388
908.256	7316
908.372	7316
908.488	7343
908.604	7206
908.72	7183
908.836	7225
908.952	7213
909.068	7164
909.184	7320
909.3	7221
909.415	7244
909.531	7255
909.647	7061
909.762	7107
909.878	7080
909.993	7164
910.108	7046
910.224	7084
910.339	7084
910.454	7042
910.57	6993
910.685	6932
910.8	7103
910.915	7069
911.03	6939
911.145	6890
911.259	6859
911.374	6890
911.489	6833
911.604	6833
911.718	6688
911.833	6707
911.947	6635
912.062	6604
912.176	6658
912.291	6688
912.405	6631
912.519	6779
912.633	6806
912.748	6715
912.862	6719
912.976	6597
913.09	6483
913.204	6604
913.318	6585
913.431	6616
913.545	6650
913.659	6677
913.772	6570
913.886	6555
914	6517
914.113	6585
914.226	6582
914.34	6540
914.453	6467
914.566	6528
914.68	6509
914.793	6502
914.906	6388
915.019	6395
915.132	6331
915.245	6403
915.358	6391
915.47	6384
915.583	6437
915.696	6403
915.809	6536
915.921	6551
916.034	6407
916.146	6353
916.259	6399
916.371	6445
916.483	6490
916.595	6369
916.708	6395
916.82	6353
916.932	6300
917.044	6346
917.156	6327
917.268	6311
917.38	6304
917.491	6266
917.603	6334
917.715	6365
917.826	6448
917.938	6285
918.049	6254
918.161	6262
918.272	6357
918.384	6372
918.495	6334
918.606	6228
918.717	6190
918.828	6262
918.939	6201
919.05	6178
919.161	6232
919.272	6091
919.383	6163
919.494	6266
919.604	6331
919.715	6239
919.826	6155
919.936	6262
920.047	6304
920.157	6296
920.267	6475
920.378	6273
920.488	6270
920.598	6433
920.708	6521
920.818	6429
920.928	6445
921.038	6589
921.148	6555
921.258	6376
921.368	6281
921.477	6205
921.587	6159
921.697	6068
921.806	6144
921.916	6064
922.025	5927
922.134	5840
922.244	5855
922.353	5889
922.462	5794
922.571	5760
922.68	5676
922.789	5623
922.898	5722
923.007	5627
923.116	5676
923.224	5688
923.333	5634
923.442	5547
923.55	5577
923.659	5577
923.767	5623
923.876	5532
923.984	5608
924.092	5490
924.201	5547
924.309	5573
924.417	5539
924.525	5501
924.633	5497
924.741	6095
924.849	5299
924.956	5421
925.064	5326
925.172	5307
925.279	5258
925.387	5349
925.494	5315
925.602	5364
925.709	5391
925.816	5261
925.924	5231
926.031	5364
926.138	5288
926.245	5299
926.352	5193
926.459	5357
926.566	5261
926.673	5193
926.779	5124
926.886	5117
926.993	5025
927.099	4999
927.206	4984
927.312	4908
927.419	5014
927.525	4942
927.631	4980
927.737	4873
927.843	4854
927.95	4771
928.056	4831
928.162	4835
928.267	4820
928.373	5269
928.479	4805
928.585	4641
928.69	4736
928.796	4714
928.901	4634
929.007	4626
929.112	4656
929.218	4573
929.323	4527
929.428	4554
929.533	4691
929.638	4481
929.743	4577
929.848	4580
929.953	4485
930.058	4390
930.163	4291
930.267	4325
930.372	4440
930.477	4284
930.581	4432
930.685	4386
930.79	4204
930.894	4257
930.998	4230
931.103	4348
931.207	4128
931.311	4071
931.415	3998
931.519	3926
931.623	3945
