Data from glass_V78500241_1133.txt Node
Date: Wed Sep 01 19:22:21 CST 2021
User: usil
Spectrometer: V785-0024
Trigger mode: 0
Integration Time (sec): 4.000000E-1
Scans to average: 1
Nonlinearity correction enabled: false
Boxcar width: 0
Storing dark spectrum: false
XAxis mode: Wavelengths
Number of Pixels in Spectrum: 1024
>>>>>Begin Spectral Data<<<<<
801.071	3713
801.214	3751
801.356	3736
801.499	3751
801.641	3736
801.783	3766
801.926	3861
802.068	3816
802.211	3850
802.353	3907
802.496	3778
802.638	3838
802.78	3873
802.923	3934
803.065	3930
803.208	3835
803.35	3861
803.492	3918
803.635	3907
803.777	3850
803.919	3899
804.061	4192
804.204	3972
804.346	3968
804.488	3941
804.63	4021
804.773	3968
804.915	4017
805.057	4101
805.199	4055
805.341	4147
805.483	4143
805.626	4143
805.768	4135
805.91	4246
806.052	4249
806.194	4204
806.336	4344
806.478	4234
806.62	4188
806.762	4234
806.904	4211
807.046	4318
807.188	4215
807.33	4173
807.472	4230
807.614	4215
807.756	4299
807.898	4211
808.04	4219
808.182	4276
808.324	4341
808.465	4398
808.607	4474
808.749	4421
808.891	4478
809.033	4531
809.174	4424
809.316	4306
809.458	4234
809.6	4196
809.741	4147
809.883	4124
810.025	4223
810.166	4238
810.308	4215
810.45	4257
810.591	4261
810.733	4284
810.875	4504
811.016	4820
811.158	5128
811.299	5246
811.441	5288
811.582	5067
811.724	4683
811.865	4478
812.007	4481
812.148	4478
812.29	4428
812.431	4424
812.573	4417
812.714	4405
812.855	4348
812.997	4428
813.138	4485
813.279	4474
813.421	4413
813.562	4390
813.703	4375
813.845	4363
813.986	4261
814.127	4238
814.268	4276
814.41	4291
814.551	4261
814.692	4295
814.833	4295
814.974	4303
815.115	4341
815.256	4276
815.397	4219
815.539	4253
815.68	4177
815.821	4257
815.962	4333
816.103	4295
816.244	4265
816.385	4249
816.526	4333
816.666	4211
816.807	4124
816.948	4204
817.089	4230
817.23	4143
817.371	4032
817.512	4013
817.653	4078
817.793	4044
817.934	4032
818.075	4097
818.216	4090
818.356	4105
818.497	4044
818.638	3911
818.778	3956
818.919	3922
819.06	3918
819.2	3915
819.341	3896
819.481	3861
819.622	3907
819.762	4017
819.903	3926
820.043	3892
820.184	3880
820.324	3812
820.465	3937
820.605	3888
820.746	3865
820.886	3781
821.026	3930
821.167	3915
821.307	3968
821.447	3983
821.588	3998
821.728	3964
821.868	3865
822.008	3888
822.149	3956
822.289	3964
822.429	3835
822.569	3728
822.709	3804
822.849	3728
822.99	3701
823.13	3781
823.27	3785
823.41	3698
823.55	3778
823.69	3675
823.83	3762
823.97	3694
824.11	3576
824.25	3587
824.389	3656
824.529	3671
824.669	3625
824.809	3766
824.949	3785
825.089	3736
825.228	3732
825.368	3606
825.508	3618
825.648	3580
825.787	3648
825.927	3618
826.067	3629
826.206	3679
826.346	3812
826.485	3819
826.625	3861
826.765	3964
826.904	3838
827.044	3629
827.183	3534
827.323	3443
827.462	3466
827.601	3439
827.741	3462
827.88	3477
828.02	3386
828.159	3454
828.298	3523
828.437	3500
828.577	3530
828.716	3629
828.855	3526
828.994	3363
829.134	3348
829.273	3389
829.412	3363
829.551	3393
829.69	3374
829.829	3424
829.968	3523
830.107	3473
830.246	3500
830.385	3389
830.524	3363
830.663	3325
830.802	3256
830.941	3260
831.08	3249
831.219	3272
831.357	3230
831.496	3378
831.635	3222
831.774	3199
831.913	3176
832.051	3161
832.19	3161
832.329	3249
832.467	3146
832.606	3127
832.744	3173
832.883	3203
833.022	3207
833.16	3253
833.299	3291
833.437	3363
833.576	3363
833.714	3428
833.852	3458
833.991	3469
834.129	3481
834.267	3462
834.406	3397
834.544	3424
834.682	3424
834.821	3420
834.959	3564
835.097	3447
835.235	3584
835.373	3488
835.511	3526
835.65	3496
835.788	3481
835.926	3393
836.064	3397
836.202	3386
836.34	3595
836.478	3591
836.615	3542
836.753	3663
836.891	3663
837.029	3652
837.167	3587
837.305	3606
837.443	3584
837.58	3519
837.718	3622
837.856	3576
837.993	3507
838.131	3606
838.269	3587
838.406	3568
838.544	3564
838.681	3507
838.819	3450
838.956	3431
839.094	3363
839.231	3435
839.369	3530
839.506	3747
839.643	3625
839.781	3507
839.918	3473
840.055	3542
840.193	3534
840.33	3587
840.467	3591
840.604	3622
840.742	3789
840.879	3564
841.016	3561
841.153	3591
841.29	3747
841.427	3755
841.564	3740
841.701	3720
841.838	3694
841.975	3694
842.112	3747
842.249	3625
842.385	3663
842.522	3808
842.659	3705
842.796	3675
842.933	3732
843.069	3679
843.206	3724
843.343	3793
843.479	3747
843.616	3838
843.752	3701
843.889	3675
844.025	3873
844.162	3717
844.298	3846
844.435	3819
844.571	3800
844.708	3896
844.844	4010
844.98	4006
845.117	4048
845.253	3968
845.389	3934
845.525	3998
845.661	4002
845.798	3930
845.934	4002
846.07	3998
846.206	4082
846.342	4086
846.478	4074
846.614	3994
846.75	3956
846.886	3907
847.022	4067
847.158	4025
847.294	4055
847.429	4029
847.565	3991
847.701	4211
847.837	3903
847.972	3865
848.108	4025
848.244	3983
848.379	3888
848.515	3785
848.65	3831
848.786	3854
848.921	3846
849.057	3937
849.192	3945
849.328	3926
849.463	3949
849.598	3945
849.734	3861
849.869	3865
850.004	3812
850.14	3835
850.275	3781
850.41	3743
850.545	3724
850.68	3804
850.815	3774
850.95	3800
851.085	3911
851.22	3869
851.355	3873
851.49	3778
851.625	3766
851.76	3797
851.895	3728
852.03	3747
852.165	3838
852.299	3857
852.434	3918
852.569	3850
852.703	3884
852.838	3987
852.973	4021
853.107	4032
853.242	3892
853.376	3857
853.511	3831
853.645	3816
853.78	3945
853.914	3892
854.048	3922
854.183	3903
854.317	3918
854.451	4086
854.585	3968
854.72	3983
854.854	4032
854.988	3987
855.122	4025
855.256	3968
855.39	4067
855.524	4139
855.658	4082
855.792	4093
855.926	4116
856.06	4185
856.194	4196
856.327	4143
856.461	4097
856.595	4162
856.729	4215
856.862	4341
856.996	4246
857.13	4303
857.263	4337
857.397	4367
857.53	4276
857.664	4337
857.797	4367
857.931	4417
858.064	4409
858.197	4443
858.331	4386
858.464	4375
858.597	4379
858.731	4474
858.864	4481
858.997	4436
859.13	4527
859.263	4546
859.396	4538
859.529	4535
859.662	4542
859.795	4523
859.928	4630
860.061	4721
860.194	4725
860.327	4656
860.46	4694
860.592	4733
860.725	4774
860.858	4805
860.99	4721
861.123	4660
861.256	4687
861.388	4721
861.521	5406
861.653	4691
861.786	4691
861.918	4729
862.05	4824
862.183	4854
862.315	4908
862.447	5003
862.58	4889
862.712	4782
862.844	4805
862.976	4870
863.108	4900
863.24	5201
863.372	4858
863.504	4930
863.636	4885
863.768	5010
863.9	4953
864.032	4946
864.164	4980
864.296	5048
864.428	5086
864.559	5098
864.691	5094
864.823	5151
864.954	5117
865.086	5201
865.217	5143
865.349	5132
865.48	5147
865.612	5204
865.743	5269
865.875	5231
866.006	5193
866.137	5227
866.269	5258
866.4	5235
866.531	5258
866.662	5231
866.793	5311
866.924	5299
867.055	5391
867.186	5364
867.317	5334
867.448	5288
867.579	5379
867.71	5357
867.841	5357
867.972	5444
868.103	5532
868.233	5482
868.364	5524
868.495	5520
868.625	5707
868.756	5813
868.886	5691
869.017	5741
869.147	5817
869.278	5904
869.408	5824
869.539	5885
869.669	5885
869.799	5923
869.929	5942
870.06	6045
870.19	6220
870.32	6224
870.45	6273
870.58	6334
870.71	6445
870.84	6494
870.97	6410
871.1	6418
871.23	6669
871.36	6688
871.489	6623
871.619	6745
871.749	6791
871.879	6837
872.008	6962
872.138	7080
872.267	7031
872.397	6970
872.526	7034
872.656	7137
872.785	7156
872.915	7369
873.044	7529
873.173	7620
873.303	7639
873.432	7814
873.561	7921
873.69	7932
873.819	8008
873.948	8157
874.077	8271
874.206	8351
874.335	8415
874.464	8610
874.593	8819
874.722	8941
874.851	9169
874.979	9275
875.108	9351
875.237	9424
875.365	9545
875.494	9724
875.623	9835
875.751	9759
875.88	10090
876.008	10147
876.136	10329
876.265	10527
876.393	10706
876.521	10744
876.65	10896
876.778	10873
876.906	10949
877.034	10995
877.162	11117
877.29	11185
877.418	11353
877.546	11277
877.674	11410
877.802	11478
877.93	11497
878.058	11573
878.185	11600
878.313	11714
878.441	11691
878.568	11634
878.696	11847
878.824	11866
878.951	12019
879.079	11973
879.206	12239
879.333	12102
879.461	11904
879.588	12045
879.715	12152
879.842	12289
879.97	11992
880.097	11847
880.224	11950
880.351	11901
880.478	11927
880.605	11935
880.732	11836
880.859	12022
880.986	11817
881.112	11863
881.239	11832
881.366	11741
881.493	11627
881.619	11532
881.746	11509
881.872	11532
881.999	11535
882.125	11478
882.252	11630
882.378	11436
882.505	11532
882.631	11429
882.757	11273
882.883	11299
883.01	11280
883.136	11258
883.262	11151
883.388	11075
883.514	11212
883.64	11174
883.766	11098
883.892	11045
884.018	10946
884.143	11071
884.269	11166
884.395	10866
884.52	10812
884.646	10748
884.772	10755
884.897	10618
885.023	10660
885.148	10733
885.274	10786
885.399	10771
885.524	10630
885.65	10561
885.775	10577
885.9	10538
886.025	10653
886.15	10558
886.275	10466
886.4	10443
886.525	10481
886.65	10413
886.775	10341
886.9	10531
887.025	10588
887.149	10341
887.274	10242
887.399	10230
887.523	10169
887.648	10177
887.773	10158
887.897	10230
888.021	10219
888.146	10196
888.27	10329
888.395	10223
888.519	10185
888.643	10192
888.767	10219
888.891	10040
889.015	10036
889.139	10086
889.263	9953
889.387	10131
889.511	10120
889.635	10120
889.759	9956
889.883	9911
890.006	9968
890.13	10150
890.254	9979
890.377	9987
890.501	9819
890.624	9873
890.748	9861
890.871	9819
890.995	9728
891.118	9759
891.241	9732
891.364	9762
891.488	9865
891.611	9740
891.734	9770
891.857	9732
891.98	9671
892.103	9740
892.226	9713
892.349	9652
892.471	9557
892.594	9656
892.717	9603
892.839	9633
892.962	9705
893.085	9690
893.207	9618
893.33	9519
893.452	9534
893.575	9644
893.697	9595
893.819	9633
893.941	9622
894.064	9679
894.186	9435
894.308	9428
894.43	9538
894.552	9500
894.674	9473
894.796	9428
894.918	9454
895.04	9386
895.161	9450
895.283	9431
895.405	9180
895.526	9268
895.648	9226
895.769	9268
895.891	9253
896.012	9321
896.134	9253
896.255	9176
896.376	9089
896.498	9119
896.619	9131
896.74	9142
896.861	9161
896.982	9298
897.103	9374
897.224	9199
897.345	9074
897.466	8979
897.587	9051
897.708	9119
897.828	9005
897.949	8982
898.07	8864
898.19	8967
898.311	9020
898.431	8876
898.552	9017
898.672	8941
898.792	9013
898.913	8902
899.033	8823
899.153	8754
899.273	8716
899.393	8712
899.513	8754
899.633	8712
899.753	8777
899.873	8708
899.993	8731
900.113	8731
900.232	8777
900.352	8674
900.472	8670
900.591	8526
900.711	8579
900.83	8594
900.95	8640
901.069	8777
901.189	8606
901.308	8442
901.427	8377
901.546	8499
901.665	8476
901.784	8495
901.904	8343
902.023	8366
902.141	8214
902.26	8172
902.379	8313
902.498	8183
902.617	8199
902.735	8195
902.854	8305
902.973	8271
903.091	8111
903.21	8134
903.328	8138
903.446	8168
903.565	8012
903.683	8126
903.801	8081
903.919	8123
904.038	8107
904.156	8035
904.274	8031
904.392	8020
904.51	8065
904.627	8096
904.745	8081
904.863	8073
904.981	7917
905.098	7871
905.216	7875
905.334	7913
905.451	7902
905.569	7902
905.686	7921
905.803	7909
905.921	7780
906.038	7852
906.155	7795
906.272	7731
906.389	7807
906.506	7647
906.623	7655
906.74	7616
906.857	7544
906.974	7651
907.091	7681
907.208	7700
907.324	7662
907.441	7586
907.557	7449
907.674	7563
907.79	7396
907.907	7457
908.023	7407
908.139	7476
908.256	7396
908.372	7434
908.488	7358
908.604	7274
908.72	7183
908.836	7308
908.952	7164
909.068	7187
909.184	7320
909.3	7270
909.415	7293
909.531	7312
909.647	7145
909.762	7133
909.878	7149
909.993	7126
910.108	7099
910.224	7088
910.339	7031
910.454	7076
910.57	7004
910.685	6993
910.8	7168
910.915	7099
911.03	7046
911.145	6970
911.259	6859
911.374	6916
911.489	6806
911.604	6825
911.718	6783
911.833	6760
911.947	6677
912.062	6585
912.176	6684
912.291	6757
912.405	6673
912.519	6859
912.633	6837
912.748	6738
912.862	6730
912.976	6639
913.09	6570
913.204	6551
913.318	6601
913.431	6688
913.545	6654
913.659	6772
913.772	6658
913.886	6551
914	6578
914.113	6544
914.226	6715
914.34	6620
914.453	6490
914.566	6608
914.68	6509
914.793	6475
914.906	6464
915.019	6452
915.132	6350
915.245	6418
915.358	6445
915.47	6388
915.583	6460
915.696	6498
915.809	6513
915.921	6517
916.034	6475
916.146	6460
916.259	6433
916.371	6452
916.483	6429
916.595	6361
916.708	6414
916.82	6388
916.932	6433
917.044	6372
917.156	6399
917.268	6311
917.38	6357
917.491	6357
917.603	6342
917.715	6422
917.826	6448
917.938	6338
918.049	6254
918.161	6369
918.272	6429
918.384	6410
918.495	6357
918.606	6277
918.717	6197
918.828	6311
918.939	6319
919.05	6254
919.161	6258
919.272	6095
919.383	6163
919.494	6277
919.604	6376
919.715	6323
919.826	6190
919.936	6292
920.047	6353
920.157	6254
920.267	6437
920.378	6357
920.488	6323
920.598	6464
920.708	6639
920.818	6483
920.928	6467
921.038	6616
921.148	6601
921.258	6418
921.368	6315
921.477	6235
921.587	6216
921.697	6136
921.806	6178
921.916	6098
922.025	5954
922.134	5927
922.244	5798
922.353	5939
922.462	5893
922.571	5760
922.68	5733
922.789	5703
922.898	5764
923.007	5619
923.116	5756
923.224	5649
923.333	5676
923.442	5604
923.55	5543
923.659	5554
923.767	5623
923.876	5554
923.984	5585
924.092	5501
924.201	5570
924.309	5535
924.417	5554
924.525	5467
924.633	5505
924.741	6289
924.849	5360
924.956	5455
925.064	5353
925.172	5341
925.279	5265
925.387	5341
925.494	5345
925.602	5417
925.709	5360
925.816	5311
925.924	5322
926.031	5345
926.138	5318
926.245	5379
926.352	5197
926.459	5372
926.566	5303
926.673	5223
926.779	5162
926.886	5147
926.993	5018
927.099	5075
927.206	4991
927.312	4961
927.419	5014
927.525	5041
927.631	5018
927.737	4949
927.843	4870
927.95	4786
928.056	4843
928.162	4858
928.267	4824
928.373	5357
928.479	4831
928.585	4626
928.69	4820
928.796	4805
928.901	4683
929.007	4637
929.112	4649
929.218	4584
929.323	4603
929.428	4569
929.533	4683
929.638	4558
929.743	4603
929.848	4546
929.953	4558
930.058	4462
930.163	4322
930.267	4318
930.372	4485
930.477	4303
930.581	4493
930.685	4371
930.79	4242
930.894	4306
930.998	4280
931.103	4360
931.207	4112
931.311	4097
931.415	4082
931.519	3907
931.623	3998
