Data from glass_V78500241_389.txt Node
Date: Wed Sep 01 19:17:11 CST 2021
User: usil
Spectrometer: V785-0024
Trigger mode: 0
Integration Time (sec): 4.000000E-1
Scans to average: 1
Nonlinearity correction enabled: false
Boxcar width: 0
Storing dark spectrum: false
XAxis mode: Wavelengths
Number of Pixels in Spectrum: 1024
>>>>>Begin Spectral Data<<<<<
801.071	3751
801.214	3816
801.356	3690
801.499	3766
801.641	3747
801.783	3766
801.926	3907
802.068	3838
802.211	3937
802.353	3911
802.496	3823
802.638	3873
802.78	3880
802.923	3941
803.065	3956
803.208	3876
803.35	3899
803.492	3880
803.635	3953
803.777	3831
803.919	3896
804.061	4124
804.204	3983
804.346	3968
804.488	3949
804.63	4002
804.773	3994
804.915	3983
805.057	4147
805.199	4078
805.341	4124
805.483	4154
805.626	4150
805.768	4101
805.91	4265
806.052	4272
806.194	4242
806.336	4371
806.478	4223
806.62	4227
806.762	4207
806.904	4230
807.046	4314
807.188	4177
807.33	4204
807.472	4234
807.614	4200
807.756	4329
807.898	4257
808.04	4280
808.182	4280
808.324	4295
808.465	4348
808.607	4447
808.749	4470
808.891	4508
809.033	4500
809.174	4405
809.316	4276
809.458	4287
809.6	4158
809.741	4147
809.883	4158
810.025	4200
810.166	4219
810.308	4246
810.45	4287
810.591	4242
810.733	4325
810.875	4546
811.016	4870
811.158	5117
811.299	5242
811.441	5326
811.582	5056
811.724	4702
811.865	4462
812.007	4481
812.148	4386
812.29	4379
812.431	4436
812.573	4398
812.714	4356
812.855	4409
812.997	4447
813.138	4531
813.279	4398
813.421	4375
813.562	4405
813.703	4333
813.845	4394
813.986	4261
814.127	4227
814.268	4291
814.41	4337
814.551	4280
814.692	4291
814.833	4333
814.974	4284
815.115	4333
815.256	4284
815.397	4215
815.539	4234
815.68	4215
815.821	4227
815.962	4329
816.103	4291
816.244	4219
816.385	4234
816.526	4261
816.666	4230
816.807	4097
816.948	4223
817.089	4162
817.23	4090
817.371	4051
817.512	4067
817.653	4051
817.793	4051
817.934	4002
818.075	4082
818.216	4105
818.356	4101
818.497	4036
818.638	3930
818.778	3930
818.919	3884
819.06	3915
819.2	3926
819.341	3869
819.481	3869
819.622	3896
819.762	4040
819.903	3949
820.043	3869
820.184	3857
820.324	3835
820.465	3930
820.605	3915
820.746	3861
820.886	3808
821.026	3979
821.167	3930
821.307	4006
821.447	3994
821.588	4002
821.728	3968
821.868	3945
822.008	3922
822.149	3903
822.289	3937
822.429	3789
822.569	3800
822.709	3827
822.849	3705
822.99	3759
823.13	3755
823.27	3800
823.41	3755
823.55	3743
823.69	3740
823.83	3705
823.97	3690
824.11	3622
824.25	3599
824.389	3629
824.529	3656
824.669	3629
824.809	3736
824.949	3789
825.089	3732
825.228	3698
825.368	3614
825.508	3603
825.648	3595
825.787	3606
825.927	3641
826.067	3629
826.206	3705
826.346	3797
826.485	3861
826.625	3892
826.765	3968
826.904	3850
827.044	3675
827.183	3557
827.323	3450
827.462	3492
827.601	3439
827.741	3439
827.88	3439
828.02	3348
828.159	3485
828.298	3485
828.437	3572
828.577	3477
828.716	3633
828.855	3507
828.994	3412
829.134	3359
829.273	3420
829.412	3393
829.551	3340
829.69	3370
829.829	3454
829.968	3538
830.107	3473
830.246	3420
830.385	3393
830.524	3321
830.663	3268
830.802	3268
830.941	3211
831.08	3214
831.219	3283
831.357	3272
831.496	3435
831.635	3233
831.774	3195
831.913	3184
832.051	3157
832.19	3157
832.329	3233
832.467	3154
832.606	3108
832.744	3211
832.883	3226
833.022	3195
833.16	3241
833.299	3298
833.437	3340
833.576	3382
833.714	3405
833.852	3466
833.991	3428
834.129	3450
834.267	3481
834.406	3420
834.544	3439
834.682	3462
834.821	3420
834.959	3576
835.097	3393
835.235	3530
835.373	3504
835.511	3504
835.65	3424
835.788	3500
835.926	3420
836.064	3348
836.202	3420
836.34	3557
836.478	3622
836.615	3515
836.753	3599
836.891	3663
837.029	3622
837.167	3614
837.305	3572
837.443	3534
837.58	3523
837.718	3553
837.856	3580
837.993	3561
838.131	3587
838.269	3629
838.406	3599
838.544	3599
838.681	3481
838.819	3458
838.956	3378
839.094	3424
839.231	3462
839.369	3564
839.506	3751
839.643	3656
839.781	3477
839.918	3473
840.055	3553
840.193	3557
840.33	3542
840.467	3553
840.604	3637
840.742	3835
840.879	3599
841.016	3595
841.153	3584
841.29	3732
841.427	3698
841.564	3701
841.701	3793
841.838	3690
841.975	3663
842.112	3759
842.249	3660
842.385	3618
842.522	3846
842.659	3682
842.796	3713
842.933	3713
843.069	3720
843.206	3740
843.343	3812
843.479	3812
843.616	3827
843.752	3644
843.889	3717
844.025	3892
844.162	3720
844.298	3846
844.435	3797
844.571	3827
844.708	3865
844.844	4036
844.98	4036
845.117	4017
845.253	3930
845.389	3918
845.525	3972
845.661	3979
845.798	3911
845.934	4040
846.07	3975
846.206	4059
846.342	4173
846.478	4101
846.614	3949
846.75	3922
846.886	3960
847.022	4036
847.158	4002
847.294	4002
847.429	4051
847.565	4017
847.701	4257
847.837	3903
847.972	3854
848.108	4006
848.244	3994
848.379	3884
848.515	3823
848.65	3827
848.786	3823
848.921	3842
849.057	3956
849.192	3964
849.328	3899
849.463	3953
849.598	3956
849.734	3850
849.869	3831
850.004	3789
850.14	3827
850.275	3770
850.41	3793
850.545	3751
850.68	3831
850.815	3793
850.95	3816
851.085	3987
851.22	3880
851.355	3850
851.49	3797
851.625	3793
851.76	3800
851.895	3755
852.03	3728
852.165	3850
852.299	3869
852.434	3945
852.569	3911
852.703	3911
852.838	3911
852.973	4051
853.107	4002
853.242	3918
853.376	3854
853.511	3778
853.645	3812
853.78	3972
853.914	3945
854.048	3907
854.183	3903
854.317	4006
854.451	4078
854.585	4002
854.72	3945
854.854	4097
854.988	3975
855.122	3991
855.256	3903
855.39	4006
855.524	4139
855.658	4093
855.792	4109
855.926	4150
856.06	4169
856.194	4185
856.327	4169
856.461	4162
856.595	4188
856.729	4162
856.862	4325
856.996	4265
857.13	4287
857.263	4363
857.397	4383
857.53	4291
857.664	4360
857.797	4424
857.931	4436
858.064	4436
858.197	4455
858.331	4432
858.464	4417
858.597	4417
858.731	4447
858.864	4470
858.997	4470
859.13	4580
859.263	4565
859.396	4622
859.529	4580
859.662	4535
859.795	4535
859.928	4634
860.061	4733
860.194	4790
860.327	4653
860.46	4626
860.592	4767
860.725	4740
860.858	4736
860.99	4733
861.123	4698
861.256	4702
861.388	4801
861.521	5410
861.653	4721
861.786	4694
861.918	4744
862.05	4854
862.183	4866
862.315	4873
862.447	4965
862.58	4866
862.712	4767
862.844	4763
862.976	4911
863.108	4881
863.24	5231
863.372	4854
863.504	4915
863.636	4870
863.768	4961
863.9	4968
864.032	4965
864.164	4949
864.296	5052
864.428	5045
864.559	5064
864.691	5105
864.823	5201
864.954	5132
865.086	5075
865.217	5121
865.349	5109
865.48	5178
865.612	5208
865.743	5265
865.875	5178
866.006	5189
866.137	5239
866.269	5223
866.4	5269
866.531	5254
866.662	5231
866.793	5318
866.924	5368
867.055	5360
867.186	5349
867.317	5345
867.448	5326
867.579	5402
867.71	5353
867.841	5341
867.972	5474
868.103	5433
868.233	5501
868.364	5570
868.495	5520
868.625	5638
868.756	5832
868.886	5634
869.017	5783
869.147	5836
869.278	5927
869.408	5828
869.539	5878
869.669	5954
869.799	5939
869.929	6041
870.06	6034
870.19	6220
870.32	6224
870.45	6319
870.58	6319
870.71	6441
870.84	6494
870.97	6521
871.1	6464
871.23	6623
871.36	6730
871.489	6703
871.619	6772
871.749	6825
871.879	6878
872.008	6981
872.138	6977
872.267	7023
872.397	7000
872.526	7053
872.656	7103
872.785	7160
872.915	7415
873.044	7491
873.173	7578
873.303	7597
873.432	7784
873.561	7807
873.69	7890
873.819	8005
873.948	8244
874.077	8202
874.206	8313
874.335	8385
874.464	8663
874.593	8872
874.722	8925
874.851	9154
874.979	9268
875.108	9370
875.237	9481
875.365	9488
875.494	9690
875.623	9861
875.751	9861
875.88	10029
876.008	10150
876.136	10249
876.265	10504
876.393	10698
876.521	10698
876.65	10889
876.778	10805
876.906	10889
877.034	11014
877.162	11022
877.29	11098
877.418	11292
877.546	11398
877.674	11448
877.802	11505
877.93	11448
878.058	11665
878.185	11585
878.313	11688
878.441	11741
878.568	11676
878.696	11889
878.824	11821
878.951	11893
879.079	11996
879.206	12106
879.333	12007
879.461	12038
879.588	12083
879.715	12053
879.842	12224
879.97	12087
880.097	11977
880.224	11832
880.351	11882
880.478	11946
880.605	11817
880.732	11817
880.859	12015
880.986	11923
881.112	11836
881.239	11790
881.366	11764
881.493	11665
881.619	11501
881.746	11611
881.872	11524
881.999	11589
882.125	11440
882.252	11589
882.378	11478
882.505	11520
882.631	11372
882.757	11284
882.883	11292
883.01	11269
883.136	11204
883.262	11086
883.388	11113
883.514	11178
883.64	11193
883.766	11136
883.892	11041
884.018	11022
884.143	11048
884.269	11147
884.395	10938
884.52	10843
884.646	10862
884.772	10710
884.897	10664
885.023	10691
885.148	10736
885.274	10778
885.399	10729
885.524	10618
885.65	10580
885.775	10577
885.9	10565
886.025	10664
886.15	10611
886.275	10474
886.4	10428
886.525	10356
886.65	10413
886.775	10379
886.9	10443
887.025	10493
887.149	10299
887.274	10299
887.399	10207
887.523	10215
887.648	10154
887.773	10120
887.897	10265
888.021	10166
888.146	10147
888.27	10272
888.395	10306
888.519	10185
888.643	10135
888.767	10128
888.891	10131
889.015	10086
889.139	10040
889.263	9968
889.387	10150
889.511	10093
889.635	10128
889.759	10074
889.883	9987
890.006	9964
890.13	10143
890.254	9979
890.377	10006
890.501	9911
890.624	9884
890.748	9918
890.871	9774
890.995	9793
891.118	9804
891.241	9781
891.364	9679
891.488	9857
891.611	9770
891.734	9709
891.857	9823
891.98	9713
892.103	9857
892.226	9717
892.349	9675
892.471	9530
892.594	9637
892.717	9663
892.839	9500
892.962	9580
893.085	9633
893.207	9553
893.33	9473
893.452	9564
893.575	9629
893.697	9519
893.819	9595
893.941	9705
894.064	9534
894.186	9466
894.308	9447
894.43	9564
894.552	9561
894.674	9519
894.796	9458
894.918	9397
895.04	9317
895.161	9401
895.283	9386
895.405	9237
895.526	9279
895.648	9256
895.769	9325
895.891	9306
896.012	9332
896.134	9287
896.255	9207
896.376	9275
896.498	9100
896.619	9097
896.74	9154
896.861	9131
896.982	9214
897.103	9321
897.224	9138
897.345	9116
897.466	8971
897.587	9032
897.708	9116
897.828	9047
897.949	8967
898.07	8842
898.19	8910
898.311	9043
898.431	8941
898.552	8956
898.672	9017
898.792	8864
898.913	8868
899.033	8788
899.153	8701
899.273	8701
899.393	8716
899.513	8773
899.633	8708
899.753	8686
899.873	8594
899.993	8731
900.113	8754
900.232	8708
900.352	8663
900.472	8625
900.591	8499
900.711	8625
900.83	8575
900.95	8701
901.069	8678
901.189	8606
901.308	8442
901.427	8377
901.546	8408
901.665	8457
901.784	8522
901.904	8404
902.023	8324
902.141	8271
902.26	8214
902.379	8305
902.498	8180
902.617	8275
902.735	8221
902.854	8271
902.973	8263
903.091	8233
903.21	8145
903.328	8199
903.446	8115
903.565	8062
903.683	8149
903.801	8077
903.919	8161
904.038	8164
904.156	8016
904.274	8073
904.392	8035
904.51	8031
904.627	8111
904.745	8096
904.863	8103
904.981	7902
905.098	7951
905.216	7849
905.334	7921
905.451	7826
905.569	7852
905.686	7982
905.803	7925
905.921	7795
906.038	7947
906.155	7833
906.272	7746
906.389	7685
906.506	7677
906.623	7658
906.74	7571
906.857	7499
906.974	7586
907.091	7628
907.208	7769
907.324	7685
907.441	7628
907.557	7476
907.674	7468
907.79	7426
907.907	7426
908.023	7449
908.139	7434
908.256	7419
908.372	7396
908.488	7278
908.604	7358
908.72	7225
908.836	7274
908.952	7251
909.068	7221
909.184	7301
909.3	7247
909.415	7327
909.531	7312
909.647	7114
909.762	7084
909.878	7118
909.993	7156
910.108	7110
910.224	7126
910.339	7168
910.454	7012
910.57	6993
910.685	6970
910.8	7225
910.915	7088
911.03	7046
911.145	6882
911.259	6897
911.374	6916
911.489	6821
911.604	6909
911.718	6753
911.833	6681
911.947	6681
912.062	6662
912.176	6726
912.291	6703
912.405	6741
912.519	6818
912.633	6871
912.748	6707
912.862	6684
912.976	6604
913.09	6597
913.204	6601
913.318	6665
913.431	6639
913.545	6768
913.659	6726
913.772	6673
913.886	6585
914	6578
914.113	6688
914.226	6700
914.34	6642
914.453	6448
914.566	6582
914.68	6517
914.793	6517
914.906	6441
915.019	6467
915.132	6365
915.245	6426
915.358	6471
915.47	6410
915.583	6464
915.696	6502
915.809	6532
915.921	6555
916.034	6422
916.146	6380
916.259	6418
916.371	6498
916.483	6486
916.595	6388
916.708	6418
916.82	6399
916.932	6388
917.044	6388
917.156	6399
917.268	6323
917.38	6369
917.491	6331
917.603	6361
917.715	6372
917.826	6395
917.938	6365
918.049	6243
918.161	6319
918.272	6441
918.384	6407
918.495	6357
918.606	6270
918.717	6270
918.828	6258
918.939	6311
919.05	6197
919.161	6258
919.272	6201
919.383	6186
919.494	6334
919.604	6460
919.715	6311
919.826	6209
919.936	6228
920.047	6334
920.157	6243
920.267	6429
920.378	6361
920.488	6289
920.598	6410
920.708	6608
920.818	6494
920.928	6506
921.038	6593
921.148	6555
921.258	6353
921.368	6311
921.477	6232
921.587	6224
921.697	6049
921.806	6190
921.916	6079
922.025	5912
922.134	5893
922.244	5897
922.353	5939
922.462	5859
922.571	5836
922.68	5722
922.789	5726
922.898	5764
923.007	5634
923.116	5737
923.224	5688
923.333	5638
923.442	5623
923.55	5600
923.659	5566
923.767	5589
923.876	5604
923.984	5604
924.092	5532
924.201	5547
924.309	5604
924.417	5524
924.525	5497
924.633	5490
924.741	6228
924.849	5406
924.956	5474
925.064	5334
925.172	5292
925.279	5303
925.387	5360
925.494	5341
925.602	5440
925.709	5406
925.816	5292
925.924	5334
926.031	5349
926.138	5307
926.245	5379
926.352	5261
926.459	5345
926.566	5334
926.673	5212
926.779	5143
926.886	5094
926.993	5067
927.099	5060
927.206	5014
927.312	5010
927.419	5037
927.525	5006
927.631	5018
927.737	4908
927.843	4911
927.95	4812
928.056	4870
928.162	4911
928.267	4816
928.373	5258
928.479	4866
928.585	4645
928.69	4812
928.796	4790
928.901	4710
929.007	4592
929.112	4664
929.218	4611
929.323	4634
929.428	4573
929.533	4736
929.638	4538
929.743	4573
929.848	4573
929.953	4531
930.058	4459
930.163	4341
930.267	4318
930.372	4421
930.477	4314
930.581	4447
930.685	4363
930.79	4265
930.894	4322
930.998	4276
931.103	4394
931.207	4150
931.311	4093
931.415	4059
931.519	3941
931.623	3949
