Data from glass_V78500241_1232.txt Node
Date: Wed Sep 01 19:23:02 CST 2021
User: usil
Spectrometer: V785-0024
Trigger mode: 0
Integration Time (sec): 4.000000E-1
Scans to average: 1
Nonlinearity correction enabled: false
Boxcar width: 0
Storing dark spectrum: false
XAxis mode: Wavelengths
Number of Pixels in Spectrum: 1024
>>>>>Begin Spectral Data<<<<<
801.071	3770
801.214	3762
801.356	3671
801.499	3740
801.641	3770
801.783	3774
801.926	3857
802.068	3835
802.211	3846
802.353	3899
802.496	3838
802.638	3903
802.78	3937
802.923	3934
803.065	3892
803.208	3869
803.35	3884
803.492	3907
803.635	3918
803.777	3827
803.919	3918
804.061	4162
804.204	3968
804.346	3979
804.488	3949
804.63	4032
804.773	4006
804.915	4017
805.057	4105
805.199	4044
805.341	4090
805.483	4154
805.626	4143
805.768	4131
805.91	4238
806.052	4253
806.194	4192
806.336	4356
806.478	4215
806.62	4150
806.762	4196
806.904	4268
807.046	4398
807.188	4204
807.33	4162
807.472	4219
807.614	4154
807.756	4265
807.898	4227
808.04	4230
808.182	4314
808.324	4413
808.465	4386
808.607	4493
808.749	4478
808.891	4497
809.033	4519
809.174	4375
809.316	4280
809.458	4219
809.6	4219
809.741	4150
809.883	4154
810.025	4223
810.166	4215
810.308	4230
810.45	4215
810.591	4215
810.733	4322
810.875	4538
811.016	4759
811.158	5105
811.299	5299
811.441	5288
811.582	5071
811.724	4729
811.865	4466
812.007	4512
812.148	4402
812.29	4405
812.431	4398
812.573	4379
812.714	4386
812.855	4405
812.997	4432
813.138	4481
813.279	4375
813.421	4405
813.562	4390
813.703	4333
813.845	4318
813.986	4249
814.127	4200
814.268	4299
814.41	4303
814.551	4280
814.692	4371
814.833	4246
814.974	4310
815.115	4329
815.256	4227
815.397	4265
815.539	4265
815.68	4207
815.821	4219
815.962	4291
816.103	4295
816.244	4230
816.385	4253
816.526	4295
816.666	4265
816.807	4109
816.948	4173
817.089	4192
817.23	4116
817.371	4071
817.512	4090
817.653	4097
817.793	4044
817.934	4078
818.075	4074
818.216	4093
818.356	4101
818.497	3987
818.638	3903
818.778	3926
818.919	3911
819.06	3926
819.2	3941
819.341	3876
819.481	3854
819.622	3922
819.762	4032
819.903	3907
820.043	3892
820.184	3869
820.324	3835
820.465	3869
820.605	3876
820.746	3922
820.886	3812
821.026	3911
821.167	3907
821.307	3991
821.447	3945
821.588	4025
821.728	3949
821.868	3930
822.008	3846
822.149	3896
822.289	3918
822.429	3816
822.569	3778
822.709	3797
822.849	3705
822.99	3717
823.13	3781
823.27	3793
823.41	3713
823.55	3762
823.69	3740
823.83	3804
823.97	3682
824.11	3637
824.25	3576
824.389	3667
824.529	3686
824.669	3633
824.809	3717
824.949	3747
825.089	3736
825.228	3698
825.368	3587
825.508	3580
825.648	3576
825.787	3587
825.927	3652
826.067	3618
826.206	3667
826.346	3816
826.485	3869
826.625	3915
826.765	3983
826.904	3823
827.044	3625
827.183	3542
827.323	3492
827.462	3481
827.601	3431
827.741	3382
827.88	3485
828.02	3378
828.159	3492
828.298	3504
828.437	3511
828.577	3473
828.716	3614
828.855	3485
828.994	3412
829.134	3344
829.273	3401
829.412	3351
829.551	3340
829.69	3382
829.829	3481
829.968	3488
830.107	3431
830.246	3454
830.385	3405
830.524	3401
830.663	3298
830.802	3264
830.941	3195
831.08	3184
831.219	3283
831.357	3233
831.496	3405
831.635	3233
831.774	3173
831.913	3203
832.051	3127
832.19	3184
832.329	3226
832.467	3123
832.606	3131
832.744	3173
832.883	3154
833.022	3207
833.16	3298
833.299	3325
833.437	3355
833.576	3374
833.714	3405
833.852	3431
833.991	3428
834.129	3488
834.267	3485
834.406	3412
834.544	3454
834.682	3435
834.821	3401
834.959	3587
835.097	3428
835.235	3549
835.373	3485
835.511	3469
835.65	3473
835.788	3504
835.926	3393
836.064	3393
836.202	3439
836.34	3603
836.478	3637
836.615	3576
836.753	3614
836.891	3625
837.029	3625
837.167	3591
837.305	3553
837.443	3591
837.58	3530
837.718	3595
837.856	3545
837.993	3545
838.131	3606
838.269	3618
838.406	3584
838.544	3584
838.681	3466
838.819	3473
838.956	3359
839.094	3386
839.231	3450
839.369	3496
839.506	3717
839.643	3622
839.781	3519
839.918	3485
840.055	3519
840.193	3553
840.33	3530
840.467	3580
840.604	3587
840.742	3793
840.879	3584
841.016	3561
841.153	3625
841.29	3781
841.427	3675
841.564	3705
841.701	3755
841.838	3720
841.975	3679
842.112	3743
842.249	3637
842.385	3622
842.522	3819
842.659	3717
842.796	3675
842.933	3732
843.069	3705
843.206	3713
843.343	3846
843.479	3785
843.616	3842
843.752	3682
843.889	3690
844.025	3842
844.162	3686
844.298	3892
844.435	3774
844.571	3800
844.708	3880
844.844	3987
844.98	4044
845.117	4051
845.253	3956
845.389	3903
845.525	3949
845.661	3956
845.798	3934
845.934	4010
846.07	3979
846.206	4040
846.342	4097
846.478	4109
846.614	4017
846.75	3934
846.886	3968
847.022	4029
847.158	3968
847.294	4048
847.429	4059
847.565	3987
847.701	4249
847.837	3930
847.972	3831
848.108	4006
848.244	4010
848.379	3911
848.515	3846
848.65	3854
848.786	3835
848.921	3888
849.057	3953
849.192	3956
849.328	3934
849.463	3964
849.598	3888
849.734	3880
849.869	3823
850.004	3808
850.14	3823
850.275	3766
850.41	3709
850.545	3732
850.68	3774
850.815	3800
850.95	3823
851.085	3983
851.22	3854
851.355	3846
851.49	3778
851.625	3789
851.76	3804
851.895	3755
852.03	3698
852.165	3778
852.299	3861
852.434	3876
852.569	3953
852.703	3873
852.838	3975
852.973	4010
853.107	3975
853.242	3876
853.376	3865
853.511	3785
853.645	3880
853.78	3979
853.914	3896
854.048	3884
854.183	3918
854.317	3949
854.451	4067
854.585	3941
854.72	3953
854.854	4090
854.988	3960
855.122	3975
855.256	3945
855.39	4029
855.524	4097
855.658	4082
855.792	4116
855.926	4124
856.06	4188
856.194	4227
856.327	4147
856.461	4139
856.595	4166
856.729	4166
856.862	4265
856.996	4211
857.13	4287
857.263	4314
857.397	4394
857.53	4303
857.664	4341
857.797	4462
857.931	4428
858.064	4405
858.197	4405
858.331	4413
858.464	4394
858.597	4352
858.731	4436
858.864	4474
858.997	4474
859.13	4527
859.263	4546
859.396	4599
859.529	4531
859.662	4527
859.795	4519
859.928	4607
860.061	4706
860.194	4797
860.327	4683
860.46	4641
860.592	4755
860.725	4759
860.858	4774
860.99	4653
861.123	4710
861.256	4710
861.388	4767
861.521	5292
861.653	4702
861.786	4771
861.918	4767
862.05	4786
862.183	4885
862.315	4908
862.447	4976
862.58	4850
862.712	4771
862.844	4767
862.976	4877
863.108	4828
863.24	5212
863.372	4812
863.504	4915
863.636	4961
863.768	5006
863.9	4976
864.032	4908
864.164	4987
864.296	5067
864.428	5086
864.559	5094
864.691	5117
864.823	5155
864.954	5086
865.086	5181
865.217	5140
865.349	5121
865.48	5140
865.612	5181
865.743	5284
865.875	5181
866.006	5178
866.137	5239
866.269	5216
866.4	5265
866.531	5235
866.662	5201
866.793	5227
866.924	5315
867.055	5353
867.186	5360
867.317	5364
867.448	5299
867.579	5398
867.71	5391
867.841	5414
867.972	5421
868.103	5471
868.233	5497
868.364	5482
868.495	5600
868.625	5661
868.756	5775
868.886	5676
869.017	5729
869.147	5897
869.278	5828
869.408	5802
869.539	5775
869.669	5870
869.799	5920
869.929	5958
870.06	5999
870.19	6194
870.32	6224
870.45	6281
870.58	6346
870.71	6483
870.84	6429
870.97	6452
871.1	6479
871.23	6578
871.36	6703
871.489	6654
871.619	6757
871.749	6776
871.879	6909
872.008	7008
872.138	7057
872.267	7015
872.397	6993
872.526	6993
872.656	7095
872.785	7236
872.915	7343
873.044	7521
873.173	7552
873.303	7620
873.432	7746
873.561	7963
873.69	7913
873.819	8016
873.948	8134
874.077	8237
874.206	8328
874.335	8488
874.464	8689
874.593	8910
874.722	8929
874.851	9070
874.979	9272
875.108	9329
875.237	9492
875.365	9481
875.494	9618
875.623	9793
875.751	9926
875.88	10025
876.008	10169
876.136	10238
876.265	10500
876.393	10668
876.521	10691
876.65	10771
876.778	10999
876.906	10877
877.034	10934
877.162	11102
877.29	11128
877.418	11356
877.546	11341
877.674	11417
877.802	11501
877.93	11627
878.058	11551
878.185	11543
878.313	11634
878.441	11824
878.568	11718
878.696	11813
878.824	11809
878.951	11878
879.079	12011
879.206	12201
879.333	11961
879.461	12030
879.588	12125
879.715	12068
879.842	12209
879.97	12095
880.097	11904
880.224	11866
880.351	11897
880.478	11923
880.605	11851
880.732	11836
880.859	11984
880.986	11798
881.112	11851
881.239	11779
881.366	11707
881.493	11535
881.619	11528
881.746	11600
881.872	11543
881.999	11490
882.125	11471
882.252	11570
882.378	11600
882.505	11505
882.631	11379
882.757	11296
882.883	11311
883.01	11242
883.136	11151
883.262	11166
883.388	11064
883.514	11193
883.64	11185
883.766	11143
883.892	11025
884.018	11079
884.143	11079
884.269	11033
884.395	10839
884.52	10801
884.646	10755
884.772	10736
884.897	10653
885.023	10702
885.148	10706
885.274	10774
885.399	10706
885.524	10637
885.65	10588
885.775	10645
885.9	10573
886.025	10664
886.15	10577
886.275	10542
886.4	10367
886.525	10409
886.65	10436
886.775	10390
886.9	10504
887.025	10527
887.149	10318
887.274	10303
887.399	10246
887.523	10074
887.648	10158
887.773	10147
887.897	10249
888.021	10204
888.146	10162
888.27	10204
888.395	10143
888.519	10154
888.643	10131
888.767	10204
888.891	10040
889.015	10082
889.139	10059
889.263	9975
889.387	10101
889.511	10097
889.635	10059
889.759	9918
889.883	9949
890.006	10071
890.13	10090
890.254	9972
890.377	9911
890.501	9823
890.624	9850
890.748	9903
890.871	9789
890.995	9724
891.118	9774
891.241	9800
891.364	9701
891.488	9876
891.611	9827
891.734	9724
891.857	9778
891.98	9717
892.103	9717
892.226	9724
892.349	9667
892.471	9561
892.594	9671
892.717	9682
892.839	9641
892.962	9652
893.085	9690
893.207	9561
893.33	9587
893.452	9488
893.575	9580
893.697	9481
893.819	9641
893.941	9629
894.064	9526
894.186	9408
894.308	9462
894.43	9515
894.552	9557
894.674	9492
894.796	9332
894.918	9363
895.04	9241
895.161	9367
895.283	9382
895.405	9268
895.526	9310
895.648	9283
895.769	9275
895.891	9275
896.012	9348
896.134	9176
896.255	9211
896.376	9173
896.498	9119
896.619	9195
896.74	9173
896.861	9062
896.982	9256
897.103	9291
897.224	9241
897.345	9062
897.466	9043
897.587	9081
897.708	9043
897.828	9047
897.949	8921
898.07	8845
898.19	8929
898.311	9005
898.431	8952
898.552	8842
898.672	8952
898.792	8960
898.913	9005
899.033	8864
899.153	8693
899.273	8712
899.393	8735
899.513	8712
899.633	8720
899.753	8705
899.873	8716
899.993	8693
900.113	8735
900.232	8773
900.352	8625
900.472	8587
900.591	8545
900.711	8632
900.83	8556
900.95	8712
901.069	8674
901.189	8575
901.308	8454
901.427	8396
901.546	8457
901.665	8450
901.784	8446
901.904	8446
902.023	8328
902.141	8256
902.26	8248
902.379	8244
902.498	8210
902.617	8248
902.735	8396
902.854	8279
902.973	8305
903.091	8126
903.21	8126
903.328	8138
903.446	8149
903.565	8062
903.683	8168
903.801	8035
903.919	8187
904.038	8092
904.156	8077
904.274	8119
904.392	8119
904.51	8088
904.627	8058
904.745	8149
904.863	8046
904.981	7936
905.098	7902
905.216	7947
905.334	7932
905.451	7902
905.569	7890
905.686	7978
905.803	7909
905.921	7799
906.038	7890
906.155	7765
906.272	7746
906.389	7780
906.506	7670
906.623	7662
906.74	7620
906.857	7586
906.974	7609
907.091	7723
907.208	7708
907.324	7609
907.441	7518
907.557	7525
907.674	7480
907.79	7426
907.907	7506
908.023	7445
908.139	7411
908.256	7343
908.372	7327
908.488	7403
908.604	7240
908.72	7213
908.836	7236
908.952	7217
909.068	7228
909.184	7327
909.3	7259
909.415	7297
909.531	7282
909.647	7175
909.762	7103
909.878	7069
909.993	7091
910.108	7095
910.224	7069
910.339	7103
910.454	7008
910.57	6996
910.685	6962
910.8	7160
910.915	7110
911.03	7019
911.145	6837
911.259	6821
911.374	6916
911.489	6875
911.604	6806
911.718	6768
911.833	6719
911.947	6734
912.062	6593
912.176	6654
912.291	6738
912.405	6654
912.519	6791
912.633	6875
912.748	6738
912.862	6654
912.976	6585
913.09	6563
913.204	6608
913.318	6597
913.431	6692
913.545	6669
913.659	6749
913.772	6654
913.886	6582
914	6544
914.113	6627
914.226	6582
914.34	6635
914.453	6559
914.566	6627
914.68	6547
914.793	6483
914.906	6437
915.019	6350
915.132	6395
915.245	6433
915.358	6407
915.47	6418
915.583	6483
915.696	6494
915.809	6551
915.921	6551
916.034	6456
916.146	6460
916.259	6384
916.371	6509
916.483	6452
916.595	6414
916.708	6422
916.82	6437
916.932	6433
917.044	6399
917.156	6445
917.268	6369
917.38	6384
917.491	6334
917.603	6369
917.715	6372
917.826	6437
917.938	6323
918.049	6247
918.161	6342
918.272	6365
918.384	6460
918.495	6308
918.606	6254
918.717	6178
918.828	6331
918.939	6289
919.05	6205
919.161	6239
919.272	6136
919.383	6182
919.494	6311
919.604	6426
919.715	6270
919.826	6247
919.936	6262
920.047	6334
920.157	6247
920.267	6456
920.378	6357
920.488	6277
920.598	6388
920.708	6620
920.818	6467
920.928	6479
921.038	6639
921.148	6566
921.258	6346
921.368	6292
921.477	6220
921.587	6171
921.697	6045
921.806	6213
921.916	6079
922.025	5988
922.134	5931
922.244	5920
922.353	5939
922.462	5889
922.571	5760
922.68	5714
922.789	5680
922.898	5756
923.007	5688
923.116	5714
923.224	5657
923.333	5684
923.442	5672
923.55	5581
923.659	5596
923.767	5668
923.876	5608
923.984	5668
924.092	5493
924.201	5543
924.309	5512
924.417	5608
924.525	5509
924.633	5535
924.741	6285
924.849	5376
924.956	5497
925.064	5303
925.172	5360
925.279	5357
925.387	5368
925.494	5334
925.602	5410
925.709	5383
925.816	5258
925.924	5322
926.031	5410
926.138	5326
926.245	5337
926.352	5254
926.459	5277
926.566	5315
926.673	5189
926.779	5140
926.886	5117
926.993	5029
927.099	4999
927.206	5006
927.312	4957
927.419	5018
927.525	4999
927.631	4965
927.737	4870
927.843	4870
927.95	4778
928.056	4831
928.162	4797
928.267	4858
928.373	5372
928.479	4858
928.585	4714
928.69	4767
928.796	4729
928.901	4664
929.007	4599
929.112	4702
929.218	4649
929.323	4626
929.428	4565
929.533	4683
929.638	4504
929.743	4554
929.848	4603
929.953	4523
930.058	4424
930.163	4341
930.267	4356
930.372	4413
930.477	4280
930.581	4493
930.685	4390
930.79	4204
930.894	4306
930.998	4265
931.103	4428
931.207	4131
931.311	4086
931.415	4090
931.519	3922
931.623	3972
