Data from glass_V78500241_2286.txt Node
Date: Wed Sep 01 19:30:20 CST 2021
User: usil
Spectrometer: V785-0024
Trigger mode: 0
Integration Time (sec): 4.000000E-1
Scans to average: 1
Nonlinearity correction enabled: false
Boxcar width: 0
Storing dark spectrum: false
XAxis mode: Wavelengths
Number of Pixels in Spectrum: 1024
>>>>>Begin Spectral Data<<<<<
801.071	3698
801.214	3743
801.356	3724
801.499	3762
801.641	3781
801.783	3740
801.926	3865
802.068	3846
802.211	3873
802.353	3857
802.496	3842
802.638	3888
802.78	3934
802.923	3945
803.065	3876
803.208	3854
803.35	3876
803.492	3899
803.635	3892
803.777	3827
803.919	3869
804.061	4109
804.204	3987
804.346	3945
804.488	3884
804.63	4040
804.773	3949
804.915	3998
805.057	4124
805.199	4032
805.341	4055
805.483	4109
805.626	4093
805.768	4139
805.91	4200
806.052	4207
806.194	4185
806.336	4291
806.478	4246
806.62	4105
806.762	4246
806.904	4204
807.046	4322
807.188	4173
807.33	4185
807.472	4219
807.614	4204
807.756	4223
807.898	4207
808.04	4200
808.182	4268
808.324	4280
808.465	4443
808.607	4451
808.749	4466
808.891	4455
809.033	4523
809.174	4398
809.316	4272
809.458	4253
809.6	4185
809.741	4166
809.883	4135
810.025	4234
810.166	4192
810.308	4173
810.45	4192
810.591	4242
810.733	4329
810.875	4550
811.016	4748
811.158	5090
811.299	5296
811.441	5273
811.582	5060
811.724	4653
811.865	4489
812.007	4470
812.148	4409
812.29	4367
812.431	4356
812.573	4379
812.714	4360
812.855	4409
812.997	4413
813.138	4485
813.279	4421
813.421	4379
813.562	4363
813.703	4306
813.845	4329
813.986	4234
814.127	4215
814.268	4268
814.41	4295
814.551	4265
814.692	4303
814.833	4303
814.974	4314
815.115	4367
815.256	4242
815.397	4211
815.539	4242
815.68	4177
815.821	4204
815.962	4356
816.103	4272
816.244	4223
816.385	4185
816.526	4276
816.666	4265
816.807	4090
816.948	4207
817.089	4162
817.23	4120
817.371	4051
817.512	4074
817.653	4044
817.793	4040
817.934	4090
818.075	4063
818.216	4090
818.356	4097
818.497	4013
818.638	3926
818.778	3918
818.919	3873
819.06	3842
819.2	3896
819.341	3816
819.481	3850
819.622	3918
819.762	4040
819.903	3945
820.043	3876
820.184	3854
820.324	3816
820.465	3823
820.605	3865
820.746	3823
820.886	3785
821.026	3899
821.167	3941
821.307	3953
821.447	4006
821.588	3918
821.728	3930
821.868	3934
822.008	3869
822.149	3941
822.289	3918
822.429	3770
822.569	3747
822.709	3759
822.849	3671
822.99	3709
823.13	3724
823.27	3751
823.41	3705
823.55	3732
823.69	3663
823.83	3759
823.97	3660
824.11	3561
824.25	3576
824.389	3637
824.529	3656
824.669	3606
824.809	3698
824.949	3736
825.089	3736
825.228	3694
825.368	3599
825.508	3557
825.648	3591
825.787	3591
825.927	3603
826.067	3568
826.206	3656
826.346	3755
826.485	3850
826.625	3903
826.765	3922
826.904	3785
827.044	3637
827.183	3500
827.323	3450
827.462	3504
827.601	3420
827.741	3409
827.88	3431
828.02	3389
828.159	3420
828.298	3458
828.437	3545
828.577	3450
828.716	3568
828.855	3511
828.994	3386
829.134	3359
829.273	3389
829.412	3348
829.551	3332
829.69	3340
829.829	3424
829.968	3477
830.107	3428
830.246	3393
830.385	3359
830.524	3340
830.663	3275
830.802	3237
830.941	3230
831.08	3214
831.219	3245
831.357	3260
831.496	3386
831.635	3226
831.774	3222
831.913	3176
832.051	3146
832.19	3142
832.329	3165
832.467	3131
832.606	3116
832.744	3142
832.883	3184
833.022	3165
833.16	3249
833.299	3275
833.437	3325
833.576	3344
833.714	3378
833.852	3397
833.991	3443
834.129	3466
834.267	3431
834.406	3393
834.544	3458
834.682	3367
834.821	3412
834.959	3580
835.097	3397
835.235	3519
835.373	3473
835.511	3511
835.65	3439
835.788	3500
835.926	3332
836.064	3363
836.202	3389
836.34	3545
836.478	3572
836.615	3515
836.753	3595
836.891	3622
837.029	3587
837.167	3557
837.305	3584
837.443	3515
837.58	3500
837.718	3587
837.856	3530
837.993	3538
838.131	3603
838.269	3561
838.406	3606
838.544	3606
838.681	3473
838.819	3431
838.956	3389
839.094	3359
839.231	3435
839.369	3496
839.506	3705
839.643	3606
839.781	3488
839.918	3431
840.055	3545
840.193	3519
840.33	3534
840.467	3564
840.604	3614
840.742	3823
840.879	3557
841.016	3549
841.153	3618
841.29	3770
841.427	3701
841.564	3720
841.701	3740
841.838	3690
841.975	3679
842.112	3694
842.249	3584
842.385	3625
842.522	3819
842.659	3682
842.796	3663
842.933	3705
843.069	3728
843.206	3682
843.343	3827
843.479	3793
843.616	3835
843.752	3720
843.889	3690
844.025	3842
844.162	3717
844.298	3827
844.435	3778
844.571	3774
844.708	3941
844.844	3979
844.98	4021
845.117	3979
845.253	4002
845.389	3850
845.525	3983
845.661	3987
845.798	3926
845.934	3979
846.07	3937
846.206	4044
846.342	4101
846.478	4059
846.614	3975
846.75	3911
846.886	3884
847.022	4082
847.158	3960
847.294	4006
847.429	4010
847.565	3987
847.701	4200
847.837	3896
847.972	3812
848.108	3945
848.244	3949
848.379	3838
848.515	3854
848.65	3827
848.786	3819
848.921	3876
849.057	3941
849.192	3956
849.328	3911
849.463	3937
849.598	3892
849.734	3816
849.869	3850
850.004	3793
850.14	3831
850.275	3755
850.41	3717
850.545	3743
850.68	3835
850.815	3770
850.95	3793
851.085	3903
851.22	3831
851.355	3762
851.49	3808
851.625	3823
851.76	3812
851.895	3694
852.03	3701
852.165	3835
852.299	3835
852.434	3899
852.569	3804
852.703	3827
852.838	3915
852.973	3964
853.107	4021
853.242	3888
853.376	3842
853.511	3755
853.645	3846
853.78	3960
853.914	3915
854.048	3880
854.183	3857
854.317	3934
854.451	4059
854.585	3956
854.72	3892
854.854	4006
854.988	3873
855.122	4002
855.256	3888
855.39	4017
855.524	4051
855.658	4059
855.792	4112
855.926	4135
856.06	4143
856.194	4192
856.327	4097
856.461	4071
856.595	4131
856.729	4150
856.862	4238
856.996	4242
857.13	4295
857.263	4318
857.397	4341
857.53	4238
857.664	4325
857.797	4386
857.931	4424
858.064	4398
858.197	4428
858.331	4367
858.464	4398
858.597	4333
858.731	4443
858.864	4413
858.997	4447
859.13	4500
859.263	4523
859.396	4542
859.529	4531
859.662	4535
859.795	4508
859.928	4577
860.061	4710
860.194	4691
860.327	4664
860.46	4664
860.592	4714
860.725	4759
860.858	4755
860.99	4656
861.123	4649
861.256	4729
861.388	4786
861.521	5478
861.653	4717
861.786	4706
861.918	4725
862.05	4790
862.183	4831
862.315	4847
862.447	4938
862.58	4854
862.712	4767
862.844	4786
862.976	4885
863.108	4881
863.24	5162
863.372	4820
863.504	4923
863.636	4877
863.768	4961
863.9	4911
864.032	4953
864.164	4957
864.296	4991
864.428	5067
864.559	5090
864.691	5098
864.823	5102
864.954	5140
865.086	5136
865.217	5102
865.349	5170
865.48	5162
865.612	5208
865.743	5284
865.875	5216
866.006	5162
866.137	5239
866.269	5246
866.4	5235
866.531	5277
866.662	5254
866.793	5223
866.924	5299
867.055	5326
867.186	5379
867.317	5299
867.448	5360
867.579	5334
867.71	5337
867.841	5357
867.972	5482
868.103	5490
868.233	5455
868.364	5490
868.495	5505
868.625	5661
868.756	5779
868.886	5714
869.017	5699
869.147	5836
869.278	5851
869.408	5771
869.539	5874
869.669	5916
869.799	5874
869.929	6038
870.06	6022
870.19	6220
870.32	6209
870.45	6254
870.58	6372
870.71	6361
870.84	6475
870.97	6407
871.1	6437
871.23	6677
871.36	6700
871.489	6623
871.619	6726
871.749	6768
871.879	6894
872.008	7008
872.138	7015
872.267	6962
872.397	6970
872.526	7057
872.656	7038
872.785	7137
872.915	7362
873.044	7533
873.173	7518
873.303	7647
873.432	7738
873.561	7860
873.69	7860
873.819	8020
873.948	8107
874.077	8252
874.206	8275
874.335	8457
874.464	8640
874.593	8883
874.722	8990
874.851	9097
874.979	9245
875.108	9389
875.237	9428
875.365	9504
875.494	9568
875.623	9816
875.751	9835
875.88	9979
876.008	10032
876.136	10306
876.265	10558
876.393	10634
876.521	10694
876.65	10801
876.778	10869
876.906	10911
877.034	10987
877.162	11113
877.29	11124
877.418	11334
877.546	11330
877.674	11429
877.802	11410
877.93	11516
878.058	11562
878.185	11490
878.313	11653
878.441	11726
878.568	11551
878.696	11741
878.824	11939
878.951	11893
879.079	12030
879.206	12152
879.333	12140
879.461	11939
879.588	12072
879.715	12095
879.842	12216
879.97	11992
880.097	11866
880.224	11931
880.351	11897
880.478	11889
880.605	11882
880.732	11779
880.859	11973
880.986	11790
881.112	11805
881.239	11661
881.366	11558
881.493	11657
881.619	11486
881.746	11630
881.872	11539
881.999	11535
882.125	11543
882.252	11535
882.378	11528
882.505	11486
882.631	11433
882.757	11223
882.883	11258
883.01	11292
883.136	11201
883.262	11064
883.388	11155
883.514	11124
883.64	11235
883.766	11079
883.892	10984
884.018	10995
884.143	11086
884.269	11178
884.395	10900
884.52	10790
884.646	10782
884.772	10694
884.897	10702
885.023	10656
885.148	10672
885.274	10714
885.399	10653
885.524	10641
885.65	10577
885.775	10596
885.9	10554
886.025	10649
886.15	10508
886.275	10436
886.4	10398
886.525	10394
886.65	10356
886.775	10344
886.9	10485
887.025	10535
887.149	10287
887.274	10257
887.399	10227
887.523	10131
887.648	10120
887.773	10150
887.897	10268
888.021	10280
888.146	10128
888.27	10192
888.395	10211
888.519	10128
888.643	10154
888.767	10169
888.891	10086
889.015	10048
889.139	9987
889.263	10017
889.387	10040
889.511	10059
889.635	10032
889.759	9979
889.883	10010
890.006	9994
890.13	10116
890.254	9922
890.377	9960
890.501	9838
890.624	9945
890.748	9838
890.871	9812
890.995	9785
891.118	9717
891.241	9835
891.364	9740
891.488	9762
891.611	9740
891.734	9743
891.857	9766
891.98	9740
892.103	9785
892.226	9743
892.349	9637
892.471	9424
892.594	9648
892.717	9603
892.839	9549
892.962	9553
893.085	9610
893.207	9584
893.33	9469
893.452	9477
893.575	9587
893.697	9462
893.819	9538
893.941	9614
894.064	9523
894.186	9466
894.308	9428
894.43	9511
894.552	9618
894.674	9526
894.796	9363
894.918	9397
895.04	9275
895.161	9344
895.283	9351
895.405	9218
895.526	9256
895.648	9237
895.769	9135
895.891	9195
896.012	9321
896.134	9203
896.255	9142
896.376	9135
896.498	9119
896.619	9127
896.74	8998
896.861	9062
896.982	9241
897.103	9279
897.224	9169
897.345	9077
897.466	8914
897.587	9017
897.708	9028
897.828	8998
897.949	8967
898.07	8864
898.19	8872
898.311	9047
898.431	8883
898.552	8933
898.672	8971
898.792	8895
898.913	8876
899.033	8781
899.153	8746
899.273	8686
899.393	8667
899.513	8716
899.633	8697
899.753	8693
899.873	8697
899.993	8739
900.113	8701
900.232	8670
900.352	8674
900.472	8552
900.591	8530
900.711	8579
900.83	8545
900.95	8644
901.069	8632
901.189	8560
901.308	8412
901.427	8358
901.546	8431
901.665	8431
901.784	8617
901.904	8393
902.023	8343
902.141	8214
902.26	8191
902.379	8244
902.498	8221
902.617	8221
902.735	8259
902.854	8267
902.973	8259
903.091	8062
903.21	8142
903.328	8176
903.446	8134
903.565	8027
903.683	8069
903.801	8062
903.919	8138
904.038	8123
904.156	7944
904.274	8096
904.392	7982
904.51	8058
904.627	8035
904.745	8100
904.863	8035
904.981	7947
905.098	7860
905.216	7837
905.334	7879
905.451	7902
905.569	7818
905.686	7970
905.803	7864
905.921	7788
906.038	7856
906.155	7742
906.272	7677
906.389	7685
906.506	7636
906.623	7662
906.74	7632
906.857	7483
906.974	7632
907.091	7723
907.208	7696
907.324	7559
907.441	7563
907.557	7426
907.674	7411
907.79	7343
907.907	7384
908.023	7430
908.139	7392
908.256	7354
908.372	7320
908.488	7358
908.604	7305
908.72	7263
908.836	7297
908.952	7236
909.068	7255
909.184	7301
909.3	7251
909.415	7282
909.531	7270
909.647	7129
909.762	7099
909.878	7110
909.993	7168
910.108	7126
910.224	7046
910.339	7107
910.454	7019
910.57	7023
910.685	6913
910.8	7114
910.915	7084
911.03	7012
911.145	6916
911.259	6867
911.374	6779
911.489	6837
911.604	6798
911.718	6719
911.833	6753
911.947	6650
912.062	6585
912.176	6715
912.291	6703
912.405	6642
912.519	6776
912.633	6837
912.748	6684
912.862	6662
912.976	6585
913.09	6506
913.204	6544
913.318	6608
913.431	6658
913.545	6681
913.659	6692
913.772	6639
913.886	6566
914	6551
914.113	6612
914.226	6612
914.34	6612
914.453	6502
914.566	6608
914.68	6486
914.793	6498
914.906	6414
915.019	6372
915.132	6422
915.245	6369
915.358	6445
915.47	6441
915.583	6433
915.696	6433
915.809	6506
915.921	6498
916.034	6357
916.146	6388
916.259	6391
916.371	6456
916.483	6483
916.595	6403
916.708	6422
916.82	6422
916.932	6456
917.044	6441
917.156	6319
917.268	6331
917.38	6357
917.491	6285
917.603	6350
917.715	6372
917.826	6399
917.938	6361
918.049	6182
918.161	6228
918.272	6407
918.384	6456
918.495	6311
918.606	6281
918.717	6194
918.828	6262
918.939	6285
919.05	6213
919.161	6224
919.272	6087
919.383	6125
919.494	6247
919.604	6437
919.715	6296
919.826	6220
919.936	6239
920.047	6304
920.157	6277
920.267	6464
920.378	6296
920.488	6292
920.598	6490
920.708	6582
920.818	6445
920.928	6429
921.038	6559
921.148	6498
921.258	6429
921.368	6197
921.477	6167
921.587	6201
921.697	6087
921.806	6197
921.916	6064
922.025	5935
922.134	5897
922.244	5863
922.353	5912
922.462	5897
922.571	5790
922.68	5672
922.789	5710
922.898	5699
923.007	5653
923.116	5703
923.224	5680
923.333	5668
923.442	5577
923.55	5551
923.659	5554
923.767	5623
923.876	5516
923.984	5600
924.092	5532
924.201	5554
924.309	5532
924.417	5471
924.525	5493
924.633	5482
924.741	6232
924.849	5398
924.956	5512
925.064	5337
925.172	5269
925.279	5273
925.387	5330
925.494	5277
925.602	5387
925.709	5334
925.816	5254
925.924	5284
926.031	5326
926.138	5315
926.245	5318
926.352	5185
926.459	5307
926.566	5330
926.673	5212
926.779	5132
926.886	5109
926.993	5033
927.099	5003
927.206	4976
927.312	4942
927.419	5010
927.525	4987
927.631	4976
927.737	4919
927.843	4854
927.95	4820
928.056	4790
928.162	4782
928.267	4782
928.373	5296
928.479	4862
928.585	4622
928.69	4786
928.796	4755
928.901	4664
929.007	4622
929.112	4660
929.218	4588
929.323	4653
929.428	4561
929.533	4698
929.638	4466
929.743	4512
929.848	4531
929.953	4538
930.058	4440
930.163	4329
930.267	4360
930.372	4379
930.477	4280
930.581	4504
930.685	4341
930.79	4280
930.894	4303
930.998	4234
931.103	4379
931.207	4139
931.311	4044
931.415	4067
931.519	3903
931.623	3968
