Data from glass_V78500241_2704.txt Node
Date: Wed Sep 01 19:33:14 CST 2021
User: usil
Spectrometer: V785-0024
Trigger mode: 0
Integration Time (sec): 4.000000E-1
Scans to average: 1
Nonlinearity correction enabled: false
Boxcar width: 0
Storing dark spectrum: false
XAxis mode: Wavelengths
Number of Pixels in Spectrum: 1024
>>>>>Begin Spectral Data<<<<<
801.071	3724
801.214	3740
801.356	3682
801.499	3713
801.641	3701
801.783	3762
801.926	3884
802.068	3819
802.211	3865
802.353	3823
802.496	3823
802.638	3865
802.78	3922
802.923	3922
803.065	3873
803.208	3854
803.35	3827
803.492	3842
803.635	3884
803.777	3812
803.919	3865
804.061	4120
804.204	3918
804.346	3934
804.488	3918
804.63	4036
804.773	3964
804.915	4071
805.057	4128
805.199	4025
805.341	4029
805.483	4139
805.626	4147
805.768	4071
805.91	4192
806.052	4215
806.194	4177
806.336	4386
806.478	4169
806.62	4188
806.762	4181
806.904	4192
807.046	4325
807.188	4200
807.33	4169
807.472	4219
807.614	4188
807.756	4227
807.898	4207
808.04	4204
808.182	4291
808.324	4272
808.465	4333
808.607	4455
808.749	4424
808.891	4451
809.033	4474
809.174	4394
809.316	4238
809.458	4204
809.6	4154
809.741	4116
809.883	4097
810.025	4204
810.166	4238
810.308	4253
810.45	4242
810.591	4204
810.733	4291
810.875	4489
811.016	4774
811.158	5113
811.299	5277
811.441	5269
811.582	5018
811.724	4645
811.865	4409
812.007	4440
812.148	4443
812.29	4344
812.431	4383
812.573	4360
812.714	4356
812.855	4398
812.997	4344
813.138	4481
813.279	4447
813.421	4371
813.562	4348
813.703	4314
813.845	4318
813.986	4223
814.127	4181
814.268	4272
814.41	4249
814.551	4284
814.692	4352
814.833	4265
814.974	4314
815.115	4337
815.256	4223
815.397	4257
815.539	4200
815.68	4169
815.821	4219
815.962	4318
816.103	4268
816.244	4207
816.385	4219
816.526	4291
816.666	4128
816.807	4082
816.948	4131
817.089	4173
817.23	4116
817.371	4029
817.512	4086
817.653	4040
817.793	4006
817.934	4021
818.075	4116
818.216	4036
818.356	4082
818.497	3941
818.638	3922
818.778	3884
818.919	3880
819.06	3915
819.2	3899
819.341	3838
819.481	3812
819.622	3907
819.762	3991
819.903	3941
820.043	3869
820.184	3812
820.324	3865
820.465	3850
820.605	3857
820.746	3911
820.886	3800
821.026	3888
821.167	3918
821.307	3911
821.447	3994
821.588	3968
821.728	3941
821.868	3926
822.008	3827
822.149	3896
822.289	3915
822.429	3781
822.569	3762
822.709	3808
822.849	3732
822.99	3724
823.13	3736
823.27	3755
823.41	3690
823.55	3713
823.69	3736
823.83	3736
823.97	3633
824.11	3618
824.25	3576
824.389	3595
824.529	3637
824.669	3622
824.809	3751
824.949	3736
825.089	3705
825.228	3720
825.368	3561
825.508	3557
825.648	3587
825.787	3587
825.927	3580
826.067	3568
826.206	3694
826.346	3774
826.485	3812
826.625	3819
826.765	3899
826.904	3793
827.044	3603
827.183	3534
827.323	3405
827.462	3485
827.601	3447
827.741	3443
827.88	3454
828.02	3363
828.159	3428
828.298	3447
828.437	3515
828.577	3458
828.716	3587
828.855	3458
828.994	3344
829.134	3317
829.273	3378
829.412	3348
829.551	3332
829.69	3344
829.829	3412
829.968	3526
830.107	3424
830.246	3443
830.385	3363
830.524	3344
830.663	3249
830.802	3214
830.941	3180
831.08	3184
831.219	3272
831.357	3283
831.496	3386
831.635	3222
831.774	3218
831.913	3199
832.051	3154
832.19	3119
832.329	3207
832.467	3135
832.606	3112
832.744	3169
832.883	3119
833.022	3203
833.16	3253
833.299	3283
833.437	3291
833.576	3378
833.714	3401
833.852	3447
833.991	3424
834.129	3481
834.267	3424
834.406	3374
834.544	3382
834.682	3409
834.821	3424
834.959	3576
835.097	3428
835.235	3515
835.373	3507
835.511	3496
835.65	3443
835.788	3454
835.926	3424
836.064	3344
836.202	3409
836.34	3545
836.478	3580
836.615	3572
836.753	3580
836.891	3667
837.029	3599
837.167	3561
837.305	3584
837.443	3519
837.58	3500
837.718	3580
837.856	3591
837.993	3553
838.131	3595
838.269	3561
838.406	3599
838.544	3568
838.681	3466
838.819	3428
838.956	3351
839.094	3382
839.231	3428
839.369	3477
839.506	3701
839.643	3580
839.781	3462
839.918	3443
840.055	3515
840.193	3542
840.33	3523
840.467	3515
840.604	3591
840.742	3797
840.879	3542
841.016	3538
841.153	3557
841.29	3728
841.427	3740
841.564	3690
841.701	3694
841.838	3686
841.975	3633
842.112	3686
842.249	3648
842.385	3622
842.522	3797
842.659	3709
842.796	3675
842.933	3743
843.069	3667
843.206	3747
843.343	3781
843.479	3770
843.616	3797
843.752	3675
843.889	3667
844.025	3865
844.162	3713
844.298	3816
844.435	3778
844.571	3701
844.708	3869
844.844	3937
844.98	3987
845.117	3975
845.253	3896
845.389	3880
845.525	3937
845.661	3972
845.798	3899
845.934	3991
846.07	3968
846.206	4013
846.342	4131
846.478	4063
846.614	3975
846.75	3941
846.886	3896
847.022	4071
847.158	3960
847.294	3987
847.429	4010
847.565	3941
847.701	4242
847.837	3892
847.972	3884
848.108	3930
848.244	3918
848.379	3823
848.515	3774
848.65	3831
848.786	3793
848.921	3850
849.057	3876
849.192	3918
849.328	3873
849.463	3869
849.598	3892
849.734	3838
849.869	3854
850.004	3751
850.14	3793
850.275	3736
850.41	3717
850.545	3720
850.68	3759
850.815	3781
850.95	3766
851.085	3918
851.22	3865
851.355	3770
851.49	3774
851.625	3770
851.76	3812
851.895	3736
852.03	3736
852.165	3762
852.299	3854
852.434	3907
852.569	3816
852.703	3842
852.838	3930
852.973	3975
853.107	3945
853.242	3842
853.376	3857
853.511	3789
853.645	3831
853.78	3991
853.914	3880
854.048	3880
854.183	3899
854.317	3964
854.451	4002
854.585	3941
854.72	3907
854.854	4036
854.988	3854
855.122	4006
855.256	3922
855.39	4067
855.524	4044
855.658	4063
855.792	4093
855.926	4120
856.06	4162
856.194	4204
856.327	4128
856.461	4090
856.595	4128
856.729	4177
856.862	4257
856.996	4211
857.13	4306
857.263	4318
857.397	4367
857.53	4230
857.664	4363
857.797	4367
857.931	4398
858.064	4341
858.197	4424
858.331	4436
858.464	4360
858.597	4371
858.731	4421
858.864	4443
858.997	4421
859.13	4523
859.263	4527
859.396	4531
859.529	4523
859.662	4500
859.795	4535
859.928	4580
860.061	4714
860.194	4672
860.327	4615
860.46	4592
860.592	4702
860.725	4767
860.858	4763
860.99	4714
861.123	4630
861.256	4656
861.388	4725
861.521	5231
861.653	4710
861.786	4637
861.918	4714
862.05	4801
862.183	4858
862.315	4911
862.447	4904
862.58	4850
862.712	4793
862.844	4759
862.976	4870
863.108	4824
863.24	5277
863.372	4828
863.504	4881
863.636	4889
863.768	4904
863.9	4961
864.032	4915
864.164	4908
864.296	5014
864.428	5083
864.559	5140
864.691	5109
864.823	5128
864.954	5143
865.086	5136
865.217	5132
865.349	5071
865.48	5178
865.612	5174
865.743	5296
865.875	5151
866.006	5166
866.137	5185
866.269	5250
866.4	5239
866.531	5235
866.662	5220
866.793	5296
866.924	5277
867.055	5292
867.186	5288
867.317	5299
867.448	5341
867.579	5379
867.71	5364
867.841	5368
867.972	5421
868.103	5436
868.233	5429
868.364	5467
868.495	5551
868.625	5649
868.756	5752
868.886	5642
869.017	5707
869.147	5832
869.278	5885
869.408	5821
869.539	5824
869.669	5851
869.799	5931
869.929	5977
870.06	5969
870.19	6114
870.32	6136
870.45	6228
870.58	6361
870.71	6437
870.84	6441
870.97	6437
871.1	6464
871.23	6654
871.36	6730
871.489	6639
871.619	6738
871.749	6795
871.879	6783
872.008	6996
872.138	7004
872.267	6985
872.397	7000
872.526	6985
872.656	7107
872.785	7236
872.915	7350
873.044	7556
873.173	7518
873.303	7594
873.432	7715
873.561	7826
873.69	7849
873.819	7978
873.948	8161
874.077	8237
874.206	8313
874.335	8404
874.464	8655
874.593	8788
874.722	8933
874.851	9116
874.979	9218
875.108	9317
875.237	9321
875.365	9439
875.494	9701
875.623	9778
875.751	9819
875.88	9994
876.008	10150
876.136	10238
876.265	10516
876.393	10755
876.521	10698
876.65	10801
876.778	10835
876.906	10942
877.034	10999
877.162	11029
877.29	11208
877.418	11261
877.546	11334
877.674	11455
877.802	11425
877.93	11486
878.058	11573
878.185	11596
878.313	11691
878.441	11638
878.568	11729
878.696	11729
878.824	11874
878.951	11901
879.079	11977
879.206	12038
879.333	12022
879.461	11984
879.588	12087
879.715	12064
879.842	12121
879.97	12053
880.097	11855
880.224	11912
880.351	11824
880.478	11931
880.605	11813
880.732	11805
880.859	12022
880.986	11821
881.112	11874
881.239	11691
881.366	11623
881.493	11634
881.619	11570
881.746	11551
881.872	11589
881.999	11482
882.125	11459
882.252	11505
882.378	11463
882.505	11493
882.631	11318
882.757	11284
882.883	11288
883.01	11239
883.136	11185
883.262	11178
883.388	11041
883.514	11170
883.64	11140
883.766	11178
883.892	10896
884.018	10987
884.143	11022
884.269	11109
884.395	10771
884.52	10774
884.646	10778
884.772	10691
884.897	10592
885.023	10660
885.148	10683
885.274	10736
885.399	10706
885.524	10588
885.65	10554
885.775	10569
885.9	10588
886.025	10603
886.15	10592
886.275	10428
886.4	10394
886.525	10367
886.65	10325
886.775	10371
886.9	10394
887.025	10565
887.149	10280
887.274	10219
887.399	10207
887.523	10147
887.648	10116
887.773	10116
887.897	10177
888.021	10188
888.146	10128
888.27	10185
888.395	10211
888.519	10158
888.643	10135
888.767	10215
888.891	10078
889.015	9945
889.139	10063
889.263	9991
889.387	10048
889.511	10147
889.635	10093
889.759	10006
889.883	10040
890.006	9994
890.13	10074
890.254	10002
890.377	10025
890.501	9816
890.624	9930
890.748	9979
890.871	9759
890.995	9759
891.118	9717
891.241	9785
891.364	9690
891.488	9793
891.611	9770
891.734	9656
891.857	9800
891.98	9675
892.103	9766
892.226	9660
892.349	9652
892.471	9542
892.594	9523
892.717	9629
892.839	9572
892.962	9633
893.085	9625
893.207	9530
893.33	9492
893.452	9542
893.575	9591
893.697	9500
893.819	9686
893.941	9690
894.064	9580
894.186	9393
894.308	9431
894.43	9542
894.552	9504
894.674	9511
894.796	9348
894.918	9408
895.04	9321
895.161	9393
895.283	9325
895.405	9218
895.526	9283
895.648	9211
895.769	9192
895.891	9138
896.012	9306
896.134	9203
896.255	9157
896.376	9116
896.498	9108
896.619	9131
896.74	9024
896.861	9104
896.982	9233
897.103	9256
897.224	9127
897.345	9039
897.466	8952
897.587	8994
897.708	9085
897.828	8986
897.949	8902
898.07	8880
898.19	8944
898.311	9039
898.431	8956
898.552	8891
898.672	8944
898.792	8933
898.913	8872
899.033	8800
899.153	8735
899.273	8594
899.393	8701
899.513	8739
899.633	8754
899.753	8746
899.873	8708
899.993	8686
900.113	8731
900.232	8727
900.352	8651
900.472	8602
900.591	8488
900.711	8579
900.83	8522
900.95	8686
901.069	8693
901.189	8575
901.308	8404
901.427	8351
901.546	8377
901.665	8431
901.784	8415
901.904	8339
902.023	8355
902.141	8172
902.26	8195
902.379	8259
902.498	8221
902.617	8107
902.735	8305
902.854	8263
902.973	8214
903.091	8183
903.21	8123
903.328	8145
903.446	8187
903.565	8073
903.683	8084
903.801	8039
903.919	8107
904.038	8073
904.156	8035
904.274	8069
904.392	8054
904.51	7993
904.627	8035
904.745	8024
904.863	8115
904.981	7879
905.098	7830
905.216	7856
905.334	7841
905.451	7879
905.569	7864
905.686	7902
905.803	7913
905.921	7719
906.038	7788
906.155	7811
906.272	7636
906.389	7734
906.506	7628
906.623	7651
906.74	7601
906.857	7544
906.974	7582
907.091	7693
907.208	7765
907.324	7639
907.441	7559
907.557	7453
907.674	7396
907.79	7365
907.907	7354
908.023	7476
908.139	7449
908.256	7392
908.372	7388
908.488	7358
908.604	7266
908.72	7274
908.836	7301
908.952	7255
909.068	7251
909.184	7270
909.3	7339
909.415	7289
909.531	7232
909.647	7114
909.762	7099
909.878	7061
909.993	7133
910.108	7072
910.224	7072
910.339	7042
910.454	7031
910.57	6993
910.685	6901
910.8	7194
910.915	7107
911.03	7050
911.145	6928
911.259	6814
911.374	6905
911.489	6757
911.604	6760
911.718	6665
911.833	6696
911.947	6650
912.062	6654
912.176	6650
912.291	6669
912.405	6669
912.519	6878
912.633	6806
912.748	6722
912.862	6665
912.976	6597
913.09	6460
913.204	6604
913.318	6593
913.431	6719
913.545	6738
913.659	6719
913.772	6646
913.886	6555
914	6540
914.113	6593
914.226	6608
914.34	6601
914.453	6486
914.566	6578
914.68	6528
914.793	6471
914.906	6403
915.019	6388
915.132	6319
915.245	6448
915.358	6422
915.47	6452
915.583	6426
915.696	6456
915.809	6570
915.921	6502
916.034	6426
916.146	6388
916.259	6369
916.371	6471
916.483	6395
916.595	6422
916.708	6403
916.82	6357
916.932	6308
917.044	6388
917.156	6338
917.268	6323
917.38	6292
917.491	6327
917.603	6315
917.715	6414
917.826	6369
917.938	6292
918.049	6216
918.161	6350
918.272	6452
918.384	6372
918.495	6300
918.606	6205
918.717	6216
918.828	6247
918.939	6243
919.05	6155
919.161	6213
919.272	6076
919.383	6144
919.494	6273
919.604	6433
919.715	6262
919.826	6205
919.936	6254
920.047	6369
920.157	6228
920.267	6479
920.378	6266
920.488	6258
920.598	6445
920.708	6513
920.818	6475
920.928	6456
921.038	6574
921.148	6559
921.258	6319
921.368	6266
921.477	6228
921.587	6155
921.697	6129
921.806	6175
921.916	6102
922.025	5920
922.134	5851
922.244	5927
922.353	5912
922.462	5901
922.571	5775
922.68	5718
922.789	5680
922.898	5646
923.007	5577
923.116	5699
923.224	5634
923.333	5680
923.442	5585
923.55	5570
923.659	5558
923.767	5653
923.876	5562
923.984	5634
924.092	5490
924.201	5581
924.309	5524
924.417	5551
924.525	5448
924.633	5497
924.741	6266
924.849	5334
924.956	5417
925.064	5368
925.172	5246
925.279	5318
925.387	5349
925.494	5345
925.602	5406
925.709	5334
925.816	5273
925.924	5303
926.031	5353
926.138	5277
926.245	5330
926.352	5223
926.459	5292
926.566	5337
926.673	5185
926.779	5121
926.886	5064
926.993	5014
927.099	5022
927.206	4949
927.312	4927
927.419	4976
927.525	4968
927.631	4942
927.737	4873
927.843	4881
927.95	4771
928.056	4870
928.162	4812
928.267	4858
928.373	5261
928.479	4866
928.585	4679
928.69	4759
928.796	4744
928.901	4687
929.007	4580
929.112	4687
929.218	4637
929.323	4573
929.428	4550
929.533	4641
929.638	4542
929.743	4558
929.848	4508
929.953	4481
930.058	4436
930.163	4299
930.267	4379
930.372	4383
930.477	4253
930.581	4455
930.685	4344
930.79	4257
930.894	4306
930.998	4272
931.103	4363
931.207	4112
931.311	4078
931.415	4006
931.519	3915
931.623	3911
