Data from glass_V78500241_1744.txt Node
Date: Wed Sep 01 19:26:35 CST 2021
User: usil
Spectrometer: V785-0024
Trigger mode: 0
Integration Time (sec): 4.000000E-1
Scans to average: 1
Nonlinearity correction enabled: false
Boxcar width: 0
Storing dark spectrum: false
XAxis mode: Wavelengths
Number of Pixels in Spectrum: 1024
>>>>>Begin Spectral Data<<<<<
801.071	3724
801.214	3728
801.356	3720
801.499	3751
801.641	3709
801.783	3816
801.926	3865
802.068	3838
802.211	3884
802.353	3842
802.496	3842
802.638	3876
802.78	3922
802.923	3922
803.065	3850
803.208	3884
803.35	3873
803.492	3918
803.635	3896
803.777	3804
803.919	3915
804.061	4173
804.204	3941
804.346	3994
804.488	3941
804.63	4036
804.773	3937
804.915	4025
805.057	4188
805.199	4036
805.341	4139
805.483	4169
805.626	4139
805.768	4124
805.91	4227
806.052	4219
806.194	4192
806.336	4363
806.478	4204
806.62	4154
806.762	4173
806.904	4185
807.046	4352
807.188	4200
807.33	4177
807.472	4219
807.614	4227
807.756	4238
807.898	4211
808.04	4177
808.182	4284
808.324	4291
808.465	4379
808.607	4489
808.749	4432
808.891	4428
809.033	4478
809.174	4394
809.316	4280
809.458	4227
809.6	4131
809.741	4154
809.883	4131
810.025	4257
810.166	4257
810.308	4230
810.45	4242
810.591	4215
810.733	4303
810.875	4531
811.016	4828
811.158	5094
811.299	5269
811.441	5265
811.582	5037
811.724	4698
811.865	4508
812.007	4459
812.148	4436
812.29	4398
812.431	4409
812.573	4409
812.714	4413
812.855	4398
812.997	4428
813.138	4508
813.279	4375
813.421	4402
813.562	4390
813.703	4337
813.845	4280
813.986	4303
814.127	4234
814.268	4265
814.41	4242
814.551	4265
814.692	4249
814.833	4242
814.974	4363
815.115	4329
815.256	4211
815.397	4238
815.539	4196
815.68	4219
815.821	4185
815.962	4322
816.103	4272
816.244	4223
816.385	4227
816.526	4280
816.666	4219
816.807	4131
816.948	4173
817.089	4154
817.23	4090
817.371	4071
817.512	4063
817.653	4101
817.793	4017
817.934	3987
818.075	4055
818.216	4082
818.356	4090
818.497	4025
818.638	3899
818.778	3911
818.919	3884
819.06	3876
819.2	3915
819.341	3907
819.481	3865
819.622	3922
819.762	4021
819.903	3968
820.043	3861
820.184	3861
820.324	3804
820.465	3861
820.605	3892
820.746	3880
820.886	3785
821.026	3983
821.167	3876
821.307	3937
821.447	4010
821.588	3911
821.728	3964
821.868	3934
822.008	3880
822.149	3899
822.289	3922
822.429	3793
822.569	3759
822.709	3770
822.849	3740
822.99	3724
823.13	3740
823.27	3755
823.41	3682
823.55	3717
823.69	3717
823.83	3736
823.97	3675
824.11	3606
824.25	3591
824.389	3644
824.529	3675
824.669	3591
824.809	3709
824.949	3743
825.089	3740
825.228	3682
825.368	3584
825.508	3603
825.648	3572
825.787	3614
825.927	3622
826.067	3603
826.206	3652
826.346	3789
826.485	3842
826.625	3884
826.765	3960
826.904	3800
827.044	3610
827.183	3500
827.323	3409
827.462	3515
827.601	3409
827.741	3416
827.88	3447
828.02	3359
828.159	3447
828.298	3488
828.437	3561
828.577	3485
828.716	3603
828.855	3473
828.994	3401
829.134	3370
829.273	3393
829.412	3336
829.551	3351
829.69	3374
829.829	3469
829.968	3488
830.107	3447
830.246	3466
830.385	3363
830.524	3317
830.663	3237
830.802	3233
830.941	3188
831.08	3203
831.219	3253
831.357	3253
831.496	3389
831.635	3214
831.774	3188
831.913	3214
832.051	3108
832.19	3142
832.329	3222
832.467	3116
832.606	3081
832.744	3161
832.883	3192
833.022	3199
833.16	3245
833.299	3291
833.437	3340
833.576	3386
833.714	3412
833.852	3435
833.991	3469
834.129	3481
834.267	3473
834.406	3382
834.544	3401
834.682	3416
834.821	3412
834.959	3576
835.097	3393
835.235	3526
835.373	3477
835.511	3519
835.65	3477
835.788	3466
835.926	3409
836.064	3382
836.202	3374
836.34	3580
836.478	3587
836.615	3526
836.753	3606
836.891	3606
837.029	3561
837.167	3618
837.305	3549
837.443	3568
837.58	3496
837.718	3591
837.856	3530
837.993	3534
838.131	3599
838.269	3603
838.406	3584
838.544	3584
838.681	3469
838.819	3462
838.956	3409
839.094	3382
839.231	3447
839.369	3515
839.506	3740
839.643	3637
839.781	3485
839.918	3401
840.055	3545
840.193	3511
840.33	3553
840.467	3564
840.604	3576
840.742	3789
840.879	3530
841.016	3530
841.153	3606
841.29	3770
841.427	3713
841.564	3724
841.701	3770
841.838	3724
841.975	3717
842.112	3698
842.249	3644
842.385	3652
842.522	3816
842.659	3671
842.796	3705
842.933	3713
843.069	3675
843.206	3686
843.343	3831
843.479	3800
843.616	3842
843.752	3660
843.889	3675
844.025	3835
844.162	3736
844.298	3850
844.435	3751
844.571	3812
844.708	3842
844.844	3983
844.98	4032
845.117	3987
845.253	3964
845.389	3888
845.525	4021
845.661	3941
845.798	3922
845.934	4010
846.07	3975
846.206	4002
846.342	4093
846.478	4063
846.614	4010
846.75	3896
846.886	3880
847.022	4055
847.158	3998
847.294	3968
847.429	4002
847.565	4006
847.701	4257
847.837	3899
847.972	3873
848.108	3956
848.244	3956
848.379	3842
848.515	3789
848.65	3762
848.786	3804
848.921	3835
849.057	3930
849.192	3941
849.328	3930
849.463	3918
849.598	3899
849.734	3838
849.869	3850
850.004	3755
850.14	3774
850.275	3797
850.41	3743
850.545	3751
850.68	3778
850.815	3800
850.95	3831
851.085	3930
851.22	3865
851.355	3835
851.49	3797
851.625	3774
851.76	3808
851.895	3720
852.03	3720
852.165	3785
852.299	3823
852.434	3918
852.569	3816
852.703	3884
852.838	3892
852.973	4025
853.107	4002
853.242	3896
853.376	3838
853.511	3808
853.645	3808
853.78	4013
853.914	3926
854.048	3926
854.183	3880
854.317	3953
854.451	4097
854.585	3983
854.72	3934
854.854	4051
854.988	3934
855.122	3983
855.256	3926
855.39	4040
855.524	4154
855.658	4093
855.792	4071
855.926	4135
856.06	4135
856.194	4215
856.327	4135
856.461	4135
856.595	4166
856.729	4173
856.862	4253
856.996	4215
857.13	4284
857.263	4310
857.397	4341
857.53	4223
857.664	4363
857.797	4379
857.931	4432
858.064	4383
858.197	4478
858.331	4363
858.464	4386
858.597	4337
858.731	4436
858.864	4489
858.997	4516
859.13	4512
859.263	4485
859.396	4596
859.529	4550
859.662	4516
859.795	4546
859.928	4584
860.061	4714
860.194	4736
860.327	4668
860.46	4641
860.592	4733
860.725	4744
860.858	4801
860.99	4672
861.123	4698
861.256	4679
861.388	4759
861.521	5387
861.653	4691
861.786	4740
861.918	4714
862.05	4805
862.183	4866
862.315	4904
862.447	4965
862.58	4904
862.712	4831
862.844	4790
862.976	4820
863.108	4820
863.24	5242
863.372	4870
863.504	4934
863.636	4911
863.768	4987
863.9	4968
864.032	4877
864.164	4980
864.296	5052
864.428	5090
864.559	5098
864.691	5075
864.823	5121
864.954	5124
865.086	5166
865.217	5143
865.349	5185
865.48	5136
865.612	5227
865.743	5299
865.875	5220
866.006	5197
866.137	5220
866.269	5235
866.4	5277
866.531	5246
866.662	5178
866.793	5235
866.924	5273
867.055	5277
867.186	5341
867.317	5299
867.448	5299
867.579	5353
867.71	5398
867.841	5322
867.972	5417
868.103	5493
868.233	5448
868.364	5558
868.495	5520
868.625	5688
868.756	5779
868.886	5722
869.017	5733
869.147	5851
869.278	5874
869.408	5798
869.539	5821
869.669	5927
869.799	5882
869.929	6064
870.06	6026
870.19	6159
870.32	6216
870.45	6247
870.58	6323
870.71	6429
870.84	6467
870.97	6422
871.1	6448
871.23	6612
871.36	6692
871.489	6707
871.619	6760
871.749	6825
871.879	6890
872.008	6970
872.138	6962
872.267	7015
872.397	6993
872.526	7091
872.656	7065
872.785	7255
872.915	7403
873.044	7544
873.173	7499
873.303	7647
873.432	7753
873.561	7856
873.69	7875
873.819	8065
873.948	8149
874.077	8225
874.206	8351
874.335	8511
874.464	8636
874.593	8975
874.722	8944
874.851	9127
874.979	9157
875.108	9332
875.237	9355
875.365	9450
875.494	9587
875.623	9854
875.751	9823
875.88	10017
876.008	10181
876.136	10344
876.265	10443
876.393	10717
876.521	10790
876.65	10873
876.778	10820
876.906	10900
877.034	11006
877.162	11052
877.29	11121
877.418	11337
877.546	11417
877.674	11497
877.802	11440
877.93	11497
878.058	11562
878.185	11539
878.313	11642
878.441	11718
878.568	11714
878.696	11904
878.824	11889
878.951	11866
879.079	12068
879.206	12182
879.333	12068
879.461	11961
879.588	12159
879.715	12129
879.842	12239
879.97	12102
880.097	11893
880.224	11935
880.351	11927
880.478	11988
880.605	11878
880.732	11748
880.859	12041
880.986	11775
881.112	11786
881.239	11668
881.366	11570
881.493	11566
881.619	11608
881.746	11604
881.872	11566
881.999	11455
882.125	11425
882.252	11505
882.378	11528
882.505	11581
882.631	11337
882.757	11246
882.883	11284
883.01	11356
883.136	11201
883.262	11189
883.388	11052
883.514	11197
883.64	11201
883.766	10991
883.892	11037
884.018	11048
884.143	11022
884.269	11132
884.395	10873
884.52	10797
884.646	10763
884.772	10736
884.897	10702
885.023	10664
885.148	10748
885.274	10873
885.399	10653
885.524	10596
885.65	10641
885.775	10535
885.9	10519
886.025	10656
886.15	10565
886.275	10447
886.4	10447
886.525	10443
886.65	10409
886.775	10382
886.9	10440
887.025	10538
887.149	10363
887.274	10215
887.399	10211
887.523	10139
887.648	10204
887.773	10093
887.897	10310
888.021	10219
888.146	10200
888.27	10196
888.395	10253
888.519	10143
888.643	10177
888.767	10162
888.891	10093
889.015	10032
889.139	10086
889.263	10055
889.387	10116
889.511	10139
889.635	9991
889.759	9953
889.883	10010
890.006	10002
890.13	10025
890.254	9865
890.377	9968
890.501	9873
890.624	9804
890.748	9911
890.871	9827
890.995	9762
891.118	9648
891.241	9728
891.364	9819
891.488	9842
891.611	9781
891.734	9736
891.857	9827
891.98	9724
892.103	9789
892.226	9720
892.349	9701
892.471	9519
892.594	9603
892.717	9667
892.839	9591
892.962	9545
893.085	9713
893.207	9572
893.33	9538
893.452	9534
893.575	9557
893.697	9515
893.819	9595
893.941	9599
894.064	9584
894.186	9393
894.308	9393
894.43	9542
894.552	9603
894.674	9530
894.796	9389
894.918	9351
895.04	9355
895.161	9389
895.283	9374
895.405	9260
895.526	9207
895.648	9283
895.769	9245
895.891	9287
896.012	9150
896.134	9192
896.255	9184
896.376	9169
896.498	9097
896.619	9203
896.74	9131
896.861	9119
896.982	9222
897.103	9321
897.224	9165
897.345	9108
897.466	9070
897.587	8979
897.708	9100
897.828	9085
897.949	8967
898.07	8872
898.19	8967
898.311	9070
898.431	8925
898.552	8921
898.672	8925
898.792	8944
898.913	8948
899.033	8819
899.153	8705
899.273	8720
899.393	8739
899.513	8804
899.633	8705
899.753	8769
899.873	8693
899.993	8754
900.113	8674
900.232	8670
900.352	8655
900.472	8575
900.591	8583
900.711	8640
900.83	8507
900.95	8705
901.069	8659
901.189	8602
901.308	8438
901.427	8415
901.546	8484
901.665	8408
901.784	8518
901.904	8366
902.023	8309
902.141	8298
902.26	8233
902.379	8362
902.498	8157
902.617	8210
902.735	8248
902.854	8294
902.973	8267
903.091	8103
903.21	8164
903.328	8096
903.446	8115
903.565	8096
903.683	8142
903.801	8115
903.919	8119
904.038	8134
904.156	8092
904.274	8077
904.392	8077
904.51	8062
904.627	8081
904.745	8054
904.863	8134
904.981	7871
905.098	7852
905.216	7871
905.334	7909
905.451	7982
905.569	7871
905.686	7925
905.803	7909
905.921	7715
906.038	7868
906.155	7795
906.272	7723
906.389	7719
906.506	7620
906.623	7624
906.74	7628
906.857	7575
906.974	7609
907.091	7628
907.208	7723
907.324	7620
907.441	7571
907.557	7438
907.674	7426
907.79	7335
907.907	7392
908.023	7388
908.139	7441
908.256	7384
908.372	7400
908.488	7358
908.604	7236
908.72	7282
908.836	7282
908.952	7217
909.068	7259
909.184	7293
909.3	7244
909.415	7316
909.531	7339
909.647	7126
909.762	7129
909.878	7095
909.993	7084
910.108	7126
910.224	7034
910.339	7122
910.454	7038
910.57	7027
910.685	6897
910.8	7175
910.915	7076
911.03	7038
911.145	6966
911.259	6897
911.374	6863
911.489	6852
911.604	6833
911.718	6711
911.833	6707
911.947	6658
912.062	6601
912.176	6753
912.291	6700
912.405	6715
912.519	6837
912.633	6878
912.748	6681
912.862	6707
912.976	6559
913.09	6544
913.204	6604
913.318	6604
913.431	6662
913.545	6665
913.659	6738
913.772	6669
913.886	6559
914	6551
914.113	6566
914.226	6574
914.34	6589
914.453	6506
914.566	6585
914.68	6536
914.793	6540
914.906	6441
915.019	6464
915.132	6429
915.245	6426
915.358	6445
915.47	6399
915.583	6448
915.696	6471
915.809	6509
915.921	6509
916.034	6437
916.146	6376
916.259	6391
916.371	6467
916.483	6464
916.595	6422
916.708	6410
916.82	6418
916.932	6380
917.044	6376
917.156	6388
917.268	6357
917.38	6372
917.491	6338
917.603	6331
917.715	6395
917.826	6395
917.938	6365
918.049	6285
918.161	6331
918.272	6483
918.384	6460
918.495	6361
918.606	6277
918.717	6182
918.828	6304
918.939	6239
919.05	6144
919.161	6235
919.272	6079
919.383	6194
919.494	6319
919.604	6357
919.715	6319
919.826	6232
919.936	6300
920.047	6357
920.157	6300
920.267	6388
920.378	6228
920.488	6285
920.598	6448
920.708	6525
920.818	6452
920.928	6433
921.038	6544
921.148	6582
921.258	6285
921.368	6247
921.477	6235
921.587	6190
921.697	6049
921.806	6171
921.916	6030
922.025	5984
922.134	5969
922.244	5870
922.353	5923
922.462	5844
922.571	5809
922.68	5699
922.789	5649
922.898	5748
923.007	5630
923.116	5665
923.224	5707
923.333	5646
923.442	5619
923.55	5566
923.659	5585
923.767	5680
923.876	5570
923.984	5551
924.092	5532
924.201	5589
924.309	5524
924.417	5543
924.525	5471
924.633	5539
924.741	6277
924.849	5387
924.956	5493
925.064	5387
925.172	5284
925.279	5311
925.387	5322
925.494	5334
925.602	5406
925.709	5353
925.816	5315
925.924	5345
926.031	5406
926.138	5254
926.245	5334
926.352	5231
926.459	5330
926.566	5254
926.673	5246
926.779	5136
926.886	5102
926.993	5022
927.099	4991
927.206	4991
927.312	4949
927.419	5010
927.525	4949
927.631	4980
927.737	4854
927.843	4881
927.95	4759
928.056	4828
928.162	4839
928.267	4862
928.373	5360
928.479	4828
928.585	4668
928.69	4767
928.796	4816
928.901	4687
929.007	4592
929.112	4702
929.218	4649
929.323	4554
929.428	4603
929.533	4694
929.638	4428
929.743	4546
929.848	4546
929.953	4519
930.058	4440
930.163	4329
930.267	4337
930.372	4417
930.477	4280
930.581	4436
930.685	4303
930.79	4272
930.894	4318
930.998	4227
931.103	4367
931.207	4082
931.311	4105
931.415	4021
931.519	3926
931.623	3930
