Data from glass_V78500241_1923.txt Node
Date: Wed Sep 01 19:27:49 CST 2021
User: usil
Spectrometer: V785-0024
Trigger mode: 0
Integration Time (sec): 4.000000E-1
Scans to average: 1
Nonlinearity correction enabled: false
Boxcar width: 0
Storing dark spectrum: false
XAxis mode: Wavelengths
Number of Pixels in Spectrum: 1024
>>>>>Begin Spectral Data<<<<<
801.071	3759
801.214	3751
801.356	3694
801.499	3728
801.641	3728
801.783	3762
801.926	3876
802.068	3812
802.211	3827
802.353	3911
802.496	3854
802.638	3865
802.78	3907
802.923	3934
803.065	3934
803.208	3911
803.35	3865
803.492	3922
803.635	3911
803.777	3812
803.919	3827
804.061	4147
804.204	3975
804.346	3960
804.488	3941
804.63	4044
804.773	3994
804.915	3983
805.057	4135
805.199	4055
805.341	4071
805.483	4093
805.626	4128
805.768	4078
805.91	4207
806.052	4230
806.194	4204
806.336	4325
806.478	4204
806.62	4185
806.762	4169
806.904	4310
807.046	4337
807.188	4215
807.33	4192
807.472	4177
807.614	4200
807.756	4268
807.898	4215
808.04	4181
808.182	4272
808.324	4280
808.465	4379
808.607	4478
808.749	4436
808.891	4443
809.033	4459
809.174	4424
809.316	4246
809.458	4261
809.6	4173
809.741	4166
809.883	4109
810.025	4211
810.166	4185
810.308	4166
810.45	4246
810.591	4249
810.733	4268
810.875	4508
811.016	4793
811.158	5083
811.299	5250
811.441	5311
811.582	5083
811.724	4710
811.865	4500
812.007	4462
812.148	4451
812.29	4375
812.431	4424
812.573	4371
812.714	4409
812.855	4436
812.997	4367
813.138	4497
813.279	4443
813.421	4398
813.562	4417
813.703	4344
813.845	4318
813.986	4291
814.127	4215
814.268	4303
814.41	4265
814.551	4257
814.692	4322
814.833	4268
814.974	4287
815.115	4322
815.256	4242
815.397	4211
815.539	4268
815.68	4242
815.821	4185
815.962	4306
816.103	4322
816.244	4253
816.385	4196
816.526	4265
816.666	4204
816.807	4112
816.948	4139
817.089	4158
817.23	4143
817.371	4013
817.512	4059
817.653	4078
817.793	4021
817.934	4040
818.075	4048
818.216	4048
818.356	4109
818.497	3968
818.638	3953
818.778	3903
818.919	3896
819.06	3846
819.2	3884
819.341	3876
819.481	3831
819.622	3876
819.762	4071
819.903	3945
820.043	3831
820.184	3842
820.324	3808
820.465	3857
820.605	3838
820.746	3846
820.886	3804
821.026	3926
821.167	3949
821.307	4013
821.447	3991
821.588	3949
821.728	3888
821.868	3953
822.008	3869
822.149	3873
822.289	3945
822.429	3743
822.569	3785
822.709	3861
822.849	3648
822.99	3648
823.13	3743
823.27	3774
823.41	3686
823.55	3717
823.69	3728
823.83	3751
823.97	3660
824.11	3610
824.25	3618
824.389	3637
824.529	3625
824.669	3603
824.809	3709
824.949	3774
825.089	3736
825.228	3694
825.368	3568
825.508	3553
825.648	3580
825.787	3618
825.927	3614
826.067	3603
826.206	3656
826.346	3720
826.485	3846
826.625	3857
826.765	3945
826.904	3816
827.044	3584
827.183	3507
827.323	3462
827.462	3485
827.601	3466
827.741	3424
827.88	3458
828.02	3351
828.159	3431
828.298	3409
828.437	3519
828.577	3477
828.716	3603
828.855	3485
828.994	3389
829.134	3382
829.273	3405
829.412	3386
829.551	3348
829.69	3378
829.829	3424
829.968	3488
830.107	3409
830.246	3466
830.385	3370
830.524	3294
830.663	3329
830.802	3237
830.941	3199
831.08	3211
831.219	3291
831.357	3260
831.496	3370
831.635	3226
831.774	3176
831.913	3192
832.051	3104
832.19	3150
832.329	3192
832.467	3157
832.606	3074
832.744	3157
832.883	3169
833.022	3142
833.16	3256
833.299	3279
833.437	3302
833.576	3351
833.714	3386
833.852	3431
833.991	3428
834.129	3504
834.267	3450
834.406	3416
834.544	3450
834.682	3428
834.821	3412
834.959	3553
835.097	3428
835.235	3526
835.373	3431
835.511	3496
835.65	3466
835.788	3496
835.926	3374
836.064	3363
836.202	3401
836.34	3580
836.478	3595
836.615	3519
836.753	3599
836.891	3618
837.029	3610
837.167	3584
837.305	3534
837.443	3542
837.58	3538
837.718	3625
837.856	3568
837.993	3568
838.131	3595
838.269	3576
838.406	3599
838.544	3526
838.681	3481
838.819	3447
838.956	3370
839.094	3386
839.231	3409
839.369	3530
839.506	3717
839.643	3656
839.781	3526
839.918	3450
840.055	3488
840.193	3534
840.33	3523
840.467	3549
840.604	3637
840.742	3770
840.879	3549
841.016	3564
841.153	3595
841.29	3732
841.427	3724
841.564	3751
841.701	3732
841.838	3671
841.975	3709
842.112	3705
842.249	3625
842.385	3637
842.522	3812
842.659	3663
842.796	3682
842.933	3720
843.069	3701
843.206	3720
843.343	3797
843.479	3797
843.616	3876
843.752	3663
843.889	3686
844.025	3846
844.162	3705
844.298	3861
844.435	3800
844.571	3816
844.708	3907
844.844	4002
844.98	4029
845.117	3975
845.253	3949
845.389	3911
845.525	3937
845.661	3934
845.798	3960
845.934	3953
846.07	3937
846.206	4048
846.342	4086
846.478	4059
846.614	3998
846.75	3930
846.886	3884
847.022	4017
847.158	3972
847.294	3979
847.429	4025
847.565	3972
847.701	4215
847.837	3838
847.972	3835
848.108	3987
848.244	3972
848.379	3854
848.515	3831
848.65	3800
848.786	3823
848.921	3899
849.057	3960
849.192	3934
849.328	3922
849.463	3930
849.598	3899
849.734	3823
849.869	3785
850.004	3762
850.14	3812
850.275	3781
850.41	3766
850.545	3747
850.68	3808
850.815	3770
850.95	3800
851.085	3949
851.22	3865
851.355	3819
851.49	3816
851.625	3838
851.76	3808
851.895	3755
852.03	3690
852.165	3808
852.299	3865
852.434	3937
852.569	3873
852.703	3873
852.838	3922
852.973	3972
853.107	4006
853.242	3869
853.376	3838
853.511	3778
853.645	3823
853.78	3941
853.914	3903
854.048	3880
854.183	3907
854.317	3983
854.451	4059
854.585	3964
854.72	3945
854.854	4071
854.988	3987
855.122	3994
855.256	3915
855.39	4021
855.524	4090
855.658	4120
855.792	4063
855.926	4112
856.06	4143
856.194	4207
856.327	4143
856.461	4105
856.595	4147
856.729	4181
856.862	4249
856.996	4204
857.13	4344
857.263	4295
857.397	4363
857.53	4295
857.664	4356
857.797	4405
857.931	4383
858.064	4417
858.197	4440
858.331	4405
858.464	4394
858.597	4375
858.731	4432
858.864	4432
858.997	4424
859.13	4474
859.263	4523
859.396	4577
859.529	4519
859.662	4550
859.795	4497
859.928	4611
860.061	4729
860.194	4694
860.327	4675
860.46	4649
860.592	4721
860.725	4793
860.858	4759
860.99	4691
861.123	4698
861.256	4687
861.388	4812
861.521	5398
861.653	4714
861.786	4691
861.918	4736
862.05	4786
862.183	4824
862.315	4862
862.447	4919
862.58	4908
862.712	4767
862.844	4782
862.976	4828
863.108	4908
863.24	5166
863.372	4782
863.504	4900
863.636	4915
863.768	4972
863.9	4934
864.032	4923
864.164	4900
864.296	5025
864.428	5090
864.559	5067
864.691	5117
864.823	5132
864.954	5090
865.086	5124
865.217	5155
865.349	5102
865.48	5166
865.612	5220
865.743	5250
865.875	5204
866.006	5208
866.137	5246
866.269	5212
866.4	5216
866.531	5250
866.662	5201
866.793	5299
866.924	5315
867.055	5311
867.186	5364
867.317	5299
867.448	5288
867.579	5402
867.71	5353
867.841	5421
867.972	5440
868.103	5452
868.233	5497
868.364	5486
868.495	5570
868.625	5638
868.756	5767
868.886	5619
869.017	5775
869.147	5836
869.278	5901
869.408	5836
869.539	5821
869.669	5954
869.799	5904
869.929	6011
870.06	6091
870.19	6171
870.32	6197
870.45	6213
870.58	6361
870.71	6422
870.84	6452
870.97	6384
871.1	6437
871.23	6662
871.36	6696
871.489	6662
871.619	6734
871.749	6787
871.879	6840
872.008	7004
872.138	6970
872.267	6943
872.397	6977
872.526	7084
872.656	7034
872.785	7168
872.915	7388
873.044	7502
873.173	7567
873.303	7624
873.432	7772
873.561	7913
873.69	7845
873.819	7959
873.948	8157
874.077	8214
874.206	8309
874.335	8461
874.464	8678
874.593	8811
874.722	8971
874.851	9070
874.979	9230
875.108	9344
875.237	9332
875.365	9477
875.494	9610
875.623	9838
875.751	9850
875.88	10010
876.008	10040
876.136	10287
876.265	10535
876.393	10687
876.521	10733
876.65	10774
876.778	10831
876.906	10908
877.034	10919
877.162	11117
877.29	11121
877.418	11341
877.546	11376
877.674	11478
877.802	11459
877.93	11490
878.058	11585
878.185	11551
878.313	11600
878.441	11733
878.568	11630
878.696	11741
878.824	11824
878.951	11946
879.079	11969
879.206	12125
879.333	12087
879.461	11954
879.588	11999
879.715	12098
879.842	12232
879.97	12045
880.097	11851
880.224	11859
880.351	11855
880.478	11901
880.605	11855
880.732	11847
880.859	11969
880.986	11870
881.112	11916
881.239	11672
881.366	11619
881.493	11676
881.619	11520
881.746	11558
881.872	11551
881.999	11490
882.125	11448
882.252	11577
882.378	11471
882.505	11505
882.631	11345
882.757	11284
882.883	11341
883.01	11277
883.136	11159
883.262	11067
883.388	11075
883.514	11166
883.64	11223
883.766	11052
883.892	10946
884.018	11003
884.143	11045
884.269	11083
884.395	10862
884.52	10748
884.646	10729
884.772	10702
884.897	10630
885.023	10702
885.148	10744
885.274	10771
885.399	10675
885.524	10618
885.65	10618
885.775	10596
885.9	10493
886.025	10580
886.15	10588
886.275	10455
886.4	10325
886.525	10375
886.65	10367
886.775	10227
886.9	10504
887.025	10504
887.149	10367
887.274	10211
887.399	10185
887.523	10147
887.648	10139
887.773	10097
887.897	10230
888.021	10242
888.146	10116
888.27	10200
888.395	10215
888.519	10211
888.643	10200
888.767	10147
888.891	10048
889.015	10044
889.139	10063
889.263	10010
889.387	10086
889.511	10097
889.635	10074
889.759	9949
889.883	10006
890.006	10063
890.13	10036
890.254	9880
890.377	9945
890.501	9869
890.624	9835
890.748	9865
890.871	9755
890.995	9759
891.118	9660
891.241	9701
891.364	9755
891.488	9876
891.611	9709
891.734	9728
891.857	9705
891.98	9709
892.103	9663
892.226	9671
892.349	9724
892.471	9519
892.594	9549
892.717	9568
892.839	9549
892.962	9618
893.085	9629
893.207	9580
893.33	9576
893.452	9462
893.575	9492
893.697	9424
893.819	9637
893.941	9568
894.064	9568
894.186	9462
894.308	9462
894.43	9515
894.552	9603
894.674	9526
894.796	9355
894.918	9351
895.04	9397
895.161	9317
895.283	9370
895.405	9253
895.526	9264
895.648	9275
895.769	9306
895.891	9287
896.012	9306
896.134	9203
896.255	9154
896.376	9161
896.498	9161
896.619	9123
896.74	9097
896.861	9100
896.982	9287
897.103	9218
897.224	9081
897.345	9116
897.466	8982
897.587	9032
897.708	9138
897.828	9104
897.949	8937
898.07	8891
898.19	8956
898.311	9009
898.431	8902
898.552	8986
898.672	8944
898.792	9005
898.913	8887
899.033	8777
899.153	8705
899.273	8682
899.393	8667
899.513	8739
899.633	8697
899.753	8750
899.873	8667
899.993	8773
900.113	8636
900.232	8735
900.352	8644
900.472	8564
900.591	8533
900.711	8625
900.83	8617
900.95	8610
901.069	8651
901.189	8503
901.308	8381
901.427	8374
901.546	8484
901.665	8442
901.784	8492
901.904	8434
902.023	8267
902.141	8164
902.26	8206
902.379	8286
902.498	8187
902.617	8191
902.735	8267
902.854	8275
902.973	8248
903.091	8180
903.21	8115
903.328	8149
903.446	8077
903.565	8138
903.683	8103
903.801	8035
903.919	8180
904.038	8126
904.156	7974
904.274	8035
904.392	7989
904.51	8027
904.627	8050
904.745	8020
904.863	8096
904.981	7921
905.098	7814
905.216	7879
905.334	7875
905.451	7898
905.569	7883
905.686	7970
905.803	7879
905.921	7734
906.038	7955
906.155	7803
906.272	7746
906.389	7658
906.506	7628
906.623	7620
906.74	7620
906.857	7495
906.974	7552
907.091	7689
907.208	7689
907.324	7632
907.441	7559
907.557	7434
907.674	7453
907.79	7384
907.907	7434
908.023	7422
908.139	7392
908.256	7354
908.372	7324
908.488	7346
908.604	7316
908.72	7285
908.836	7255
908.952	7232
909.068	7259
909.184	7297
909.3	7247
909.415	7259
909.531	7301
909.647	7133
909.762	7061
909.878	7118
909.993	7126
910.108	7050
910.224	7103
910.339	7076
910.454	7057
910.57	6966
910.685	6928
910.8	7202
910.915	7129
911.03	6993
911.145	6901
911.259	6901
911.374	6871
911.489	6776
911.604	6779
911.718	6760
911.833	6753
911.947	6623
912.062	6635
912.176	6677
912.291	6711
912.405	6688
912.519	6783
912.633	6795
912.748	6741
912.862	6688
912.976	6612
913.09	6582
913.204	6601
913.318	6608
913.431	6688
913.545	6589
913.659	6700
913.772	6623
913.886	6597
914	6528
914.113	6597
914.226	6692
914.34	6601
914.453	6445
914.566	6604
914.68	6551
914.793	6490
914.906	6407
915.019	6395
915.132	6407
915.245	6372
915.358	6452
915.47	6418
915.583	6407
915.696	6521
915.809	6528
915.921	6555
916.034	6350
916.146	6388
916.259	6315
916.371	6418
916.483	6429
916.595	6365
916.708	6433
916.82	6414
916.932	6395
917.044	6376
917.156	6388
917.268	6323
917.38	6365
917.491	6304
917.603	6399
917.715	6376
917.826	6391
917.938	6311
918.049	6220
918.161	6311
918.272	6388
918.384	6426
918.495	6346
918.606	6220
918.717	6266
918.828	6232
918.939	6281
919.05	6194
919.161	6308
919.272	6098
919.383	6159
919.494	6273
919.604	6486
919.715	6251
919.826	6232
919.936	6235
920.047	6308
920.157	6251
920.267	6426
920.378	6308
920.488	6281
920.598	6422
920.708	6593
920.818	6429
920.928	6506
921.038	6623
921.148	6540
921.258	6323
921.368	6300
921.477	6232
921.587	6133
921.697	6117
921.806	6159
921.916	6117
922.025	5950
922.134	5859
922.244	5866
922.353	5954
922.462	5844
922.571	5707
922.68	5718
922.789	5665
922.898	5676
923.007	5646
923.116	5764
923.224	5627
923.333	5665
923.442	5649
923.55	5573
923.659	5539
923.767	5623
923.876	5535
923.984	5570
924.092	5505
924.201	5566
924.309	5547
924.417	5516
924.525	5448
924.633	5520
924.741	6273
924.849	5337
924.956	5448
925.064	5334
925.172	5284
925.279	5299
925.387	5334
925.494	5360
925.602	5433
925.709	5383
925.816	5284
925.924	5318
926.031	5360
926.138	5284
926.245	5379
926.352	5201
926.459	5326
926.566	5288
926.673	5246
926.779	5151
926.886	5128
926.993	5022
927.099	5010
927.206	4953
927.312	4968
927.419	5045
927.525	4938
927.631	4984
927.737	4862
927.843	4862
927.95	4752
928.056	4805
928.162	4824
928.267	4839
928.373	5364
928.479	4843
928.585	4710
928.69	4733
928.796	4733
928.901	4679
929.007	4577
929.112	4656
929.218	4622
929.323	4580
929.428	4538
929.533	4714
929.638	4493
929.743	4523
929.848	4546
929.953	4542
930.058	4386
930.163	4325
930.267	4284
930.372	4424
930.477	4287
930.581	4443
930.685	4360
930.79	4192
930.894	4295
930.998	4230
931.103	4409
931.207	4124
931.311	4074
931.415	3998
931.519	3899
931.623	3896
