Data from glass_V78500241_2543.txt Node
Date: Wed Sep 01 19:32:07 CST 2021
User: usil
Spectrometer: V785-0024
Trigger mode: 0
Integration Time (sec): 4.000000E-1
Scans to average: 1
Nonlinearity correction enabled: false
Boxcar width: 0
Storing dark spectrum: false
XAxis mode: Wavelengths
Number of Pixels in Spectrum: 1024
>>>>>Begin Spectral Data<<<<<
801.071	3743
801.214	3766
801.356	3641
801.499	3732
801.641	3694
801.783	3755
801.926	3835
802.068	3812
802.211	3842
802.353	3915
802.496	3842
802.638	3857
802.78	3915
802.923	3903
803.065	3903
803.208	3861
803.35	3831
803.492	3903
803.635	3915
803.777	3823
803.919	3861
804.061	4135
804.204	3960
804.346	3915
804.488	3850
804.63	3994
804.773	3930
804.915	4013
805.057	4086
805.199	4063
805.341	4074
805.483	4158
805.626	4139
805.768	4120
805.91	4223
806.052	4207
806.194	4192
806.336	4310
806.478	4207
806.62	4169
806.762	4143
806.904	4249
807.046	4322
807.188	4192
807.33	4188
807.472	4215
807.614	4177
807.756	4280
807.898	4211
808.04	4143
808.182	4310
808.324	4329
808.465	4322
808.607	4451
808.749	4424
808.891	4459
809.033	4481
809.174	4428
809.316	4306
809.458	4223
809.6	4116
809.741	4128
809.883	4158
810.025	4181
810.166	4139
810.308	4257
810.45	4230
810.591	4207
810.733	4253
810.875	4466
811.016	4812
811.158	5113
811.299	5235
811.441	5330
811.582	5041
811.724	4710
811.865	4432
812.007	4436
812.148	4459
812.29	4398
812.431	4363
812.573	4436
812.714	4360
812.855	4352
812.997	4371
813.138	4500
813.279	4413
813.421	4341
813.562	4356
813.703	4360
813.845	4333
813.986	4257
814.127	4246
814.268	4242
814.41	4257
814.551	4257
814.692	4322
814.833	4276
814.974	4284
815.115	4352
815.256	4257
815.397	4200
815.539	4211
815.68	4158
815.821	4188
815.962	4287
816.103	4280
816.244	4238
816.385	4188
816.526	4276
816.666	4192
816.807	4101
816.948	4188
817.089	4204
817.23	4116
817.371	4082
817.512	4029
817.653	4090
817.793	4048
817.934	3975
818.075	4090
818.216	4090
818.356	4044
818.497	3991
818.638	3934
818.778	3907
818.919	3930
819.06	3869
819.2	3888
819.341	3819
819.481	3808
819.622	3934
819.762	3991
819.903	3975
820.043	3850
820.184	3831
820.324	3793
820.465	3888
820.605	3838
820.746	3896
820.886	3762
821.026	3884
821.167	3899
821.307	3949
821.447	3975
821.588	3953
821.728	3915
821.868	3949
822.008	3854
822.149	3861
822.289	3926
822.429	3800
822.569	3743
822.709	3823
822.849	3682
822.99	3720
823.13	3686
823.27	3770
823.41	3652
823.55	3724
823.69	3736
823.83	3705
823.97	3660
824.11	3572
824.25	3584
824.389	3614
824.529	3641
824.669	3587
824.809	3709
824.949	3755
825.089	3682
825.228	3671
825.368	3553
825.508	3591
825.648	3538
825.787	3587
825.927	3641
826.067	3576
826.206	3667
826.346	3762
826.485	3816
826.625	3778
826.765	3926
826.904	3800
827.044	3591
827.183	3523
827.323	3450
827.462	3485
827.601	3397
827.741	3397
827.88	3435
828.02	3359
828.159	3412
828.298	3481
828.437	3515
828.577	3507
828.716	3587
828.855	3469
828.994	3431
829.134	3389
829.273	3340
829.412	3348
829.551	3329
829.69	3367
829.829	3447
829.968	3526
830.107	3393
830.246	3428
830.385	3420
830.524	3340
830.663	3313
830.802	3230
830.941	3161
831.08	3157
831.219	3287
831.357	3256
831.496	3382
831.635	3218
831.774	3173
831.913	3188
832.051	3119
832.19	3161
832.329	3226
832.467	3116
832.606	3135
832.744	3161
832.883	3180
833.022	3188
833.16	3222
833.299	3268
833.437	3344
833.576	3401
833.714	3374
833.852	3424
833.991	3435
834.129	3439
834.267	3431
834.406	3443
834.544	3409
834.682	3416
834.821	3401
834.959	3584
835.097	3389
835.235	3515
835.373	3458
835.511	3500
835.65	3447
835.788	3469
835.926	3382
836.064	3386
836.202	3412
836.34	3568
836.478	3603
836.615	3530
836.753	3591
836.891	3644
837.029	3606
837.167	3561
837.305	3568
837.443	3526
837.58	3481
837.718	3584
837.856	3515
837.993	3557
838.131	3572
838.269	3606
838.406	3606
838.544	3595
838.681	3477
838.819	3443
838.956	3386
839.094	3351
839.231	3431
839.369	3496
839.506	3686
839.643	3629
839.781	3485
839.918	3492
840.055	3515
840.193	3526
840.33	3523
840.467	3530
840.604	3564
840.742	3797
840.879	3511
841.016	3584
841.153	3606
841.29	3766
841.427	3705
841.564	3682
841.701	3728
841.838	3694
841.975	3720
842.112	3724
842.249	3599
842.385	3618
842.522	3785
842.659	3698
842.796	3694
842.933	3701
843.069	3698
843.206	3698
843.343	3789
843.479	3740
843.616	3835
843.752	3648
843.889	3694
844.025	3854
844.162	3701
844.298	3838
844.435	3804
844.571	3747
844.708	3846
844.844	3987
844.98	4032
845.117	3975
845.253	3899
845.389	3884
845.525	3915
845.661	3930
845.798	3926
845.934	4036
846.07	3930
846.206	4078
846.342	4109
846.478	4074
846.614	3964
846.75	3918
846.886	3892
847.022	4036
847.158	3945
847.294	3994
847.429	4036
847.565	3941
847.701	4185
847.837	3884
847.972	3850
848.108	3972
848.244	4002
848.379	3842
848.515	3816
848.65	3789
848.786	3816
848.921	3857
849.057	3945
849.192	3907
849.328	3888
849.463	3937
849.598	3918
849.734	3873
849.869	3842
850.004	3785
850.14	3819
850.275	3781
850.41	3755
850.545	3732
850.68	3736
850.815	3766
850.95	3778
851.085	3918
851.22	3846
851.355	3827
851.49	3793
851.625	3789
851.76	3770
851.895	3724
852.03	3747
852.165	3793
852.299	3854
852.434	3926
852.569	3835
852.703	3850
852.838	3903
852.973	3987
853.107	3975
853.242	3884
853.376	3854
853.511	3747
853.645	3816
853.78	3941
853.914	3876
854.048	3899
854.183	3804
854.317	3975
854.451	4051
854.585	3941
854.72	3869
854.854	4029
854.988	3941
855.122	3991
855.256	3896
855.39	4044
855.524	4124
855.658	4036
855.792	4071
855.926	4128
856.06	4101
856.194	4188
856.327	4150
856.461	4128
856.595	4154
856.729	4181
856.862	4287
856.996	4276
857.13	4276
857.263	4318
857.397	4367
857.53	4287
857.664	4322
857.797	4329
857.931	4428
858.064	4367
858.197	4459
858.331	4447
858.464	4367
858.597	4310
858.731	4459
858.864	4474
858.997	4443
859.13	4462
859.263	4523
859.396	4569
859.529	4519
859.662	4527
859.795	4516
859.928	4596
860.061	4694
860.194	4679
860.327	4634
860.46	4618
860.592	4748
860.725	4759
860.858	4725
860.99	4721
861.123	4660
861.256	4679
861.388	4812
861.521	5383
861.653	4698
861.786	4706
861.918	4782
862.05	4733
862.183	4809
862.315	4885
862.447	4904
862.58	4900
862.712	4774
862.844	4778
862.976	4900
863.108	4839
863.24	5121
863.372	4824
863.504	4900
863.636	4812
863.768	4995
863.9	4942
864.032	4965
864.164	4949
864.296	5014
864.428	5098
864.559	5121
864.691	5098
864.823	5113
864.954	5109
865.086	5105
865.217	5109
865.349	5086
865.48	5162
865.612	5174
865.743	5288
865.875	5151
866.006	5193
866.137	5212
866.269	5235
866.4	5269
866.531	5201
866.662	5201
866.793	5212
866.924	5269
867.055	5315
867.186	5357
867.317	5292
867.448	5337
867.579	5353
867.71	5341
867.841	5395
867.972	5421
868.103	5455
868.233	5455
868.364	5474
868.495	5524
868.625	5630
868.756	5726
868.886	5657
869.017	5688
869.147	5859
869.278	5863
869.408	5771
869.539	5832
869.669	5939
869.799	5904
869.929	5988
870.06	6007
870.19	6144
870.32	6178
870.45	6273
870.58	6388
870.71	6441
870.84	6433
870.97	6384
871.1	6410
871.23	6608
871.36	6711
871.489	6635
871.619	6791
871.749	6779
871.879	6741
872.008	6905
872.138	6954
872.267	6977
872.397	6981
872.526	7057
872.656	7034
872.785	7179
872.915	7381
873.044	7540
873.173	7548
873.303	7647
873.432	7765
873.561	7841
873.69	7974
873.819	7925
873.948	8157
874.077	8195
874.206	8328
874.335	8427
874.464	8617
874.593	8807
874.722	8918
874.851	9085
874.979	9165
875.108	9344
875.237	9469
875.365	9458
875.494	9606
875.623	9819
875.751	9869
875.88	10017
876.008	10109
876.136	10223
876.265	10500
876.393	10702
876.521	10615
876.65	10797
876.778	10942
876.906	10816
877.034	11018
877.162	11132
877.29	11212
877.418	11349
877.546	11318
877.674	11417
877.802	11505
877.93	11528
878.058	11611
878.185	11573
878.313	11600
878.441	11764
878.568	11596
878.696	11729
878.824	11866
878.951	11984
879.079	11988
879.206	12087
879.333	12079
879.461	11954
879.588	12060
879.715	12057
879.842	12254
879.97	12136
880.097	11935
880.224	11798
880.351	11863
880.478	11878
880.605	11828
880.732	11783
880.859	11912
880.986	11863
881.112	11779
881.239	11745
881.366	11691
881.493	11596
881.619	11490
881.746	11581
881.872	11509
881.999	11516
882.125	11482
882.252	11600
882.378	11497
882.505	11482
882.631	11349
882.757	11376
882.883	11265
883.01	11284
883.136	11178
883.262	11067
883.388	11052
883.514	11162
883.64	11128
883.766	11056
883.892	10984
884.018	10991
884.143	11022
884.269	11064
884.395	10809
884.52	10797
884.646	10748
884.772	10675
884.897	10706
885.023	10721
885.148	10774
885.274	10782
885.399	10748
885.524	10668
885.65	10577
885.775	10546
885.9	10558
886.025	10664
886.15	10630
886.275	10363
886.4	10375
886.525	10341
886.65	10405
886.775	10322
886.9	10478
887.025	10546
887.149	10333
887.274	10261
887.399	10204
887.523	10166
887.648	10105
887.773	10105
887.897	10276
888.021	10261
888.146	10101
888.27	10185
888.395	10162
888.519	10158
888.643	10162
888.767	10162
888.891	10025
889.015	10059
889.139	10048
889.263	9934
889.387	10051
889.511	10067
889.635	10032
889.759	10032
889.883	9972
890.006	9964
890.13	10109
890.254	9945
890.377	9888
890.501	9865
890.624	9827
890.748	9884
890.871	9785
890.995	9751
891.118	9709
891.241	9686
891.364	9660
891.488	9941
891.611	9789
891.734	9740
891.857	9778
891.98	9679
892.103	9835
892.226	9717
892.349	9568
892.471	9542
892.594	9675
892.717	9580
892.839	9568
892.962	9496
893.085	9667
893.207	9610
893.33	9545
893.452	9530
893.575	9633
893.697	9526
893.819	9606
893.941	9663
894.064	9526
894.186	9450
894.308	9336
894.43	9500
894.552	9614
894.674	9519
894.796	9393
894.918	9306
895.04	9329
895.161	9367
895.283	9370
895.405	9241
895.526	9306
895.648	9199
895.769	9237
895.891	9222
896.012	9325
896.134	9230
896.255	9180
896.376	9116
896.498	9097
896.619	9093
896.74	9108
896.861	9062
896.982	9180
897.103	9222
897.224	9222
897.345	8967
897.466	8967
897.587	9066
897.708	9104
897.828	9017
897.949	8971
898.07	8845
898.19	8868
898.311	9074
898.431	8918
898.552	8948
898.672	8948
898.792	8979
898.913	8914
899.033	8777
899.153	8674
899.273	8651
899.393	8651
899.513	8720
899.633	8739
899.753	8762
899.873	8731
899.993	8651
900.113	8693
900.232	8769
900.352	8606
900.472	8636
900.591	8495
900.711	8533
900.83	8575
900.95	8644
901.069	8606
901.189	8522
901.308	8495
901.427	8393
901.546	8442
901.665	8488
901.784	8484
901.904	8355
902.023	8317
902.141	8183
902.26	8191
902.379	8256
902.498	8202
902.617	8233
902.735	8271
902.854	8290
902.973	8252
903.091	8065
903.21	8168
903.328	8096
903.446	8157
903.565	8115
903.683	8123
903.801	8058
903.919	8138
904.038	8123
904.156	8043
904.274	8020
904.392	8054
904.51	8058
904.627	8024
904.745	8005
904.863	8001
904.981	7921
905.098	7894
905.216	7856
905.334	7902
905.451	7875
905.569	7879
905.686	7997
905.803	7909
905.921	7757
906.038	7860
906.155	7772
906.272	7712
906.389	7712
906.506	7696
906.623	7556
906.74	7605
906.857	7563
906.974	7537
907.091	7681
907.208	7666
907.324	7620
907.441	7548
907.557	7441
907.674	7510
907.79	7369
907.907	7350
908.023	7434
908.139	7365
908.256	7362
908.372	7305
908.488	7320
908.604	7293
908.72	7213
908.836	7274
908.952	7244
909.068	7270
909.184	7362
909.3	7244
909.415	7282
909.531	7236
909.647	7080
909.762	7145
909.878	7072
909.993	7133
910.108	7076
910.224	7031
910.339	7057
910.454	7072
910.57	7015
910.685	6954
910.8	7088
910.915	7034
911.03	7019
911.145	6920
911.259	6856
911.374	6920
911.489	6741
911.604	6776
911.718	6753
911.833	6734
911.947	6703
912.062	6589
912.176	6692
912.291	6711
912.405	6673
912.519	6806
912.633	6810
912.748	6703
912.862	6681
912.976	6631
913.09	6498
913.204	6601
913.318	6589
913.431	6669
913.545	6711
913.659	6673
913.772	6684
913.886	6509
914	6528
914.113	6559
914.226	6540
914.34	6555
914.453	6517
914.566	6570
914.68	6563
914.793	6456
914.906	6475
915.019	6365
915.132	6372
915.245	6441
915.358	6433
915.47	6369
915.583	6407
915.696	6422
915.809	6498
915.921	6536
916.034	6403
916.146	6395
916.259	6388
916.371	6471
916.483	6429
916.595	6376
916.708	6315
916.82	6456
916.932	6391
917.044	6445
917.156	6399
917.268	6338
917.38	6327
917.491	6311
917.603	6308
917.715	6403
917.826	6452
917.938	6304
918.049	6247
918.161	6296
918.272	6380
918.384	6414
918.495	6327
918.606	6224
918.717	6205
918.828	6239
918.939	6254
919.05	6167
919.161	6277
919.272	6060
919.383	6133
919.494	6228
919.604	6388
919.715	6300
919.826	6235
919.936	6270
920.047	6353
920.157	6262
920.267	6429
920.378	6296
920.488	6228
920.598	6403
920.708	6521
920.818	6426
920.928	6471
921.038	6650
921.148	6540
921.258	6308
921.368	6319
921.477	6201
921.587	6178
921.697	6072
921.806	6152
921.916	6038
922.025	5927
922.134	5908
922.244	5882
922.353	5950
922.462	5847
922.571	5767
922.68	5672
922.789	5630
922.898	5691
923.007	5615
923.116	5703
923.224	5703
923.333	5608
923.442	5615
923.55	5554
923.659	5543
923.767	5585
923.876	5558
923.984	5623
924.092	5436
924.201	5528
924.309	5520
924.417	5543
924.525	5471
924.633	5501
924.741	6228
924.849	5364
924.956	5448
925.064	5326
925.172	5322
925.279	5337
925.387	5383
925.494	5303
925.602	5395
925.709	5391
925.816	5246
925.924	5307
926.031	5357
926.138	5288
926.245	5360
926.352	5204
926.459	5307
926.566	5288
926.673	5220
926.779	5113
926.886	5048
926.993	5029
927.099	5071
927.206	5006
927.312	4980
927.419	4976
927.525	4957
927.631	4991
927.737	4873
927.843	4911
927.95	4763
928.056	4839
928.162	4816
928.267	4820
928.373	5212
928.479	4839
928.585	4714
928.69	4675
928.796	4801
928.901	4683
929.007	4622
929.112	4687
929.218	4584
929.323	4592
929.428	4565
929.533	4656
929.638	4504
929.743	4542
929.848	4542
929.953	4538
930.058	4402
930.163	4306
930.267	4325
930.372	4402
930.477	4272
930.581	4443
930.685	4348
930.79	4268
930.894	4310
930.998	4215
931.103	4356
931.207	4109
931.311	4067
931.415	4010
931.519	3869
931.623	3968
