Data from glass_V78500241_723.txt Node
Date: Wed Sep 01 19:19:30 CST 2021
User: usil
Spectrometer: V785-0024
Trigger mode: 0
Integration Time (sec): 4.000000E-1
Scans to average: 1
Nonlinearity correction enabled: false
Boxcar width: 0
Storing dark spectrum: false
XAxis mode: Wavelengths
Number of Pixels in Spectrum: 1024
>>>>>Begin Spectral Data<<<<<
801.071	3755
801.214	3751
801.356	3755
801.499	3759
801.641	3751
801.783	3755
801.926	3869
802.068	3865
802.211	3861
802.353	3968
802.496	3861
802.638	3907
802.78	3892
802.923	3945
803.065	3949
803.208	3857
803.35	3865
803.492	3937
803.635	3911
803.777	3762
803.919	3892
804.061	4185
804.204	3922
804.346	3956
804.488	3956
804.63	4032
804.773	3953
804.915	4013
805.057	4150
805.199	4055
805.341	4120
805.483	4139
805.626	4162
805.768	4128
805.91	4200
806.052	4246
806.194	4219
806.336	4379
806.478	4238
806.62	4188
806.762	4215
806.904	4272
807.046	4341
807.188	4200
807.33	4185
807.472	4268
807.614	4219
807.756	4230
807.898	4295
808.04	4227
808.182	4280
808.324	4257
808.465	4398
808.607	4489
808.749	4478
808.891	4474
809.033	4542
809.174	4417
809.316	4287
809.458	4219
809.6	4188
809.741	4173
809.883	4139
810.025	4242
810.166	4268
810.308	4204
810.45	4272
810.591	4257
810.733	4287
810.875	4508
811.016	4835
811.158	5143
811.299	5292
811.441	5318
811.582	5151
811.724	4717
811.865	4489
812.007	4474
812.148	4432
812.29	4417
812.431	4402
812.573	4447
812.714	4348
812.855	4402
812.997	4402
813.138	4512
813.279	4398
813.421	4356
813.562	4371
813.703	4367
813.845	4371
813.986	4265
814.127	4246
814.268	4261
814.41	4352
814.551	4306
814.692	4318
814.833	4242
814.974	4314
815.115	4325
815.256	4246
815.397	4284
815.539	4268
815.68	4265
815.821	4188
815.962	4314
816.103	4280
816.244	4242
816.385	4257
816.526	4299
816.666	4192
816.807	4097
816.948	4192
817.089	4192
817.23	4139
817.371	4017
817.512	4059
817.653	4063
817.793	4090
817.934	4071
818.075	4086
818.216	4090
818.356	4051
818.497	4010
818.638	3930
818.778	3934
818.919	3922
819.06	3869
819.2	3964
819.341	3934
819.481	3880
819.622	3911
819.762	4006
819.903	3979
820.043	3873
820.184	3812
820.324	3789
820.465	3888
820.605	3880
820.746	3888
820.886	3816
821.026	3960
821.167	3930
821.307	3975
821.447	3983
821.588	3994
821.728	3979
821.868	3964
822.008	3907
822.149	3953
822.289	3941
822.429	3793
822.569	3808
822.709	3831
822.849	3705
822.99	3720
823.13	3774
823.27	3819
823.41	3743
823.55	3732
823.69	3732
823.83	3759
823.97	3717
824.11	3625
824.25	3622
824.389	3648
824.529	3641
824.669	3637
824.809	3709
824.949	3720
825.089	3751
825.228	3720
825.368	3591
825.508	3587
825.648	3606
825.787	3599
825.927	3671
826.067	3610
826.206	3648
826.346	3762
826.485	3861
826.625	3835
826.765	3934
826.904	3827
827.044	3633
827.183	3545
827.323	3462
827.462	3481
827.601	3424
827.741	3443
827.88	3447
828.02	3389
828.159	3458
828.298	3496
828.437	3526
828.577	3492
828.716	3622
828.855	3481
828.994	3382
829.134	3367
829.273	3386
829.412	3359
829.551	3374
829.69	3382
829.829	3431
829.968	3515
830.107	3458
830.246	3473
830.385	3409
830.524	3397
830.663	3310
830.802	3256
830.941	3195
831.08	3173
831.219	3233
831.357	3260
831.496	3409
831.635	3272
831.774	3214
831.913	3226
832.051	3161
832.19	3138
832.329	3245
832.467	3169
832.606	3093
832.744	3161
832.883	3218
833.022	3195
833.16	3275
833.299	3317
833.437	3332
833.576	3340
833.714	3409
833.852	3462
833.991	3447
834.129	3466
834.267	3443
834.406	3439
834.544	3454
834.682	3431
834.821	3393
834.959	3553
835.097	3473
835.235	3542
835.373	3519
835.511	3504
835.65	3492
835.788	3492
835.926	3416
836.064	3386
836.202	3443
836.34	3572
836.478	3644
836.615	3599
836.753	3644
836.891	3644
837.029	3587
837.167	3618
837.305	3599
837.443	3515
837.58	3507
837.718	3625
837.856	3538
837.993	3549
838.131	3599
838.269	3622
838.406	3587
838.544	3557
838.681	3473
838.819	3454
838.956	3344
839.094	3435
839.231	3443
839.369	3545
839.506	3785
839.643	3644
839.781	3515
839.918	3458
840.055	3507
840.193	3534
840.33	3526
840.467	3568
840.604	3599
840.742	3873
840.879	3553
841.016	3542
841.153	3610
841.29	3743
841.427	3743
841.564	3747
841.701	3747
841.838	3732
841.975	3701
842.112	3755
842.249	3629
842.385	3633
842.522	3835
842.659	3724
842.796	3663
842.933	3713
843.069	3667
843.206	3720
843.343	3816
843.479	3827
843.616	3827
843.752	3690
843.889	3701
844.025	3854
844.162	3732
844.298	3816
844.435	3850
844.571	3785
844.708	3937
844.844	4017
844.98	4029
845.117	3960
845.253	3930
845.389	3930
845.525	3899
845.661	3975
845.798	3953
845.934	4010
846.07	4010
846.206	4071
846.342	4147
846.478	4105
846.614	3998
846.75	3949
846.886	3903
847.022	4021
847.158	3975
847.294	3998
847.429	4032
847.565	4013
847.701	4246
847.837	3911
847.972	3865
848.108	3960
848.244	3956
848.379	3865
848.515	3774
848.65	3778
848.786	3842
848.921	3869
849.057	3930
849.192	4002
849.328	3934
849.463	3926
849.598	3869
849.734	3873
849.869	3854
850.004	3819
850.14	3838
850.275	3797
850.41	3728
850.545	3797
850.68	3785
850.815	3823
850.95	3785
851.085	3983
851.22	3911
851.355	3819
851.49	3831
851.625	3838
851.76	3781
851.895	3736
852.03	3785
852.165	3800
852.299	3880
852.434	3896
852.569	3892
852.703	3873
852.838	3918
852.973	3994
853.107	3987
853.242	3926
853.376	3819
853.511	3759
853.645	3896
853.78	3998
853.914	3934
854.048	3964
854.183	3896
854.317	3945
854.451	4086
854.585	3953
854.72	3945
854.854	4074
854.988	3911
855.122	3987
855.256	3945
855.39	4017
855.524	4093
855.658	4128
855.792	4071
855.926	4154
856.06	4162
856.194	4238
856.327	4166
856.461	4135
856.595	4162
856.729	4166
856.862	4268
856.996	4246
857.13	4318
857.263	4329
857.397	4363
857.53	4325
857.664	4322
857.797	4470
857.931	4470
858.064	4409
858.197	4481
858.331	4413
858.464	4386
858.597	4367
858.731	4440
858.864	4497
858.997	4474
859.13	4504
859.263	4565
859.396	4618
859.529	4516
859.662	4546
859.795	4538
859.928	4603
860.061	4736
860.194	4740
860.327	4637
860.46	4653
860.592	4778
860.725	4744
860.858	4774
860.99	4698
861.123	4714
861.256	4717
861.388	4812
861.521	5414
861.653	4771
861.786	4691
861.918	4755
862.05	4801
862.183	4873
862.315	4847
862.447	4961
862.58	4915
862.712	4801
862.844	4782
862.976	4923
863.108	4854
863.24	5223
863.372	4828
863.504	4930
863.636	4862
863.768	4957
863.9	4976
864.032	4911
864.164	4934
864.296	5014
864.428	5124
864.559	5117
864.691	5086
864.823	5102
864.954	5166
865.086	5128
865.217	5098
865.349	5117
865.48	5181
865.612	5235
865.743	5258
865.875	5239
866.006	5265
866.137	5227
866.269	5265
866.4	5269
866.531	5216
866.662	5288
866.793	5277
866.924	5273
867.055	5322
867.186	5357
867.317	5303
867.448	5311
867.579	5395
867.71	5436
867.841	5372
867.972	5421
868.103	5501
868.233	5478
868.364	5486
868.495	5539
868.625	5710
868.756	5802
868.886	5703
869.017	5703
869.147	5863
869.278	5889
869.408	5897
869.539	5821
869.669	5946
869.799	5946
869.929	5977
870.06	6038
870.19	6216
870.32	6266
870.45	6315
870.58	6327
870.71	6445
870.84	6437
870.97	6422
871.1	6410
871.23	6662
871.36	6707
871.489	6642
871.619	6711
871.749	6848
871.879	6897
872.008	6996
872.138	7034
872.267	7008
872.397	6977
872.526	7061
872.656	7156
872.785	7213
872.915	7457
873.044	7544
873.173	7632
873.303	7655
873.432	7761
873.561	7902
873.69	7947
873.819	7997
873.948	8187
874.077	8336
874.206	8347
874.335	8518
874.464	8701
874.593	8925
874.722	8952
874.851	9135
874.979	9169
875.108	9401
875.237	9397
875.365	9507
875.494	9564
875.623	9846
875.751	9759
875.88	9975
876.008	10147
876.136	10261
876.265	10489
876.393	10793
876.521	10767
876.65	10828
876.778	10946
876.906	10885
877.034	10946
877.162	11109
877.29	11181
877.418	11216
877.546	11322
877.674	11512
877.802	11459
877.93	11516
878.058	11600
878.185	11638
878.313	11668
878.441	11790
878.568	11653
878.696	11824
878.824	11824
878.951	11939
879.079	11999
879.206	12117
879.333	12079
879.461	12003
879.588	12053
879.715	12022
879.842	12251
879.97	12064
880.097	11954
880.224	11927
880.351	11939
880.478	11878
880.605	11866
880.732	11893
880.859	11950
880.986	11794
881.112	11889
881.239	11680
881.366	11710
881.493	11611
881.619	11455
881.746	11581
881.872	11516
881.999	11551
882.125	11490
882.252	11615
882.378	11520
882.505	11573
882.631	11341
882.757	11303
882.883	11307
883.01	11284
883.136	11162
883.262	11140
883.388	11143
883.514	11201
883.64	11170
883.766	11159
883.892	10999
884.018	11014
884.143	11083
884.269	11086
884.395	10847
884.52	10801
884.646	10847
884.772	10729
884.897	10626
885.023	10603
885.148	10774
885.274	10774
885.399	10721
885.524	10622
885.65	10653
885.775	10702
885.9	10573
886.025	10611
886.15	10706
886.275	10481
886.4	10314
886.525	10413
886.65	10367
886.775	10253
886.9	10462
887.025	10489
887.149	10402
887.274	10215
887.399	10227
887.523	10192
887.648	10246
887.773	10097
887.897	10276
888.021	10219
888.146	10101
888.27	10192
888.395	10188
888.519	10227
888.643	10169
888.767	10253
888.891	10097
889.015	10059
889.139	10071
889.263	9960
889.387	9994
889.511	10158
889.635	10139
889.759	9979
889.883	10006
890.006	10002
890.13	10071
890.254	9987
890.377	10010
890.501	9873
890.624	9873
890.748	9926
890.871	9793
890.995	9694
891.118	9720
891.241	9785
891.364	9766
891.488	9876
891.611	9740
891.734	9709
891.857	9766
891.98	9720
892.103	9781
892.226	9724
892.349	9736
892.471	9606
892.594	9564
892.717	9553
892.839	9568
892.962	9614
893.085	9610
893.207	9595
893.33	9481
893.452	9507
893.575	9713
893.697	9462
893.819	9572
893.941	9648
894.064	9561
894.186	9481
894.308	9424
894.43	9496
894.552	9538
894.674	9564
894.796	9412
894.918	9431
895.04	9351
895.161	9397
895.283	9363
895.405	9237
895.526	9260
895.648	9230
895.769	9260
895.891	9275
896.012	9332
896.134	9176
896.255	9138
896.376	9123
896.498	9173
896.619	9123
896.74	9112
896.861	9097
896.982	9287
897.103	9332
897.224	9199
897.345	9028
897.466	9055
897.587	9051
897.708	9135
897.828	8979
897.949	8895
898.07	8868
898.19	8929
898.311	9039
898.431	8899
898.552	8842
898.672	9009
898.792	8975
898.913	8952
899.033	8811
899.153	8758
899.273	8686
899.393	8720
899.513	8800
899.633	8758
899.753	8758
899.873	8648
899.993	8670
900.113	8708
900.232	8781
900.352	8655
900.472	8655
900.591	8587
900.711	8617
900.83	8541
900.95	8716
901.069	8674
901.189	8610
901.308	8457
901.427	8381
901.546	8438
901.665	8438
901.784	8545
901.904	8415
902.023	8355
902.141	8267
902.26	8221
902.379	8271
902.498	8244
902.617	8248
902.735	8347
902.854	8301
902.973	8320
903.091	8161
903.21	8088
903.328	8218
903.446	8172
903.565	8073
903.683	8168
903.801	8058
903.919	8149
904.038	8126
904.156	8008
904.274	8062
904.392	8039
904.51	8020
904.627	8062
904.745	8126
904.863	8115
904.981	7913
905.098	7890
905.216	7856
905.334	7936
905.451	7913
905.569	7917
905.686	7982
905.803	7932
905.921	7792
906.038	7894
906.155	7788
906.272	7727
906.389	7700
906.506	7651
906.623	7658
906.74	7639
906.857	7548
906.974	7620
907.091	7734
907.208	7769
907.324	7677
907.441	7594
907.557	7525
907.674	7521
907.79	7396
907.907	7457
908.023	7438
908.139	7438
908.256	7400
908.372	7392
908.488	7346
908.604	7308
908.72	7331
908.836	7274
908.952	7278
909.068	7285
909.184	7331
909.3	7259
909.415	7285
909.531	7324
909.647	7126
909.762	7221
909.878	7122
909.993	7149
910.108	7103
910.224	7084
910.339	7156
910.454	7034
910.57	6996
910.685	6977
910.8	7240
910.915	7133
911.03	7057
911.145	6909
911.259	6867
911.374	6928
911.489	6951
911.604	6814
911.718	6692
911.833	6745
911.947	6673
912.062	6608
912.176	6719
912.291	6753
912.405	6719
912.519	6848
912.633	6848
912.748	6738
912.862	6749
912.976	6658
913.09	6578
913.204	6627
913.318	6665
913.431	6681
913.545	6688
913.659	6669
913.772	6669
913.886	6559
914	6532
914.113	6696
914.226	6631
914.34	6620
914.453	6471
914.566	6604
914.68	6578
914.793	6528
914.906	6365
915.019	6437
915.132	6395
915.245	6422
915.358	6441
915.47	6433
915.583	6490
915.696	6525
915.809	6502
915.921	6585
916.034	6445
916.146	6460
916.259	6433
916.371	6448
916.483	6448
916.595	6395
916.708	6445
916.82	6410
916.932	6380
917.044	6391
917.156	6445
917.268	6334
917.38	6388
917.491	6384
917.603	6384
917.715	6361
917.826	6384
917.938	6334
918.049	6289
918.161	6346
918.272	6429
918.384	6429
918.495	6323
918.606	6254
918.717	6262
918.828	6262
918.939	6262
919.05	6239
919.161	6254
919.272	6178
919.383	6178
919.494	6300
919.604	6399
919.715	6277
919.826	6262
919.936	6304
920.047	6331
920.157	6277
920.267	6513
920.378	6315
920.488	6266
920.598	6506
920.708	6582
920.818	6517
920.928	6471
921.038	6642
921.148	6589
921.258	6296
921.368	6311
921.477	6220
921.587	6152
921.697	6064
921.806	6163
921.916	6079
922.025	5923
922.134	5920
922.244	5874
922.353	5977
922.462	5882
922.571	5824
922.68	5714
922.789	5733
922.898	5668
923.007	5657
923.116	5737
923.224	5714
923.333	5619
923.442	5619
923.55	5577
923.659	5611
923.767	5627
923.876	5581
923.984	5627
924.092	5543
924.201	5562
924.309	5516
924.417	5535
924.525	5516
924.633	5570
924.741	6171
924.849	5402
924.956	5459
925.064	5341
925.172	5299
925.279	5299
925.387	5353
925.494	5326
925.602	5379
925.709	5440
925.816	5307
925.924	5311
926.031	5387
926.138	5349
926.245	5315
926.352	5231
926.459	5326
926.566	5326
926.673	5239
926.779	5140
926.886	5178
926.993	5041
927.099	4995
927.206	5029
927.312	5006
927.419	5037
927.525	4984
927.631	5003
927.737	4889
927.843	4923
927.95	4816
928.056	4816
928.162	4870
928.267	4877
928.373	5345
928.479	4885
928.585	4714
928.69	4778
928.796	4805
928.901	4660
929.007	4634
929.112	4653
929.218	4645
929.323	4641
929.428	4535
929.533	4683
929.638	4542
929.743	4508
929.848	4546
929.953	4497
930.058	4421
930.163	4303
930.267	4348
930.372	4424
930.477	4329
930.581	4497
930.685	4394
930.79	4287
930.894	4329
930.998	4276
931.103	4405
931.207	4131
931.311	4105
931.415	4048
931.519	3949
931.623	3964
