Data from glass_V78500241_1154.txt Node
Date: Wed Sep 01 19:22:29 CST 2021
User: usil
Spectrometer: V785-0024
Trigger mode: 0
Integration Time (sec): 4.000000E-1
Scans to average: 1
Nonlinearity correction enabled: false
Boxcar width: 0
Storing dark spectrum: false
XAxis mode: Wavelengths
Number of Pixels in Spectrum: 1024
>>>>>Begin Spectral Data<<<<<
801.071	3740
801.214	3732
801.356	3694
801.499	3751
801.641	3728
801.783	3778
801.926	3892
802.068	3838
802.211	3838
802.353	3915
802.496	3865
802.638	3915
802.78	3888
802.923	3945
803.065	3918
803.208	3823
803.35	3865
803.492	3899
803.635	3941
803.777	3816
803.919	3907
804.061	4166
804.204	3953
804.346	3983
804.488	3972
804.63	4029
804.773	3941
804.915	4101
805.057	4143
805.199	4044
805.341	4116
805.483	4154
805.626	4101
805.768	4128
805.91	4230
806.052	4246
806.194	4204
806.336	4318
806.478	4238
806.62	4192
806.762	4223
806.904	4306
807.046	4363
807.188	4200
807.33	4200
807.472	4238
807.614	4227
807.756	4299
807.898	4238
808.04	4196
808.182	4287
808.324	4367
808.465	4398
808.607	4478
808.749	4451
808.891	4455
809.033	4512
809.174	4421
809.316	4333
809.458	4242
809.6	4188
809.741	4188
809.883	4177
810.025	4185
810.166	4207
810.308	4207
810.45	4276
810.591	4303
810.733	4310
810.875	4519
811.016	4839
811.158	5208
811.299	5296
811.441	5315
811.582	5064
811.724	4721
811.865	4470
812.007	4497
812.148	4386
812.29	4443
812.431	4367
812.573	4413
812.714	4379
812.855	4447
812.997	4455
813.138	4481
813.279	4443
813.421	4383
813.562	4402
813.703	4314
813.845	4417
813.986	4265
814.127	4223
814.268	4295
814.41	4265
814.551	4287
814.692	4348
814.833	4276
814.974	4360
815.115	4360
815.256	4268
815.397	4230
815.539	4276
815.68	4234
815.821	4173
815.962	4322
816.103	4310
816.244	4211
816.385	4238
816.526	4287
816.666	4185
816.807	4124
816.948	4177
817.089	4230
817.23	4051
817.371	4032
817.512	4067
817.653	4090
817.793	4086
817.934	4044
818.075	4105
818.216	4090
818.356	4063
818.497	4048
818.638	3907
818.778	3918
818.919	3880
819.06	3869
819.2	3903
819.341	3892
819.481	3823
819.622	3918
819.762	4032
819.903	3987
820.043	3869
820.184	3857
820.324	3778
820.465	3869
820.605	3873
820.746	3911
820.886	3816
821.026	3964
821.167	3930
821.307	4017
821.447	3979
821.588	3945
821.728	4002
821.868	3975
822.008	3876
822.149	3934
822.289	3915
822.429	3789
822.569	3789
822.709	3838
822.849	3705
822.99	3728
823.13	3759
823.27	3808
823.41	3740
823.55	3743
823.69	3709
823.83	3724
823.97	3660
824.11	3606
824.25	3614
824.389	3690
824.529	3694
824.669	3656
824.809	3705
824.949	3759
825.089	3743
825.228	3724
825.368	3576
825.508	3584
825.648	3564
825.787	3667
825.927	3641
826.067	3641
826.206	3682
826.346	3827
826.485	3865
826.625	3907
826.765	3960
826.904	3797
827.044	3622
827.183	3561
827.323	3462
827.462	3500
827.601	3447
827.741	3466
827.88	3481
828.02	3367
828.159	3500
828.298	3534
828.437	3557
828.577	3466
828.716	3606
828.855	3488
828.994	3393
829.134	3329
829.273	3462
829.412	3332
829.551	3336
829.69	3374
829.829	3412
829.968	3523
830.107	3428
830.246	3462
830.385	3393
830.524	3359
830.663	3302
830.802	3256
830.941	3207
831.08	3237
831.219	3264
831.357	3245
831.496	3393
831.635	3249
831.774	3195
831.913	3211
832.051	3146
832.19	3195
832.329	3222
832.467	3123
832.606	3135
832.744	3161
832.883	3180
833.022	3199
833.16	3237
833.299	3332
833.437	3336
833.576	3363
833.714	3439
833.852	3431
833.991	3477
834.129	3492
834.267	3420
834.406	3416
834.544	3458
834.682	3458
834.821	3412
834.959	3614
835.097	3488
835.235	3526
835.373	3485
835.511	3473
835.65	3511
835.788	3496
835.926	3420
836.064	3367
836.202	3393
836.34	3580
836.478	3606
836.615	3580
836.753	3618
836.891	3644
837.029	3603
837.167	3603
837.305	3599
837.443	3553
837.58	3553
837.718	3591
837.856	3568
837.993	3545
838.131	3633
838.269	3637
838.406	3595
838.544	3606
838.681	3496
838.819	3466
838.956	3401
839.094	3416
839.231	3473
839.369	3553
839.506	3740
839.643	3603
839.781	3481
839.918	3454
840.055	3515
840.193	3549
840.33	3542
840.467	3591
840.604	3637
840.742	3812
840.879	3557
841.016	3584
841.153	3603
841.29	3762
841.427	3762
841.564	3694
841.701	3766
841.838	3690
841.975	3675
842.112	3724
842.249	3618
842.385	3667
842.522	3785
842.659	3694
842.796	3660
842.933	3701
843.069	3709
843.206	3740
843.343	3842
843.479	3778
843.616	3831
843.752	3660
843.889	3671
844.025	3838
844.162	3751
844.298	3827
844.435	3838
844.571	3789
844.708	3922
844.844	3983
844.98	4029
845.117	3998
845.253	3983
845.389	3930
845.525	4010
845.661	3956
845.798	3922
845.934	4010
846.07	3987
846.206	4063
846.342	4143
846.478	4055
846.614	3994
846.75	3979
846.886	3922
847.022	4082
847.158	4002
847.294	4021
847.429	4025
847.565	4013
847.701	4287
847.837	3926
847.972	3876
848.108	3960
848.244	3994
848.379	3876
848.515	3816
848.65	3854
848.786	3865
848.921	3857
849.057	3926
849.192	3930
849.328	3934
849.463	3953
849.598	3896
849.734	3861
849.869	3816
850.004	3747
850.14	3812
850.275	3766
850.41	3751
850.545	3755
850.68	3793
850.815	3804
850.95	3789
851.085	3937
851.22	3854
851.355	3907
851.49	3751
851.625	3797
851.76	3770
851.895	3755
852.03	3720
852.165	3827
852.299	3884
852.434	3922
852.569	3861
852.703	3850
852.838	3975
852.973	3964
853.107	4006
853.242	3903
853.376	3857
853.511	3766
853.645	3854
853.78	4002
853.914	3880
854.048	3937
854.183	3854
854.317	3979
854.451	4067
854.585	3987
854.72	3953
854.854	4074
854.988	3964
855.122	4013
855.256	3941
855.39	3956
855.524	4109
855.658	4074
855.792	4128
855.926	4116
856.06	4177
856.194	4204
856.327	4120
856.461	4143
856.595	4173
856.729	4185
856.862	4299
856.996	4227
857.13	4276
857.263	4356
857.397	4360
857.53	4303
857.664	4428
857.797	4432
857.931	4428
858.064	4394
858.197	4462
858.331	4409
858.464	4352
858.597	4344
858.731	4459
858.864	4504
858.997	4424
859.13	4512
859.263	4512
859.396	4603
859.529	4599
859.662	4504
859.795	4569
859.928	4645
860.061	4694
860.194	4717
860.327	4691
860.46	4675
860.592	4744
860.725	4793
860.858	4786
860.99	4740
861.123	4706
861.256	4725
861.388	4790
861.521	5360
861.653	4714
861.786	4675
861.918	4759
862.05	4797
862.183	4847
862.315	4965
862.447	4938
862.58	4930
862.712	4820
862.844	4691
862.976	4930
863.108	4862
863.24	5147
863.372	4900
863.504	4877
863.636	4885
863.768	4968
863.9	4980
864.032	4915
864.164	4949
864.296	5056
864.428	5113
864.559	5083
864.691	5132
864.823	5121
864.954	5166
865.086	5113
865.217	5105
865.349	5151
865.48	5193
865.612	5197
865.743	5280
865.875	5220
866.006	5151
866.137	5242
866.269	5299
866.4	5280
866.531	5220
866.662	5239
866.793	5303
866.924	5296
867.055	5337
867.186	5391
867.317	5349
867.448	5326
867.579	5337
867.71	5341
867.841	5414
867.972	5459
868.103	5535
868.233	5478
868.364	5520
868.495	5520
868.625	5672
868.756	5836
868.886	5653
869.017	5722
869.147	5878
869.278	5885
869.408	5809
869.539	5786
869.669	5912
869.799	5942
869.929	6034
870.06	5996
870.19	6205
870.32	6258
870.45	6266
870.58	6365
870.71	6399
870.84	6532
870.97	6456
871.1	6445
871.23	6597
871.36	6760
871.489	6582
871.619	6772
871.749	6818
871.879	6878
872.008	7008
872.138	6939
872.267	6996
872.397	7027
872.526	7095
872.656	7110
872.785	7194
872.915	7426
873.044	7521
873.173	7601
873.303	7643
873.432	7803
873.561	7860
873.69	7906
873.819	8035
873.948	8180
874.077	8214
874.206	8381
874.335	8537
874.464	8731
874.593	8895
874.722	8944
874.851	9112
874.979	9226
875.108	9397
875.237	9488
875.365	9526
875.494	9652
875.623	9880
875.751	9850
875.88	9987
876.008	10147
876.136	10348
876.265	10500
876.393	10793
876.521	10729
876.65	10881
876.778	10877
876.906	10934
877.034	11025
877.162	11166
877.29	11159
877.418	11322
877.546	11322
877.674	11436
877.802	11474
877.93	11539
878.058	11566
878.185	11509
878.313	11737
878.441	11771
878.568	11608
878.696	11783
878.824	11828
878.951	11980
879.079	12053
879.206	12197
879.333	12076
879.461	12026
879.588	12125
879.715	12026
879.842	12209
879.97	12121
880.097	11920
880.224	11931
880.351	11878
880.478	11977
880.605	11912
880.732	11855
880.859	12041
880.986	11813
881.112	11885
881.239	11726
881.366	11615
881.493	11577
881.619	11547
881.746	11630
881.872	11596
881.999	11547
882.125	11532
882.252	11589
882.378	11497
882.505	11611
882.631	11395
882.757	11337
882.883	11372
883.01	11349
883.136	11250
883.262	11170
883.388	11098
883.514	11201
883.64	11166
883.766	11094
883.892	11037
884.018	10987
884.143	10999
884.269	11166
884.395	10839
884.52	10763
884.646	10843
884.772	10771
884.897	10558
885.023	10771
885.148	10706
885.274	10748
885.399	10706
885.524	10664
885.65	10630
885.775	10573
885.9	10622
886.025	10618
886.15	10615
886.275	10561
886.4	10363
886.525	10455
886.65	10485
886.775	10325
886.9	10512
887.025	10550
887.149	10325
887.274	10253
887.399	10173
887.523	10192
887.648	10131
887.773	10204
887.897	10249
888.021	10253
888.146	10120
888.27	10284
888.395	10284
888.519	10150
888.643	10207
888.767	10207
888.891	10128
889.015	10082
889.139	10067
889.263	10021
889.387	10082
889.511	10131
889.635	10086
889.759	9987
889.883	10051
890.006	10059
890.13	10135
890.254	9934
890.377	10025
890.501	9831
890.624	9903
890.748	9922
890.871	9800
890.995	9778
891.118	9812
891.241	9793
891.364	9743
891.488	9869
891.611	9812
891.734	9774
891.857	9740
891.98	9732
892.103	9770
892.226	9759
892.349	9732
892.471	9561
892.594	9622
892.717	9652
892.839	9599
892.962	9542
893.085	9629
893.207	9610
893.33	9504
893.452	9507
893.575	9591
893.697	9485
893.819	9625
893.941	9622
894.064	9629
894.186	9420
894.308	9488
894.43	9568
894.552	9580
894.674	9466
894.796	9408
894.918	9420
895.04	9355
895.161	9393
895.283	9378
895.405	9260
895.526	9222
895.648	9214
895.769	9184
895.891	9245
896.012	9287
896.134	9260
896.255	9184
896.376	9116
896.498	9195
896.619	9097
896.74	9089
896.861	9233
896.982	9287
897.103	9275
897.224	9176
897.345	9039
897.466	9001
897.587	9024
897.708	9100
897.828	9089
897.949	8944
898.07	8910
898.19	8918
898.311	9077
898.431	8864
898.552	8895
898.672	8979
898.792	8944
898.913	8819
899.033	8842
899.153	8678
899.273	8678
899.393	8724
899.513	8823
899.633	8746
899.753	8758
899.873	8762
899.993	8853
900.113	8727
900.232	8705
900.352	8689
900.472	8686
900.591	8556
900.711	8617
900.83	8552
900.95	8648
901.069	8678
901.189	8575
901.308	8457
901.427	8389
901.546	8396
901.665	8488
901.784	8545
901.904	8366
902.023	8298
902.141	8202
902.26	8237
902.379	8290
902.498	8263
902.617	8256
902.735	8298
902.854	8279
902.973	8294
903.091	8161
903.21	8176
903.328	8176
903.446	8123
903.565	8024
903.683	8161
903.801	8065
903.919	8100
904.038	8123
904.156	8016
904.274	8058
904.392	8058
904.51	8001
904.627	8012
904.745	8062
904.863	8111
904.981	7951
905.098	7947
905.216	7917
905.334	7967
905.451	7947
905.569	7925
905.686	7951
905.803	7932
905.921	7757
906.038	7818
906.155	7814
906.272	7719
906.389	7712
906.506	7685
906.623	7624
906.74	7651
906.857	7540
906.974	7578
907.091	7689
907.208	7700
907.324	7636
907.441	7563
907.557	7460
907.674	7464
907.79	7403
907.907	7403
908.023	7464
908.139	7487
908.256	7324
908.372	7392
908.488	7350
908.604	7320
908.72	7240
908.836	7301
908.952	7312
909.068	7289
909.184	7343
909.3	7209
909.415	7282
909.531	7259
909.647	7114
909.762	7110
909.878	7107
909.993	7141
910.108	7164
910.224	7050
910.339	7031
910.454	7103
910.57	7034
910.685	7053
910.8	7118
910.915	7107
911.03	6996
911.145	6894
911.259	6920
911.374	6916
911.489	6901
911.604	6840
911.718	6741
911.833	6760
911.947	6589
912.062	6635
912.176	6715
912.291	6745
912.405	6673
912.519	6795
912.633	6920
912.748	6768
912.862	6734
912.976	6604
913.09	6490
913.204	6612
913.318	6612
913.431	6642
913.545	6631
913.659	6726
913.772	6650
913.886	6544
914	6578
914.113	6662
914.226	6677
914.34	6623
914.453	6471
914.566	6601
914.68	6521
914.793	6578
914.906	6445
915.019	6399
915.132	6410
915.245	6445
915.358	6448
915.47	6437
915.583	6486
915.696	6490
915.809	6532
915.921	6608
916.034	6395
916.146	6456
916.259	6391
916.371	6532
916.483	6437
916.595	6422
916.708	6391
916.82	6410
916.932	6403
917.044	6426
917.156	6342
917.268	6308
917.38	6319
917.491	6292
917.603	6315
917.715	6456
917.826	6410
917.938	6270
918.049	6273
918.161	6342
918.272	6372
918.384	6448
918.495	6384
918.606	6239
918.717	6194
918.828	6270
918.939	6277
919.05	6190
919.161	6346
919.272	6148
919.383	6171
919.494	6315
919.604	6483
919.715	6266
919.826	6178
919.936	6266
920.047	6334
920.157	6270
920.267	6479
920.378	6292
920.488	6258
920.598	6494
920.708	6578
920.818	6448
920.928	6517
921.038	6654
921.148	6593
921.258	6384
921.368	6308
921.477	6205
921.587	6178
921.697	6155
921.806	6167
921.916	6064
922.025	5977
922.134	5927
922.244	5927
922.353	5973
922.462	5893
922.571	5844
922.68	5707
922.789	5688
922.898	5771
923.007	5684
923.116	5741
923.224	5649
923.333	5646
923.442	5611
923.55	5600
923.659	5570
923.767	5665
923.876	5497
923.984	5638
924.092	5478
924.201	5554
924.309	5551
924.417	5577
924.525	5509
924.633	5497
924.741	6331
924.849	5391
924.956	5512
925.064	5433
925.172	5292
925.279	5398
925.387	5425
925.494	5318
925.602	5395
925.709	5391
925.816	5292
925.924	5353
926.031	5273
926.138	5292
926.245	5353
926.352	5201
926.459	5353
926.566	5337
926.673	5231
926.779	5155
926.886	5128
926.993	5079
927.099	5029
927.206	4949
927.312	4972
927.419	5048
927.525	4949
927.631	4965
927.737	4889
927.843	4889
927.95	4816
928.056	4778
928.162	4839
928.267	4881
928.373	5353
928.479	4866
928.585	4698
928.69	4793
928.796	4809
928.901	4683
929.007	4599
929.112	4653
929.218	4607
929.323	4592
929.428	4580
929.533	4683
929.638	4519
929.743	4554
929.848	4561
929.953	4527
930.058	4447
930.163	4363
930.267	4405
930.372	4417
930.477	4268
930.581	4466
930.685	4360
930.79	4268
930.894	4322
930.998	4219
931.103	4386
931.207	4109
931.311	4059
931.415	4048
931.519	3918
931.623	4002
