Data from glass_V78500241_1331.txt Node
Date: Wed Sep 01 19:23:43 CST 2021
User: usil
Spectrometer: V785-0024
Trigger mode: 0
Integration Time (sec): 4.000000E-1
Scans to average: 1
Nonlinearity correction enabled: false
Boxcar width: 0
Storing dark spectrum: false
XAxis mode: Wavelengths
Number of Pixels in Spectrum: 1024
>>>>>Begin Spectral Data<<<<<
801.071	3736
801.214	3743
801.356	3701
801.499	3774
801.641	3743
801.783	3785
801.926	3884
802.068	3835
802.211	3854
802.353	3888
802.496	3823
802.638	3907
802.78	3941
802.923	3956
803.065	3899
803.208	3880
803.35	3842
803.492	3918
803.635	3896
803.777	3808
803.919	3892
804.061	4158
804.204	3960
804.346	3975
804.488	3907
804.63	4021
804.773	3972
804.915	4051
805.057	4143
805.199	4025
805.341	4128
805.483	4135
805.626	4124
805.768	4154
805.91	4215
806.052	4211
806.194	4181
806.336	4356
806.478	4185
806.62	4215
806.762	4181
806.904	4291
807.046	4318
807.188	4204
807.33	4227
807.472	4234
807.614	4200
807.756	4291
807.898	4253
808.04	4166
808.182	4295
808.324	4371
808.465	4394
808.607	4489
808.749	4462
808.891	4478
809.033	4489
809.174	4402
809.316	4242
809.458	4246
809.6	4211
809.741	4120
809.883	4128
810.025	4230
810.166	4223
810.308	4196
810.45	4204
810.591	4204
810.733	4303
810.875	4538
811.016	4824
811.158	5105
811.299	5265
811.441	5239
811.582	5045
811.724	4691
811.865	4470
812.007	4481
812.148	4428
812.29	4394
812.431	4394
812.573	4459
812.714	4379
812.855	4455
812.997	4470
813.138	4531
813.279	4409
813.421	4390
813.562	4379
813.703	4306
813.845	4375
813.986	4284
814.127	4207
814.268	4265
814.41	4306
814.551	4272
814.692	4344
814.833	4284
814.974	4280
815.115	4398
815.256	4280
815.397	4227
815.539	4230
815.68	4207
815.821	4207
815.962	4344
816.103	4287
816.244	4227
816.385	4242
816.526	4310
816.666	4204
816.807	4082
816.948	4169
817.089	4200
817.23	4112
817.371	4021
817.512	4101
817.653	4051
817.793	4032
817.934	4093
818.075	4105
818.216	4143
818.356	4078
818.497	4013
818.638	3884
818.778	3911
818.919	3880
819.06	3865
819.2	3915
819.341	3850
819.481	3816
819.622	3907
819.762	4013
819.903	3930
820.043	3892
820.184	3850
820.324	3838
820.465	3899
820.605	3850
820.746	3896
820.886	3793
821.026	3964
821.167	3903
821.307	3975
821.447	4032
821.588	3937
821.728	3941
821.868	3960
822.008	3861
822.149	3941
822.289	3964
822.429	3800
822.569	3751
822.709	3793
822.849	3694
822.99	3732
823.13	3759
823.27	3785
823.41	3686
823.55	3720
823.69	3720
823.83	3770
823.97	3694
824.11	3610
824.25	3618
824.389	3625
824.529	3660
824.669	3610
824.809	3713
824.949	3728
825.089	3740
825.228	3709
825.368	3587
825.508	3572
825.648	3564
825.787	3576
825.927	3644
826.067	3625
826.206	3667
826.346	3770
826.485	3835
826.625	3846
826.765	3945
826.904	3846
827.044	3660
827.183	3504
827.323	3466
827.462	3496
827.601	3428
827.741	3401
827.88	3469
828.02	3367
828.159	3473
828.298	3523
828.437	3534
828.577	3473
828.716	3625
828.855	3492
828.994	3386
829.134	3329
829.273	3382
829.412	3336
829.551	3291
829.69	3355
829.829	3450
829.968	3462
830.107	3496
830.246	3469
830.385	3382
830.524	3355
830.663	3313
830.802	3256
830.941	3192
831.08	3207
831.219	3291
831.357	3294
831.496	3355
831.635	3249
831.774	3211
831.913	3283
832.051	3154
832.19	3154
832.329	3264
832.467	3142
832.606	3119
832.744	3180
832.883	3173
833.022	3203
833.16	3268
833.299	3298
833.437	3355
833.576	3370
833.714	3431
833.852	3435
833.991	3431
834.129	3469
834.267	3450
834.406	3424
834.544	3431
834.682	3416
834.821	3416
834.959	3534
835.097	3466
835.235	3523
835.373	3530
835.511	3500
835.65	3454
835.788	3523
835.926	3428
836.064	3397
836.202	3409
836.34	3568
836.478	3633
836.615	3534
836.753	3610
836.891	3686
837.029	3591
837.167	3606
837.305	3587
837.443	3534
837.58	3511
837.718	3591
837.856	3595
837.993	3572
838.131	3606
838.269	3580
838.406	3599
838.544	3580
838.681	3450
838.819	3443
838.956	3389
839.094	3393
839.231	3447
839.369	3549
839.506	3728
839.643	3618
839.781	3477
839.918	3447
840.055	3534
840.193	3538
840.33	3545
840.467	3564
840.604	3618
840.742	3823
840.879	3557
841.016	3587
841.153	3587
841.29	3743
841.427	3728
841.564	3682
841.701	3762
841.838	3713
841.975	3694
842.112	3690
842.249	3652
842.385	3648
842.522	3865
842.659	3671
842.796	3717
842.933	3705
843.069	3682
843.206	3694
843.343	3823
843.479	3774
843.616	3808
843.752	3675
843.889	3671
844.025	3823
844.162	3740
844.298	3800
844.435	3781
844.571	3789
844.708	3892
844.844	3960
844.98	4036
845.117	4002
845.253	3972
845.389	3846
845.525	3979
845.661	3922
845.798	3956
845.934	4002
846.07	3953
846.206	4090
846.342	4128
846.478	4120
846.614	3964
846.75	3922
846.886	3903
847.022	4055
847.158	3934
847.294	4017
847.429	4025
847.565	3972
847.701	4242
847.837	3892
847.972	3842
848.108	3975
848.244	3975
848.379	3854
848.515	3808
848.65	3823
848.786	3880
848.921	3831
849.057	3968
849.192	3937
849.328	3911
849.463	3876
849.598	3873
849.734	3873
849.869	3850
850.004	3804
850.14	3804
850.275	3785
850.41	3743
850.545	3762
850.68	3759
850.815	3846
850.95	3823
851.085	3922
851.22	3861
851.355	3808
851.49	3816
851.625	3800
851.76	3823
851.895	3705
852.03	3720
852.165	3808
852.299	3903
852.434	3892
852.569	3880
852.703	3865
852.838	3926
852.973	3994
853.107	4032
853.242	3876
853.376	3854
853.511	3774
853.645	3876
853.78	3968
853.914	3907
854.048	3915
854.183	3869
854.317	3975
854.451	4105
854.585	3918
854.72	3926
854.854	3998
854.988	3945
855.122	3987
855.256	3899
855.39	4006
855.524	4105
855.658	4139
855.792	4071
855.926	4158
856.06	4173
856.194	4215
856.327	4150
856.461	4120
856.595	4196
856.729	4177
856.862	4280
856.996	4257
857.13	4310
857.263	4337
857.397	4322
857.53	4303
857.664	4337
857.797	4356
857.931	4474
858.064	4421
858.197	4421
858.331	4432
858.464	4314
858.597	4356
858.731	4443
858.864	4481
858.997	4478
859.13	4523
859.263	4523
859.396	4615
859.529	4512
859.662	4538
859.795	4508
859.928	4588
860.061	4744
860.194	4797
860.327	4687
860.46	4649
860.592	4736
860.725	4790
860.858	4790
860.99	4725
861.123	4706
861.256	4687
861.388	4736
861.521	5505
861.653	4698
861.786	4717
861.918	4752
862.05	4793
862.183	4870
862.315	4908
862.447	4889
862.58	4885
862.712	4809
862.844	4755
862.976	4885
863.108	4858
863.24	5178
863.372	4847
863.504	4877
863.636	4911
863.768	4949
863.9	4957
864.032	4953
864.164	5010
864.296	5022
864.428	5067
864.559	5102
864.691	5136
864.823	5132
864.954	5094
865.086	5151
865.217	5086
865.349	5014
865.48	5159
865.612	5201
865.743	5258
865.875	5216
866.006	5269
866.137	5235
866.269	5250
866.4	5280
866.531	5261
866.662	5231
866.793	5299
866.924	5296
867.055	5353
867.186	5368
867.317	5292
867.448	5303
867.579	5398
867.71	5421
867.841	5345
867.972	5486
868.103	5471
868.233	5486
868.364	5501
868.495	5532
868.625	5668
868.756	5813
868.886	5668
869.017	5745
869.147	5897
869.278	5836
869.408	5775
869.539	5847
869.669	5916
869.799	5889
869.929	6019
870.06	6034
870.19	6163
870.32	6201
870.45	6266
870.58	6353
870.71	6486
870.84	6490
870.97	6433
871.1	6456
871.23	6669
871.36	6688
871.489	6658
871.619	6772
871.749	6829
871.879	6878
872.008	7027
872.138	6909
872.267	6966
872.397	6977
872.526	7019
872.656	7171
872.785	7225
872.915	7403
873.044	7521
873.173	7491
873.303	7594
873.432	7727
873.561	7860
873.69	7932
873.819	8073
873.948	8157
874.077	8267
874.206	8294
874.335	8503
874.464	8583
874.593	8895
874.722	8941
874.851	9123
874.979	9268
875.108	9344
875.237	9416
875.365	9507
875.494	9625
875.623	9857
875.751	9831
875.88	10029
876.008	10074
876.136	10249
876.265	10443
876.393	10767
876.521	10759
876.65	10782
876.778	10805
876.906	11006
877.034	10984
877.162	11124
877.29	11113
877.418	11261
877.546	11398
877.674	11391
877.802	11493
877.93	11482
878.058	11551
878.185	11539
878.313	11710
878.441	11798
878.568	11745
878.696	11832
878.824	11878
878.951	12007
879.079	12114
879.206	12182
879.333	11992
879.461	12015
879.588	12076
879.715	12041
879.842	12213
879.97	12091
880.097	11874
880.224	11859
880.351	11939
880.478	11863
880.605	11828
880.732	11843
880.859	11958
880.986	11809
881.112	11790
881.239	11714
881.366	11680
881.493	11604
881.619	11577
881.746	11585
881.872	11611
881.999	11562
882.125	11539
882.252	11535
882.378	11493
882.505	11497
882.631	11334
882.757	11349
882.883	11261
883.01	11284
883.136	11155
883.262	11140
883.388	11197
883.514	11201
883.64	11227
883.766	11094
883.892	11006
884.018	10995
884.143	11079
884.269	11147
884.395	10915
884.52	10706
884.646	10786
884.772	10706
884.897	10656
885.023	10641
885.148	10736
885.274	10805
885.399	10683
885.524	10577
885.65	10577
885.775	10569
885.9	10584
886.025	10672
886.15	10592
886.275	10474
886.4	10371
886.525	10417
886.65	10402
886.775	10382
886.9	10478
887.025	10485
887.149	10291
887.274	10223
887.399	10200
887.523	10207
887.648	10143
887.773	10154
887.897	10238
888.021	10204
888.146	9998
888.27	10246
888.395	10257
888.519	10219
888.643	10166
888.767	10185
888.891	10101
889.015	9983
889.139	10048
889.263	9987
889.387	10063
889.511	10116
889.635	10192
889.759	9953
889.883	10090
890.006	10032
890.13	10086
890.254	9987
890.377	9899
890.501	9850
890.624	9937
890.748	9918
890.871	9838
890.995	9774
891.118	9648
891.241	9812
891.364	9732
891.488	9846
891.611	9713
891.734	9660
891.857	9819
891.98	9717
892.103	9842
892.226	9713
892.349	9603
892.471	9500
892.594	9591
892.717	9652
892.839	9561
892.962	9622
893.085	9694
893.207	9637
893.33	9420
893.452	9549
893.575	9526
893.697	9469
893.819	9603
893.941	9625
894.064	9542
894.186	9469
894.308	9401
894.43	9576
894.552	9526
894.674	9488
894.796	9416
894.918	9405
895.04	9332
895.161	9370
895.283	9344
895.405	9199
895.526	9317
895.648	9249
895.769	9272
895.891	9192
896.012	9268
896.134	9283
896.255	9176
896.376	9138
896.498	9135
896.619	9112
896.74	9116
896.861	9089
896.982	9260
897.103	9283
897.224	9150
897.345	9108
897.466	9009
897.587	9100
897.708	9154
897.828	9043
897.949	8937
898.07	8986
898.19	8967
898.311	9028
898.431	8849
898.552	8979
898.672	8956
898.792	8952
898.913	8864
899.033	8746
899.153	8788
899.273	8655
899.393	8697
899.513	8807
899.633	8788
899.753	8712
899.873	8769
899.993	8838
900.113	8708
900.232	8716
900.352	8731
900.472	8621
900.591	8632
900.711	8571
900.83	8629
900.95	8693
901.069	8670
901.189	8492
901.308	8473
901.427	8374
901.546	8450
901.665	8518
901.784	8533
901.904	8377
902.023	8324
902.141	8271
902.26	8229
902.379	8320
902.498	8195
902.617	8267
902.735	8252
902.854	8275
902.973	8294
903.091	8115
903.21	8096
903.328	8142
903.446	8111
903.565	7997
903.683	8176
903.801	8073
903.919	8119
904.038	8199
904.156	8016
904.274	8058
904.392	7963
904.51	8069
904.627	8001
904.745	8065
904.863	8077
904.981	7921
905.098	7761
905.216	7875
905.334	7917
905.451	7940
905.569	7868
905.686	7951
905.803	7928
905.921	7814
906.038	7868
906.155	7704
906.272	7693
906.389	7731
906.506	7643
906.623	7620
906.74	7575
906.857	7601
906.974	7556
907.091	7639
907.208	7708
907.324	7677
907.441	7525
907.557	7514
907.674	7480
907.79	7396
907.907	7388
908.023	7476
908.139	7514
908.256	7426
908.372	7365
908.488	7365
908.604	7263
908.72	7206
908.836	7301
908.952	7225
909.068	7282
909.184	7381
909.3	7285
909.415	7251
909.531	7255
909.647	7175
909.762	7156
909.878	7046
909.993	7168
910.108	7126
910.224	7065
910.339	7118
910.454	7034
910.57	7000
910.685	6981
910.8	7160
910.915	7168
911.03	6996
911.145	6913
911.259	6894
911.374	6875
911.489	6825
911.604	6840
911.718	6749
911.833	6749
911.947	6654
912.062	6665
912.176	6692
912.291	6806
912.405	6677
912.519	6806
912.633	6829
912.748	6719
912.862	6734
912.976	6616
913.09	6540
913.204	6582
913.318	6627
913.431	6749
913.545	6623
913.659	6760
913.772	6593
913.886	6544
914	6574
914.113	6578
914.226	6692
914.34	6646
914.453	6490
914.566	6585
914.68	6517
914.793	6547
914.906	6490
915.019	6429
915.132	6391
915.245	6441
915.358	6437
915.47	6456
915.583	6433
915.696	6452
915.809	6490
915.921	6517
916.034	6464
916.146	6429
916.259	6433
916.371	6517
916.483	6410
916.595	6429
916.708	6403
916.82	6361
916.932	6361
917.044	6380
917.156	6399
917.268	6258
917.38	6353
917.491	6334
917.603	6292
917.715	6414
917.826	6426
917.938	6311
918.049	6262
918.161	6350
918.272	6388
918.384	6479
918.495	6350
918.606	6262
918.717	6205
918.828	6285
918.939	6292
919.05	6190
919.161	6239
919.272	6106
919.383	6136
919.494	6277
919.604	6426
919.715	6327
919.826	6171
919.936	6190
920.047	6384
920.157	6296
920.267	6506
920.378	6319
920.488	6292
920.598	6437
920.708	6547
920.818	6445
920.928	6456
921.038	6597
921.148	6532
921.258	6346
921.368	6353
921.477	6254
921.587	6224
921.697	6072
921.806	6239
921.916	6076
922.025	6026
922.134	5859
922.244	5923
922.353	5999
922.462	5832
922.571	5733
922.68	5688
922.789	5646
922.898	5699
923.007	5592
923.116	5722
923.224	5649
923.333	5642
923.442	5661
923.55	5596
923.659	5573
923.767	5672
923.876	5528
923.984	5642
924.092	5543
924.201	5604
924.309	5554
924.417	5554
924.525	5478
924.633	5490
924.741	6334
924.849	5364
924.956	5433
925.064	5364
925.172	5296
925.279	5277
925.387	5349
925.494	5330
925.602	5433
925.709	5417
925.816	5265
925.924	5345
926.031	5364
926.138	5250
926.245	5345
926.352	5239
926.459	5288
926.566	5364
926.673	5197
926.779	5166
926.886	5170
926.993	5048
927.099	4995
927.206	4957
927.312	4972
927.419	5010
927.525	4991
927.631	4968
927.737	4930
927.843	4850
927.95	4763
928.056	4797
928.162	4793
928.267	4809
928.373	5292
928.479	4900
928.585	4691
928.69	4820
928.796	4736
928.901	4748
929.007	4580
929.112	4679
929.218	4645
929.323	4603
929.428	4603
929.533	4717
929.638	4531
929.743	4512
929.848	4580
929.953	4542
930.058	4432
930.163	4318
930.267	4363
930.372	4413
930.477	4284
930.581	4478
930.685	4367
930.79	4291
930.894	4280
930.998	4204
931.103	4402
931.207	4158
931.311	4082
931.415	4021
931.519	3915
931.623	3972
