Data from glass_V78500241_2688.txt Node
Date: Wed Sep 01 19:33:08 CST 2021
User: usil
Spectrometer: V785-0024
Trigger mode: 0
Integration Time (sec): 4.000000E-1
Scans to average: 1
Nonlinearity correction enabled: false
Boxcar width: 0
Storing dark spectrum: false
XAxis mode: Wavelengths
Number of Pixels in Spectrum: 1024
>>>>>Begin Spectral Data<<<<<
801.071	3709
801.214	3713
801.356	3709
801.499	3713
801.641	3679
801.783	3740
801.926	3873
802.068	3781
802.211	3846
802.353	3873
802.496	3819
802.638	3838
802.78	3869
802.923	3922
803.065	3835
803.208	3854
803.35	3880
803.492	3892
803.635	3899
803.777	3804
803.919	3846
804.061	4158
804.204	3930
804.346	3956
804.488	3865
804.63	4048
804.773	3911
804.915	3991
805.057	4093
805.199	4036
805.341	4116
805.483	4116
805.626	4173
805.768	4090
805.91	4223
806.052	4227
806.194	4166
806.336	4295
806.478	4227
806.62	4185
806.762	4181
806.904	4261
807.046	4303
807.188	4211
807.33	4211
807.472	4196
807.614	4211
807.756	4268
807.898	4211
808.04	4169
808.182	4280
808.324	4303
808.465	4386
808.607	4466
808.749	4413
808.891	4440
809.033	4500
809.174	4371
809.316	4223
809.458	4249
809.6	4139
809.741	4131
809.883	4166
810.025	4196
810.166	4185
810.308	4215
810.45	4287
810.591	4272
810.733	4265
810.875	4523
811.016	4809
811.158	5162
811.299	5189
811.441	5235
811.582	5014
811.724	4710
811.865	4428
812.007	4405
812.148	4424
812.29	4417
812.431	4398
812.573	4417
812.714	4356
812.855	4386
812.997	4447
813.138	4474
813.279	4386
813.421	4405
813.562	4386
813.703	4352
813.845	4318
813.986	4238
814.127	4181
814.268	4227
814.41	4348
814.551	4249
814.692	4348
814.833	4238
814.974	4257
815.115	4337
815.256	4242
815.397	4204
815.539	4261
815.68	4200
815.821	4215
815.962	4329
816.103	4253
816.244	4185
816.385	4181
816.526	4253
816.666	4223
816.807	4074
816.948	4185
817.089	4181
817.23	4101
817.371	4040
817.512	4055
817.653	4051
817.793	3949
817.934	4067
818.075	4097
818.216	4025
818.356	4093
818.497	3983
818.638	3934
818.778	3896
818.919	3896
819.06	3842
819.2	3884
819.341	3869
819.481	3823
819.622	3884
819.762	4002
819.903	3926
820.043	3850
820.184	3793
820.324	3800
820.465	3873
820.605	3884
820.746	3850
820.886	3785
821.026	3892
821.167	3945
821.307	3979
821.447	3926
821.588	3915
821.728	3922
821.868	3934
822.008	3880
822.149	3896
822.289	3880
822.429	3793
822.569	3762
822.709	3797
822.849	3698
822.99	3720
823.13	3774
823.27	3793
823.41	3728
823.55	3690
823.69	3675
823.83	3717
823.97	3648
824.11	3599
824.25	3591
824.389	3629
824.529	3644
824.669	3614
824.809	3720
824.949	3728
825.089	3720
825.228	3690
825.368	3591
825.508	3572
825.648	3580
825.787	3587
825.927	3591
826.067	3595
826.206	3633
826.346	3800
826.485	3861
826.625	3823
826.765	3918
826.904	3816
827.044	3599
827.183	3488
827.323	3428
827.462	3488
827.601	3458
827.741	3439
827.88	3466
828.02	3367
828.159	3443
828.298	3485
828.437	3542
828.577	3466
828.716	3595
828.855	3496
828.994	3355
829.134	3374
829.273	3363
829.412	3313
829.551	3336
829.69	3355
829.829	3439
829.968	3473
830.107	3409
830.246	3424
830.385	3378
830.524	3340
830.663	3294
830.802	3241
830.941	3192
831.08	3157
831.219	3245
831.357	3279
831.496	3397
831.635	3226
831.774	3176
831.913	3195
832.051	3108
832.19	3161
832.329	3176
832.467	3093
832.606	3127
832.744	3154
832.883	3195
833.022	3218
833.16	3256
833.299	3321
833.437	3306
833.576	3340
833.714	3389
833.852	3412
833.991	3443
834.129	3447
834.267	3450
834.406	3431
834.544	3428
834.682	3378
834.821	3389
834.959	3595
835.097	3428
835.235	3477
835.373	3466
835.511	3469
835.65	3450
835.788	3469
835.926	3348
836.064	3405
836.202	3412
836.34	3549
836.478	3599
836.615	3534
836.753	3595
836.891	3599
837.029	3606
837.167	3587
837.305	3561
837.443	3557
837.58	3447
837.718	3587
837.856	3500
837.993	3553
838.131	3572
838.269	3591
838.406	3561
838.544	3568
838.681	3481
838.819	3462
838.956	3370
839.094	3409
839.231	3431
839.369	3507
839.506	3694
839.643	3660
839.781	3443
839.918	3439
840.055	3504
840.193	3526
840.33	3485
840.467	3542
840.604	3591
840.742	3778
840.879	3568
841.016	3526
841.153	3584
841.29	3755
841.427	3740
841.564	3720
841.701	3717
841.838	3656
841.975	3610
842.112	3732
842.249	3618
842.385	3599
842.522	3789
842.659	3644
842.796	3637
842.933	3728
843.069	3679
843.206	3694
843.343	3793
843.479	3766
843.616	3789
843.752	3648
843.889	3679
844.025	3846
844.162	3698
844.298	3812
844.435	3789
844.571	3770
844.708	3907
844.844	3975
844.98	4006
845.117	3998
845.253	3937
845.389	3892
845.525	3937
845.661	3949
845.798	3846
845.934	3964
846.07	3918
846.206	3998
846.342	4097
846.478	4067
846.614	3972
846.75	3953
846.886	3930
847.022	4025
847.158	3991
847.294	4017
847.429	4025
847.565	3945
847.701	4242
847.837	3869
847.972	3888
848.108	3956
848.244	3892
848.379	3835
848.515	3797
848.65	3842
848.786	3823
848.921	3857
849.057	3892
849.192	3918
849.328	3937
849.463	3884
849.598	3896
849.734	3846
849.869	3835
850.004	3759
850.14	3736
850.275	3816
850.41	3736
850.545	3713
850.68	3770
850.815	3797
850.95	3797
851.085	3945
851.22	3865
851.355	3831
851.49	3842
851.625	3770
851.76	3793
851.895	3686
852.03	3679
852.165	3736
852.299	3827
852.434	3922
852.569	3880
852.703	3876
852.838	3930
852.973	3960
853.107	3964
853.242	3869
853.376	3896
853.511	3762
853.645	3823
853.78	3964
853.914	3869
854.048	3876
854.183	3873
854.317	3953
854.451	4040
854.585	3960
854.72	3972
854.854	4029
854.988	3945
855.122	4032
855.256	3907
855.39	4010
855.524	4032
855.658	4048
855.792	4067
855.926	4093
856.06	4101
856.194	4173
856.327	4154
856.461	4120
856.595	4120
856.729	4143
856.862	4257
856.996	4177
857.13	4242
857.263	4295
857.397	4379
857.53	4295
857.664	4356
857.797	4383
857.931	4413
858.064	4341
858.197	4421
858.331	4398
858.464	4390
858.597	4314
858.731	4436
858.864	4478
858.997	4451
859.13	4554
859.263	4554
859.396	4580
859.529	4504
859.662	4451
859.795	4493
859.928	4588
860.061	4706
860.194	4721
860.327	4645
860.46	4637
860.592	4702
860.725	4733
860.858	4698
860.99	4649
861.123	4691
861.256	4706
861.388	4740
861.521	5360
861.653	4736
861.786	4725
861.918	4679
862.05	4801
862.183	4812
862.315	4870
862.447	4881
862.58	4839
862.712	4752
862.844	4782
862.976	4820
863.108	4854
863.24	5254
863.372	4843
863.504	4900
863.636	4881
863.768	4980
863.9	4949
864.032	4866
864.164	4980
864.296	5045
864.428	5033
864.559	5109
864.691	5079
864.823	5140
864.954	5105
865.086	5105
865.217	5136
865.349	5083
865.48	5155
865.612	5159
865.743	5307
865.875	5201
866.006	5162
866.137	5220
866.269	5231
866.4	5189
866.531	5250
866.662	5204
866.793	5265
866.924	5277
867.055	5296
867.186	5292
867.317	5307
867.448	5292
867.579	5372
867.71	5364
867.841	5330
867.972	5398
868.103	5414
868.233	5433
868.364	5486
868.495	5516
868.625	5668
868.756	5790
868.886	5695
869.017	5627
869.147	5855
869.278	5851
869.408	5790
869.539	5805
869.669	5882
869.799	5878
869.929	5904
870.06	5988
870.19	6182
870.32	6163
870.45	6273
870.58	6338
870.71	6357
870.84	6426
870.97	6418
871.1	6410
871.23	6627
871.36	6711
871.489	6601
871.619	6722
871.749	6829
871.879	6890
872.008	7023
872.138	6939
872.267	7019
872.397	6947
872.526	7012
872.656	7046
872.785	7171
872.915	7358
873.044	7464
873.173	7582
873.303	7639
873.432	7761
873.561	7822
873.69	7875
873.819	7978
873.948	8145
874.077	8225
874.206	8263
874.335	8366
874.464	8659
874.593	8891
874.722	8876
874.851	9135
874.979	9237
875.108	9378
875.237	9378
875.365	9519
875.494	9675
875.623	9861
875.751	9838
875.88	10078
876.008	10169
876.136	10287
876.265	10542
876.393	10706
876.521	10664
876.65	10866
876.778	10850
876.906	10953
877.034	10987
877.162	11064
877.29	11250
877.418	11292
877.546	11360
877.674	11425
877.802	11440
877.93	11440
878.058	11535
878.185	11661
878.313	11657
878.441	11733
878.568	11729
878.696	11771
878.824	11851
878.951	11893
879.079	12007
879.206	12098
879.333	11969
879.461	12015
879.588	12098
879.715	12091
879.842	12228
879.97	12136
880.097	11874
880.224	11901
880.351	11889
880.478	11832
880.605	11813
880.732	11874
880.859	12026
880.986	11752
881.112	11794
881.239	11695
881.366	11577
881.493	11592
881.619	11516
881.746	11608
881.872	11505
881.999	11486
882.125	11452
882.252	11512
882.378	11497
882.505	11566
882.631	11250
882.757	11284
882.883	11288
883.01	11261
883.136	11231
883.262	11105
883.388	11124
883.514	11155
883.64	11060
883.766	11098
883.892	10965
884.018	10965
884.143	11022
884.269	11067
884.395	10763
884.52	10687
884.646	10752
884.772	10710
884.897	10702
885.023	10668
885.148	10725
885.274	10717
885.399	10729
885.524	10634
885.65	10569
885.775	10599
885.9	10558
886.025	10561
886.15	10478
886.275	10451
886.4	10360
886.525	10481
886.65	10360
886.775	10348
886.9	10455
887.025	10493
887.149	10344
887.274	10173
887.399	10230
887.523	10135
887.648	10162
887.773	10139
887.897	10375
888.021	10196
888.146	10063
888.27	10280
888.395	10227
888.519	10162
888.643	10215
888.767	10162
888.891	10078
889.015	10013
889.139	9998
889.263	10010
889.387	10040
889.511	10090
889.635	10040
889.759	9937
889.883	9956
890.006	9972
890.13	10090
890.254	9911
890.377	9907
890.501	9823
890.624	9854
890.748	9857
890.871	9728
890.995	9717
891.118	9713
891.241	9724
891.364	9747
891.488	9827
891.611	9682
891.734	9766
891.857	9732
891.98	9717
892.103	9747
892.226	9682
892.349	9671
892.471	9431
892.594	9584
892.717	9618
892.839	9618
892.962	9595
893.085	9644
893.207	9595
893.33	9462
893.452	9526
893.575	9572
893.697	9526
893.819	9637
893.941	9652
894.064	9614
894.186	9462
894.308	9363
894.43	9496
894.552	9595
894.674	9511
894.796	9344
894.918	9340
895.04	9321
895.161	9325
895.283	9321
895.405	9222
895.526	9283
895.648	9226
895.769	9283
895.891	9253
896.012	9272
896.134	9211
896.255	9146
896.376	9127
896.498	9135
896.619	9150
896.74	9017
896.861	9097
896.982	9222
897.103	9237
897.224	9131
897.345	9074
897.466	8952
897.587	8982
897.708	9081
897.828	9028
897.949	8956
898.07	8861
898.19	8899
898.311	8975
898.431	8811
898.552	8933
898.672	8994
898.792	8990
898.913	8899
899.033	8910
899.153	8724
899.273	8705
899.393	8697
899.513	8823
899.633	8670
899.753	8766
899.873	8693
899.993	8693
900.113	8689
900.232	8659
900.352	8705
900.472	8530
900.591	8594
900.711	8556
900.83	8488
900.95	8632
901.069	8720
901.189	8564
901.308	8347
901.427	8374
901.546	8427
901.665	8431
901.784	8404
901.904	8438
902.023	8324
902.141	8271
902.26	8210
902.379	8271
902.498	8221
902.617	8138
902.735	8248
902.854	8252
902.973	8252
903.091	8115
903.21	8206
903.328	8103
903.446	8096
903.565	8062
903.683	8035
903.801	8035
903.919	8100
904.038	8130
904.156	8012
904.274	8126
904.392	8016
904.51	8081
904.627	8065
904.745	8005
904.863	8077
904.981	7917
905.098	7864
905.216	7871
905.334	7947
905.451	7928
905.569	7887
905.686	7909
905.803	7913
905.921	7746
906.038	7875
906.155	7788
906.272	7677
906.389	7681
906.506	7624
906.623	7575
906.74	7586
906.857	7506
906.974	7567
907.091	7689
907.208	7689
907.324	7658
907.441	7525
907.557	7449
907.674	7411
907.79	7320
907.907	7415
908.023	7438
908.139	7457
908.256	7339
908.372	7350
908.488	7358
908.604	7282
908.72	7228
908.836	7266
908.952	7217
909.068	7236
909.184	7301
909.3	7274
909.415	7255
909.531	7247
909.647	7080
909.762	7084
909.878	7072
909.993	7095
910.108	7034
910.224	7023
910.339	7095
910.454	7046
910.57	6939
910.685	6924
910.8	7206
910.915	7061
911.03	6981
911.145	6905
911.259	6856
911.374	6882
911.489	6787
911.604	6745
911.718	6726
911.833	6669
911.947	6601
912.062	6616
912.176	6703
912.291	6707
912.405	6760
912.519	6806
912.633	6776
912.748	6711
912.862	6688
912.976	6608
913.09	6536
913.204	6566
913.318	6559
913.431	6658
913.545	6650
913.659	6711
913.772	6642
913.886	6521
914	6506
914.113	6555
914.226	6597
914.34	6623
914.453	6471
914.566	6544
914.68	6540
914.793	6490
914.906	6403
915.019	6353
915.132	6399
915.245	6388
915.358	6445
915.47	6475
915.583	6456
915.696	6441
915.809	6517
915.921	6559
916.034	6437
916.146	6407
916.259	6388
916.371	6464
916.483	6456
916.595	6323
916.708	6403
916.82	6346
916.932	6346
917.044	6403
917.156	6372
917.268	6289
917.38	6376
917.491	6285
917.603	6327
917.715	6357
917.826	6372
917.938	6239
918.049	6190
918.161	6315
918.272	6384
918.384	6403
918.495	6254
918.606	6220
918.717	6194
918.828	6254
918.939	6277
919.05	6224
919.161	6194
919.272	6106
919.383	6167
919.494	6285
919.604	6399
919.715	6266
919.826	6152
919.936	6239
920.047	6285
920.157	6319
920.267	6483
920.378	6258
920.488	6273
920.598	6410
920.708	6486
920.818	6456
920.928	6464
921.038	6589
921.148	6525
921.258	6350
921.368	6300
921.477	6251
921.587	6159
921.697	6140
921.806	6190
921.916	6129
922.025	5920
922.134	5901
922.244	5912
922.353	5973
922.462	5821
922.571	5802
922.68	5627
922.789	5737
922.898	5672
923.007	5657
923.116	5695
923.224	5642
923.333	5623
923.442	5573
923.55	5638
923.659	5581
923.767	5589
923.876	5497
923.984	5596
924.092	5497
924.201	5528
924.309	5493
924.417	5558
924.525	5471
924.633	5463
924.741	6262
924.849	5330
924.956	5539
925.064	5402
925.172	5322
925.279	5307
925.387	5311
925.494	5299
925.602	5387
925.709	5357
925.816	5273
925.924	5315
926.031	5296
926.138	5311
926.245	5258
926.352	5197
926.459	5265
926.566	5284
926.673	5155
926.779	5060
926.886	5086
926.993	5003
927.099	4987
927.206	4957
927.312	4949
927.419	4991
927.525	4980
927.631	4965
927.737	4919
927.843	4839
927.95	4748
928.056	4858
928.162	4797
928.267	4812
928.373	5239
928.479	4812
928.585	4634
928.69	4774
928.796	4694
928.901	4668
929.007	4588
929.112	4645
929.218	4675
929.323	4569
929.428	4565
929.533	4653
929.638	4512
929.743	4596
929.848	4508
929.953	4504
930.058	4470
930.163	4306
930.267	4337
930.372	4424
930.477	4310
930.581	4443
930.685	4306
930.79	4238
930.894	4272
930.998	4246
931.103	4341
931.207	4078
931.311	4074
931.415	4025
931.519	3896
931.623	3945
