Data from glass_V78500241_2348.txt Node
Date: Wed Sep 01 19:30:46 CST 2021
User: usil
Spectrometer: V785-0024
Trigger mode: 0
Integration Time (sec): 4.000000E-1
Scans to average: 1
Nonlinearity correction enabled: false
Boxcar width: 0
Storing dark spectrum: false
XAxis mode: Wavelengths
Number of Pixels in Spectrum: 1024
>>>>>Begin Spectral Data<<<<<
801.071	3701
801.214	3759
801.356	3667
801.499	3698
801.641	3709
801.783	3759
801.926	3846
802.068	3808
802.211	3827
802.353	3850
802.496	3827
802.638	3880
802.78	3911
802.923	3903
803.065	3884
803.208	3793
803.35	3880
803.492	3884
803.635	3926
803.777	3797
803.919	3896
804.061	4162
804.204	3941
804.346	3922
804.488	3896
804.63	4010
804.773	3922
804.915	3979
805.057	4120
805.199	4051
805.341	4040
805.483	4090
805.626	4105
805.768	4082
805.91	4215
806.052	4215
806.194	4215
806.336	4318
806.478	4200
806.62	4177
806.762	4162
806.904	4234
807.046	4371
807.188	4223
807.33	4173
807.472	4238
807.614	4177
807.756	4253
807.898	4135
808.04	4242
808.182	4306
808.324	4291
808.465	4333
808.607	4516
808.749	4459
808.891	4485
809.033	4481
809.174	4386
809.316	4188
809.458	4219
809.6	4173
809.741	4116
809.883	4128
810.025	4185
810.166	4219
810.308	4265
810.45	4219
810.591	4223
810.733	4291
810.875	4447
811.016	4793
811.158	5128
811.299	5299
811.441	5280
811.582	5071
811.724	4691
811.865	4440
812.007	4432
812.148	4413
812.29	4417
812.431	4409
812.573	4394
812.714	4405
812.855	4417
812.997	4421
813.138	4466
813.279	4379
813.421	4360
813.562	4394
813.703	4333
813.845	4344
813.986	4242
814.127	4200
814.268	4280
814.41	4291
814.551	4242
814.692	4303
814.833	4257
814.974	4242
815.115	4344
815.256	4265
815.397	4272
815.539	4276
815.68	4154
815.821	4238
815.962	4303
816.103	4261
816.244	4215
816.385	4249
816.526	4223
816.666	4200
816.807	4086
816.948	4227
817.089	4188
817.23	4097
817.371	4055
817.512	4017
817.653	4063
817.793	4040
817.934	4071
818.075	4067
818.216	4063
818.356	4059
818.497	3994
818.638	3873
818.778	3899
818.919	3884
819.06	3865
819.2	3930
819.341	3865
819.481	3831
819.622	3896
819.762	4006
819.903	3941
820.043	3846
820.184	3846
820.324	3804
820.465	3869
820.605	3831
820.746	3880
820.886	3770
821.026	3888
821.167	3892
821.307	3972
821.447	3945
821.588	3911
821.728	3949
821.868	3937
822.008	3876
822.149	3876
822.289	3926
822.429	3747
822.569	3732
822.709	3789
822.849	3671
822.99	3701
823.13	3709
823.27	3736
823.41	3732
823.55	3743
823.69	3720
823.83	3747
823.97	3625
824.11	3614
824.25	3591
824.389	3656
824.529	3671
824.669	3606
824.809	3720
824.949	3778
825.089	3724
825.228	3720
825.368	3530
825.508	3549
825.648	3538
825.787	3606
825.927	3603
826.067	3568
826.206	3667
826.346	3774
826.485	3812
826.625	3850
826.765	3907
826.904	3861
827.044	3663
827.183	3561
827.323	3409
827.462	3450
827.601	3435
827.741	3443
827.88	3431
828.02	3344
828.159	3443
828.298	3447
828.437	3534
828.577	3469
828.716	3557
828.855	3469
828.994	3409
829.134	3378
829.273	3389
829.412	3348
829.551	3317
829.69	3363
829.829	3420
829.968	3504
830.107	3447
830.246	3397
830.385	3355
830.524	3351
830.663	3310
830.802	3237
830.941	3161
831.08	3180
831.219	3260
831.357	3264
831.496	3382
831.635	3230
831.774	3165
831.913	3161
832.051	3154
832.19	3135
832.329	3222
832.467	3131
832.606	3085
832.744	3165
832.883	3169
833.022	3192
833.16	3272
833.299	3241
833.437	3287
833.576	3332
833.714	3367
833.852	3401
833.991	3393
834.129	3477
834.267	3409
834.406	3397
834.544	3405
834.682	3409
834.821	3389
834.959	3523
835.097	3389
835.235	3526
835.373	3488
835.511	3477
835.65	3450
835.788	3462
835.926	3359
836.064	3370
836.202	3412
836.34	3580
836.478	3534
836.615	3564
836.753	3549
836.891	3637
837.029	3625
837.167	3610
837.305	3538
837.443	3519
837.58	3443
837.718	3618
837.856	3530
837.993	3526
838.131	3599
838.269	3599
838.406	3576
838.544	3584
838.681	3450
838.819	3466
838.956	3340
839.094	3374
839.231	3428
839.369	3542
839.506	3698
839.643	3625
839.781	3504
839.918	3439
840.055	3507
840.193	3526
840.33	3561
840.467	3538
840.604	3591
840.742	3785
840.879	3564
841.016	3545
841.153	3572
841.29	3770
841.427	3740
841.564	3690
841.701	3762
841.838	3705
841.975	3713
842.112	3709
842.249	3675
842.385	3599
842.522	3812
842.659	3679
842.796	3682
842.933	3679
843.069	3682
843.206	3679
843.343	3774
843.479	3747
843.616	3823
843.752	3671
843.889	3671
844.025	3846
844.162	3747
844.298	3873
844.435	3751
844.571	3785
844.708	3911
844.844	3991
844.98	4002
845.117	3975
845.253	3899
845.389	3873
845.525	3960
845.661	3915
845.798	3892
845.934	4002
846.07	3975
846.206	3972
846.342	4059
846.478	4051
846.614	3945
846.75	3896
846.886	3953
847.022	3979
847.158	3991
847.294	4021
847.429	3964
847.565	4017
847.701	4215
847.837	3861
847.972	3861
848.108	3960
848.244	3960
848.379	3861
848.515	3808
848.65	3762
848.786	3816
848.921	3869
849.057	3926
849.192	3945
849.328	3903
849.463	3911
849.598	3857
849.734	3857
849.869	3838
850.004	3766
850.14	3800
850.275	3789
850.41	3709
850.545	3747
850.68	3781
850.815	3751
850.95	3747
851.085	3956
851.22	3804
851.355	3903
851.49	3778
851.625	3751
851.76	3781
851.895	3717
852.03	3732
852.165	3835
852.299	3884
852.434	3926
852.569	3831
852.703	3873
852.838	3941
852.973	3998
853.107	3941
853.242	3903
853.376	3842
853.511	3774
853.645	3846
853.78	3934
853.914	3880
854.048	3842
854.183	3842
854.317	3918
854.451	4078
854.585	3915
854.72	3926
854.854	4036
854.988	3915
855.122	3945
855.256	3949
855.39	3987
855.524	4059
855.658	4059
855.792	4105
855.926	4177
856.06	4166
856.194	4211
856.327	4177
856.461	4116
856.595	4124
856.729	4158
856.862	4272
856.996	4268
857.13	4272
857.263	4284
857.397	4360
857.53	4306
857.664	4352
857.797	4417
857.931	4440
858.064	4432
858.197	4455
858.331	4352
858.464	4352
858.597	4329
858.731	4417
858.864	4421
858.997	4440
859.13	4512
859.263	4538
859.396	4546
859.529	4504
859.662	4550
859.795	4500
859.928	4618
860.061	4706
860.194	4729
860.327	4645
860.46	4607
860.592	4672
860.725	4786
860.858	4763
860.99	4675
861.123	4694
861.256	4675
861.388	4763
861.521	5242
861.653	4637
861.786	4664
861.918	4774
862.05	4801
862.183	4831
862.315	4892
862.447	4904
862.58	4885
862.712	4812
862.844	4698
862.976	4915
863.108	4858
863.24	5201
863.372	4873
863.504	4900
863.636	4866
863.768	4938
863.9	4984
864.032	4923
864.164	4892
864.296	5018
864.428	5041
864.559	5113
864.691	5098
864.823	5124
864.954	5109
865.086	5151
865.217	5045
865.349	5094
865.48	5170
865.612	5143
865.743	5318
865.875	5242
866.006	5151
866.137	5242
866.269	5250
866.4	5250
866.531	5178
866.662	5258
866.793	5246
866.924	5269
867.055	5311
867.186	5372
867.317	5357
867.448	5296
867.579	5387
867.71	5322
867.841	5440
867.972	5463
868.103	5490
868.233	5486
868.364	5539
868.495	5566
868.625	5695
868.756	5779
868.886	5657
869.017	5703
869.147	5786
869.278	5889
869.408	5817
869.539	5870
869.669	5923
869.799	5863
869.929	5958
870.06	6026
870.19	6152
870.32	6190
870.45	6258
870.58	6327
870.71	6433
870.84	6433
870.97	6399
871.1	6471
871.23	6593
871.36	6696
871.489	6597
871.619	6745
871.749	6818
871.879	6818
872.008	6935
872.138	7000
872.267	7034
872.397	6954
872.526	6939
872.656	7088
872.785	7164
872.915	7422
873.044	7586
873.173	7518
873.303	7628
873.432	7788
873.561	7856
873.69	7879
873.819	8020
873.948	8202
874.077	8202
874.206	8328
874.335	8434
874.464	8636
874.593	8842
874.722	8967
874.851	9112
874.979	9218
875.108	9393
875.237	9408
875.365	9435
875.494	9686
875.623	9789
875.751	9895
875.88	9972
876.008	10131
876.136	10196
876.265	10550
876.393	10649
876.521	10694
876.65	10736
876.778	10866
876.906	10866
877.034	10980
877.162	11086
877.29	11132
877.418	11337
877.546	11337
877.674	11417
877.802	11501
877.93	11535
878.058	11634
878.185	11543
878.313	11608
878.441	11722
878.568	11672
878.696	11767
878.824	11885
878.951	11866
879.079	12019
879.206	12091
879.333	12007
879.461	12007
879.588	12011
879.715	12087
879.842	12285
879.97	12140
880.097	11863
880.224	11863
880.351	11855
880.478	11824
880.605	11817
880.732	11832
880.859	12026
880.986	11756
881.112	11843
881.239	11695
881.366	11707
881.493	11596
881.619	11535
881.746	11482
881.872	11497
881.999	11452
882.125	11395
882.252	11528
882.378	11490
882.505	11509
882.631	11421
882.757	11235
882.883	11349
883.01	11204
883.136	11185
883.262	10995
883.388	11113
883.514	11231
883.64	11090
883.766	11162
883.892	11018
884.018	11022
884.143	11048
884.269	11060
884.395	10854
884.52	10748
884.646	10755
884.772	10634
884.897	10672
885.023	10653
885.148	10683
885.274	10801
885.399	10736
885.524	10637
885.65	10599
885.775	10554
885.9	10550
886.025	10634
886.15	10580
886.275	10462
886.4	10394
886.525	10451
886.65	10481
886.775	10314
886.9	10447
887.025	10538
887.149	10352
887.274	10158
887.399	10200
887.523	10169
887.648	10143
887.773	10021
887.897	10200
888.021	10257
888.146	10101
888.27	10181
888.395	10177
888.519	10181
888.643	10158
888.767	10150
888.891	10059
889.015	10040
889.139	10048
889.263	10021
889.387	10036
889.511	10143
889.635	10067
889.759	10013
889.883	9994
890.006	9968
890.13	10025
890.254	9968
890.377	9922
890.501	9892
890.624	9804
890.748	9888
890.871	9812
890.995	9690
891.118	9720
891.241	9747
891.364	9778
891.488	9819
891.611	9663
891.734	9713
891.857	9823
891.98	9743
892.103	9781
892.226	9679
892.349	9648
892.471	9488
892.594	9606
892.717	9641
892.839	9599
892.962	9591
893.085	9591
893.207	9625
893.33	9545
893.452	9530
893.575	9671
893.697	9485
893.819	9606
893.941	9606
894.064	9538
894.186	9416
894.308	9397
894.43	9530
894.552	9587
894.674	9462
894.796	9386
894.918	9393
895.04	9317
895.161	9340
895.283	9401
895.405	9230
895.526	9302
895.648	9279
895.769	9203
895.891	9291
896.012	9214
896.134	9165
896.255	9173
896.376	9097
896.498	9081
896.619	9131
896.74	9074
896.861	9085
896.982	9332
897.103	9268
897.224	9093
897.345	8975
897.466	8971
897.587	9020
897.708	9116
897.828	8914
897.949	8883
898.07	8872
898.19	8895
898.311	8933
898.431	8807
898.552	8914
898.672	8990
898.792	8895
898.913	8910
899.033	8739
899.153	8743
899.273	8648
899.393	8743
899.513	8746
899.633	8724
899.753	8716
899.873	8670
899.993	8689
900.113	8667
900.232	8655
900.352	8648
900.472	8632
900.591	8541
900.711	8537
900.83	8552
900.95	8625
901.069	8651
901.189	8568
901.308	8492
901.427	8366
901.546	8400
901.665	8450
901.784	8530
901.904	8450
902.023	8298
902.141	8240
902.26	8240
902.379	8309
902.498	8210
902.617	8206
902.735	8336
902.854	8282
902.973	8256
903.091	8084
903.21	8119
903.328	8180
903.446	8119
903.565	7989
903.683	8096
903.801	8088
903.919	8115
904.038	8164
904.156	7993
904.274	8088
904.392	7970
904.51	8035
904.627	8103
904.745	8046
904.863	8096
904.981	7947
905.098	7879
905.216	7864
905.334	7936
905.451	7887
905.569	7879
905.686	7871
905.803	7997
905.921	7746
906.038	7868
906.155	7803
906.272	7731
906.389	7712
906.506	7658
906.623	7571
906.74	7605
906.857	7502
906.974	7552
907.091	7696
907.208	7734
907.324	7609
907.441	7590
907.557	7434
907.674	7453
907.79	7449
907.907	7400
908.023	7457
908.139	7441
908.256	7343
908.372	7289
908.488	7324
908.604	7194
908.72	7247
908.836	7232
908.952	7263
909.068	7259
909.184	7282
909.3	7202
909.415	7278
909.531	7293
909.647	7118
909.762	7057
909.878	7046
909.993	7038
910.108	7118
910.224	7061
910.339	7114
910.454	7053
910.57	7000
910.685	6890
910.8	7202
910.915	7118
911.03	7034
911.145	6909
911.259	6897
911.374	6882
911.489	6821
911.604	6840
911.718	6711
911.833	6700
911.947	6658
912.062	6578
912.176	6616
912.291	6662
912.405	6722
912.519	6829
912.633	6802
912.748	6719
912.862	6669
912.976	6631
913.09	6479
913.204	6620
913.318	6620
913.431	6719
913.545	6673
913.659	6703
913.772	6578
913.886	6601
914	6544
914.113	6593
914.226	6593
914.34	6593
914.453	6445
914.566	6627
914.68	6502
914.793	6502
914.906	6460
915.019	6407
915.132	6380
915.245	6357
915.358	6369
915.47	6433
915.583	6448
915.696	6498
915.809	6551
915.921	6486
916.034	6422
916.146	6418
916.259	6376
916.371	6540
916.483	6429
916.595	6429
916.708	6422
916.82	6414
916.932	6437
917.044	6399
917.156	6395
917.268	6311
917.38	6296
917.491	6292
917.603	6361
917.715	6403
917.826	6376
917.938	6266
918.049	6251
918.161	6361
918.272	6357
918.384	6445
918.495	6315
918.606	6273
918.717	6175
918.828	6205
918.939	6319
919.05	6232
919.161	6216
919.272	6129
919.383	6152
919.494	6205
919.604	6388
919.715	6277
919.826	6186
919.936	6251
920.047	6388
920.157	6220
920.267	6414
920.378	6327
920.488	6243
920.598	6456
920.708	6544
920.818	6506
920.928	6490
921.038	6585
921.148	6563
921.258	6308
921.368	6285
921.477	6262
921.587	6171
921.697	6076
921.806	6194
921.916	6095
922.025	5946
922.134	5901
922.244	5904
922.353	5935
922.462	5855
922.571	5783
922.68	5665
922.789	5718
922.898	5642
923.007	5638
923.116	5722
923.224	5661
923.333	5699
923.442	5589
923.55	5585
923.659	5619
923.767	5577
923.876	5528
923.984	5623
924.092	5467
924.201	5535
924.309	5577
924.417	5558
924.525	5459
924.633	5471
924.741	6273
924.849	5357
924.956	5474
925.064	5349
925.172	5326
925.279	5299
925.387	5326
925.494	5299
925.602	5417
925.709	5410
925.816	5269
925.924	5307
926.031	5376
926.138	5269
926.245	5280
926.352	5216
926.459	5273
926.566	5292
926.673	5208
926.779	5155
926.886	5086
926.993	5018
927.099	5041
927.206	4953
927.312	4904
927.419	4980
927.525	4870
927.631	4953
927.737	4873
927.843	4877
927.95	4755
928.056	4748
928.162	4805
928.267	4816
928.373	5322
928.479	4850
928.585	4672
928.69	4812
928.796	4782
928.901	4679
929.007	4569
929.112	4668
929.218	4626
929.323	4588
929.428	4519
929.533	4691
929.638	4504
929.743	4516
929.848	4569
929.953	4493
930.058	4409
930.163	4318
930.267	4318
930.372	4451
930.477	4295
930.581	4436
930.685	4394
930.79	4280
930.894	4249
930.998	4227
931.103	4375
931.207	4166
931.311	4082
931.415	4048
931.519	3960
931.623	3926
