Data from glass_V78500241_1293.txt Node
Date: Wed Sep 01 19:23:27 CST 2021
User: usil
Spectrometer: V785-0024
Trigger mode: 0
Integration Time (sec): 4.000000E-1
Scans to average: 1
Nonlinearity correction enabled: false
Boxcar width: 0
Storing dark spectrum: false
XAxis mode: Wavelengths
Number of Pixels in Spectrum: 1024
>>>>>Begin Spectral Data<<<<<
801.071	3766
801.214	3743
801.356	3717
801.499	3743
801.641	3698
801.783	3785
801.926	3873
802.068	3823
802.211	3880
802.353	3903
802.496	3854
802.638	3880
802.78	3930
802.923	3968
803.065	3953
803.208	3876
803.35	3880
803.492	3918
803.635	3918
803.777	3816
803.919	3934
804.061	4169
804.204	3972
804.346	4002
804.488	3918
804.63	4055
804.773	4010
804.915	4002
805.057	4112
805.199	4074
805.341	4059
805.483	4143
805.626	4139
805.768	4105
805.91	4204
806.052	4280
806.194	4227
806.336	4360
806.478	4227
806.62	4173
806.762	4211
806.904	4268
807.046	4371
807.188	4253
807.33	4196
807.472	4253
807.614	4188
807.756	4303
807.898	4211
808.04	4219
808.182	4234
808.324	4329
808.465	4379
808.607	4443
808.749	4462
808.891	4474
809.033	4489
809.174	4371
809.316	4227
809.458	4242
809.6	4196
809.741	4135
809.883	4150
810.025	4192
810.166	4207
810.308	4188
810.45	4246
810.591	4204
810.733	4352
810.875	4531
811.016	4793
811.158	5124
811.299	5296
811.441	5261
811.582	5113
811.724	4733
811.865	4466
812.007	4455
812.148	4478
812.29	4470
812.431	4421
812.573	4383
812.714	4352
812.855	4379
812.997	4424
813.138	4493
813.279	4413
813.421	4394
813.562	4421
813.703	4344
813.845	4337
813.986	4253
814.127	4238
814.268	4219
814.41	4280
814.551	4238
814.692	4299
814.833	4265
814.974	4314
815.115	4394
815.256	4287
815.397	4249
815.539	4219
815.68	4230
815.821	4185
815.962	4291
816.103	4284
816.244	4261
816.385	4192
816.526	4303
816.666	4246
816.807	4097
816.948	4158
817.089	4185
817.23	4131
817.371	4059
817.512	4055
817.653	4097
817.793	4029
817.934	4006
818.075	4116
818.216	4105
818.356	4082
818.497	3998
818.638	3926
818.778	3903
818.919	3896
819.06	3861
819.2	3941
819.341	3896
819.481	3857
819.622	3896
819.762	4040
819.903	3983
820.043	3873
820.184	3876
820.324	3816
820.465	3888
820.605	3854
820.746	3880
820.886	3797
821.026	3937
821.167	3911
821.307	3987
821.447	3960
821.588	3949
821.728	3934
821.868	3983
822.008	3850
822.149	3903
822.289	3972
822.429	3819
822.569	3781
822.709	3823
822.849	3717
822.99	3762
823.13	3781
823.27	3827
823.41	3709
823.55	3751
823.69	3747
823.83	3743
823.97	3690
824.11	3648
824.25	3629
824.389	3641
824.529	3648
824.669	3644
824.809	3762
824.949	3724
825.089	3698
825.228	3698
825.368	3561
825.508	3564
825.648	3549
825.787	3561
825.927	3622
826.067	3629
826.206	3694
826.346	3759
826.485	3865
826.625	3835
826.765	3956
826.904	3869
827.044	3606
827.183	3526
827.323	3481
827.462	3492
827.601	3435
827.741	3443
827.88	3462
828.02	3355
828.159	3450
828.298	3496
828.437	3530
828.577	3450
828.716	3618
828.855	3496
828.994	3382
829.134	3378
829.273	3416
829.412	3370
829.551	3359
829.69	3382
829.829	3416
829.968	3492
830.107	3492
830.246	3428
830.385	3405
830.524	3355
830.663	3302
830.802	3256
830.941	3218
831.08	3211
831.219	3256
831.357	3268
831.496	3409
831.635	3241
831.774	3218
831.913	3218
832.051	3188
832.19	3157
832.329	3222
832.467	3119
832.606	3142
832.744	3135
832.883	3188
833.022	3214
833.16	3291
833.299	3310
833.437	3310
833.576	3386
833.714	3397
833.852	3447
833.991	3469
834.129	3473
834.267	3454
834.406	3386
834.544	3466
834.682	3458
834.821	3431
834.959	3576
835.097	3420
835.235	3515
835.373	3515
835.511	3496
835.65	3447
835.788	3504
835.926	3397
836.064	3401
836.202	3428
836.34	3591
836.478	3591
836.615	3557
836.753	3610
836.891	3644
837.029	3622
837.167	3568
837.305	3584
837.443	3542
837.58	3515
837.718	3614
837.856	3542
837.993	3542
838.131	3606
838.269	3629
838.406	3587
838.544	3557
838.681	3511
838.819	3454
838.956	3359
839.094	3401
839.231	3466
839.369	3500
839.506	3743
839.643	3614
839.781	3534
839.918	3450
840.055	3542
840.193	3542
840.33	3511
840.467	3561
840.604	3576
840.742	3823
840.879	3530
841.016	3561
841.153	3591
841.29	3793
841.427	3751
841.564	3720
841.701	3743
841.838	3709
841.975	3736
842.112	3709
842.249	3667
842.385	3629
842.522	3842
842.659	3709
842.796	3682
842.933	3709
843.069	3724
843.206	3732
843.343	3793
843.479	3770
843.616	3819
843.752	3679
843.889	3694
844.025	3861
844.162	3747
844.298	3804
844.435	3819
844.571	3766
844.708	3903
844.844	4002
844.98	4017
845.117	4002
845.253	3953
845.389	3941
845.525	3975
845.661	3956
845.798	3926
845.934	3945
846.07	3975
846.206	4090
846.342	4177
846.478	4040
846.614	3972
846.75	3949
846.886	3915
847.022	4010
847.158	3979
847.294	3956
847.429	3991
847.565	4006
847.701	4249
847.837	3876
847.972	3884
848.108	3998
848.244	3956
848.379	3827
848.515	3804
848.65	3797
848.786	3865
848.921	3926
849.057	3949
849.192	3945
849.328	3918
849.463	3903
849.598	3880
849.734	3873
849.869	3838
850.004	3781
850.14	3835
850.275	3808
850.41	3717
850.545	3759
850.68	3755
850.815	3816
850.95	3793
851.085	3956
851.22	3896
851.355	3819
851.49	3819
851.625	3800
851.76	3774
851.895	3789
852.03	3732
852.165	3819
852.299	3880
852.434	3896
852.569	3884
852.703	3899
852.838	3949
852.973	3979
853.107	3960
853.242	3888
853.376	3903
853.511	3793
853.645	3835
853.78	3964
853.914	3956
854.048	3899
854.183	3934
854.317	3960
854.451	4055
854.585	3907
854.72	3937
854.854	4048
854.988	3915
855.122	3987
855.256	3968
855.39	4025
855.524	4105
855.658	4086
855.792	4131
855.926	4166
856.06	4158
856.194	4257
856.327	4120
856.461	4147
856.595	4135
856.729	4200
856.862	4272
856.996	4257
857.13	4314
857.263	4329
857.397	4344
857.53	4280
857.664	4356
857.797	4417
857.931	4424
858.064	4405
858.197	4436
858.331	4417
858.464	4363
858.597	4360
858.731	4443
858.864	4432
858.997	4489
859.13	4538
859.263	4554
859.396	4584
859.529	4538
859.662	4523
859.795	4546
859.928	4592
860.061	4725
860.194	4729
860.327	4675
860.46	4611
860.592	4755
860.725	4778
860.858	4793
860.99	4733
861.123	4664
861.256	4717
861.388	4752
861.521	5345
861.653	4729
861.786	4710
861.918	4759
862.05	4786
862.183	4873
862.315	4919
862.447	4942
862.58	4896
862.712	4782
862.844	4778
862.976	4896
863.108	4866
863.24	5231
863.372	4843
863.504	4866
863.636	4911
863.768	4953
863.9	4946
864.032	4949
864.164	4923
864.296	5018
864.428	5071
864.559	5098
864.691	5067
864.823	5201
864.954	5128
865.086	5143
865.217	5109
865.349	5121
865.48	5185
865.612	5216
865.743	5296
865.875	5185
866.006	5204
866.137	5242
866.269	5178
866.4	5277
866.531	5201
866.662	5216
866.793	5299
866.924	5284
867.055	5353
867.186	5299
867.317	5315
867.448	5318
867.579	5410
867.71	5376
867.841	5398
867.972	5452
868.103	5452
868.233	5547
868.364	5562
868.495	5570
868.625	5653
868.756	5809
868.886	5680
869.017	5691
869.147	5813
869.278	5851
869.408	5847
869.539	5817
869.669	5916
869.799	5904
869.929	5980
870.06	5984
870.19	6182
870.32	6121
870.45	6277
870.58	6353
870.71	6464
870.84	6517
870.97	6498
871.1	6452
871.23	6665
871.36	6665
871.489	6692
871.619	6791
871.749	6818
871.879	6829
872.008	7004
872.138	6970
872.267	7053
872.397	6951
872.526	7053
872.656	7118
872.785	7175
872.915	7396
873.044	7487
873.173	7499
873.303	7666
873.432	7750
873.561	7845
873.69	7906
873.819	7951
873.948	8202
874.077	8275
874.206	8305
874.335	8503
874.464	8625
874.593	8910
874.722	8944
874.851	9142
874.979	9192
875.108	9378
875.237	9431
875.365	9549
875.494	9656
875.623	9884
875.751	9895
875.88	9991
876.008	10158
876.136	10356
876.265	10535
876.393	10759
876.521	10679
876.65	10805
876.778	10862
876.906	10824
877.034	10919
877.162	11143
877.29	11273
877.418	11288
877.546	11417
877.674	11395
877.802	11417
877.93	11596
878.058	11646
878.185	11596
878.313	11703
878.441	11745
878.568	11710
878.696	11752
878.824	11794
878.951	11946
879.079	11969
879.206	12060
879.333	12030
879.461	11980
879.588	12102
879.715	12133
879.842	12216
879.97	12057
880.097	11859
880.224	11885
880.351	11939
880.478	11893
880.605	11863
880.732	11813
880.859	12026
880.986	11851
881.112	11874
881.239	11676
881.366	11646
881.493	11619
881.619	11623
881.746	11646
881.872	11577
881.999	11554
882.125	11493
882.252	11524
882.378	11493
882.505	11570
882.631	11459
882.757	11292
882.883	11292
883.01	11242
883.136	11193
883.262	11060
883.388	11079
883.514	11227
883.64	11280
883.766	11151
883.892	10999
884.018	11025
884.143	11086
884.269	11094
884.395	10805
884.52	10816
884.646	10809
884.772	10683
884.897	10759
885.023	10672
885.148	10755
885.274	10790
885.399	10675
885.524	10630
885.65	10645
885.775	10592
885.9	10481
886.025	10641
886.15	10432
886.275	10455
886.4	10386
886.525	10352
886.65	10367
886.775	10341
886.9	10527
887.025	10516
887.149	10405
887.274	10280
887.399	10166
887.523	10135
887.648	10177
887.773	10169
887.897	10257
888.021	10242
888.146	10101
888.27	10139
888.395	10291
888.519	10158
888.643	10249
888.767	10200
888.891	10097
889.015	10029
889.139	10090
889.263	9972
889.387	10063
889.511	10154
889.635	10029
889.759	10032
889.883	9983
890.006	10025
890.13	10116
890.254	9991
890.377	10029
890.501	9888
890.624	9835
890.748	9899
890.871	9778
890.995	9781
891.118	9698
891.241	9717
891.364	9740
891.488	9819
891.611	9732
891.734	9728
891.857	9728
891.98	9698
892.103	9800
892.226	9732
892.349	9656
892.471	9545
892.594	9671
892.717	9584
892.839	9515
892.962	9595
893.085	9690
893.207	9591
893.33	9526
893.452	9519
893.575	9633
893.697	9488
893.819	9610
893.941	9561
894.064	9587
894.186	9393
894.308	9408
894.43	9542
894.552	9580
894.674	9622
894.796	9458
894.918	9408
895.04	9291
895.161	9378
895.283	9344
895.405	9291
895.526	9230
895.648	9283
895.769	9256
895.891	9321
896.012	9378
896.134	9256
896.255	9291
896.376	9104
896.498	9123
896.619	9176
896.74	9146
896.861	9123
896.982	9317
897.103	9378
897.224	9192
897.345	9093
897.466	9005
897.587	9043
897.708	9077
897.828	8986
897.949	8998
898.07	8845
898.19	8956
898.311	9051
898.431	8933
898.552	8960
898.672	8971
898.792	8979
898.913	8914
899.033	8796
899.153	8727
899.273	8708
899.393	8796
899.513	8781
899.633	8712
899.753	8773
899.873	8769
899.993	8716
900.113	8655
900.232	8758
900.352	8640
900.472	8613
900.591	8522
900.711	8629
900.83	8552
900.95	8629
901.069	8724
901.189	8571
901.308	8480
901.427	8381
901.546	8362
901.665	8457
901.784	8522
901.904	8370
902.023	8370
902.141	8263
902.26	8168
902.379	8309
902.498	8206
902.617	8229
902.735	8267
902.854	8298
902.973	8248
903.091	8161
903.21	8153
903.328	8161
903.446	8161
903.565	8081
903.683	8123
903.801	8130
903.919	8115
904.038	8107
904.156	8058
904.274	8069
904.392	8008
904.51	7997
904.627	8005
904.745	8084
904.863	8107
904.981	7925
905.098	7871
905.216	7913
905.334	7887
905.451	7906
905.569	7841
905.686	7963
905.803	7970
905.921	7799
906.038	7898
906.155	7776
906.272	7734
906.389	7772
906.506	7597
906.623	7628
906.74	7647
906.857	7559
906.974	7510
907.091	7666
907.208	7746
907.324	7662
907.441	7597
907.557	7480
907.674	7468
907.79	7354
907.907	7464
908.023	7457
908.139	7369
908.256	7472
908.372	7392
908.488	7354
908.604	7263
908.72	7244
908.836	7335
908.952	7251
909.068	7305
909.184	7324
909.3	7232
909.415	7289
909.531	7259
909.647	7164
909.762	7095
909.878	7088
909.993	7114
910.108	7065
910.224	7057
910.339	7164
910.454	7145
910.57	6989
910.685	6916
910.8	7206
910.915	7091
911.03	7088
911.145	6939
911.259	6840
911.374	6871
911.489	6837
911.604	6818
911.718	6741
911.833	6696
911.947	6642
912.062	6620
912.176	6688
912.291	6776
912.405	6646
912.519	6798
912.633	6848
912.748	6749
912.862	6722
912.976	6616
913.09	6585
913.204	6684
913.318	6608
913.431	6673
913.545	6703
913.659	6825
913.772	6692
913.886	6547
914	6528
914.113	6585
914.226	6703
914.34	6521
914.453	6532
914.566	6616
914.68	6513
914.793	6582
914.906	6418
915.019	6403
915.132	6369
915.245	6433
915.358	6513
915.47	6422
915.583	6494
915.696	6517
915.809	6563
915.921	6544
916.034	6464
916.146	6414
916.259	6357
916.371	6475
916.483	6418
916.595	6353
916.708	6429
916.82	6395
916.932	6395
917.044	6422
917.156	6445
917.268	6327
917.38	6357
917.491	6346
917.603	6437
917.715	6486
917.826	6395
917.938	6365
918.049	6277
918.161	6285
918.272	6384
918.384	6441
918.495	6304
918.606	6220
918.717	6213
918.828	6251
918.939	6251
919.05	6228
919.161	6281
919.272	6136
919.383	6144
919.494	6296
919.604	6372
919.715	6285
919.826	6235
919.936	6258
920.047	6338
920.157	6220
920.267	6369
920.378	6308
920.488	6327
920.598	6498
920.708	6555
920.818	6506
920.928	6475
921.038	6532
921.148	6604
921.258	6410
921.368	6254
921.477	6209
921.587	6194
921.697	6155
921.806	6205
921.916	6133
922.025	5931
922.134	5927
922.244	5844
922.353	5912
922.462	5836
922.571	5779
922.68	5760
922.789	5661
922.898	5672
923.007	5688
923.116	5688
923.224	5718
923.333	5676
923.442	5581
923.55	5554
923.659	5573
923.767	5604
923.876	5532
923.984	5615
924.092	5467
924.201	5573
924.309	5573
924.417	5566
924.525	5482
924.633	5509
924.741	6296
924.849	5372
924.956	5433
925.064	5364
925.172	5311
925.279	5334
925.387	5360
925.494	5326
925.602	5414
925.709	5360
925.816	5246
925.924	5360
926.031	5417
926.138	5277
926.245	5292
926.352	5231
926.459	5353
926.566	5299
926.673	5174
926.779	5117
926.886	5166
926.993	5079
927.099	5006
927.206	5033
927.312	4949
927.419	5014
927.525	4968
927.631	4995
927.737	4900
927.843	4850
927.95	4809
928.056	4854
928.162	4820
928.267	4862
928.373	5330
928.479	4850
928.585	4694
928.69	4740
928.796	4778
928.901	4687
929.007	4599
929.112	4683
929.218	4645
929.323	4596
929.428	4569
929.533	4653
929.638	4497
929.743	4626
929.848	4523
929.953	4500
930.058	4447
930.163	4341
930.267	4352
930.372	4443
930.477	4310
930.581	4466
930.685	4375
930.79	4219
930.894	4284
930.998	4295
931.103	4417
931.207	4112
931.311	4082
931.415	4059
931.519	3907
931.623	3903
