Data from glass_V78500241_1779.txt Node
Date: Wed Sep 01 19:26:49 CST 2021
User: usil
Spectrometer: V785-0024
Trigger mode: 0
Integration Time (sec): 4.000000E-1
Scans to average: 1
Nonlinearity correction enabled: false
Boxcar width: 0
Storing dark spectrum: false
XAxis mode: Wavelengths
Number of Pixels in Spectrum: 1024
>>>>>Begin Spectral Data<<<<<
801.071	3736
801.214	3751
801.356	3709
801.499	3694
801.641	3732
801.783	3770
801.926	3865
802.068	3804
802.211	3823
802.353	3880
802.496	3842
802.638	3835
802.78	3876
802.923	3945
803.065	3903
803.208	3854
803.35	3854
803.492	3922
803.635	3934
803.777	3808
803.919	3941
804.061	4128
804.204	3953
804.346	3964
804.488	3934
804.63	3964
804.773	3937
804.915	4021
805.057	4131
805.199	4032
805.341	4105
805.483	4131
805.626	4135
805.768	4101
805.91	4272
806.052	4227
806.194	4162
806.336	4348
806.478	4185
806.62	4150
806.762	4124
806.904	4242
807.046	4257
807.188	4227
807.33	4234
807.472	4223
807.614	4211
807.756	4234
807.898	4223
808.04	4177
808.182	4280
808.324	4276
808.465	4348
808.607	4493
808.749	4470
808.891	4436
809.033	4466
809.174	4428
809.316	4242
809.458	4253
809.6	4109
809.741	4169
809.883	4139
810.025	4192
810.166	4215
810.308	4257
810.45	4223
810.591	4291
810.733	4333
810.875	4478
811.016	4824
811.158	5109
811.299	5258
811.441	5299
811.582	5064
811.724	4698
811.865	4470
812.007	4459
812.148	4447
812.29	4405
812.431	4440
812.573	4466
812.714	4383
812.855	4443
812.997	4379
813.138	4466
813.279	4436
813.421	4390
813.562	4379
813.703	4337
813.845	4333
813.986	4265
814.127	4223
814.268	4219
814.41	4272
814.551	4253
814.692	4314
814.833	4257
814.974	4291
815.115	4322
815.256	4253
815.397	4200
815.539	4257
815.68	4230
815.821	4181
815.962	4344
816.103	4303
816.244	4272
816.385	4257
816.526	4261
816.666	4223
816.807	4120
816.948	4166
817.089	4181
817.23	4131
817.371	4074
817.512	4074
817.653	4086
817.793	4025
817.934	4048
818.075	4093
818.216	4040
818.356	4109
818.497	3953
818.638	3941
818.778	3915
818.919	3892
819.06	3907
819.2	3892
819.341	3903
819.481	3819
819.622	3915
819.762	3987
819.903	3960
820.043	3857
820.184	3827
820.324	3861
820.465	3896
820.605	3861
820.746	3850
820.886	3846
821.026	3896
821.167	3884
821.307	3983
821.447	3994
821.588	3937
821.728	3956
821.868	3991
822.008	3861
822.149	3907
822.289	3907
822.429	3747
822.569	3797
822.709	3827
822.849	3736
822.99	3736
823.13	3774
823.27	3759
823.41	3663
823.55	3686
823.69	3675
823.83	3743
823.97	3713
824.11	3629
824.25	3629
824.389	3637
824.529	3648
824.669	3652
824.809	3720
824.949	3724
825.089	3717
825.228	3675
825.368	3587
825.508	3572
825.648	3576
825.787	3644
825.927	3633
826.067	3633
826.206	3667
826.346	3781
826.485	3846
826.625	3831
826.765	3964
826.904	3827
827.044	3644
827.183	3542
827.323	3443
827.462	3469
827.601	3428
827.741	3416
827.88	3473
828.02	3355
828.159	3458
828.298	3481
828.437	3530
828.577	3477
828.716	3618
828.855	3496
828.994	3420
829.134	3363
829.273	3386
829.412	3374
829.551	3359
829.69	3409
829.829	3435
829.968	3488
830.107	3492
830.246	3466
830.385	3389
830.524	3336
830.663	3298
830.802	3253
830.941	3184
831.08	3180
831.219	3222
831.357	3226
831.496	3382
831.635	3184
831.774	3180
831.913	3180
832.051	3123
832.19	3100
832.329	3237
832.467	3157
832.606	3089
832.744	3184
832.883	3214
833.022	3230
833.16	3256
833.299	3313
833.437	3310
833.576	3378
833.714	3386
833.852	3439
833.991	3416
834.129	3443
834.267	3458
834.406	3416
834.544	3428
834.682	3401
834.821	3393
834.959	3564
835.097	3458
835.235	3530
835.373	3409
835.511	3526
835.65	3450
835.788	3458
835.926	3428
836.064	3378
836.202	3363
836.34	3568
836.478	3618
836.615	3511
836.753	3606
836.891	3652
837.029	3584
837.167	3557
837.305	3538
837.443	3557
837.58	3500
837.718	3603
837.856	3545
837.993	3542
838.131	3576
838.269	3584
838.406	3530
838.544	3564
838.681	3454
838.819	3439
838.956	3370
839.094	3409
839.231	3431
839.369	3477
839.506	3732
839.643	3641
839.781	3492
839.918	3443
840.055	3519
840.193	3545
840.33	3545
840.467	3572
840.604	3614
840.742	3816
840.879	3557
841.016	3545
841.153	3606
841.29	3728
841.427	3694
841.564	3720
841.701	3705
841.838	3663
841.975	3633
842.112	3682
842.249	3637
842.385	3660
842.522	3846
842.659	3686
842.796	3686
842.933	3690
843.069	3705
843.206	3751
843.343	3778
843.479	3755
843.616	3850
843.752	3671
843.889	3698
844.025	3842
844.162	3694
844.298	3835
844.435	3819
844.571	3755
844.708	3907
844.844	3953
844.98	3979
845.117	4017
845.253	3918
845.389	3926
845.525	3979
845.661	3934
845.798	3975
845.934	4002
846.07	3953
846.206	4055
846.342	4109
846.478	4063
846.614	3979
846.75	3930
846.886	3934
847.022	4044
847.158	3937
847.294	4013
847.429	4044
847.565	3991
847.701	4238
847.837	3930
847.972	3896
848.108	3979
848.244	3960
848.379	3857
848.515	3819
848.65	3823
848.786	3842
848.921	3876
849.057	3937
849.192	3907
849.328	3884
849.463	3903
849.598	3896
849.734	3857
849.869	3869
850.004	3812
850.14	3762
850.275	3827
850.41	3751
850.545	3743
850.68	3751
850.815	3804
850.95	3743
851.085	3945
851.22	3865
851.355	3869
851.49	3759
851.625	3793
851.76	3781
851.895	3751
852.03	3701
852.165	3781
852.299	3857
852.434	3880
852.569	3831
852.703	3880
852.838	3972
852.973	3979
853.107	3964
853.242	3827
853.376	3842
853.511	3793
853.645	3861
853.78	3960
853.914	3934
854.048	3922
854.183	3888
854.317	3949
854.451	4063
854.585	3934
854.72	3964
854.854	4029
854.988	3949
855.122	4025
855.256	3896
855.39	4013
855.524	4135
855.658	4059
855.792	4109
855.926	4158
856.06	4139
856.194	4207
856.327	4112
856.461	4147
856.595	4158
856.729	4166
856.862	4257
856.996	4272
857.13	4318
857.263	4303
857.397	4329
857.53	4265
857.664	4367
857.797	4462
857.931	4413
858.064	4360
858.197	4447
858.331	4352
858.464	4379
858.597	4341
858.731	4428
858.864	4493
858.997	4443
859.13	4516
859.263	4516
859.396	4611
859.529	4455
859.662	4527
859.795	4554
859.928	4592
860.061	4736
860.194	4793
860.327	4626
860.46	4683
860.592	4691
860.725	4755
860.858	4744
860.99	4706
861.123	4683
861.256	4744
861.388	4778
861.521	5429
861.653	4710
861.786	4691
861.918	4729
862.05	4850
862.183	4820
862.315	4908
862.447	4934
862.58	4873
862.712	4790
862.844	4755
862.976	4820
863.108	4881
863.24	5235
863.372	4816
863.504	4892
863.636	4934
863.768	4938
863.9	4930
864.032	4949
864.164	4923
864.296	5006
864.428	5071
864.559	5147
864.691	5086
864.823	5064
864.954	5075
865.086	5155
865.217	5117
865.349	5113
865.48	5166
865.612	5204
865.743	5273
865.875	5162
866.006	5170
866.137	5220
866.269	5242
866.4	5220
866.531	5227
866.662	5235
866.793	5288
866.924	5246
867.055	5372
867.186	5322
867.317	5341
867.448	5307
867.579	5402
867.71	5353
867.841	5452
867.972	5459
868.103	5471
868.233	5501
868.364	5509
868.495	5505
868.625	5653
868.756	5786
868.886	5672
869.017	5745
869.147	5847
869.278	5821
869.408	5767
869.539	5821
869.669	5954
869.799	5916
869.929	5942
870.06	5996
870.19	6197
870.32	6171
870.45	6273
870.58	6380
870.71	6395
870.84	6536
870.97	6395
871.1	6418
871.23	6684
871.36	6703
871.489	6745
871.619	6749
871.749	6886
871.879	6787
872.008	7012
872.138	6958
872.267	6954
872.397	7012
872.526	7031
872.656	7076
872.785	7206
872.915	7381
873.044	7468
873.173	7521
873.303	7620
873.432	7769
873.561	7841
873.69	7940
873.819	7955
873.948	8111
874.077	8298
874.206	8393
874.335	8454
874.464	8655
874.593	8883
874.722	8906
874.851	9123
874.979	9249
875.108	9351
875.237	9428
875.365	9557
875.494	9728
875.623	9869
875.751	9800
875.88	10051
876.008	10032
876.136	10185
876.265	10535
876.393	10622
876.521	10740
876.65	10843
876.778	10946
876.906	10866
877.034	10942
877.162	11048
877.29	11090
877.418	11277
877.546	11391
877.674	11478
877.802	11463
877.93	11516
878.058	11566
878.185	11627
878.313	11592
878.441	11748
878.568	11611
878.696	11794
878.824	11817
878.951	11988
879.079	11996
879.206	12152
879.333	12106
879.461	11992
879.588	12087
879.715	12079
879.842	12258
879.97	12053
880.097	11851
880.224	11859
880.351	11828
880.478	11912
880.605	11794
880.732	11775
880.859	12030
880.986	11821
881.112	11878
881.239	11824
881.366	11623
881.493	11570
881.619	11558
881.746	11608
881.872	11501
881.999	11429
882.125	11425
882.252	11604
882.378	11436
882.505	11581
882.631	11376
882.757	11288
882.883	11391
883.01	11250
883.136	11216
883.262	11136
883.388	11117
883.514	11181
883.64	11105
883.766	11124
883.892	11052
884.018	11086
884.143	11018
884.269	11128
884.395	10809
884.52	10755
884.646	10790
884.772	10748
884.897	10702
885.023	10672
885.148	10649
885.274	10656
885.399	10714
885.524	10649
885.65	10618
885.775	10596
885.9	10542
886.025	10622
886.15	10550
886.275	10413
886.4	10394
886.525	10337
886.65	10329
886.775	10337
886.9	10497
887.025	10493
887.149	10329
887.274	10196
887.399	10227
887.523	10246
887.648	10120
887.773	10093
887.897	10329
888.021	10257
888.146	10097
888.27	10253
888.395	10185
888.519	10150
888.643	10223
888.767	10219
888.891	10032
889.015	10124
889.139	10109
889.263	9880
889.387	10116
889.511	10169
889.635	10029
889.759	9934
889.883	10002
890.006	9998
890.13	10101
890.254	10013
890.377	9949
890.501	9831
890.624	9827
890.748	9873
890.871	9709
890.995	9789
891.118	9732
891.241	9850
891.364	9724
891.488	9804
891.611	9789
891.734	9755
891.857	9766
891.98	9705
892.103	9728
892.226	9778
892.349	9641
892.471	9496
892.594	9553
892.717	9667
892.839	9606
892.962	9576
893.085	9679
893.207	9625
893.33	9431
893.452	9462
893.575	9606
893.697	9564
893.819	9629
893.941	9511
894.064	9561
894.186	9405
894.308	9488
894.43	9416
894.552	9523
894.674	9492
894.796	9408
894.918	9458
895.04	9386
895.161	9370
895.283	9287
895.405	9272
895.526	9294
895.648	9192
895.769	9188
895.891	9283
896.012	9245
896.134	9230
896.255	9192
896.376	9081
896.498	9119
896.619	9100
896.74	9070
896.861	9112
896.982	9169
897.103	9291
897.224	9127
897.345	9093
897.466	8986
897.587	8975
897.708	9051
897.828	8963
897.949	8944
898.07	8895
898.19	8948
898.311	8994
898.431	8823
898.552	8876
898.672	9043
898.792	9024
898.913	8880
899.033	8838
899.153	8758
899.273	8613
899.393	8663
899.513	8720
899.633	8735
899.753	8701
899.873	8682
899.993	8746
900.113	8651
900.232	8720
900.352	8701
900.472	8610
900.591	8579
900.711	8530
900.83	8514
900.95	8678
901.069	8670
901.189	8533
901.308	8412
901.427	8385
901.546	8396
901.665	8469
901.784	8541
901.904	8328
902.023	8385
902.141	8218
902.26	8195
902.379	8286
902.498	8248
902.617	8187
902.735	8355
902.854	8225
902.973	8271
903.091	8092
903.21	8187
903.328	8149
903.446	8084
903.565	8081
903.683	8115
903.801	7925
903.919	8134
904.038	8191
904.156	8020
904.274	8088
904.392	8031
904.51	8020
904.627	8058
904.745	8069
904.863	8123
904.981	7970
905.098	7852
905.216	7875
905.334	7955
905.451	7849
905.569	7845
905.686	7940
905.803	7860
905.921	7780
906.038	7833
906.155	7807
906.272	7689
906.389	7784
906.506	7674
906.623	7681
906.74	7632
906.857	7548
906.974	7575
907.091	7658
907.208	7712
907.324	7674
907.441	7533
907.557	7403
907.674	7449
907.79	7403
907.907	7369
908.023	7457
908.139	7426
908.256	7396
908.372	7308
908.488	7312
908.604	7251
908.72	7228
908.836	7232
908.952	7232
909.068	7244
909.184	7411
909.3	7301
909.415	7274
909.531	7266
909.647	7091
909.762	7122
909.878	7126
909.993	7118
910.108	7072
910.224	7145
910.339	7107
910.454	7019
910.57	6977
910.685	6939
910.8	7133
910.915	7133
911.03	7050
911.145	6878
911.259	6920
911.374	6916
911.489	6798
911.604	6875
911.718	6700
911.833	6700
911.947	6635
912.062	6578
912.176	6627
912.291	6745
912.405	6700
912.519	6772
912.633	6878
912.748	6715
912.862	6684
912.976	6593
913.09	6521
913.204	6551
913.318	6589
913.431	6703
913.545	6684
913.659	6673
913.772	6692
913.886	6544
914	6559
914.113	6669
914.226	6642
914.34	6566
914.453	6452
914.566	6604
914.68	6479
914.793	6566
914.906	6441
915.019	6426
915.132	6426
915.245	6414
915.358	6456
915.47	6422
915.583	6486
915.696	6452
915.809	6574
915.921	6521
916.034	6445
916.146	6407
916.259	6372
916.371	6448
916.483	6486
916.595	6350
916.708	6410
916.82	6429
916.932	6357
917.044	6426
917.156	6418
917.268	6258
917.38	6361
917.491	6365
917.603	6353
917.715	6365
917.826	6418
917.938	6357
918.049	6247
918.161	6350
918.272	6399
918.384	6433
918.495	6331
918.606	6247
918.717	6197
918.828	6296
918.939	6216
919.05	6209
919.161	6281
919.272	6144
919.383	6159
919.494	6308
919.604	6445
919.715	6266
919.826	6171
919.936	6251
920.047	6311
920.157	6251
920.267	6448
920.378	6319
920.488	6292
920.598	6452
920.708	6627
920.818	6464
920.928	6460
921.038	6608
921.148	6589
921.258	6300
921.368	6346
921.477	6228
921.587	6136
921.697	6148
921.806	6148
921.916	6057
922.025	5923
922.134	5954
922.244	5844
922.353	5878
922.462	5805
922.571	5855
922.68	5657
922.789	5646
922.898	5688
923.007	5661
923.116	5649
923.224	5627
923.333	5608
923.442	5600
923.55	5566
923.659	5570
923.767	5630
923.876	5566
923.984	5608
924.092	5532
924.201	5528
924.309	5589
924.417	5558
924.525	5444
924.633	5455
924.741	6277
924.849	5391
924.956	5486
925.064	5368
925.172	5315
925.279	5345
925.387	5334
925.494	5299
925.602	5376
925.709	5372
925.816	5322
925.924	5315
926.031	5429
926.138	5330
926.245	5330
926.352	5239
926.459	5246
926.566	5357
926.673	5227
926.779	5147
926.886	5132
926.993	5033
927.099	5006
927.206	5006
927.312	4965
927.419	5018
927.525	4987
927.631	4953
927.737	4904
927.843	4866
927.95	4816
928.056	4843
928.162	4809
928.267	4877
928.373	5334
928.479	4820
928.585	4687
928.69	4767
928.796	4797
928.901	4683
929.007	4592
929.112	4717
929.218	4634
929.323	4607
929.428	4550
929.533	4656
929.638	4512
929.743	4497
929.848	4569
929.953	4516
930.058	4428
930.163	4333
930.267	4371
930.372	4474
930.477	4333
930.581	4451
930.685	4371
930.79	4253
930.894	4234
930.998	4261
931.103	4440
931.207	4093
931.311	4086
931.415	4044
931.519	3907
931.623	3918
