Data from glass_V78500241_1425.txt Node
Date: Wed Sep 01 19:24:22 CST 2021
User: usil
Spectrometer: V785-0024
Trigger mode: 0
Integration Time (sec): 4.000000E-1
Scans to average: 1
Nonlinearity correction enabled: false
Boxcar width: 0
Storing dark spectrum: false
XAxis mode: Wavelengths
Number of Pixels in Spectrum: 1024
>>>>>Begin Spectral Data<<<<<
801.071	3751
801.214	3713
801.356	3713
801.499	3728
801.641	3747
801.783	3766
801.926	3808
802.068	3838
802.211	3873
802.353	3922
802.496	3831
802.638	3869
802.78	3918
802.923	3937
803.065	3922
803.208	3850
803.35	3850
803.492	3888
803.635	3903
803.777	3812
803.919	3899
804.061	4158
804.204	4002
804.346	3972
804.488	3926
804.63	4071
804.773	3975
804.915	4029
805.057	4158
805.199	4063
805.341	4071
805.483	4112
805.626	4120
805.768	4090
805.91	4196
806.052	4238
806.194	4227
806.336	4371
806.478	4196
806.62	4192
806.762	4238
806.904	4257
807.046	4303
807.188	4196
807.33	4147
807.472	4192
807.614	4181
807.756	4280
807.898	4204
808.04	4234
808.182	4272
808.324	4360
808.465	4402
808.607	4493
808.749	4462
808.891	4466
809.033	4531
809.174	4432
809.316	4268
809.458	4234
809.6	4150
809.741	4139
809.883	4169
810.025	4223
810.166	4219
810.308	4238
810.45	4249
810.591	4227
810.733	4314
810.875	4523
811.016	4816
811.158	5117
811.299	5273
811.441	5242
811.582	5086
811.724	4717
811.865	4459
812.007	4466
812.148	4436
812.29	4451
812.431	4440
812.573	4394
812.714	4413
812.855	4417
812.997	4455
813.138	4523
813.279	4432
813.421	4402
813.562	4398
813.703	4344
813.845	4348
813.986	4257
814.127	4223
814.268	4280
814.41	4310
814.551	4268
814.692	4295
814.833	4227
814.974	4253
815.115	4390
815.256	4230
815.397	4223
815.539	4314
815.68	4169
815.821	4200
815.962	4325
816.103	4280
816.244	4227
816.385	4204
816.526	4341
816.666	4181
816.807	4093
816.948	4200
817.089	4188
817.23	4093
817.371	4051
817.512	4051
817.653	4051
817.793	4010
817.934	4036
818.075	4116
818.216	4078
818.356	4063
818.497	4029
818.638	3896
818.778	3926
818.919	3899
819.06	3865
819.2	3903
819.341	3915
819.481	3861
819.622	3911
819.762	4029
819.903	3941
820.043	3850
820.184	3827
820.324	3816
820.465	3884
820.605	3827
820.746	3861
820.886	3781
821.026	3907
821.167	3930
821.307	3934
821.447	3994
821.588	3880
821.728	3888
821.868	3975
822.008	3896
822.149	3907
822.289	3945
822.429	3804
822.569	3759
822.709	3831
822.849	3698
822.99	3736
823.13	3762
823.27	3774
823.41	3736
823.55	3766
823.69	3747
823.83	3717
823.97	3690
824.11	3603
824.25	3564
824.389	3637
824.529	3698
824.669	3660
824.809	3713
824.949	3755
825.089	3709
825.228	3720
825.368	3610
825.508	3576
825.648	3599
825.787	3625
825.927	3641
826.067	3629
826.206	3637
826.346	3778
826.485	3846
826.625	3865
826.765	3918
826.904	3800
827.044	3633
827.183	3557
827.323	3466
827.462	3481
827.601	3431
827.741	3420
827.88	3492
828.02	3405
828.159	3424
828.298	3477
828.437	3507
828.577	3507
828.716	3595
828.855	3462
828.994	3424
829.134	3344
829.273	3424
829.412	3317
829.551	3355
829.69	3336
829.829	3397
829.968	3538
830.107	3454
830.246	3473
830.385	3382
830.524	3344
830.663	3310
830.802	3230
830.941	3188
831.08	3184
831.219	3249
831.357	3264
831.496	3409
831.635	3226
831.774	3173
831.913	3188
832.051	3112
832.19	3157
832.329	3222
832.467	3112
832.606	3135
832.744	3165
832.883	3180
833.022	3199
833.16	3272
833.299	3256
833.437	3336
833.576	3359
833.714	3382
833.852	3481
833.991	3485
834.129	3466
834.267	3477
834.406	3412
834.544	3393
834.682	3447
834.821	3405
834.959	3595
835.097	3348
835.235	3530
835.373	3515
835.511	3530
835.65	3439
835.788	3507
835.926	3389
836.064	3431
836.202	3389
836.34	3519
836.478	3580
836.615	3534
836.753	3599
836.891	3671
837.029	3603
837.167	3603
837.305	3572
837.443	3549
837.58	3496
837.718	3591
837.856	3591
837.993	3530
838.131	3572
838.269	3564
838.406	3614
838.544	3561
838.681	3458
838.819	3420
838.956	3393
839.094	3382
839.231	3466
839.369	3500
839.506	3743
839.643	3625
839.781	3488
839.918	3443
840.055	3523
840.193	3545
840.33	3523
840.467	3542
840.604	3557
840.742	3827
840.879	3526
841.016	3557
841.153	3610
841.29	3690
841.427	3713
841.564	3740
841.701	3781
841.838	3675
841.975	3682
842.112	3694
842.249	3629
842.385	3648
842.522	3800
842.659	3671
842.796	3671
842.933	3720
843.069	3720
843.206	3709
843.343	3812
843.479	3797
843.616	3797
843.752	3671
843.889	3675
844.025	3888
844.162	3736
844.298	3846
844.435	3766
844.571	3793
844.708	3888
844.844	3987
844.98	4010
845.117	4044
845.253	3892
845.389	3911
845.525	3975
845.661	3953
845.798	3918
845.934	3998
846.07	3953
846.206	4048
846.342	4116
846.478	4036
846.614	4029
846.75	3903
846.886	3918
847.022	4051
847.158	3998
847.294	4025
847.429	4006
847.565	4013
847.701	4253
847.837	3930
847.972	3880
848.108	3964
848.244	3968
848.379	3850
848.515	3800
848.65	3819
848.786	3842
848.921	3816
849.057	3937
849.192	3945
849.328	3857
849.463	3907
849.598	3945
849.734	3892
849.869	3827
850.004	3781
850.14	3797
850.275	3819
850.41	3781
850.545	3774
850.68	3743
850.815	3823
850.95	3800
851.085	3956
851.22	3892
851.355	3854
851.49	3797
851.625	3808
851.76	3827
851.895	3770
852.03	3736
852.165	3762
852.299	3846
852.434	3903
852.569	3846
852.703	3926
852.838	3930
852.973	4002
853.107	4013
853.242	3884
853.376	3842
853.511	3800
853.645	3812
853.78	3983
853.914	3922
854.048	3884
854.183	3876
854.317	4002
854.451	4059
854.585	3903
854.72	3953
854.854	4040
854.988	3937
855.122	4006
855.256	3934
855.39	4010
855.524	4135
855.658	4109
855.792	4112
855.926	4158
856.06	4181
856.194	4227
856.327	4158
856.461	4131
856.595	4131
856.729	4143
856.862	4280
856.996	4272
857.13	4322
857.263	4299
857.397	4386
857.53	4295
857.664	4344
857.797	4352
857.931	4447
858.064	4398
858.197	4447
858.331	4413
858.464	4371
858.597	4333
858.731	4383
858.864	4443
858.997	4462
859.13	4531
859.263	4531
859.396	4561
859.529	4519
859.662	4489
859.795	4554
859.928	4622
860.061	4733
860.194	4714
860.327	4660
860.46	4656
860.592	4698
860.725	4774
860.858	4782
860.99	4717
861.123	4668
861.256	4729
861.388	4786
861.521	5315
861.653	4733
861.786	4733
861.918	4752
862.05	4805
862.183	4862
862.315	4877
862.447	4972
862.58	4843
862.712	4774
862.844	4771
862.976	4881
863.108	4858
863.24	5174
863.372	4816
863.504	4968
863.636	4877
863.768	4984
863.9	4972
864.032	4953
864.164	4961
864.296	5006
864.428	5037
864.559	5105
864.691	5151
864.823	5178
864.954	5162
865.086	5113
865.217	5121
865.349	5147
865.48	5124
865.612	5208
865.743	5280
865.875	5212
866.006	5151
866.137	5223
866.269	5242
866.4	5231
866.531	5212
866.662	5261
866.793	5235
866.924	5269
867.055	5345
867.186	5307
867.317	5288
867.448	5284
867.579	5364
867.71	5406
867.841	5360
867.972	5425
868.103	5543
868.233	5478
868.364	5509
868.495	5505
868.625	5668
868.756	5802
868.886	5638
869.017	5733
869.147	5847
869.278	5889
869.408	5813
869.539	5847
869.669	5897
869.799	5980
869.929	6026
870.06	5969
870.19	6201
870.32	6144
870.45	6266
870.58	6376
870.71	6391
870.84	6452
870.97	6403
871.1	6414
871.23	6585
871.36	6760
871.489	6650
871.619	6787
871.749	6814
871.879	6882
872.008	6924
872.138	7027
872.267	6977
872.397	7031
872.526	7050
872.656	7069
872.785	7209
872.915	7419
873.044	7518
873.173	7563
873.303	7636
873.432	7727
873.561	7849
873.69	7860
873.819	8054
873.948	8138
874.077	8252
874.206	8275
874.335	8374
874.464	8708
874.593	8880
874.722	8887
874.851	9154
874.979	9302
875.108	9405
875.237	9511
875.365	9504
875.494	9622
875.623	9812
875.751	9873
875.88	10063
876.008	10158
876.136	10280
876.265	10500
876.393	10736
876.521	10767
876.65	10839
876.778	10881
876.906	10923
877.034	10991
877.162	11143
877.29	11155
877.418	11322
877.546	11410
877.674	11490
877.802	11459
877.93	11516
878.058	11516
878.185	11509
878.313	11676
878.441	11783
878.568	11615
878.696	11786
878.824	11859
878.951	11923
879.079	12049
879.206	12034
879.333	12057
879.461	12121
879.588	12064
879.715	12091
879.842	12304
879.97	12053
880.097	11897
880.224	11954
880.351	11760
880.478	11908
880.605	11798
880.732	11866
880.859	11965
880.986	11885
881.112	11828
881.239	11733
881.366	11688
881.493	11589
881.619	11532
881.746	11577
881.872	11551
881.999	11459
882.125	11421
882.252	11532
882.378	11570
882.505	11551
882.631	11353
882.757	11360
882.883	11311
883.01	11280
883.136	11269
883.262	11128
883.388	11086
883.514	11147
883.64	11143
883.766	11075
883.892	10984
884.018	11102
884.143	11029
884.269	11052
884.395	10824
884.52	10763
884.646	10774
884.772	10687
884.897	10675
885.023	10683
885.148	10710
885.274	10755
885.399	10717
885.524	10626
885.65	10717
885.775	10599
885.9	10558
886.025	10554
886.15	10535
886.275	10497
886.4	10363
886.525	10409
886.65	10363
886.775	10314
886.9	10500
887.025	10634
887.149	10451
887.274	10261
887.399	10287
887.523	10219
887.648	10105
887.773	10147
887.897	10181
888.021	10242
888.146	10109
888.27	10196
888.395	10169
888.519	10234
888.643	10227
888.767	10181
888.891	10059
889.015	10013
889.139	10078
889.263	9892
889.387	10055
889.511	10150
889.635	10017
889.759	9960
889.883	9941
890.006	10025
890.13	10051
890.254	10002
890.377	9949
890.501	9838
890.624	9907
890.748	9865
890.871	9755
890.995	9816
891.118	9686
891.241	9766
891.364	9732
891.488	9857
891.611	9785
891.734	9622
891.857	9713
891.98	9660
892.103	9762
892.226	9709
892.349	9625
892.471	9431
892.594	9587
892.717	9606
892.839	9584
892.962	9603
893.085	9622
893.207	9606
893.33	9576
893.452	9526
893.575	9584
893.697	9492
893.819	9648
893.941	9603
894.064	9618
894.186	9431
894.308	9458
894.43	9454
894.552	9629
894.674	9625
894.796	9401
894.918	9439
895.04	9294
895.161	9336
895.283	9351
895.405	9291
895.526	9283
895.648	9321
895.769	9188
895.891	9233
896.012	9256
896.134	9313
896.255	9211
896.376	9249
896.498	9203
896.619	9112
896.74	9173
896.861	9108
896.982	9264
897.103	9279
897.224	9138
897.345	9009
897.466	9062
897.587	9051
897.708	9097
897.828	9043
897.949	8941
898.07	8815
898.19	8887
898.311	9051
898.431	8880
898.552	8906
898.672	8952
898.792	8929
898.913	8933
899.033	8785
899.153	8796
899.273	8636
899.393	8731
899.513	8800
899.633	8708
899.753	8754
899.873	8750
899.993	8708
900.113	8689
900.232	8769
900.352	8651
900.472	8629
900.591	8560
900.711	8632
900.83	8579
900.95	8625
901.069	8693
901.189	8568
901.308	8450
901.427	8396
901.546	8419
901.665	8518
901.784	8564
901.904	8423
902.023	8309
902.141	8267
902.26	8267
902.379	8221
902.498	8176
902.617	8149
902.735	8339
902.854	8256
902.973	8259
903.091	8115
903.21	8161
903.328	8172
903.446	8149
903.565	8096
903.683	8164
903.801	8039
903.919	8172
904.038	8138
904.156	8035
904.274	8088
904.392	8043
904.51	8020
904.627	8012
904.745	8081
904.863	8103
904.981	7921
905.098	7871
905.216	7894
905.334	7887
905.451	7902
905.569	7898
905.686	7879
905.803	7898
905.921	7792
906.038	7807
906.155	7780
906.272	7677
906.389	7712
906.506	7632
906.623	7632
906.74	7605
906.857	7495
906.974	7613
907.091	7670
907.208	7647
907.324	7624
907.441	7609
907.557	7495
907.674	7457
907.79	7384
907.907	7396
908.023	7476
908.139	7339
908.256	7426
908.372	7392
908.488	7384
908.604	7350
908.72	7285
908.836	7251
908.952	7255
909.068	7251
909.184	7282
909.3	7274
909.415	7289
909.531	7278
909.647	7072
909.762	7076
909.878	7122
909.993	7065
910.108	7118
910.224	7031
910.339	7080
910.454	7103
910.57	7019
910.685	6932
910.8	7114
910.915	7160
911.03	7019
911.145	6901
911.259	6932
911.374	6924
911.489	6821
911.604	6871
911.718	6734
911.833	6711
911.947	6707
912.062	6662
912.176	6658
912.291	6665
912.405	6677
912.519	6844
912.633	6795
912.748	6726
912.862	6722
912.976	6555
913.09	6528
913.204	6566
913.318	6623
913.431	6658
913.545	6623
913.659	6730
913.772	6658
913.886	6589
914	6627
914.113	6604
914.226	6597
914.34	6654
914.453	6471
914.566	6604
914.68	6536
914.793	6528
914.906	6437
915.019	6410
915.132	6361
915.245	6445
915.358	6441
915.47	6407
915.583	6490
915.696	6578
915.809	6566
915.921	6601
916.034	6391
916.146	6376
916.259	6403
916.371	6509
916.483	6460
916.595	6365
916.708	6464
916.82	6418
916.932	6384
917.044	6342
917.156	6418
917.268	6331
917.38	6384
917.491	6327
917.603	6372
917.715	6410
917.826	6445
917.938	6350
918.049	6216
918.161	6315
918.272	6494
918.384	6407
918.495	6308
918.606	6285
918.717	6201
918.828	6254
918.939	6277
919.05	6201
919.161	6277
919.272	6144
919.383	6144
919.494	6296
919.604	6391
919.715	6273
919.826	6197
919.936	6247
920.047	6361
920.157	6357
920.267	6486
920.378	6331
920.488	6224
920.598	6456
920.708	6517
920.818	6376
920.928	6445
921.038	6635
921.148	6566
921.258	6384
921.368	6292
921.477	6194
921.587	6201
921.697	6045
921.806	6155
921.916	6019
922.025	5935
922.134	5931
922.244	5908
922.353	5946
922.462	5821
922.571	5802
922.68	5688
922.789	5726
922.898	5748
923.007	5668
923.116	5699
923.224	5646
923.333	5653
923.442	5627
923.55	5581
923.659	5562
923.767	5608
923.876	5528
923.984	5638
924.092	5532
924.201	5520
924.309	5497
924.417	5512
924.525	5478
924.633	5493
924.741	6152
924.849	5398
924.956	5486
925.064	5318
925.172	5337
925.279	5258
925.387	5334
925.494	5288
925.602	5440
925.709	5383
925.816	5299
925.924	5353
926.031	5387
926.138	5311
926.245	5330
926.352	5239
926.459	5280
926.566	5315
926.673	5178
926.779	5166
926.886	5128
926.993	5045
927.099	5052
927.206	4946
927.312	4908
927.419	4999
927.525	4946
927.631	4991
927.737	4904
927.843	4850
927.95	4786
928.056	4831
928.162	4839
928.267	4862
928.373	5269
928.479	4889
928.585	4755
928.69	4748
928.796	4793
928.901	4698
929.007	4592
929.112	4683
929.218	4580
929.323	4569
929.428	4577
929.533	4683
929.638	4527
929.743	4493
929.848	4558
929.953	4489
930.058	4413
930.163	4337
930.267	4348
930.372	4409
930.477	4341
930.581	4424
930.685	4367
930.79	4284
930.894	4329
930.998	4249
931.103	4371
931.207	4143
931.311	4086
931.415	4032
931.519	3911
931.623	3964
