Data from glass_V78500241_519.txt Node
Date: Wed Sep 01 19:18:05 CST 2021
User: usil
Spectrometer: V785-0024
Trigger mode: 0
Integration Time (sec): 4.000000E-1
Scans to average: 1
Nonlinearity correction enabled: false
Boxcar width: 0
Storing dark spectrum: false
XAxis mode: Wavelengths
Number of Pixels in Spectrum: 1024
>>>>>Begin Spectral Data<<<<<
801.071	3690
801.214	3800
801.356	3740
801.499	3789
801.641	3724
801.783	3789
801.926	3880
802.068	3850
802.211	3865
802.353	3838
802.496	3884
802.638	3876
802.78	3884
802.923	3930
803.065	3869
803.208	3876
803.35	3873
803.492	3918
803.635	3915
803.777	3819
803.919	3930
804.061	4169
804.204	3964
804.346	3975
804.488	3949
804.63	4071
804.773	3968
804.915	4029
805.057	4154
805.199	4029
805.341	4101
805.483	4166
805.626	4120
805.768	4169
805.91	4238
806.052	4227
806.194	4207
806.336	4363
806.478	4196
806.62	4166
806.762	4253
806.904	4249
807.046	4337
807.188	4227
807.33	4185
807.472	4227
807.614	4211
807.756	4242
807.898	4211
808.04	4261
808.182	4284
808.324	4318
808.465	4402
808.607	4451
808.749	4455
808.891	4459
809.033	4470
809.174	4398
809.316	4268
809.458	4265
809.6	4150
809.741	4204
809.883	4124
810.025	4173
810.166	4242
810.308	4230
810.45	4234
810.591	4234
810.733	4280
810.875	4580
811.016	4862
811.158	5147
811.299	5265
811.441	5334
811.582	5025
811.724	4679
811.865	4451
812.007	4455
812.148	4417
812.29	4451
812.431	4440
812.573	4455
812.714	4413
812.855	4421
812.997	4432
813.138	4500
813.279	4443
813.421	4394
813.562	4386
813.703	4356
813.845	4356
813.986	4291
814.127	4196
814.268	4291
814.41	4280
814.551	4265
814.692	4314
814.833	4306
814.974	4303
815.115	4333
815.256	4253
815.397	4249
815.539	4261
815.68	4188
815.821	4200
815.962	4363
816.103	4284
816.244	4185
816.385	4215
816.526	4287
816.666	4242
816.807	4150
816.948	4242
817.089	4249
817.23	4128
817.371	4067
817.512	4029
817.653	4051
817.793	4032
817.934	4006
818.075	4101
818.216	4071
818.356	4063
818.497	3972
818.638	3896
818.778	3873
818.919	3880
819.06	3850
819.2	3926
819.341	3888
819.481	3846
819.622	3911
819.762	4040
819.903	3972
820.043	3915
820.184	3816
820.324	3835
820.465	3896
820.605	3884
820.746	3873
820.886	3751
821.026	3918
821.167	3854
821.307	3994
821.447	4010
821.588	3968
821.728	3956
821.868	3968
822.008	3903
822.149	3888
822.289	3945
822.429	3819
822.569	3823
822.709	3812
822.849	3759
822.99	3713
823.13	3789
823.27	3789
823.41	3709
823.55	3736
823.69	3724
823.83	3743
823.97	3720
824.11	3648
824.25	3587
824.389	3610
824.529	3667
824.669	3648
824.809	3701
824.949	3755
825.089	3743
825.228	3705
825.368	3572
825.508	3595
825.648	3580
825.787	3614
825.927	3663
826.067	3644
826.206	3682
826.346	3762
826.485	3846
826.625	3884
826.765	3964
826.904	3785
827.044	3606
827.183	3549
827.323	3420
827.462	3534
827.601	3488
827.741	3447
827.88	3454
828.02	3386
828.159	3488
828.298	3473
828.437	3504
828.577	3450
828.716	3622
828.855	3473
828.994	3382
829.134	3401
829.273	3401
829.412	3332
829.551	3374
829.69	3409
829.829	3447
829.968	3553
830.107	3424
830.246	3477
830.385	3370
830.524	3340
830.663	3325
830.802	3268
830.941	3207
831.08	3180
831.219	3291
831.357	3253
831.496	3431
831.635	3226
831.774	3222
831.913	3192
832.051	3150
832.19	3176
832.329	3226
832.467	3146
832.606	3123
832.744	3135
832.883	3195
833.022	3245
833.16	3294
833.299	3268
833.437	3386
833.576	3363
833.714	3431
833.852	3428
833.991	3462
834.129	3481
834.267	3443
834.406	3424
834.544	3466
834.682	3469
834.821	3401
834.959	3614
835.097	3428
835.235	3538
835.373	3485
835.511	3526
835.65	3473
835.788	3511
835.926	3397
836.064	3397
836.202	3409
836.34	3606
836.478	3595
836.615	3538
836.753	3610
836.891	3648
837.029	3622
837.167	3591
837.305	3610
837.443	3564
837.58	3515
837.718	3637
837.856	3595
837.993	3545
838.131	3618
838.269	3606
838.406	3614
838.544	3595
838.681	3454
838.819	3458
838.956	3409
839.094	3378
839.231	3428
839.369	3542
839.506	3747
839.643	3652
839.781	3549
839.918	3462
840.055	3549
840.193	3549
840.33	3542
840.467	3587
840.604	3599
840.742	3804
840.879	3534
841.016	3618
841.153	3618
841.29	3785
841.427	3717
841.564	3743
841.701	3766
841.838	3717
841.975	3720
842.112	3724
842.249	3694
842.385	3667
842.522	3831
842.659	3675
842.796	3656
842.933	3751
843.069	3747
843.206	3679
843.343	3838
843.479	3797
843.616	3823
843.752	3648
843.889	3701
844.025	3888
844.162	3728
844.298	3838
844.435	3816
844.571	3812
844.708	3930
844.844	3934
844.98	4036
845.117	4044
845.253	3907
845.389	3861
845.525	3975
845.661	3998
845.798	3953
845.934	4013
846.07	3998
846.206	4074
846.342	4120
846.478	4032
846.614	3972
846.75	3979
846.886	3915
847.022	4040
847.158	3972
847.294	3991
847.429	4063
847.565	4051
847.701	4207
847.837	3907
847.972	3899
848.108	3987
848.244	3953
848.379	3873
848.515	3793
848.65	3804
848.786	3808
848.921	3850
849.057	3956
849.192	3941
849.328	3960
849.463	3922
849.598	3880
849.734	3899
849.869	3835
850.004	3846
850.14	3816
850.275	3759
850.41	3766
850.545	3789
850.68	3800
850.815	3797
850.95	3831
851.085	3949
851.22	3911
851.355	3819
851.49	3838
851.625	3732
851.76	3812
851.895	3755
852.03	3755
852.165	3842
852.299	3876
852.434	3926
852.569	3876
852.703	3892
852.838	3945
852.973	3983
853.107	4025
853.242	3903
853.376	3888
853.511	3808
853.645	3846
853.78	4021
853.914	3873
854.048	3907
854.183	3896
854.317	3979
854.451	4036
854.585	3918
854.72	3968
854.854	4093
854.988	3937
855.122	4036
855.256	3934
855.39	4013
855.524	4093
855.658	4128
855.792	4131
855.926	4192
856.06	4147
856.194	4230
856.327	4188
856.461	4135
856.595	4177
856.729	4223
856.862	4265
856.996	4284
857.13	4306
857.263	4379
857.397	4360
857.53	4261
857.664	4352
857.797	4417
857.931	4459
858.064	4394
858.197	4489
858.331	4417
858.464	4398
858.597	4386
858.731	4428
858.864	4523
858.997	4455
859.13	4535
859.263	4596
859.396	4535
859.529	4459
859.662	4554
859.795	4573
859.928	4592
860.061	4733
860.194	4752
860.327	4714
860.46	4664
860.592	4714
860.725	4763
860.858	4771
860.99	4694
861.123	4706
861.256	4698
861.388	4820
861.521	5554
861.653	4702
861.786	4714
861.918	4771
862.05	4767
862.183	4828
862.315	4908
862.447	4927
862.58	4919
862.712	4816
862.844	4767
862.976	4843
863.108	4930
863.24	5166
863.372	4862
863.504	4881
863.636	4892
863.768	4991
863.9	4976
864.032	4919
864.164	4972
864.296	4980
864.428	5079
864.559	5094
864.691	5155
864.823	5185
864.954	5094
865.086	5162
865.217	5124
865.349	5128
865.48	5155
865.612	5189
865.743	5330
865.875	5212
866.006	5181
866.137	5265
866.269	5231
866.4	5212
866.531	5239
866.662	5334
866.793	5280
866.924	5318
867.055	5349
867.186	5360
867.317	5315
867.448	5334
867.579	5387
867.71	5383
867.841	5387
867.972	5448
868.103	5455
868.233	5516
868.364	5516
868.495	5497
868.625	5676
868.756	5802
868.886	5710
869.017	5737
869.147	5840
869.278	5863
869.408	5794
869.539	5767
869.669	5931
869.799	5923
869.929	5996
870.06	6030
870.19	6186
870.32	6262
870.45	6228
870.58	6327
870.71	6433
870.84	6437
870.97	6414
871.1	6464
871.23	6677
871.36	6741
871.489	6673
871.619	6764
871.749	6787
871.879	6852
872.008	7023
872.138	6901
872.267	6970
872.397	6985
872.526	7015
872.656	7114
872.785	7209
872.915	7403
873.044	7556
873.173	7552
873.303	7700
873.432	7784
873.561	7849
873.69	7852
873.819	8020
873.948	8191
874.077	8294
874.206	8358
874.335	8492
874.464	8701
874.593	8815
874.722	8963
874.851	9157
874.979	9241
875.108	9329
875.237	9469
875.365	9431
875.494	9656
875.623	9880
875.751	9838
875.88	10059
876.008	10139
876.136	10299
876.265	10500
876.393	10752
876.521	10725
876.65	10843
876.778	10904
876.906	10885
877.034	11006
877.162	11090
877.29	11220
877.418	11372
877.546	11379
877.674	11459
877.802	11547
877.93	11501
878.058	11596
878.185	11604
878.313	11642
878.441	11775
878.568	11729
878.696	11786
878.824	11847
878.951	11843
879.079	12041
879.206	12175
879.333	12114
879.461	12011
879.588	12148
879.715	12019
879.842	12235
879.97	12072
880.097	11824
880.224	11912
880.351	11897
880.478	11950
880.605	11840
880.732	11843
880.859	11980
880.986	11843
881.112	11859
881.239	11710
881.366	11676
881.493	11642
881.619	11501
881.746	11577
881.872	11562
881.999	11509
882.125	11501
882.252	11573
882.378	11433
882.505	11581
882.631	11410
882.757	11296
882.883	11345
883.01	11261
883.136	11193
883.262	11136
883.388	11090
883.514	11178
883.64	11197
883.766	11067
883.892	11018
884.018	11022
884.143	10995
884.269	11147
884.395	10877
884.52	10854
884.646	10828
884.772	10740
884.897	10698
885.023	10672
885.148	10687
885.274	10733
885.399	10725
885.524	10694
885.65	10538
885.775	10558
885.9	10584
886.025	10584
886.15	10531
886.275	10497
886.4	10360
886.525	10443
886.65	10421
886.775	10413
886.9	10481
887.025	10580
887.149	10344
887.274	10242
887.399	10150
887.523	10268
887.648	10105
887.773	10166
887.897	10219
888.021	10223
888.146	10162
888.27	10246
888.395	10188
888.519	10234
888.643	10211
888.767	10253
888.891	10105
889.015	10055
889.139	10078
889.263	9998
889.387	10078
889.511	10116
889.635	10116
889.759	9994
889.883	10032
890.006	10131
890.13	10097
890.254	9949
890.377	10013
890.501	9903
890.624	9903
890.748	9930
890.871	9728
890.995	9808
891.118	9732
891.241	9755
891.364	9835
891.488	9804
891.611	9789
891.734	9751
891.857	9804
891.98	9770
892.103	9774
892.226	9747
892.349	9759
892.471	9526
892.594	9603
892.717	9523
892.839	9576
892.962	9614
893.085	9671
893.207	9564
893.33	9500
893.452	9534
893.575	9603
893.697	9500
893.819	9568
893.941	9606
894.064	9595
894.186	9462
894.308	9412
894.43	9549
894.552	9557
894.674	9538
894.796	9443
894.918	9405
895.04	9351
895.161	9344
895.283	9412
895.405	9222
895.526	9203
895.648	9332
895.769	9241
895.891	9275
896.012	9283
896.134	9268
896.255	9272
896.376	9146
896.498	9146
896.619	9150
896.74	9055
896.861	9097
896.982	9351
897.103	9344
897.224	9135
897.345	9020
897.466	9028
897.587	9051
897.708	9138
897.828	9112
897.949	8956
898.07	8868
898.19	8941
898.311	9097
898.431	8967
898.552	8944
898.672	8971
898.792	9005
898.913	8906
899.033	8845
899.153	8796
899.273	8636
899.393	8720
899.513	8720
899.633	8689
899.753	8712
899.873	8705
899.993	8773
900.113	8731
900.232	8667
900.352	8766
900.472	8606
900.591	8583
900.711	8613
900.83	8518
900.95	8689
901.069	8693
901.189	8564
901.308	8412
901.427	8404
901.546	8415
901.665	8438
901.784	8450
901.904	8431
902.023	8332
902.141	8259
902.26	8263
902.379	8305
902.498	8275
902.617	8286
902.735	8317
902.854	8317
902.973	8290
903.091	8119
903.21	8134
903.328	8221
903.446	8164
903.565	8092
903.683	8161
903.801	8092
903.919	8123
904.038	8096
904.156	8073
904.274	8103
904.392	7982
904.51	8084
904.627	8016
904.745	8069
904.863	8012
904.981	7982
905.098	7822
905.216	7875
905.334	7871
905.451	7913
905.569	7940
905.686	7967
905.803	7917
905.921	7849
906.038	7856
906.155	7799
906.272	7693
906.389	7719
906.506	7624
906.623	7651
906.74	7624
906.857	7578
906.974	7658
907.091	7693
907.208	7769
907.324	7662
907.441	7620
907.557	7472
907.674	7533
907.79	7377
907.907	7441
908.023	7480
908.139	7419
908.256	7377
908.372	7445
908.488	7358
908.604	7301
908.72	7285
908.836	7316
908.952	7240
909.068	7293
909.184	7278
909.3	7278
909.415	7305
909.531	7327
909.647	7236
909.762	7084
909.878	7156
909.993	7129
910.108	7110
910.224	7133
910.339	7065
910.454	7069
910.57	7046
910.685	6973
910.8	7171
910.915	7107
911.03	7004
911.145	6867
911.259	6901
911.374	6897
911.489	6852
911.604	6844
911.718	6734
911.833	6783
911.947	6642
912.062	6627
912.176	6749
912.291	6692
912.405	6673
912.519	6871
912.633	6833
912.748	6726
912.862	6757
912.976	6631
913.09	6525
913.204	6604
913.318	6646
913.431	6627
913.545	6627
913.659	6696
913.772	6681
913.886	6574
914	6540
914.113	6646
914.226	6662
914.34	6627
914.453	6479
914.566	6639
914.68	6570
914.793	6521
914.906	6490
915.019	6467
915.132	6422
915.245	6452
915.358	6448
915.47	6475
915.583	6464
915.696	6467
915.809	6547
915.921	6490
916.034	6456
916.146	6448
916.259	6429
916.371	6490
916.483	6475
916.595	6418
916.708	6429
916.82	6403
916.932	6380
917.044	6410
917.156	6414
917.268	6334
917.38	6418
917.491	6262
917.603	6296
917.715	6441
917.826	6448
917.938	6289
918.049	6281
918.161	6334
918.272	6422
918.384	6403
918.495	6331
918.606	6243
918.717	6228
918.828	6323
918.939	6281
919.05	6239
919.161	6266
919.272	6129
919.383	6197
919.494	6296
919.604	6441
919.715	6315
919.826	6281
919.936	6247
920.047	6365
920.157	6308
920.267	6475
920.378	6315
920.488	6300
920.598	6467
920.708	6555
920.818	6456
920.928	6452
921.038	6608
921.148	6574
921.258	6391
921.368	6285
921.477	6186
921.587	6216
921.697	6117
921.806	6152
921.916	6045
922.025	5939
922.134	5931
922.244	5897
922.353	6019
922.462	5859
922.571	5805
922.68	5722
922.789	5703
922.898	5726
923.007	5619
923.116	5668
923.224	5691
923.333	5642
923.442	5600
923.55	5554
923.659	5611
923.767	5634
923.876	5524
923.984	5638
924.092	5543
924.201	5592
924.309	5611
924.417	5585
924.525	5490
924.633	5532
924.741	6327
924.849	5368
924.956	5528
925.064	5421
925.172	5307
925.279	5303
925.387	5398
925.494	5357
925.602	5433
925.709	5398
925.816	5277
925.924	5303
926.031	5315
926.138	5322
926.245	5379
926.352	5246
926.459	5307
926.566	5345
926.673	5212
926.779	5162
926.886	5143
926.993	5022
927.099	5029
927.206	4999
927.312	4896
927.419	5014
927.525	4980
927.631	5045
927.737	4885
927.843	4870
927.95	4797
928.056	4877
928.162	4881
928.267	4850
928.373	5315
928.479	4866
928.585	4679
928.69	4790
928.796	4767
928.901	4733
929.007	4592
929.112	4675
929.218	4687
929.323	4615
929.428	4599
929.533	4641
929.638	4550
929.743	4569
929.848	4618
929.953	4523
930.058	4413
930.163	4337
930.267	4318
930.372	4516
930.477	4341
930.581	4470
930.685	4424
930.79	4234
930.894	4291
930.998	4314
931.103	4344
931.207	4158
931.311	4093
931.415	4071
931.519	3964
931.623	3896
