Data from glass_V78500241_552.txt Node
Date: Wed Sep 01 19:18:19 CST 2021
User: usil
Spectrometer: V785-0024
Trigger mode: 0
Integration Time (sec): 4.000000E-1
Scans to average: 1
Nonlinearity correction enabled: false
Boxcar width: 0
Storing dark spectrum: false
XAxis mode: Wavelengths
Number of Pixels in Spectrum: 1024
>>>>>Begin Spectral Data<<<<<
801.071	3751
801.214	3766
801.356	3766
801.499	3751
801.641	3759
801.783	3770
801.926	3873
802.068	3831
802.211	3884
802.353	3918
802.496	3861
802.638	3880
802.78	3918
802.923	3934
803.065	3896
803.208	3861
803.35	3896
803.492	3922
803.635	3975
803.777	3819
803.919	3922
804.061	4173
804.204	3972
804.346	3968
804.488	3903
804.63	4067
804.773	3975
804.915	4002
805.057	4177
805.199	4067
805.341	4090
805.483	4147
805.626	4128
805.768	4143
805.91	4211
806.052	4246
806.194	4207
806.336	4367
806.478	4230
806.62	4154
806.762	4169
806.904	4261
807.046	4341
807.188	4299
807.33	4181
807.472	4253
807.614	4177
807.756	4211
807.898	4257
808.04	4230
808.182	4272
808.324	4329
808.465	4348
808.607	4481
808.749	4481
808.891	4500
809.033	4516
809.174	4402
809.316	4303
809.458	4227
809.6	4177
809.741	4166
809.883	4150
810.025	4200
810.166	4204
810.308	4227
810.45	4272
810.591	4261
810.733	4314
810.875	4592
811.016	4820
811.158	5174
811.299	5284
811.441	5261
811.582	5060
811.724	4710
811.865	4485
812.007	4470
812.148	4447
812.29	4432
812.431	4436
812.573	4379
812.714	4379
812.855	4421
812.997	4428
813.138	4474
813.279	4432
813.421	4383
813.562	4417
813.703	4325
813.845	4352
813.986	4227
814.127	4223
814.268	4276
814.41	4299
814.551	4268
814.692	4341
814.833	4310
814.974	4310
815.115	4325
815.256	4348
815.397	4253
815.539	4238
815.68	4188
815.821	4219
815.962	4344
816.103	4322
816.244	4242
816.385	4257
816.526	4257
816.666	4192
816.807	4082
816.948	4166
817.089	4215
817.23	4177
817.371	4032
817.512	4086
817.653	4078
817.793	4067
817.934	4082
818.075	4135
818.216	4109
818.356	4101
818.497	3983
818.638	3915
818.778	3915
818.919	3926
819.06	3835
819.2	3922
819.341	3873
819.481	3888
819.622	3899
819.762	4021
819.903	4017
820.043	3896
820.184	3831
820.324	3823
820.465	3876
820.605	3876
820.746	3884
820.886	3778
821.026	3896
821.167	3907
821.307	3983
821.447	3987
821.588	3968
821.728	3945
821.868	3918
822.008	3892
822.149	3907
822.289	3911
822.429	3808
822.569	3770
822.709	3812
822.849	3679
822.99	3724
823.13	3800
823.27	3770
823.41	3740
823.55	3762
823.69	3705
823.83	3770
823.97	3701
824.11	3637
824.25	3610
824.389	3641
824.529	3740
824.669	3614
824.809	3778
824.949	3797
825.089	3793
825.228	3690
825.368	3580
825.508	3580
825.648	3591
825.787	3606
825.927	3671
826.067	3595
826.206	3641
826.346	3797
826.485	3850
826.625	3896
826.765	3979
826.904	3846
827.044	3622
827.183	3542
827.323	3473
827.462	3492
827.601	3424
827.741	3424
827.88	3492
828.02	3431
828.159	3477
828.298	3511
828.437	3523
828.577	3496
828.716	3610
828.855	3515
828.994	3428
829.134	3378
829.273	3386
829.412	3329
829.551	3336
829.69	3370
829.829	3420
829.968	3500
830.107	3485
830.246	3462
830.385	3374
830.524	3332
830.663	3302
830.802	3298
830.941	3211
831.08	3207
831.219	3336
831.357	3260
831.496	3412
831.635	3249
831.774	3154
831.913	3249
832.051	3123
832.19	3161
832.329	3230
832.467	3150
832.606	3104
832.744	3180
832.883	3233
833.022	3226
833.16	3245
833.299	3317
833.437	3367
833.576	3393
833.714	3412
833.852	3412
833.991	3447
834.129	3485
834.267	3435
834.406	3409
834.544	3439
834.682	3450
834.821	3447
834.959	3580
835.097	3416
835.235	3549
835.373	3485
835.511	3534
835.65	3466
835.788	3511
835.926	3424
836.064	3363
836.202	3409
836.34	3580
836.478	3606
836.615	3568
836.753	3584
836.891	3694
837.029	3625
837.167	3633
837.305	3568
837.443	3557
837.58	3523
837.718	3629
837.856	3576
837.993	3549
838.131	3584
838.269	3572
838.406	3599
838.544	3557
838.681	3477
838.819	3458
838.956	3367
839.094	3431
839.231	3450
839.369	3542
839.506	3759
839.643	3663
839.781	3542
839.918	3454
840.055	3507
840.193	3519
840.33	3553
840.467	3603
840.604	3606
840.742	3816
840.879	3576
841.016	3549
841.153	3599
841.29	3785
841.427	3732
841.564	3690
841.701	3732
841.838	3747
841.975	3667
842.112	3751
842.249	3675
842.385	3644
842.522	3854
842.659	3724
842.796	3644
842.933	3709
843.069	3701
843.206	3694
843.343	3861
843.479	3812
843.616	3823
843.752	3686
843.889	3736
844.025	3884
844.162	3740
844.298	3781
844.435	3812
844.571	3804
844.708	3930
844.844	4025
844.98	4040
845.117	4021
845.253	3960
845.389	3869
845.525	4029
845.661	3972
845.798	3911
845.934	3998
846.07	3964
846.206	4078
846.342	4200
846.478	4109
846.614	4006
846.75	3899
846.886	3922
847.022	4131
847.158	4002
847.294	4029
847.429	3972
847.565	4025
847.701	4261
847.837	3915
847.972	3876
848.108	3998
848.244	3941
848.379	3827
848.515	3816
848.65	3854
848.786	3876
848.921	3899
849.057	3930
849.192	3964
849.328	3945
849.463	3979
849.598	3850
849.734	3896
849.869	3846
850.004	3759
850.14	3835
850.275	3800
850.41	3793
850.545	3751
850.68	3808
850.815	3762
850.95	3789
851.085	3964
851.22	3884
851.355	3838
851.49	3781
851.625	3800
851.76	3819
851.895	3720
852.03	3785
852.165	3812
852.299	3876
852.434	3873
852.569	3884
852.703	3899
852.838	3945
852.973	4017
853.107	3979
853.242	3857
853.376	3884
853.511	3804
853.645	3846
853.78	3972
853.914	3884
854.048	3899
854.183	3941
854.317	3983
854.451	4090
854.585	3949
854.72	3949
854.854	4010
854.988	3922
855.122	4044
855.256	3911
855.39	4029
855.524	4135
855.658	4109
855.792	4120
855.926	4169
856.06	4154
856.194	4188
856.327	4166
856.461	4101
856.595	4181
856.729	4234
856.862	4333
856.996	4268
857.13	4352
857.263	4329
857.397	4329
857.53	4306
857.664	4344
857.797	4447
857.931	4428
858.064	4413
858.197	4519
858.331	4375
858.464	4398
858.597	4352
858.731	4459
858.864	4531
858.997	4432
859.13	4523
859.263	4538
859.396	4519
859.529	4573
859.662	4561
859.795	4500
859.928	4641
860.061	4702
860.194	4725
860.327	4672
860.46	4706
860.592	4755
860.725	4797
860.858	4744
860.99	4755
861.123	4694
861.256	4691
861.388	4809
861.521	5497
861.653	4721
861.786	4679
861.918	4771
862.05	4824
862.183	4809
862.315	4900
862.447	4976
862.58	4896
862.712	4812
862.844	4729
862.976	4881
863.108	4900
863.24	5170
863.372	4801
863.504	4908
863.636	4919
863.768	4961
863.9	4957
864.032	4923
864.164	4999
864.296	5048
864.428	5094
864.559	5121
864.691	5090
864.823	5109
864.954	5151
865.086	5140
865.217	5098
865.349	5098
865.48	5147
865.612	5197
865.743	5334
865.875	5197
866.006	5155
866.137	5208
866.269	5254
866.4	5231
866.531	5231
866.662	5246
866.793	5254
866.924	5284
867.055	5326
867.186	5398
867.317	5414
867.448	5296
867.579	5353
867.71	5360
867.841	5421
867.972	5455
868.103	5448
868.233	5448
868.364	5497
868.495	5596
868.625	5703
868.756	5798
868.886	5676
869.017	5752
869.147	5859
869.278	5912
869.408	5790
869.539	5809
869.669	5984
869.799	5908
869.929	5927
870.06	6083
870.19	6251
870.32	6182
870.45	6251
870.58	6407
870.71	6418
870.84	6407
870.97	6456
871.1	6464
871.23	6684
871.36	6760
871.489	6654
871.619	6795
871.749	6848
871.879	6878
872.008	7004
872.138	6989
872.267	7015
872.397	6943
872.526	7057
872.656	7118
872.785	7213
872.915	7369
873.044	7514
873.173	7601
873.303	7658
873.432	7811
873.561	7909
873.69	7890
873.819	7982
873.948	8180
874.077	8225
874.206	8393
874.335	8457
874.464	8610
874.593	8800
874.722	8918
874.851	9104
874.979	9207
875.108	9374
875.237	9412
875.365	9507
875.494	9656
875.623	9861
875.751	9823
875.88	9991
876.008	10185
876.136	10265
876.265	10466
876.393	10714
876.521	10645
876.65	10805
876.778	10984
876.906	10881
877.034	10942
877.162	11136
877.29	11151
877.418	11269
877.546	11356
877.674	11459
877.802	11417
877.93	11581
878.058	11623
878.185	11619
878.313	11649
878.441	11745
878.568	11695
878.696	11855
878.824	11882
878.951	11866
879.079	12011
879.206	12224
879.333	12038
879.461	11969
879.588	12163
879.715	12110
879.842	12175
879.97	12125
880.097	11912
880.224	11874
880.351	11950
880.478	11927
880.605	11840
880.732	11764
880.859	11969
880.986	11805
881.112	11897
881.239	11764
881.366	11707
881.493	11649
881.619	11589
881.746	11539
881.872	11516
881.999	11516
882.125	11474
882.252	11455
882.378	11532
882.505	11543
882.631	11395
882.757	11341
882.883	11353
883.01	11303
883.136	11208
883.262	11159
883.388	11029
883.514	11151
883.64	11159
883.766	11060
883.892	11018
884.018	10972
884.143	11033
884.269	11067
884.395	10843
884.52	10759
884.646	10835
884.772	10740
884.897	10687
885.023	10710
885.148	10706
885.274	10824
885.399	10725
885.524	10596
885.65	10577
885.775	10554
885.9	10527
886.025	10626
886.15	10592
886.275	10512
886.4	10379
886.525	10394
886.65	10382
886.775	10318
886.9	10386
887.025	10470
887.149	10276
887.274	10257
887.399	10246
887.523	10192
887.648	10249
887.773	10086
887.897	10314
888.021	10318
888.146	10086
888.27	10272
888.395	10150
888.519	10200
888.643	10166
888.767	10166
888.891	10097
889.015	9998
889.139	10029
889.263	10063
889.387	10082
889.511	10086
889.635	10002
889.759	9979
889.883	10040
890.006	10048
890.13	10029
890.254	10013
890.377	9964
890.501	9846
890.624	9842
890.748	9895
890.871	9789
890.995	9797
891.118	9740
891.241	9740
891.364	9774
891.488	9892
891.611	9770
891.734	9762
891.857	9717
891.98	9759
892.103	9740
892.226	9705
892.349	9690
892.471	9523
892.594	9644
892.717	9656
892.839	9584
892.962	9625
893.085	9656
893.207	9580
893.33	9519
893.452	9542
893.575	9576
893.697	9488
893.819	9614
893.941	9663
894.064	9561
894.186	9405
894.308	9435
894.43	9462
894.552	9610
894.674	9561
894.796	9363
894.918	9401
895.04	9298
895.161	9355
895.283	9401
895.405	9302
895.526	9283
895.648	9268
895.769	9199
895.891	9245
896.012	9287
896.134	9260
896.255	9192
896.376	9108
896.498	9142
896.619	9150
896.74	9157
896.861	9093
896.982	9313
897.103	9397
897.224	9157
897.345	9127
897.466	9058
897.587	9013
897.708	9127
897.828	9036
897.949	8933
898.07	8883
898.19	9009
898.311	9028
898.431	8933
898.552	8883
898.672	9017
898.792	8971
898.913	8883
899.033	8796
899.153	8811
899.273	8674
899.393	8731
899.513	8750
899.633	8785
899.753	8769
899.873	8746
899.993	8682
900.113	8739
900.232	8724
900.352	8686
900.472	8655
900.591	8571
900.711	8594
900.83	8530
900.95	8697
901.069	8693
901.189	8552
901.308	8396
901.427	8427
901.546	8465
901.665	8499
901.784	8469
901.904	8408
902.023	8263
902.141	8161
902.26	8240
902.379	8244
902.498	8237
902.617	8259
902.735	8301
902.854	8240
902.973	8298
903.091	8103
903.21	8100
903.328	8187
903.446	8126
903.565	8058
903.683	8134
903.801	8050
903.919	8210
904.038	8195
904.156	8058
904.274	8096
904.392	8027
904.51	8081
904.627	8069
904.745	8103
904.863	8107
904.981	7944
905.098	7883
905.216	7837
905.334	7890
905.451	7913
905.569	7932
905.686	7997
905.803	7967
905.921	7784
906.038	7940
906.155	7807
906.272	7765
906.389	7666
906.506	7628
906.623	7575
906.74	7632
906.857	7499
906.974	7590
907.091	7647
907.208	7662
907.324	7753
907.441	7616
907.557	7483
907.674	7483
907.79	7373
907.907	7430
908.023	7434
908.139	7468
908.256	7426
908.372	7384
908.488	7365
908.604	7251
908.72	7266
908.836	7293
908.952	7228
909.068	7308
909.184	7324
909.3	7316
909.415	7308
909.531	7270
909.647	7118
909.762	7122
909.878	7091
909.993	7160
910.108	7076
910.224	7072
910.339	7053
910.454	7019
910.57	6977
910.685	6954
910.8	7217
910.915	7160
911.03	7015
911.145	6852
911.259	6916
911.374	6871
911.489	6821
911.604	6825
911.718	6703
911.833	6741
911.947	6719
912.062	6604
912.176	6688
912.291	6730
912.405	6684
912.519	6859
912.633	6856
912.748	6730
912.862	6753
912.976	6650
913.09	6467
913.204	6597
913.318	6681
913.431	6703
913.545	6726
913.659	6711
913.772	6608
913.886	6646
914	6635
914.113	6681
914.226	6623
914.34	6623
914.453	6532
914.566	6620
914.68	6502
914.793	6540
914.906	6475
915.019	6418
915.132	6410
915.245	6433
915.358	6486
915.47	6426
915.583	6437
915.696	6490
915.809	6559
915.921	6547
916.034	6437
916.146	6388
916.259	6441
916.371	6460
916.483	6536
916.595	6361
916.708	6456
916.82	6407
916.932	6365
917.044	6471
917.156	6365
917.268	6304
917.38	6369
917.491	6319
917.603	6376
917.715	6391
917.826	6414
917.938	6426
918.049	6281
918.161	6323
918.272	6399
918.384	6498
918.495	6391
918.606	6289
918.717	6201
918.828	6243
918.939	6285
919.05	6235
919.161	6247
919.272	6163
919.383	6163
919.494	6281
919.604	6460
919.715	6315
919.826	6228
919.936	6292
920.047	6350
920.157	6380
920.267	6486
920.378	6327
920.488	6228
920.598	6502
920.708	6525
920.818	6460
920.928	6486
921.038	6563
921.148	6585
921.258	6323
921.368	6315
921.477	6220
921.587	6178
921.697	6083
921.806	6155
921.916	6106
922.025	6003
922.134	5897
922.244	5897
922.353	6007
922.462	5920
922.571	5866
922.68	5691
922.789	5726
922.898	5688
923.007	5627
923.116	5710
923.224	5680
923.333	5676
923.442	5570
923.55	5573
923.659	5608
923.767	5653
923.876	5562
923.984	5589
924.092	5524
924.201	5573
924.309	5634
924.417	5592
924.525	5516
924.633	5490
924.741	6277
924.849	5395
924.956	5463
925.064	5379
925.172	5318
925.279	5296
925.387	5402
925.494	5376
925.602	5440
925.709	5410
925.816	5250
925.924	5379
926.031	5322
926.138	5296
926.245	5330
926.352	5242
926.459	5318
926.566	5349
926.673	5212
926.779	5140
926.886	5124
926.993	5064
927.099	4991
927.206	5022
927.312	4923
927.419	5067
927.525	4946
927.631	4987
927.737	4919
927.843	4843
927.95	4793
928.056	4816
928.162	4885
928.267	4892
928.373	5296
928.479	4839
928.585	4729
928.69	4812
928.796	4748
928.901	4683
929.007	4580
929.112	4649
929.218	4660
929.323	4656
929.428	4599
929.533	4679
929.638	4558
929.743	4558
929.848	4561
929.953	4519
930.058	4462
930.163	4348
930.267	4329
930.372	4424
930.477	4303
930.581	4485
930.685	4390
930.79	4284
930.894	4360
930.998	4272
931.103	4405
931.207	4162
931.311	4086
931.415	4071
931.519	3888
931.623	3972
