Data from glass_V78500241_232.txt Node
Date: Wed Sep 01 19:16:06 CST 2021
User: usil
Spectrometer: V785-0024
Trigger mode: 0
Integration Time (sec): 4.000000E-1
Scans to average: 1
Nonlinearity correction enabled: false
Boxcar width: 0
Storing dark spectrum: false
XAxis mode: Wavelengths
Number of Pixels in Spectrum: 1024
>>>>>Begin Spectral Data<<<<<
801.071	3785
801.214	3762
801.356	3717
801.499	3747
801.641	3751
801.783	3762
801.926	3876
802.068	3831
802.211	3907
802.353	3926
802.496	3827
802.638	3899
802.78	3907
802.923	3964
803.065	3888
803.208	3869
803.35	3903
803.492	3888
803.635	3892
803.777	3819
803.919	3953
804.061	4207
804.204	3998
804.346	3941
804.488	3903
804.63	4021
804.773	3994
804.915	4044
805.057	4166
805.199	4044
805.341	4139
805.483	4192
805.626	4116
805.768	4112
805.91	4219
806.052	4223
806.194	4211
806.336	4386
806.478	4249
806.62	4211
806.762	4196
806.904	4325
807.046	4295
807.188	4268
807.33	4219
807.472	4230
807.614	4227
807.756	4265
807.898	4238
808.04	4234
808.182	4306
808.324	4344
808.465	4360
808.607	4440
808.749	4447
808.891	4436
809.033	4478
809.174	4417
809.316	4272
809.458	4272
809.6	4128
809.741	4158
809.883	4150
810.025	4173
810.166	4192
810.308	4223
810.45	4238
810.591	4230
810.733	4314
810.875	4573
811.016	4801
811.158	5121
811.299	5269
811.441	5322
811.582	5094
811.724	4660
811.865	4470
812.007	4489
812.148	4402
812.29	4428
812.431	4474
812.573	4451
812.714	4383
812.855	4447
812.997	4432
813.138	4481
813.279	4459
813.421	4421
813.562	4390
813.703	4341
813.845	4367
813.986	4306
814.127	4249
814.268	4284
814.41	4325
814.551	4230
814.692	4352
814.833	4284
814.974	4314
815.115	4405
815.256	4272
815.397	4257
815.539	4310
815.68	4242
815.821	4219
815.962	4341
816.103	4299
816.244	4249
816.385	4227
816.526	4276
816.666	4219
816.807	4090
816.948	4181
817.089	4181
817.23	4139
817.371	4071
817.512	4059
817.653	4143
817.793	4055
817.934	4051
818.075	4067
818.216	4086
818.356	4036
818.497	4010
818.638	3941
818.778	3949
818.919	3873
819.06	3899
819.2	3941
819.341	3880
819.481	3808
819.622	3949
819.762	4078
819.903	3960
820.043	3865
820.184	3884
820.324	3816
820.465	3934
820.605	3842
820.746	3888
820.886	3804
821.026	3930
821.167	3979
821.307	3998
821.447	4036
821.588	3987
821.728	3937
821.868	3945
822.008	3896
822.149	3918
822.289	3949
822.429	3800
822.569	3800
822.709	3808
822.849	3724
822.99	3747
823.13	3781
823.27	3819
823.41	3713
823.55	3736
823.69	3751
823.83	3770
823.97	3690
824.11	3603
824.25	3682
824.389	3717
824.529	3679
824.669	3644
824.809	3720
824.949	3766
825.089	3732
825.228	3705
825.368	3610
825.508	3587
825.648	3576
825.787	3618
825.927	3667
826.067	3629
826.206	3656
826.346	3835
826.485	3804
826.625	3892
826.765	3934
826.904	3865
827.044	3591
827.183	3507
827.323	3435
827.462	3507
827.601	3431
827.741	3473
827.88	3458
828.02	3374
828.159	3450
828.298	3545
828.437	3530
828.577	3523
828.716	3622
828.855	3542
828.994	3401
829.134	3416
829.273	3409
829.412	3344
829.551	3359
829.69	3336
829.829	3435
829.968	3542
830.107	3462
830.246	3466
830.385	3397
830.524	3351
830.663	3310
830.802	3245
830.941	3207
831.08	3192
831.219	3260
831.357	3313
831.496	3405
831.635	3253
831.774	3214
831.913	3203
832.051	3157
832.19	3165
832.329	3222
832.467	3127
832.606	3119
832.744	3173
832.883	3214
833.022	3169
833.16	3264
833.299	3363
833.437	3348
833.576	3424
833.714	3412
833.852	3450
833.991	3450
834.129	3511
834.267	3507
834.406	3389
834.544	3473
834.682	3462
834.821	3428
834.959	3572
835.097	3431
835.235	3557
835.373	3507
835.511	3557
835.65	3496
835.788	3469
835.926	3412
836.064	3359
836.202	3405
836.34	3580
836.478	3599
836.615	3561
836.753	3656
836.891	3599
837.029	3625
837.167	3629
837.305	3584
837.443	3549
837.58	3530
837.718	3606
837.856	3564
837.993	3553
838.131	3606
838.269	3606
838.406	3576
838.544	3637
838.681	3473
838.819	3492
838.956	3363
839.094	3420
839.231	3447
839.369	3515
839.506	3743
839.643	3644
839.781	3519
839.918	3545
840.055	3561
840.193	3568
840.33	3542
840.467	3568
840.604	3580
840.742	3823
840.879	3553
841.016	3572
841.153	3644
841.29	3755
841.427	3747
841.564	3717
841.701	3774
841.838	3698
841.975	3686
842.112	3743
842.249	3633
842.385	3641
842.522	3835
842.659	3736
842.796	3679
842.933	3736
843.069	3740
843.206	3709
843.343	3808
843.479	3789
843.616	3861
843.752	3709
843.889	3660
844.025	3888
844.162	3717
844.298	3857
844.435	3785
844.571	3812
844.708	3880
844.844	4025
844.98	4040
845.117	4063
845.253	3911
845.389	3949
845.525	3975
845.661	3968
845.798	3953
845.934	4029
846.07	4002
846.206	4055
846.342	4112
846.478	4078
846.614	3941
846.75	3918
846.886	3953
847.022	4055
847.158	4006
847.294	3983
847.429	4044
847.565	4021
847.701	4284
847.837	3964
847.972	3869
848.108	4021
848.244	3983
848.379	3896
848.515	3884
848.65	3827
848.786	3846
848.921	3896
849.057	3941
849.192	3941
849.328	3892
849.463	3926
849.598	3899
849.734	3899
849.869	3831
850.004	3831
850.14	3850
850.275	3835
850.41	3766
850.545	3778
850.68	3823
850.815	3781
850.95	3873
851.085	3945
851.22	3873
851.355	3873
851.49	3838
851.625	3778
851.76	3774
851.895	3747
852.03	3751
852.165	3808
852.299	3869
852.434	3930
852.569	3896
852.703	3880
852.838	3949
852.973	4055
853.107	4021
853.242	3926
853.376	3903
853.511	3797
853.645	3831
853.78	3987
853.914	3884
854.048	3880
854.183	3903
854.317	3964
854.451	4082
854.585	3994
854.72	3937
854.854	4082
854.988	3922
855.122	3991
855.256	3930
855.39	4044
855.524	4112
855.658	4101
855.792	4143
855.926	4173
856.06	4215
856.194	4223
856.327	4185
856.461	4101
856.595	4219
856.729	4219
856.862	4314
856.996	4261
857.13	4314
857.263	4318
857.397	4394
857.53	4322
857.664	4341
857.797	4413
857.931	4447
858.064	4440
858.197	4462
858.331	4375
858.464	4405
858.597	4356
858.731	4405
858.864	4443
858.997	4451
859.13	4535
859.263	4596
859.396	4577
859.529	4565
859.662	4519
859.795	4523
859.928	4653
860.061	4736
860.194	4694
860.327	4668
860.46	4687
860.592	4740
860.725	4771
860.858	4805
860.99	4668
861.123	4698
861.256	4725
861.388	4736
861.521	5364
861.653	4717
861.786	4679
861.918	4710
862.05	4767
862.183	4854
862.315	4885
862.447	4927
862.58	4908
862.712	4858
862.844	4782
862.976	4908
863.108	4873
863.24	5189
863.372	4892
863.504	4930
863.636	4900
863.768	4946
863.9	4946
864.032	4904
864.164	4968
864.296	4991
864.428	5071
864.559	5109
864.691	5162
864.823	5132
864.954	5159
865.086	5140
865.217	5124
865.349	5094
865.48	5197
865.612	5212
865.743	5368
865.875	5174
866.006	5128
866.137	5227
866.269	5277
866.4	5227
866.531	5208
866.662	5231
866.793	5299
866.924	5284
867.055	5398
867.186	5326
867.317	5334
867.448	5292
867.579	5353
867.71	5379
867.841	5398
867.972	5425
868.103	5467
868.233	5505
868.364	5497
868.495	5558
868.625	5646
868.756	5756
868.886	5699
869.017	5779
869.147	5870
869.278	5874
869.408	5851
869.539	5836
869.669	5878
869.799	5931
869.929	5969
870.06	6038
870.19	6190
870.32	6232
870.45	6239
870.58	6327
870.71	6467
870.84	6498
870.97	6437
871.1	6483
871.23	6639
871.36	6722
871.489	6642
871.619	6673
871.749	6863
871.879	6875
872.008	6966
872.138	7042
872.267	7050
872.397	6985
872.526	7069
872.656	7122
872.785	7266
872.915	7411
873.044	7578
873.173	7578
873.303	7662
873.432	7792
873.561	7902
873.69	7894
873.819	7951
873.948	8130
874.077	8248
874.206	8298
874.335	8484
874.464	8667
874.593	8845
874.722	8910
874.851	9150
874.979	9275
875.108	9321
875.237	9408
875.365	9500
875.494	9584
875.623	9880
875.751	9827
875.88	9934
876.008	10169
876.136	10299
876.265	10527
876.393	10679
876.521	10816
876.65	10824
876.778	10927
876.906	10930
877.034	10968
877.162	11086
877.29	11113
877.418	11250
877.546	11353
877.674	11429
877.802	11459
877.93	11608
878.058	11516
878.185	11543
878.313	11611
878.441	11703
878.568	11707
878.696	11805
878.824	11840
878.951	11836
879.079	12060
879.206	12148
879.333	12049
879.461	11999
879.588	12095
879.715	12060
879.842	12235
879.97	12152
880.097	11859
880.224	11958
880.351	11824
880.478	11832
880.605	11851
880.732	11794
880.859	12030
880.986	11764
881.112	11870
881.239	11775
881.366	11684
881.493	11672
881.619	11562
881.746	11524
881.872	11478
881.999	11493
882.125	11410
882.252	11596
882.378	11478
882.505	11520
882.631	11299
882.757	11258
882.883	11353
883.01	11406
883.136	11220
883.262	11060
883.388	11006
883.514	11170
883.64	11166
883.766	11159
883.892	11003
884.018	10991
884.143	11098
884.269	11113
884.395	10835
884.52	10759
884.646	10793
884.772	10664
884.897	10687
885.023	10653
885.148	10774
885.274	10847
885.399	10786
885.524	10630
885.65	10561
885.775	10512
885.9	10500
886.025	10641
886.15	10641
886.275	10405
886.4	10390
886.525	10371
886.65	10379
886.775	10402
886.9	10573
887.025	10615
887.149	10409
887.274	10227
887.399	10272
887.523	10177
887.648	10223
887.773	10139
887.897	10257
888.021	10192
888.146	10162
888.27	10207
888.395	10234
888.519	10185
888.643	10249
888.767	10181
888.891	10112
889.015	10093
889.139	10067
889.263	9972
889.387	10071
889.511	10116
889.635	10101
889.759	9945
889.883	10063
890.006	10029
890.13	10063
890.254	9975
890.377	10029
890.501	9789
890.624	9838
890.748	9922
890.871	9770
890.995	9827
891.118	9701
891.241	9671
891.364	9747
891.488	9869
891.611	9747
891.734	9797
891.857	9808
891.98	9724
892.103	9747
892.226	9736
892.349	9671
892.471	9504
892.594	9599
892.717	9648
892.839	9622
892.962	9622
893.085	9747
893.207	9572
893.33	9561
893.452	9519
893.575	9603
893.697	9469
893.819	9591
893.941	9656
894.064	9675
894.186	9416
894.308	9401
894.43	9545
894.552	9610
894.674	9564
894.796	9405
894.918	9416
895.04	9416
895.161	9424
895.283	9306
895.405	9313
895.526	9302
895.648	9237
895.769	9283
895.891	9226
896.012	9344
896.134	9169
896.255	9161
896.376	9070
896.498	9089
896.619	9104
896.74	9119
896.861	9070
896.982	9310
897.103	9313
897.224	9165
897.345	9085
897.466	9074
897.587	9005
897.708	9146
897.828	9005
897.949	8986
898.07	8845
898.19	8963
898.311	9009
898.431	8861
898.552	9005
898.672	8994
898.792	8979
898.913	8910
899.033	8826
899.153	8739
899.273	8621
899.393	8720
899.513	8724
899.633	8792
899.753	8758
899.873	8766
899.993	8781
900.113	8659
900.232	8735
900.352	8617
900.472	8537
900.591	8590
900.711	8549
900.83	8583
900.95	8613
901.069	8701
901.189	8575
901.308	8503
901.427	8393
901.546	8400
901.665	8499
901.784	8530
901.904	8423
902.023	8377
902.141	8317
902.26	8218
902.379	8336
902.498	8191
902.617	8256
902.735	8275
902.854	8229
902.973	8298
903.091	8134
903.21	8176
903.328	8126
903.446	8096
903.565	8096
903.683	8062
903.801	8084
903.919	8180
904.038	8111
904.156	8088
904.274	8058
904.392	8001
904.51	8111
904.627	8046
904.745	8069
904.863	8138
904.981	7906
905.098	7967
905.216	7868
905.334	7940
905.451	7955
905.569	7868
905.686	7932
905.803	7936
905.921	7837
906.038	7902
906.155	7845
906.272	7738
906.389	7761
906.506	7601
906.623	7643
906.74	7605
906.857	7544
906.974	7556
907.091	7693
907.208	7727
907.324	7643
907.441	7597
907.557	7457
907.674	7495
907.79	7422
907.907	7430
908.023	7419
908.139	7426
908.256	7392
908.372	7403
908.488	7430
908.604	7206
908.72	7297
908.836	7301
908.952	7270
909.068	7221
909.184	7320
909.3	7335
909.415	7285
909.531	7358
909.647	7122
909.762	7072
909.878	7152
909.993	7152
910.108	7072
910.224	7107
910.339	7137
910.454	7080
910.57	7008
910.685	6973
910.8	7179
910.915	7110
911.03	7008
911.145	6878
911.259	6897
911.374	6916
911.489	6818
911.604	6810
911.718	6768
911.833	6745
911.947	6631
912.062	6612
912.176	6646
912.291	6711
912.405	6722
912.519	6821
912.633	6886
912.748	6715
912.862	6726
912.976	6650
913.09	6608
913.204	6593
913.318	6525
913.431	6662
913.545	6669
913.659	6726
913.772	6677
913.886	6578
914	6604
914.113	6585
914.226	6650
914.34	6654
914.453	6475
914.566	6593
914.68	6547
914.793	6509
914.906	6445
915.019	6445
915.132	6388
915.245	6448
915.358	6433
915.47	6467
915.583	6464
915.696	6532
915.809	6582
915.921	6547
916.034	6494
916.146	6422
916.259	6448
916.371	6506
916.483	6369
916.595	6361
916.708	6502
916.82	6445
916.932	6414
917.044	6410
917.156	6437
917.268	6308
917.38	6357
917.491	6277
917.603	6365
917.715	6426
917.826	6464
917.938	6350
918.049	6239
918.161	6365
918.272	6452
918.384	6414
918.495	6361
918.606	6296
918.717	6262
918.828	6243
918.939	6296
919.05	6201
919.161	6270
919.272	6076
919.383	6178
919.494	6319
919.604	6437
919.715	6319
919.826	6239
919.936	6247
920.047	6331
920.157	6292
920.267	6448
920.378	6315
920.488	6289
920.598	6445
920.708	6547
920.818	6456
920.928	6528
921.038	6639
921.148	6525
921.258	6369
921.368	6350
921.477	6232
921.587	6155
921.697	6057
921.806	6163
921.916	6102
922.025	6007
922.134	5935
922.244	5904
922.353	5961
922.462	5836
922.571	5805
922.68	5672
922.789	5733
922.898	5703
923.007	5615
923.116	5672
923.224	5722
923.333	5707
923.442	5608
923.55	5608
923.659	5543
923.767	5611
923.876	5608
923.984	5604
924.092	5566
924.201	5562
924.309	5570
924.417	5592
924.525	5497
924.633	5497
924.741	6247
924.849	5368
924.956	5478
925.064	5353
925.172	5292
925.279	5326
925.387	5357
925.494	5379
925.602	5425
925.709	5391
925.816	5284
925.924	5326
926.031	5360
926.138	5311
926.245	5383
926.352	5212
926.459	5296
926.566	5379
926.673	5220
926.779	5181
926.886	5143
926.993	5037
927.099	5037
927.206	4976
927.312	4991
927.419	4987
927.525	4999
927.631	4991
927.737	4927
927.843	4870
927.95	4763
928.056	4828
928.162	4854
928.267	4824
928.373	5311
928.479	4862
928.585	4706
928.69	4733
928.796	4790
928.901	4702
929.007	4596
929.112	4702
929.218	4679
929.323	4645
929.428	4615
929.533	4645
929.638	4538
929.743	4554
929.848	4542
929.953	4577
930.058	4470
930.163	4360
930.267	4360
930.372	4424
930.477	4265
930.581	4451
930.685	4379
930.79	4284
930.894	4299
930.998	4291
931.103	4402
931.207	4169
931.311	4093
931.415	4010
931.519	3953
931.623	3945
