Data from glass_V78500241_1332.txt Node
Date: Wed Sep 01 19:23:43 CST 2021
User: usil
Spectrometer: V785-0024
Trigger mode: 0
Integration Time (sec): 4.000000E-1
Scans to average: 1
Nonlinearity correction enabled: false
Boxcar width: 0
Storing dark spectrum: false
XAxis mode: Wavelengths
Number of Pixels in Spectrum: 1024
>>>>>Begin Spectral Data<<<<<
801.071	3698
801.214	3778
801.356	3686
801.499	3751
801.641	3698
801.783	3785
801.926	3926
802.068	3827
802.211	3918
802.353	3838
802.496	3869
802.638	3896
802.78	3907
802.923	3934
803.065	3888
803.208	3865
803.35	3907
803.492	3918
803.635	3884
803.777	3816
803.919	3918
804.061	4181
804.204	3949
804.346	3964
804.488	3926
804.63	4010
804.773	3972
804.915	4040
805.057	4173
805.199	4074
805.341	4048
805.483	4135
805.626	4120
805.768	4120
805.91	4192
806.052	4234
806.194	4185
806.336	4371
806.478	4211
806.62	4207
806.762	4219
806.904	4253
807.046	4344
807.188	4242
807.33	4177
807.472	4249
807.614	4196
807.756	4299
807.898	4268
808.04	4246
808.182	4287
808.324	4394
808.465	4390
808.607	4440
808.749	4443
808.891	4478
809.033	4546
809.174	4383
809.316	4272
809.458	4238
809.6	4162
809.741	4150
809.883	4150
810.025	4223
810.166	4154
810.308	4204
810.45	4272
810.591	4249
810.733	4303
810.875	4516
811.016	4870
811.158	5151
811.299	5246
811.441	5303
811.582	5056
811.724	4672
811.865	4489
812.007	4455
812.148	4443
812.29	4405
812.431	4447
812.573	4409
812.714	4383
812.855	4371
812.997	4436
813.138	4500
813.279	4394
813.421	4405
813.562	4386
813.703	4356
813.845	4360
813.986	4230
814.127	4200
814.268	4215
814.41	4333
814.551	4234
814.692	4284
814.833	4265
814.974	4329
815.115	4341
815.256	4268
815.397	4242
815.539	4272
815.68	4200
815.821	4249
815.962	4306
816.103	4284
816.244	4265
816.385	4234
816.526	4284
816.666	4173
816.807	4135
816.948	4215
817.089	4211
817.23	4116
817.371	4040
817.512	4048
817.653	4090
817.793	4044
817.934	4051
818.075	4086
818.216	4082
818.356	4090
818.497	4029
818.638	3915
818.778	3934
818.919	3876
819.06	3876
819.2	3934
819.341	3850
819.481	3835
819.622	3880
819.762	4036
819.903	3983
820.043	3892
820.184	3850
820.324	3816
820.465	3930
820.605	3922
820.746	3861
820.886	3800
821.026	3899
821.167	3953
821.307	3956
821.447	3968
821.588	3972
821.728	3979
821.868	3930
822.008	3804
822.149	3945
822.289	3911
822.429	3759
822.569	3759
822.709	3831
822.849	3720
822.99	3740
823.13	3740
823.27	3785
823.41	3728
823.55	3713
823.69	3671
823.83	3762
823.97	3713
824.11	3625
824.25	3599
824.389	3618
824.529	3663
824.669	3671
824.809	3701
824.949	3747
825.089	3743
825.228	3671
825.368	3614
825.508	3549
825.648	3599
825.787	3614
825.927	3637
826.067	3629
826.206	3660
826.346	3732
826.485	3812
826.625	3869
826.765	3930
826.904	3804
827.044	3599
827.183	3542
827.323	3454
827.462	3538
827.601	3458
827.741	3428
827.88	3439
828.02	3382
828.159	3447
828.298	3469
828.437	3568
828.577	3462
828.716	3595
828.855	3526
828.994	3389
829.134	3420
829.273	3393
829.412	3332
829.551	3332
829.69	3389
829.829	3462
829.968	3515
830.107	3420
830.246	3431
830.385	3424
830.524	3359
830.663	3287
830.802	3275
830.941	3218
831.08	3226
831.219	3249
831.357	3329
831.496	3412
831.635	3268
831.774	3214
831.913	3245
832.051	3123
832.19	3176
832.329	3222
832.467	3154
832.606	3112
832.744	3150
832.883	3199
833.022	3226
833.16	3249
833.299	3306
833.437	3313
833.576	3355
833.714	3386
833.852	3462
833.991	3466
834.129	3481
834.267	3443
834.406	3412
834.544	3428
834.682	3428
834.821	3393
834.959	3568
835.097	3443
835.235	3564
835.373	3439
835.511	3469
835.65	3477
835.788	3538
835.926	3405
836.064	3363
836.202	3428
836.34	3603
836.478	3618
836.615	3553
836.753	3618
836.891	3633
837.029	3637
837.167	3568
837.305	3545
837.443	3557
837.58	3519
837.718	3606
837.856	3557
837.993	3534
838.131	3591
838.269	3599
838.406	3618
838.544	3580
838.681	3481
838.819	3443
838.956	3363
839.094	3443
839.231	3466
839.369	3504
839.506	3778
839.643	3637
839.781	3492
839.918	3481
840.055	3542
840.193	3523
840.33	3542
840.467	3557
840.604	3580
840.742	3816
840.879	3542
841.016	3545
841.153	3587
841.29	3770
841.427	3751
841.564	3713
841.701	3755
841.838	3717
841.975	3629
842.112	3717
842.249	3625
842.385	3641
842.522	3797
842.659	3686
842.796	3671
842.933	3728
843.069	3667
843.206	3732
843.343	3812
843.479	3789
843.616	3812
843.752	3694
843.889	3705
844.025	3835
844.162	3717
844.298	3861
844.435	3774
844.571	3751
844.708	3899
844.844	3972
844.98	4032
845.117	3983
845.253	3960
845.389	3903
845.525	3918
845.661	3975
845.798	3926
845.934	3991
846.07	3979
846.206	4074
846.342	4124
846.478	4025
846.614	3972
846.75	3960
846.886	3930
847.022	4036
847.158	4002
847.294	3994
847.429	4017
847.565	3964
847.701	4257
847.837	3846
847.972	3899
848.108	4006
848.244	3956
848.379	3888
848.515	3850
848.65	3808
848.786	3865
848.921	3865
849.057	3937
849.192	3960
849.328	3880
849.463	3918
849.598	3880
849.734	3854
849.869	3835
850.004	3804
850.14	3781
850.275	3781
850.41	3740
850.545	3717
850.68	3800
850.815	3800
850.95	3755
851.085	3934
851.22	3857
851.355	3842
851.49	3781
851.625	3804
851.76	3789
851.895	3747
852.03	3751
852.165	3793
852.299	3816
852.434	3869
852.569	3896
852.703	3892
852.838	3918
852.973	3983
853.107	4010
853.242	3876
853.376	3873
853.511	3816
853.645	3835
853.78	3953
853.914	3934
854.048	3899
854.183	3876
854.317	3945
854.451	4109
854.585	3983
854.72	3937
854.854	4074
854.988	3953
855.122	4017
855.256	3892
855.39	4021
855.524	4128
855.658	4086
855.792	4128
855.926	4154
856.06	4150
856.194	4207
856.327	4135
856.461	4154
856.595	4196
856.729	4196
856.862	4295
856.996	4211
857.13	4310
857.263	4363
857.397	4310
857.53	4333
857.664	4360
857.797	4402
857.931	4440
858.064	4398
858.197	4398
858.331	4428
858.464	4360
858.597	4363
858.731	4447
858.864	4447
858.997	4466
859.13	4538
859.263	4538
859.396	4584
859.529	4569
859.662	4478
859.795	4599
859.928	4596
860.061	4714
860.194	4782
860.327	4668
860.46	4645
860.592	4714
860.725	4748
860.858	4782
860.99	4683
861.123	4736
861.256	4691
861.388	4763
861.521	5520
861.653	4721
861.786	4721
861.918	4706
862.05	4812
862.183	4870
862.315	4946
862.447	4946
862.58	4900
862.712	4797
862.844	4755
862.976	4866
863.108	4896
863.24	5162
863.372	4790
863.504	4915
863.636	4892
863.768	4995
863.9	4946
864.032	4976
864.164	4942
864.296	5022
864.428	5136
864.559	5098
864.691	5105
864.823	5166
864.954	5132
865.086	5178
865.217	5143
865.349	5102
865.48	5098
865.612	5124
865.743	5330
865.875	5216
866.006	5239
866.137	5208
866.269	5280
866.4	5250
866.531	5277
866.662	5239
866.793	5315
866.924	5318
867.055	5318
867.186	5364
867.317	5307
867.448	5273
867.579	5383
867.71	5376
867.841	5322
867.972	5490
868.103	5482
868.233	5490
868.364	5440
868.495	5463
868.625	5733
868.756	5745
868.886	5661
869.017	5760
869.147	5885
869.278	5885
869.408	5802
869.539	5874
869.669	5912
869.799	5897
869.929	5977
870.06	6038
870.19	6209
870.32	6190
870.45	6251
870.58	6296
870.71	6372
870.84	6494
870.97	6399
871.1	6429
871.23	6601
871.36	6703
871.489	6673
871.619	6696
871.749	6787
871.879	6886
872.008	7053
872.138	7000
872.267	6993
872.397	7076
872.526	6985
872.656	7145
872.785	7190
872.915	7293
873.044	7552
873.173	7529
873.303	7597
873.432	7765
873.561	7807
873.69	7917
873.819	8012
873.948	8164
874.077	8195
874.206	8347
874.335	8374
874.464	8682
874.593	8891
874.722	8994
874.851	9127
874.979	9272
875.108	9355
875.237	9408
875.365	9473
875.494	9584
875.623	9846
875.751	9846
875.88	9953
876.008	10097
876.136	10379
876.265	10577
876.393	10687
876.521	10782
876.65	10824
876.778	10854
876.906	10889
877.034	11010
877.162	11121
877.29	11090
877.418	11341
877.546	11387
877.674	11391
877.802	11539
877.93	11486
878.058	11573
878.185	11566
878.313	11649
878.441	11764
878.568	11653
878.696	11786
878.824	11805
878.951	11840
879.079	12064
879.206	12087
879.333	12011
879.461	12083
879.588	12117
879.715	12053
879.842	12205
879.97	12022
880.097	11897
880.224	11908
880.351	11901
880.478	11931
880.605	11840
880.732	11847
880.859	11961
880.986	11813
881.112	11878
881.239	11638
881.366	11718
881.493	11722
881.619	11592
881.746	11467
881.872	11535
881.999	11532
882.125	11467
882.252	11596
882.378	11558
882.505	11551
882.631	11406
882.757	11330
882.883	11360
883.01	11277
883.136	11132
883.262	11185
883.388	11060
883.514	11181
883.64	11201
883.766	11090
883.892	10938
884.018	11014
884.143	11147
884.269	11098
884.395	10869
884.52	10752
884.646	10908
884.772	10721
884.897	10653
885.023	10774
885.148	10679
885.274	10740
885.399	10694
885.524	10664
885.65	10637
885.775	10592
885.9	10634
886.025	10588
886.15	10508
886.275	10504
886.4	10421
886.525	10375
886.65	10394
886.775	10356
886.9	10360
887.025	10512
887.149	10421
887.274	10242
887.399	10196
887.523	10238
887.648	10135
887.773	10120
887.897	10268
888.021	10162
888.146	10188
888.27	10143
888.395	10181
888.519	10249
888.643	10200
888.767	10207
888.891	10082
889.015	10006
889.139	10063
889.263	10040
889.387	10059
889.511	10078
889.635	10154
889.759	10036
889.883	9960
890.006	10010
890.13	10101
890.254	9907
890.377	10002
890.501	9861
890.624	9846
890.748	9797
890.871	9793
890.995	9819
891.118	9751
891.241	9747
891.364	9740
891.488	9854
891.611	9713
891.734	9705
891.857	9759
891.98	9736
892.103	9831
892.226	9736
892.349	9720
892.471	9614
892.594	9614
892.717	9606
892.839	9587
892.962	9682
893.085	9637
893.207	9572
893.33	9477
893.452	9530
893.575	9584
893.697	9534
893.819	9656
893.941	9614
894.064	9477
894.186	9378
894.308	9416
894.43	9606
894.552	9564
894.674	9545
894.796	9348
894.918	9386
895.04	9431
895.161	9416
895.283	9321
895.405	9245
895.526	9241
895.648	9195
895.769	9283
895.891	9302
896.012	9294
896.134	9222
896.255	9188
896.376	9146
896.498	9112
896.619	9154
896.74	9062
896.861	9081
896.982	9241
897.103	9317
897.224	9211
897.345	9036
897.466	9024
897.587	9051
897.708	9081
897.828	9051
897.949	8979
898.07	8887
898.19	8933
898.311	9085
898.431	8937
898.552	8891
898.672	9032
898.792	8895
898.913	8937
899.033	8807
899.153	8766
899.273	8731
899.393	8720
899.513	8754
899.633	8667
899.753	8655
899.873	8674
899.993	8708
900.113	8682
900.232	8739
900.352	8678
900.472	8598
900.591	8587
900.711	8511
900.83	8606
900.95	8686
901.069	8724
901.189	8522
901.308	8404
901.427	8393
901.546	8442
901.665	8507
901.784	8606
901.904	8408
902.023	8415
902.141	8214
902.26	8180
902.379	8267
902.498	8240
902.617	8157
902.735	8324
902.854	8301
902.973	8290
903.091	8176
903.21	8123
903.328	8134
903.446	8126
903.565	8073
903.683	8096
903.801	8031
903.919	8134
904.038	8134
904.156	8062
904.274	8081
904.392	8016
904.51	8081
904.627	7986
904.745	8058
904.863	8126
904.981	7917
905.098	7883
905.216	7856
905.334	7868
905.451	7894
905.569	7913
905.686	8005
905.803	7913
905.921	7841
906.038	7883
906.155	7849
906.272	7738
906.389	7666
906.506	7723
906.623	7643
906.74	7670
906.857	7575
906.974	7628
907.091	7712
907.208	7708
907.324	7590
907.441	7559
907.557	7464
907.674	7472
907.79	7415
907.907	7369
908.023	7476
908.139	7434
908.256	7362
908.372	7422
908.488	7365
908.604	7255
908.72	7263
908.836	7320
908.952	7213
909.068	7244
909.184	7324
909.3	7316
909.415	7278
909.531	7285
909.647	7137
909.762	7126
909.878	7019
909.993	7114
910.108	7080
910.224	7118
910.339	7114
910.454	6958
910.57	6985
910.685	6970
910.8	7145
910.915	7152
911.03	6981
911.145	6977
911.259	6833
911.374	6905
911.489	6867
911.604	6825
911.718	6677
911.833	6738
911.947	6692
912.062	6673
912.176	6719
912.291	6700
912.405	6677
912.519	6810
912.633	6837
912.748	6719
912.862	6677
912.976	6570
913.09	6540
913.204	6623
913.318	6642
913.431	6646
913.545	6623
913.659	6753
913.772	6631
913.886	6578
914	6536
914.113	6597
914.226	6642
914.34	6601
914.453	6483
914.566	6620
914.68	6559
914.793	6509
914.906	6445
915.019	6372
915.132	6338
915.245	6479
915.358	6407
915.47	6414
915.583	6490
915.696	6502
915.809	6494
915.921	6559
916.034	6441
916.146	6448
916.259	6467
916.371	6464
916.483	6471
916.595	6407
916.708	6376
916.82	6486
916.932	6380
917.044	6448
917.156	6414
917.268	6300
917.38	6331
917.491	6304
917.603	6353
917.715	6441
917.826	6448
917.938	6270
918.049	6266
918.161	6350
918.272	6426
918.384	6414
918.495	6353
918.606	6247
918.717	6194
918.828	6239
918.939	6292
919.05	6213
919.161	6266
919.272	6121
919.383	6098
919.494	6319
919.604	6448
919.715	6331
919.826	6178
919.936	6281
920.047	6327
920.157	6296
920.267	6502
920.378	6361
920.488	6281
920.598	6513
920.708	6547
920.818	6433
920.928	6441
921.038	6597
921.148	6616
921.258	6361
921.368	6239
921.477	6258
921.587	6190
921.697	6091
921.806	6167
921.916	6064
922.025	5961
922.134	5916
922.244	5901
922.353	6007
922.462	5863
922.571	5836
922.68	5695
922.789	5745
922.898	5672
923.007	5661
923.116	5699
923.224	5646
923.333	5714
923.442	5577
923.55	5585
923.659	5623
923.767	5672
923.876	5551
923.984	5573
924.092	5501
924.201	5592
924.309	5547
924.417	5592
924.525	5501
924.633	5478
924.741	6308
924.849	5402
924.956	5463
925.064	5292
925.172	5284
925.279	5357
925.387	5360
925.494	5299
925.602	5440
925.709	5364
925.816	5330
925.924	5284
926.031	5406
926.138	5261
926.245	5307
926.352	5250
926.459	5334
926.566	5353
926.673	5261
926.779	5143
926.886	5090
926.993	5022
927.099	4987
927.206	5010
927.312	4957
927.419	5018
927.525	4999
927.631	4965
927.737	4908
927.843	4881
927.95	4790
928.056	4847
928.162	4828
928.267	4930
928.373	5372
928.479	4881
928.585	4721
928.69	4748
928.796	4778
928.901	4668
929.007	4618
929.112	4675
929.218	4618
929.323	4550
929.428	4599
929.533	4687
929.638	4588
929.743	4500
929.848	4561
929.953	4470
930.058	4459
930.163	4360
930.267	4398
930.372	4459
930.477	4356
930.581	4508
930.685	4371
930.79	4291
930.894	4299
930.998	4272
931.103	4405
931.207	4131
931.311	4086
931.415	4036
931.519	3956
931.623	3953
