Data from glass_V78500241_746.txt Node
Date: Wed Sep 01 19:19:40 CST 2021
User: usil
Spectrometer: V785-0024
Trigger mode: 0
Integration Time (sec): 4.000000E-1
Scans to average: 1
Nonlinearity correction enabled: false
Boxcar width: 0
Storing dark spectrum: false
XAxis mode: Wavelengths
Number of Pixels in Spectrum: 1024
>>>>>Begin Spectral Data<<<<<
801.071	3747
801.214	3747
801.356	3709
801.499	3755
801.641	3686
801.783	3743
801.926	3884
802.068	3854
802.211	3850
802.353	3918
802.496	3865
802.638	3876
802.78	3956
802.923	3941
803.065	3888
803.208	3911
803.35	3907
803.492	3915
803.635	3941
803.777	3793
803.919	3861
804.061	4158
804.204	3983
804.346	3964
804.488	3937
804.63	4074
804.773	4036
804.915	4044
805.057	4135
805.199	4059
805.341	4074
805.483	4143
805.626	4200
805.768	4139
805.91	4230
806.052	4261
806.194	4257
806.336	4398
806.478	4234
806.62	4249
806.762	4223
806.904	4242
807.046	4341
807.188	4265
807.33	4173
807.472	4265
807.614	4185
807.756	4295
807.898	4268
808.04	4230
808.182	4287
808.324	4344
808.465	4394
808.607	4481
808.749	4474
808.891	4459
809.033	4546
809.174	4409
809.316	4318
809.458	4265
809.6	4181
809.741	4147
809.883	4105
810.025	4200
810.166	4219
810.308	4204
810.45	4276
810.591	4227
810.733	4325
810.875	4516
811.016	4835
811.158	5185
811.299	5288
811.441	5307
811.582	5113
811.724	4702
811.865	4519
812.007	4500
812.148	4459
812.29	4436
812.431	4394
812.573	4443
812.714	4352
812.855	4417
812.997	4447
813.138	4500
813.279	4413
813.421	4409
813.562	4360
813.703	4314
813.845	4341
813.986	4306
814.127	4188
814.268	4272
814.41	4299
814.551	4280
814.692	4314
814.833	4295
814.974	4333
815.115	4352
815.256	4234
815.397	4291
815.539	4272
815.68	4219
815.821	4177
815.962	4333
816.103	4276
816.244	4215
816.385	4242
816.526	4280
816.666	4230
816.807	4074
816.948	4200
817.089	4200
817.23	4101
817.371	4101
817.512	4116
817.653	4082
817.793	4059
817.934	4071
818.075	4082
818.216	4120
818.356	4109
818.497	4025
818.638	3873
818.778	3907
818.919	3945
819.06	3846
819.2	3937
819.341	3865
819.481	3880
819.622	3911
819.762	4044
819.903	3956
820.043	3857
820.184	3838
820.324	3831
820.465	3926
820.605	3827
820.746	3880
820.886	3823
821.026	3930
821.167	3934
821.307	4010
821.447	3975
821.588	3968
821.728	3975
821.868	3945
822.008	3876
822.149	3892
822.289	3945
822.429	3793
822.569	3766
822.709	3819
822.849	3724
822.99	3705
823.13	3819
823.27	3770
823.41	3732
823.55	3751
823.69	3682
823.83	3747
823.97	3709
824.11	3629
824.25	3625
824.389	3667
824.529	3709
824.669	3644
824.809	3717
824.949	3770
825.089	3759
825.228	3720
825.368	3591
825.508	3568
825.648	3576
825.787	3595
825.927	3652
826.067	3603
826.206	3656
826.346	3747
826.485	3827
826.625	3857
826.765	3934
826.904	3850
827.044	3625
827.183	3545
827.323	3462
827.462	3469
827.601	3447
827.741	3435
827.88	3466
828.02	3382
828.159	3469
828.298	3488
828.437	3580
828.577	3504
828.716	3629
828.855	3477
828.994	3348
829.134	3405
829.273	3397
829.412	3363
829.551	3378
829.69	3351
829.829	3420
829.968	3530
830.107	3443
830.246	3485
830.385	3393
830.524	3386
830.663	3329
830.802	3279
830.941	3226
831.08	3203
831.219	3310
831.357	3306
831.496	3447
831.635	3287
831.774	3214
831.913	3218
832.051	3165
832.19	3203
832.329	3199
832.467	3173
832.606	3119
832.744	3188
832.883	3203
833.022	3214
833.16	3245
833.299	3306
833.437	3321
833.576	3420
833.714	3393
833.852	3462
833.991	3447
834.129	3488
834.267	3458
834.406	3401
834.544	3420
834.682	3450
834.821	3420
834.959	3580
835.097	3428
835.235	3580
835.373	3523
835.511	3523
835.65	3458
835.788	3526
835.926	3389
836.064	3450
836.202	3409
836.34	3629
836.478	3610
836.615	3568
836.753	3599
836.891	3679
837.029	3637
837.167	3584
837.305	3618
837.443	3542
837.58	3526
837.718	3622
837.856	3542
837.993	3595
838.131	3633
838.269	3580
838.406	3580
838.544	3599
838.681	3443
838.819	3466
838.956	3409
839.094	3386
839.231	3481
839.369	3530
839.506	3755
839.643	3667
839.781	3477
839.918	3439
840.055	3519
840.193	3519
840.33	3511
840.467	3561
840.604	3641
840.742	3812
840.879	3587
841.016	3542
841.153	3603
841.29	3751
841.427	3694
841.564	3694
841.701	3732
841.838	3709
841.975	3690
842.112	3720
842.249	3682
842.385	3652
842.522	3846
842.659	3644
842.796	3682
842.933	3694
843.069	3709
843.206	3705
843.343	3896
843.479	3755
843.616	3850
843.752	3701
843.889	3720
844.025	3876
844.162	3717
844.298	3850
844.435	3816
844.571	3762
844.708	3926
844.844	3983
844.98	4025
845.117	4059
845.253	3941
845.389	3949
845.525	3987
845.661	3998
845.798	3964
845.934	4032
846.07	3960
846.206	4112
846.342	4131
846.478	4048
846.614	3979
846.75	3930
846.886	3911
847.022	4048
847.158	3987
847.294	3991
847.429	3953
847.565	3975
847.701	4253
847.837	3922
847.972	3835
848.108	4013
848.244	4002
848.379	3922
848.515	3846
848.65	3808
848.786	3838
848.921	3918
849.057	3922
849.192	3911
849.328	3941
849.463	3926
849.598	3888
849.734	3892
849.869	3880
850.004	3793
850.14	3808
850.275	3770
850.41	3766
850.545	3740
850.68	3781
850.815	3812
850.95	3827
851.085	3918
851.22	3911
851.355	3808
851.49	3808
851.625	3812
851.76	3759
851.895	3743
852.03	3743
852.165	3823
852.299	3835
852.434	3915
852.569	3899
852.703	3888
852.838	3930
852.973	4036
853.107	4025
853.242	3915
853.376	3907
853.511	3766
853.645	3869
853.78	3945
853.914	3918
854.048	3907
854.183	3907
854.317	3979
854.451	4055
854.585	3994
854.72	3987
854.854	4040
854.988	3907
855.122	4021
855.256	3953
855.39	4036
855.524	4128
855.658	4131
855.792	4086
855.926	4181
856.06	4135
856.194	4223
856.327	4147
856.461	4135
856.595	4150
856.729	4200
856.862	4272
856.996	4249
857.13	4344
857.263	4333
857.397	4367
857.53	4299
857.664	4421
857.797	4379
857.931	4386
858.064	4409
858.197	4462
858.331	4363
858.464	4405
858.597	4360
858.731	4470
858.864	4451
858.997	4466
859.13	4531
859.263	4550
859.396	4592
859.529	4580
859.662	4558
859.795	4508
859.928	4558
860.061	4702
860.194	4759
860.327	4740
860.46	4679
860.592	4717
860.725	4778
860.858	4828
860.99	4729
861.123	4717
861.256	4725
861.388	4733
861.521	5398
861.653	4752
861.786	4729
861.918	4824
862.05	4778
862.183	4877
862.315	4900
862.447	4949
862.58	4938
862.712	4839
862.844	4763
862.976	4873
863.108	4885
863.24	5277
863.372	4862
863.504	4858
863.636	4885
863.768	4965
863.9	4980
864.032	4946
864.164	4980
864.296	5010
864.428	5098
864.559	5121
864.691	5128
864.823	5178
864.954	5151
865.086	5136
865.217	5140
865.349	5124
865.48	5151
865.612	5178
865.743	5303
865.875	5235
866.006	5151
866.137	5258
866.269	5250
866.4	5284
866.531	5246
866.662	5269
866.793	5296
866.924	5334
867.055	5326
867.186	5383
867.317	5391
867.448	5288
867.579	5376
867.71	5376
867.841	5383
867.972	5425
868.103	5520
868.233	5471
868.364	5509
868.495	5562
868.625	5688
868.756	5783
868.886	5611
869.017	5718
869.147	5870
869.278	5855
869.408	5802
869.539	5832
869.669	5965
869.799	5954
869.929	6015
870.06	6030
870.19	6194
870.32	6209
870.45	6289
870.58	6319
870.71	6445
870.84	6460
870.97	6388
871.1	6509
871.23	6631
871.36	6650
871.489	6654
871.619	6715
871.749	6829
871.879	6901
872.008	6977
872.138	7023
872.267	7031
872.397	6981
872.526	7015
872.656	7122
872.785	7232
872.915	7430
873.044	7533
873.173	7662
873.303	7689
873.432	7746
873.561	7852
873.69	7932
873.819	7951
873.948	8225
874.077	8221
874.206	8328
874.335	8442
874.464	8625
874.593	8826
874.722	8921
874.851	9131
874.979	9218
875.108	9408
875.237	9412
875.365	9359
875.494	9584
875.623	9838
875.751	9800
875.88	9983
876.008	10067
876.136	10234
876.265	10569
876.393	10763
876.521	10733
876.65	10767
876.778	10839
876.906	10942
877.034	11006
877.162	11143
877.29	11128
877.418	11296
877.546	11345
877.674	11444
877.802	11524
877.93	11532
878.058	11589
878.185	11570
878.313	11615
878.441	11771
878.568	11646
878.696	11828
878.824	11927
878.951	12007
879.079	12034
879.206	12144
879.333	12102
879.461	12034
879.588	12102
879.715	12186
879.842	12243
879.97	12136
880.097	11813
880.224	11866
880.351	11855
880.478	11935
880.605	11824
880.732	11946
880.859	12022
880.986	11866
881.112	11893
881.239	11794
881.366	11752
881.493	11581
881.619	11596
881.746	11539
881.872	11573
881.999	11528
882.125	11482
882.252	11558
882.378	11493
882.505	11611
882.631	11410
882.757	11315
882.883	11398
883.01	11201
883.136	11239
883.262	11109
883.388	11109
883.514	11208
883.64	11109
883.766	11109
883.892	11086
884.018	10995
884.143	11098
884.269	11048
884.395	10908
884.52	10831
884.646	10771
884.772	10778
884.897	10679
885.023	10694
885.148	10759
885.274	10702
885.399	10710
885.524	10645
885.65	10645
885.775	10664
885.9	10607
886.025	10607
886.15	10577
886.275	10417
886.4	10371
886.525	10432
886.65	10360
886.775	10276
886.9	10519
887.025	10500
887.149	10363
887.274	10200
887.399	10227
887.523	10188
887.648	10147
887.773	10067
887.897	10344
888.021	10257
888.146	10158
888.27	10238
888.395	10223
888.519	10227
888.643	10219
888.767	10169
888.891	10120
889.015	10059
889.139	10074
889.263	10071
889.387	10036
889.511	10097
889.635	10071
889.759	9979
889.883	9960
890.006	10032
890.13	10010
890.254	9937
890.377	10044
890.501	9892
890.624	9945
890.748	9888
890.871	9793
890.995	9781
891.118	9709
891.241	9686
891.364	9766
891.488	9808
891.611	9724
891.734	9781
891.857	9865
891.98	9705
892.103	9774
892.226	9766
892.349	9667
892.471	9564
892.594	9622
892.717	9538
892.839	9663
892.962	9633
893.085	9610
893.207	9572
893.33	9515
893.452	9534
893.575	9701
893.697	9572
893.819	9622
893.941	9648
894.064	9690
894.186	9454
894.308	9458
894.43	9511
894.552	9504
894.674	9477
894.796	9443
894.918	9386
895.04	9313
895.161	9477
895.283	9378
895.405	9249
895.526	9306
895.648	9207
895.769	9176
895.891	9249
896.012	9317
896.134	9233
896.255	9131
896.376	9116
896.498	9169
896.619	9119
896.74	9127
896.861	9077
896.982	9348
897.103	9420
897.224	9184
897.345	9085
897.466	8998
897.587	9058
897.708	9055
897.828	9036
897.949	8967
898.07	8819
898.19	8895
898.311	9058
898.431	8929
898.552	9001
898.672	9047
898.792	8941
898.913	8906
899.033	8754
899.153	8815
899.273	8663
899.393	8705
899.513	8762
899.633	8788
899.753	8758
899.873	8705
899.993	8796
900.113	8807
900.232	8743
900.352	8708
900.472	8667
900.591	8518
900.711	8514
900.83	8556
900.95	8689
901.069	8701
901.189	8564
901.308	8465
901.427	8419
901.546	8450
901.665	8495
901.784	8495
901.904	8396
902.023	8355
902.141	8259
902.26	8221
902.379	8263
902.498	8252
902.617	8218
902.735	8286
902.854	8256
902.973	8263
903.091	8115
903.21	8183
903.328	8096
903.446	8103
903.565	8024
903.683	8138
903.801	8088
903.919	8134
904.038	8100
904.156	8058
904.274	8111
904.392	8058
904.51	8005
904.627	8024
904.745	8130
904.863	8058
904.981	7928
905.098	7864
905.216	7868
905.334	7932
905.451	7906
905.569	7860
905.686	7974
905.803	7928
905.921	7822
906.038	7871
906.155	7799
906.272	7761
906.389	7734
906.506	7655
906.623	7696
906.74	7632
906.857	7563
906.974	7575
907.091	7696
907.208	7814
907.324	7693
907.441	7571
907.557	7426
907.674	7434
907.79	7362
907.907	7476
908.023	7460
908.139	7460
908.256	7426
908.372	7373
908.488	7377
908.604	7274
908.72	7327
908.836	7228
908.952	7293
909.068	7343
909.184	7365
909.3	7194
909.415	7308
909.531	7228
909.647	7122
909.762	7152
909.878	7076
909.993	7183
910.108	7103
910.224	7061
910.339	7088
910.454	6973
910.57	7027
910.685	6977
910.8	7217
910.915	7065
911.03	7042
911.145	6909
911.259	6924
911.374	6951
911.489	6798
911.604	6806
911.718	6745
911.833	6707
911.947	6608
912.062	6639
912.176	6677
912.291	6696
912.405	6696
912.519	6833
912.633	6795
912.748	6798
912.862	6760
912.976	6566
913.09	6578
913.204	6662
913.318	6555
913.431	6654
913.545	6688
913.659	6730
913.772	6646
913.886	6627
914	6532
914.113	6642
914.226	6730
914.34	6585
914.453	6448
914.566	6654
914.68	6570
914.793	6551
914.906	6410
915.019	6471
915.132	6372
915.245	6437
915.358	6448
915.47	6490
915.583	6483
915.696	6498
915.809	6582
915.921	6540
916.034	6452
916.146	6380
916.259	6391
916.371	6502
916.483	6448
916.595	6403
916.708	6388
916.82	6372
916.932	6407
917.044	6426
917.156	6399
917.268	6308
917.38	6338
917.491	6353
917.603	6357
917.715	6399
917.826	6429
917.938	6304
918.049	6262
918.161	6369
918.272	6418
918.384	6494
918.495	6296
918.606	6243
918.717	6232
918.828	6266
918.939	6285
919.05	6224
919.161	6175
919.272	6110
919.383	6098
919.494	6315
919.604	6498
919.715	6205
919.826	6243
919.936	6311
920.047	6380
920.157	6266
920.267	6452
920.378	6342
920.488	6251
920.598	6471
920.708	6540
920.818	6464
920.928	6445
921.038	6639
921.148	6627
921.258	6422
921.368	6281
921.477	6205
921.587	6171
921.697	6057
921.806	6148
921.916	6091
922.025	5923
922.134	5863
922.244	5927
922.353	5939
922.462	5859
922.571	5832
922.68	5657
922.789	5676
922.898	5722
923.007	5668
923.116	5752
923.224	5726
923.333	5668
923.442	5596
923.55	5589
923.659	5638
923.767	5676
923.876	5547
923.984	5551
924.092	5501
924.201	5592
924.309	5608
924.417	5554
924.525	5505
924.633	5459
924.741	6095
924.849	5353
924.956	5490
925.064	5425
925.172	5326
925.279	5330
925.387	5353
925.494	5364
925.602	5482
925.709	5425
925.816	5307
925.924	5334
926.031	5402
926.138	5303
926.245	5345
926.352	5246
926.459	5307
926.566	5311
926.673	5254
926.779	5162
926.886	5064
926.993	5052
927.099	5022
927.206	4949
927.312	4930
927.419	5060
927.525	5045
927.631	5018
927.737	4927
927.843	4820
927.95	4816
928.056	4831
928.162	4877
928.267	4828
928.373	5387
928.479	4854
928.585	4767
928.69	4763
928.796	4801
928.901	4687
929.007	4599
929.112	4656
929.218	4622
929.323	4611
929.428	4615
929.533	4653
929.638	4561
929.743	4554
929.848	4615
929.953	4516
930.058	4470
930.163	4371
930.267	4363
930.372	4424
930.477	4363
930.581	4478
930.685	4405
930.79	4291
930.894	4291
930.998	4249
931.103	4440
931.207	4169
931.311	4067
931.415	4055
931.519	3949
931.623	3953
