Data from glass_V78500241_1302.txt Node
Date: Wed Sep 01 19:23:31 CST 2021
User: usil
Spectrometer: V785-0024
Trigger mode: 0
Integration Time (sec): 4.000000E-1
Scans to average: 1
Nonlinearity correction enabled: false
Boxcar width: 0
Storing dark spectrum: false
XAxis mode: Wavelengths
Number of Pixels in Spectrum: 1024
>>>>>Begin Spectral Data<<<<<
801.071	3751
801.214	3747
801.356	3686
801.499	3720
801.641	3728
801.783	3812
801.926	3903
802.068	3865
802.211	3857
802.353	3903
802.496	3865
802.638	3876
802.78	3941
802.923	3892
803.065	3865
803.208	3865
803.35	3854
803.492	3899
803.635	3918
803.777	3793
803.919	3922
804.061	4211
804.204	3972
804.346	3918
804.488	3941
804.63	4063
804.773	4006
804.915	4021
805.057	4166
805.199	4071
805.341	4112
805.483	4124
805.626	4131
805.768	4128
805.91	4211
806.052	4234
806.194	4166
806.336	4383
806.478	4234
806.62	4169
806.762	4185
806.904	4242
807.046	4291
807.188	4219
807.33	4147
807.472	4242
807.614	4204
807.756	4268
807.898	4246
808.04	4196
808.182	4299
808.324	4303
808.465	4383
808.607	4443
808.749	4500
808.891	4500
809.033	4497
809.174	4394
809.316	4261
809.458	4242
809.6	4147
809.741	4139
809.883	4109
810.025	4192
810.166	4173
810.308	4242
810.45	4246
810.591	4234
810.733	4291
810.875	4531
811.016	4839
811.158	5132
811.299	5273
811.441	5288
811.582	5052
811.724	4717
811.865	4497
812.007	4451
812.148	4493
812.29	4432
812.431	4394
812.573	4417
812.714	4398
812.855	4447
812.997	4459
813.138	4504
813.279	4421
813.421	4394
813.562	4383
813.703	4299
813.845	4325
813.986	4242
814.127	4219
814.268	4223
814.41	4280
814.551	4276
814.692	4394
814.833	4280
814.974	4303
815.115	4398
815.256	4314
815.397	4261
815.539	4310
815.68	4204
815.821	4196
815.962	4318
816.103	4310
816.244	4234
816.385	4242
816.526	4276
816.666	4249
816.807	4116
816.948	4139
817.089	4162
817.23	4124
817.371	4059
817.512	4040
817.653	4078
817.793	3983
817.934	4063
818.075	4090
818.216	4097
818.356	4101
818.497	3968
818.638	3903
818.778	3926
818.919	3888
819.06	3884
819.2	3903
819.341	3831
819.481	3880
819.622	3922
819.762	4032
819.903	3930
820.043	3880
820.184	3888
820.324	3831
820.465	3857
820.605	3888
820.746	3892
820.886	3793
821.026	3926
821.167	3953
821.307	3983
821.447	3987
821.588	3934
821.728	3956
821.868	3972
822.008	3899
822.149	3930
822.289	3888
822.429	3789
822.569	3778
822.709	3816
822.849	3762
822.99	3717
823.13	3740
823.27	3770
823.41	3709
823.55	3755
823.69	3755
823.83	3720
823.97	3747
824.11	3572
824.25	3610
824.389	3633
824.529	3682
824.669	3603
824.809	3679
824.949	3732
825.089	3705
825.228	3694
825.368	3606
825.508	3587
825.648	3568
825.787	3622
825.927	3652
826.067	3603
826.206	3682
826.346	3781
826.485	3804
826.625	3899
826.765	3953
826.904	3842
827.044	3625
827.183	3515
827.323	3485
827.462	3511
827.601	3389
827.741	3409
827.88	3420
828.02	3351
828.159	3443
828.298	3515
828.437	3526
828.577	3454
828.716	3614
828.855	3507
828.994	3416
829.134	3348
829.273	3382
829.412	3340
829.551	3325
829.69	3370
829.829	3454
829.968	3507
830.107	3401
830.246	3428
830.385	3382
830.524	3363
830.663	3321
830.802	3241
830.941	3226
831.08	3207
831.219	3268
831.357	3275
831.496	3431
831.635	3211
831.774	3199
831.913	3211
832.051	3142
832.19	3165
832.329	3233
832.467	3131
832.606	3150
832.744	3165
832.883	3157
833.022	3165
833.16	3294
833.299	3321
833.437	3336
833.576	3393
833.714	3405
833.852	3462
833.991	3477
834.129	3500
834.267	3466
834.406	3382
834.544	3401
834.682	3435
834.821	3416
834.959	3595
835.097	3439
835.235	3584
835.373	3488
835.511	3500
835.65	3477
835.788	3504
835.926	3374
836.064	3382
836.202	3412
836.34	3591
836.478	3629
836.615	3504
836.753	3572
836.891	3641
837.029	3633
837.167	3584
837.305	3564
837.443	3526
837.58	3507
837.718	3622
837.856	3580
837.993	3553
838.131	3599
838.269	3553
838.406	3557
838.544	3564
838.681	3477
838.819	3504
838.956	3409
839.094	3405
839.231	3492
839.369	3511
839.506	3747
839.643	3629
839.781	3481
839.918	3469
840.055	3530
840.193	3523
840.33	3538
840.467	3587
840.604	3603
840.742	3797
840.879	3553
841.016	3564
841.153	3599
841.29	3740
841.427	3724
841.564	3759
841.701	3717
841.838	3682
841.975	3682
842.112	3701
842.249	3644
842.385	3610
842.522	3831
842.659	3679
842.796	3656
842.933	3667
843.069	3774
843.206	3690
843.343	3812
843.479	3778
843.616	3842
843.752	3705
843.889	3667
844.025	3861
844.162	3732
844.298	3857
844.435	3789
844.571	3789
844.708	3926
844.844	3975
844.98	3998
845.117	4040
845.253	3930
845.389	3926
845.525	3945
845.661	3945
845.798	3915
845.934	4021
846.07	3907
846.206	4055
846.342	4109
846.478	4097
846.614	3972
846.75	3915
846.886	3937
847.022	4029
847.158	3972
847.294	4017
847.429	4036
847.565	4013
847.701	4196
847.837	3922
847.972	3884
848.108	3960
848.244	3945
848.379	3873
848.515	3812
848.65	3854
848.786	3857
848.921	3896
849.057	3968
849.192	3934
849.328	3911
849.463	3949
849.598	3911
849.734	3865
849.869	3789
850.004	3774
850.14	3797
850.275	3812
850.41	3724
850.545	3781
850.68	3819
850.815	3838
850.95	3789
851.085	3941
851.22	3903
851.355	3827
851.49	3785
851.625	3778
851.76	3789
851.895	3747
852.03	3736
852.165	3793
852.299	3869
852.434	3918
852.569	3888
852.703	3888
852.838	3934
852.973	3994
853.107	3994
853.242	3865
853.376	3869
853.511	3778
853.645	3842
853.78	3960
853.914	3896
854.048	3937
854.183	3876
854.317	3983
854.451	4036
854.585	3956
854.72	3953
854.854	4036
854.988	3945
855.122	4006
855.256	3926
855.39	3998
855.524	4124
855.658	4082
855.792	4120
855.926	4188
856.06	4173
856.194	4169
856.327	4120
856.461	4116
856.595	4185
856.729	4154
856.862	4287
856.996	4242
857.13	4318
857.263	4333
857.397	4379
857.53	4261
857.664	4337
857.797	4352
857.931	4375
858.064	4375
858.197	4493
858.331	4451
858.464	4402
858.597	4337
858.731	4428
858.864	4493
858.997	4466
859.13	4561
859.263	4516
859.396	4561
859.529	4535
859.662	4523
859.795	4504
859.928	4596
860.061	4725
860.194	4752
860.327	4653
860.46	4626
860.592	4790
860.725	4782
860.858	4778
860.99	4683
861.123	4702
861.256	4679
861.388	4752
861.521	5395
861.653	4725
861.786	4721
861.918	4710
862.05	4793
862.183	4835
862.315	4873
862.447	4957
862.58	4881
862.712	4831
862.844	4793
862.976	4870
863.108	4862
863.24	5204
863.372	4824
863.504	4911
863.636	4915
863.768	4976
863.9	5014
864.032	4938
864.164	5010
864.296	5033
864.428	5132
864.559	5102
864.691	5136
864.823	5181
864.954	5079
865.086	5132
865.217	5189
865.349	5159
865.48	5109
865.612	5178
865.743	5334
865.875	5212
866.006	5193
866.137	5273
866.269	5197
866.4	5231
866.531	5239
866.662	5227
866.793	5269
866.924	5250
867.055	5349
867.186	5364
867.317	5296
867.448	5337
867.579	5349
867.71	5398
867.841	5383
867.972	5440
868.103	5433
868.233	5539
868.364	5516
868.495	5570
868.625	5649
868.756	5836
868.886	5600
869.017	5733
869.147	5855
869.278	5859
869.408	5844
869.539	5817
869.669	5954
869.799	5954
869.929	5996
870.06	6072
870.19	6175
870.32	6213
870.45	6289
870.58	6384
870.71	6445
870.84	6479
870.97	6422
871.1	6448
871.23	6642
871.36	6639
871.489	6642
871.619	6707
871.749	6814
871.879	6886
872.008	6951
872.138	6916
872.267	6928
872.397	6970
872.526	6981
872.656	7084
872.785	7213
872.915	7350
873.044	7480
873.173	7563
873.303	7624
873.432	7693
873.561	7833
873.69	7932
873.819	8005
873.948	8153
874.077	8328
874.206	8301
874.335	8476
874.464	8621
874.593	8842
874.722	8960
874.851	9127
874.979	9230
875.108	9412
875.237	9370
875.365	9443
875.494	9622
875.623	9831
875.751	9793
875.88	10025
876.008	10204
876.136	10272
876.265	10569
876.393	10698
876.521	10759
876.65	10790
876.778	10828
876.906	10976
877.034	10976
877.162	11109
877.29	11201
877.418	11299
877.546	11341
877.674	11436
877.802	11528
877.93	11482
878.058	11585
878.185	11634
878.313	11661
878.441	11775
878.568	11668
878.696	11805
878.824	11828
878.951	11920
879.079	12030
879.206	12163
879.333	12011
879.461	11984
879.588	12098
879.715	12136
879.842	12319
879.97	12095
880.097	11817
880.224	11965
880.351	11870
880.478	11954
880.605	11843
880.732	11790
880.859	11996
880.986	11863
881.112	11821
881.239	11714
881.366	11684
881.493	11630
881.619	11535
881.746	11551
881.872	11608
881.999	11486
882.125	11467
882.252	11539
882.378	11474
882.505	11573
882.631	11345
882.757	11269
882.883	11356
883.01	11254
883.136	11254
883.262	11147
883.388	11143
883.514	11185
883.64	11185
883.766	11109
883.892	11033
884.018	10984
884.143	11029
884.269	11124
884.395	10782
884.52	10660
884.646	10793
884.772	10710
884.897	10736
885.023	10694
885.148	10778
885.274	10824
885.399	10736
885.524	10573
885.65	10519
885.775	10561
885.9	10607
886.025	10588
886.15	10527
886.275	10405
886.4	10413
886.525	10390
886.65	10375
886.775	10291
886.9	10451
887.025	10451
887.149	10390
887.274	10192
887.399	10101
887.523	10227
887.648	10147
887.773	10181
887.897	10314
888.021	10200
888.146	10105
888.27	10276
888.395	10253
888.519	10086
888.643	10135
888.767	10173
888.891	10071
889.015	10025
889.139	10120
889.263	9975
889.387	10048
889.511	10090
889.635	10074
889.759	9937
889.883	10006
890.006	10025
890.13	10055
890.254	9968
890.377	9960
890.501	9941
890.624	9934
890.748	9934
890.871	9785
890.995	9797
891.118	9633
891.241	9667
891.364	9755
891.488	9846
891.611	9793
891.734	9679
891.857	9770
891.98	9736
892.103	9797
892.226	9762
892.349	9679
892.471	9538
892.594	9633
892.717	9644
892.839	9618
892.962	9618
893.085	9663
893.207	9671
893.33	9515
893.452	9557
893.575	9652
893.697	9458
893.819	9595
893.941	9591
894.064	9614
894.186	9523
894.308	9412
894.43	9557
894.552	9538
894.674	9523
894.796	9340
894.918	9336
895.04	9283
895.161	9397
895.283	9367
895.405	9184
895.526	9245
895.648	9173
895.769	9260
895.891	9291
896.012	9329
896.134	9222
896.255	9230
896.376	9188
896.498	9089
896.619	9077
896.74	9104
896.861	9058
896.982	9283
897.103	9302
897.224	9245
897.345	9028
897.466	9028
897.587	9070
897.708	9138
897.828	9036
897.949	8963
898.07	8849
898.19	8929
898.311	9055
898.431	8880
898.552	8902
898.672	8979
898.792	8967
898.913	8899
899.033	8807
899.153	8777
899.273	8686
899.393	8735
899.513	8746
899.633	8735
899.753	8773
899.873	8686
899.993	8686
900.113	8663
900.232	8750
900.352	8670
900.472	8651
900.591	8587
900.711	8587
900.83	8495
900.95	8731
901.069	8720
901.189	8598
901.308	8476
901.427	8389
901.546	8400
901.665	8507
901.784	8499
901.904	8408
902.023	8332
902.141	8282
902.26	8248
902.379	8248
902.498	8195
902.617	8142
902.735	8336
902.854	8351
902.973	8309
903.091	8161
903.21	8183
903.328	8145
903.446	8077
903.565	8020
903.683	8058
903.801	8069
903.919	8039
904.038	8172
904.156	8012
904.274	8107
904.392	8073
904.51	8031
904.627	7997
904.745	8100
904.863	8065
904.981	7947
905.098	7826
905.216	7902
905.334	7906
905.451	7963
905.569	7837
905.686	7890
905.803	7906
905.921	7841
906.038	7898
906.155	7757
906.272	7674
906.389	7772
906.506	7647
906.623	7666
906.74	7647
906.857	7578
906.974	7624
907.091	7601
907.208	7704
907.324	7655
907.441	7666
907.557	7441
907.674	7472
907.79	7407
907.907	7384
908.023	7514
908.139	7320
908.256	7373
908.372	7403
908.488	7377
908.604	7278
908.72	7270
908.836	7346
908.952	7289
909.068	7255
909.184	7324
909.3	7244
909.415	7274
909.531	7266
909.647	7110
909.762	7145
909.878	7069
909.993	7183
910.108	7126
910.224	7095
910.339	7160
910.454	7015
910.57	7023
910.685	6989
910.8	7209
910.915	7126
911.03	7015
911.145	6951
911.259	6741
911.374	6920
911.489	6871
911.604	6787
911.718	6726
911.833	6711
911.947	6662
912.062	6612
912.176	6734
912.291	6711
912.405	6726
912.519	6882
912.633	6840
912.748	6650
912.862	6722
912.976	6616
913.09	6570
913.204	6604
913.318	6646
913.431	6681
913.545	6604
913.659	6768
913.772	6688
913.886	6585
914	6566
914.113	6623
914.226	6585
914.34	6677
914.453	6479
914.566	6601
914.68	6551
914.793	6566
914.906	6361
915.019	6376
915.132	6384
915.245	6418
915.358	6445
915.47	6506
915.583	6456
915.696	6509
915.809	6498
915.921	6555
916.034	6452
916.146	6441
916.259	6410
916.371	6513
916.483	6433
916.595	6403
916.708	6437
916.82	6403
916.932	6380
917.044	6365
917.156	6445
917.268	6327
917.38	6304
917.491	6270
917.603	6353
917.715	6391
917.826	6429
917.938	6414
918.049	6213
918.161	6410
918.272	6437
918.384	6452
918.495	6308
918.606	6311
918.717	6213
918.828	6311
918.939	6319
919.05	6194
919.161	6201
919.272	6114
919.383	6175
919.494	6331
919.604	6445
919.715	6327
919.826	6235
919.936	6308
920.047	6281
920.157	6270
920.267	6433
920.378	6346
920.488	6266
920.598	6441
920.708	6559
920.818	6506
920.928	6483
921.038	6597
921.148	6544
921.258	6429
921.368	6365
921.477	6209
921.587	6209
921.697	6083
921.806	6205
921.916	6060
922.025	5996
922.134	5927
922.244	5844
922.353	5942
922.462	5874
922.571	5790
922.68	5684
922.789	5695
922.898	5707
923.007	5649
923.116	5707
923.224	5691
923.333	5688
923.442	5634
923.55	5638
923.659	5634
923.767	5691
923.876	5535
923.984	5623
924.092	5478
924.201	5592
924.309	5566
924.417	5524
924.525	5482
924.633	5452
924.741	6254
924.849	5341
924.956	5512
925.064	5406
925.172	5280
925.279	5334
925.387	5315
925.494	5368
925.602	5395
925.709	5349
925.816	5318
925.924	5345
926.031	5402
926.138	5277
926.245	5368
926.352	5162
926.459	5364
926.566	5330
926.673	5235
926.779	5090
926.886	5132
926.993	5086
927.099	5018
927.206	4999
927.312	4984
927.419	5022
927.525	4987
927.631	5003
927.737	4892
927.843	4908
927.95	4790
928.056	4828
928.162	4801
928.267	4885
928.373	5337
928.479	4847
928.585	4675
928.69	4797
928.796	4805
928.901	4710
929.007	4607
929.112	4687
929.218	4649
929.323	4580
929.428	4523
929.533	4683
929.638	4512
929.743	4561
929.848	4561
929.953	4489
930.058	4409
930.163	4333
930.267	4363
930.372	4428
930.477	4322
930.581	4459
930.685	4394
930.79	4303
930.894	4322
930.998	4276
931.103	4417
931.207	4143
931.311	4135
931.415	4025
931.519	3934
931.623	3964
