Data from glass_V78500241_378.txt Node
Date: Wed Sep 01 19:17:07 CST 2021
User: usil
Spectrometer: V785-0024
Trigger mode: 0
Integration Time (sec): 4.000000E-1
Scans to average: 1
Nonlinearity correction enabled: false
Boxcar width: 0
Storing dark spectrum: false
XAxis mode: Wavelengths
Number of Pixels in Spectrum: 1024
>>>>>Begin Spectral Data<<<<<
801.071	3755
801.214	3755
801.356	3747
801.499	3724
801.641	3705
801.783	3785
801.926	3854
802.068	3850
802.211	3922
802.353	3857
802.496	3850
802.638	3926
802.78	3869
802.923	3926
803.065	3960
803.208	3888
803.35	3911
803.492	3911
803.635	3930
803.777	3789
803.919	3884
804.061	4177
804.204	3945
804.346	3991
804.488	3941
804.63	4067
804.773	3964
804.915	4074
805.057	4181
805.199	4048
805.341	4090
805.483	4158
805.626	4147
805.768	4112
805.91	4234
806.052	4249
806.194	4204
806.336	4390
806.478	4276
806.62	4185
806.762	4211
806.904	4287
807.046	4348
807.188	4257
807.33	4200
807.472	4257
807.614	4219
807.756	4333
807.898	4177
808.04	4242
808.182	4303
808.324	4299
808.465	4432
808.607	4451
808.749	4459
808.891	4516
809.033	4508
809.174	4386
809.316	4280
809.458	4284
809.6	4207
809.741	4128
809.883	4093
810.025	4185
810.166	4204
810.308	4219
810.45	4246
810.591	4227
810.733	4287
810.875	4527
811.016	4843
811.158	5098
811.299	5299
811.441	5318
811.582	5064
811.724	4733
811.865	4481
812.007	4436
812.148	4459
812.29	4432
812.431	4409
812.573	4417
812.714	4371
812.855	4440
812.997	4432
813.138	4523
813.279	4428
813.421	4318
813.562	4421
813.703	4322
813.845	4295
813.986	4230
814.127	4219
814.268	4268
814.41	4337
814.551	4272
814.692	4322
814.833	4280
814.974	4322
815.115	4367
815.256	4303
815.397	4215
815.539	4242
815.68	4188
815.821	4188
815.962	4303
816.103	4265
816.244	4261
816.385	4238
816.526	4322
816.666	4234
816.807	4139
816.948	4185
817.089	4162
817.23	4112
817.371	4021
817.512	4082
817.653	4116
817.793	4051
817.934	4067
818.075	4097
818.216	4112
818.356	4067
818.497	4021
818.638	3907
818.778	3945
818.919	3873
819.06	3903
819.2	3953
819.341	3873
819.481	3876
819.622	3915
819.762	4048
819.903	3945
820.043	3854
820.184	3831
820.324	3789
820.465	3869
820.605	3911
820.746	3861
820.886	3774
821.026	3934
821.167	3930
821.307	4059
821.447	3964
821.588	3964
821.728	4017
821.868	3911
822.008	3869
822.149	3896
822.289	3930
822.429	3804
822.569	3770
822.709	3838
822.849	3720
822.99	3732
823.13	3759
823.27	3762
823.41	3732
823.55	3785
823.69	3724
823.83	3755
823.97	3713
824.11	3614
824.25	3587
824.389	3652
824.529	3686
824.669	3660
824.809	3766
824.949	3762
825.089	3705
825.228	3701
825.368	3606
825.508	3545
825.648	3584
825.787	3614
825.927	3629
826.067	3625
826.206	3656
826.346	3808
826.485	3861
826.625	3892
826.765	3960
826.904	3850
827.044	3622
827.183	3553
827.323	3424
827.462	3504
827.601	3458
827.741	3462
827.88	3473
828.02	3424
828.159	3462
828.298	3492
828.437	3504
828.577	3485
828.716	3618
828.855	3530
828.994	3409
829.134	3393
829.273	3374
829.412	3355
829.551	3348
829.69	3378
829.829	3447
829.968	3515
830.107	3485
830.246	3469
830.385	3409
830.524	3348
830.663	3348
830.802	3287
830.941	3233
831.08	3222
831.219	3294
831.357	3279
831.496	3435
831.635	3279
831.774	3203
831.913	3184
832.051	3154
832.19	3142
832.329	3203
832.467	3169
832.606	3119
832.744	3180
832.883	3218
833.022	3203
833.16	3249
833.299	3329
833.437	3306
833.576	3386
833.714	3412
833.852	3397
833.991	3439
834.129	3454
834.267	3462
834.406	3420
834.544	3420
834.682	3447
834.821	3443
834.959	3576
835.097	3401
835.235	3557
835.373	3481
835.511	3466
835.65	3481
835.788	3488
835.926	3401
836.064	3405
836.202	3412
836.34	3606
836.478	3622
836.615	3603
836.753	3625
836.891	3694
837.029	3595
837.167	3595
837.305	3610
837.443	3542
837.58	3511
837.718	3618
837.856	3557
837.993	3519
838.131	3644
838.269	3599
838.406	3584
838.544	3568
838.681	3485
838.819	3469
838.956	3389
839.094	3431
839.231	3447
839.369	3526
839.506	3720
839.643	3610
839.781	3492
839.918	3443
840.055	3561
840.193	3538
840.33	3542
840.467	3557
840.604	3629
840.742	3816
840.879	3595
841.016	3564
841.153	3591
841.29	3793
841.427	3698
841.564	3713
841.701	3751
841.838	3720
841.975	3724
842.112	3736
842.249	3637
842.385	3667
842.522	3888
842.659	3724
842.796	3675
842.933	3709
843.069	3724
843.206	3720
843.343	3793
843.479	3819
843.616	3804
843.752	3679
843.889	3698
844.025	3827
844.162	3728
844.298	3869
844.435	3789
844.571	3827
844.708	3930
844.844	4017
844.98	4006
845.117	4063
845.253	3922
845.389	3930
845.525	3960
845.661	3975
845.798	3945
845.934	3979
846.07	3960
846.206	4013
846.342	4135
846.478	4090
846.614	4010
846.75	3915
846.886	3934
847.022	4002
847.158	4002
847.294	4010
847.429	4002
847.565	4067
847.701	4303
847.837	3865
847.972	3884
848.108	4013
848.244	3949
848.379	3823
848.515	3896
848.65	3800
848.786	3842
848.921	3922
849.057	3956
849.192	3945
849.328	3934
849.463	3956
849.598	3949
849.734	3865
849.869	3838
850.004	3835
850.14	3793
850.275	3816
850.41	3751
850.545	3774
850.68	3793
850.815	3781
850.95	3785
851.085	3960
851.22	3873
851.355	3823
851.49	3789
851.625	3816
851.76	3812
851.895	3743
852.03	3724
852.165	3827
852.299	3827
852.434	3968
852.569	3865
852.703	3892
852.838	3945
852.973	4017
853.107	4021
853.242	3953
853.376	3846
853.511	3770
853.645	3899
853.78	4029
853.914	3915
854.048	3930
854.183	3892
854.317	3979
854.451	4124
854.585	3949
854.72	3956
854.854	4044
854.988	3953
855.122	3994
855.256	3972
855.39	4086
855.524	4124
855.658	4124
855.792	4090
855.926	4166
856.06	4192
856.194	4207
856.327	4158
856.461	4131
856.595	4147
856.729	4162
856.862	4306
856.996	4257
857.13	4303
857.263	4371
857.397	4341
857.53	4322
857.664	4386
857.797	4417
857.931	4459
858.064	4375
858.197	4459
858.331	4421
858.464	4413
858.597	4348
858.731	4474
858.864	4474
858.997	4466
859.13	4504
859.263	4569
859.396	4580
859.529	4519
859.662	4550
859.795	4550
859.928	4630
860.061	4729
860.194	4752
860.327	4653
860.46	4611
860.592	4736
860.725	4793
860.858	4790
860.99	4706
861.123	4714
861.256	4740
861.388	4752
861.521	5455
861.653	4698
861.786	4736
861.918	4755
862.05	4824
862.183	4828
862.315	4873
862.447	4930
862.58	4847
862.712	4801
862.844	4797
862.976	4896
863.108	4843
863.24	5239
863.372	4885
863.504	4946
863.636	4854
863.768	5006
863.9	4991
864.032	4892
864.164	4976
864.296	5033
864.428	5060
864.559	5090
864.691	5140
864.823	5124
864.954	5159
865.086	5109
865.217	5174
865.349	5128
865.48	5201
865.612	5155
865.743	5349
865.875	5220
866.006	5147
866.137	5231
866.269	5231
866.4	5261
866.531	5269
866.662	5246
866.793	5250
866.924	5296
867.055	5345
867.186	5349
867.317	5345
867.448	5296
867.579	5402
867.71	5421
867.841	5452
867.972	5520
868.103	5471
868.233	5486
868.364	5547
868.495	5585
868.625	5661
868.756	5821
868.886	5703
869.017	5737
869.147	5882
869.278	5893
869.408	5821
869.539	5885
869.669	5931
869.799	5958
869.929	6015
870.06	5984
870.19	6251
870.32	6182
870.45	6266
870.58	6308
870.71	6490
870.84	6536
870.97	6429
871.1	6441
871.23	6673
871.36	6700
871.489	6646
871.619	6787
871.749	6814
871.879	6913
872.008	7019
872.138	6973
872.267	6985
872.397	6909
872.526	7034
872.656	7122
872.785	7221
872.915	7396
873.044	7514
873.173	7563
873.303	7647
873.432	7727
873.561	7875
873.69	7959
873.819	7993
873.948	8214
874.077	8206
874.206	8366
874.335	8476
874.464	8667
874.593	8925
874.722	8864
874.851	9146
874.979	9218
875.108	9389
875.237	9401
875.365	9538
875.494	9648
875.623	9812
875.751	9812
875.88	9991
876.008	10200
876.136	10238
876.265	10527
876.393	10645
876.521	10752
876.65	10801
876.778	10900
876.906	10847
877.034	11033
877.162	11140
877.29	11136
877.418	11337
877.546	11387
877.674	11493
877.802	11417
877.93	11532
878.058	11543
878.185	11547
878.313	11676
878.441	11828
878.568	11642
878.696	11764
878.824	11783
878.951	11977
879.079	12045
879.206	12155
879.333	11988
879.461	12068
879.588	12007
879.715	12045
879.842	12281
879.97	12076
880.097	11889
880.224	11832
880.351	11920
880.478	11847
880.605	11847
880.732	11786
880.859	12011
880.986	11889
881.112	11786
881.239	11752
881.366	11703
881.493	11630
881.619	11554
881.746	11604
881.872	11554
881.999	11497
882.125	11452
882.252	11627
882.378	11551
882.505	11573
882.631	11440
882.757	11368
882.883	11258
883.01	11269
883.136	11235
883.262	11094
883.388	11094
883.514	11181
883.64	11178
883.766	11128
883.892	10949
884.018	11029
884.143	11060
884.269	11181
884.395	10877
884.52	10771
884.646	10797
884.772	10710
884.897	10634
885.023	10672
885.148	10748
885.274	10790
885.399	10599
885.524	10634
885.65	10653
885.775	10554
885.9	10538
886.025	10580
886.15	10569
886.275	10504
886.4	10436
886.525	10462
886.65	10348
886.775	10382
886.9	10356
887.025	10523
887.149	10322
887.274	10261
887.399	10246
887.523	10181
887.648	10158
887.773	10173
887.897	10261
888.021	10272
888.146	10086
888.27	10223
888.395	10257
888.519	10242
888.643	10204
888.767	10188
888.891	10135
889.015	10071
889.139	10021
889.263	9979
889.387	10067
889.511	10131
889.635	10036
889.759	9979
889.883	9991
890.006	10032
890.13	10139
890.254	9907
890.377	9972
890.501	9899
890.624	9888
890.748	9964
890.871	9838
890.995	9770
891.118	9762
891.241	9793
891.364	9717
891.488	9869
891.611	9759
891.734	9759
891.857	9797
891.98	9698
892.103	9736
892.226	9800
892.349	9717
892.471	9564
892.594	9675
892.717	9633
892.839	9648
892.962	9637
893.085	9648
893.207	9618
893.33	9545
893.452	9564
893.575	9595
893.697	9481
893.819	9644
893.941	9667
894.064	9603
894.186	9450
894.308	9428
894.43	9526
894.552	9606
894.674	9477
894.796	9378
894.918	9405
895.04	9336
895.161	9359
895.283	9321
895.405	9256
895.526	9226
895.648	9230
895.769	9173
895.891	9272
896.012	9279
896.134	9211
896.255	9226
896.376	9116
896.498	9169
896.619	9161
896.74	9108
896.861	9119
896.982	9272
897.103	9291
897.224	9108
897.345	9051
897.466	9055
897.587	9024
897.708	9138
897.828	9024
897.949	9032
898.07	8963
898.19	8929
898.311	9032
898.431	8925
898.552	8910
898.672	8944
898.792	9009
898.913	8918
899.033	8845
899.153	8796
899.273	8678
899.393	8708
899.513	8746
899.633	8720
899.753	8727
899.873	8682
899.993	8766
900.113	8686
900.232	8754
900.352	8651
900.472	8594
900.591	8629
900.711	8537
900.83	8518
900.95	8682
901.069	8682
901.189	8613
901.308	8434
901.427	8347
901.546	8469
901.665	8518
901.784	8568
901.904	8431
902.023	8396
902.141	8233
902.26	8183
902.379	8275
902.498	8145
902.617	8252
902.735	8271
902.854	8294
902.973	8374
903.091	8100
903.21	8191
903.328	8153
903.446	8088
903.565	8073
903.683	8088
903.801	8081
903.919	8176
904.038	8153
904.156	8073
904.274	8130
904.392	8020
904.51	8073
904.627	8062
904.745	8142
904.863	8172
904.981	7959
905.098	7868
905.216	7955
905.334	7887
905.451	7940
905.569	7879
905.686	7898
905.803	7894
905.921	7772
906.038	7849
906.155	7792
906.272	7704
906.389	7712
906.506	7651
906.623	7639
906.74	7605
906.857	7613
906.974	7639
907.091	7704
907.208	7742
907.324	7632
907.441	7590
907.557	7506
907.674	7457
907.79	7445
907.907	7426
908.023	7441
908.139	7388
908.256	7411
908.372	7373
908.488	7377
908.604	7255
908.72	7244
908.836	7316
908.952	7202
909.068	7183
909.184	7312
909.3	7259
909.415	7259
909.531	7293
909.647	7099
909.762	7114
909.878	7069
909.993	7107
910.108	7145
910.224	7076
910.339	7099
910.454	7080
910.57	7000
910.685	6943
910.8	7206
910.915	7084
911.03	7038
911.145	6821
911.259	6863
911.374	6920
911.489	6859
911.604	6760
911.718	6745
911.833	6779
911.947	6711
912.062	6597
912.176	6700
912.291	6772
912.405	6673
912.519	6760
912.633	6867
912.748	6760
912.862	6703
912.976	6635
913.09	6532
913.204	6620
913.318	6631
913.431	6642
913.545	6730
913.659	6749
913.772	6620
913.886	6608
914	6547
914.113	6646
914.226	6696
914.34	6604
914.453	6521
914.566	6639
914.68	6517
914.793	6532
914.906	6429
915.019	6380
915.132	6395
915.245	6460
915.358	6410
915.47	6448
915.583	6486
915.696	6483
915.809	6566
915.921	6563
916.034	6426
916.146	6403
916.259	6433
916.371	6452
916.483	6464
916.595	6490
916.708	6448
916.82	6448
916.932	6410
917.044	6327
917.156	6407
917.268	6331
917.38	6372
917.491	6372
917.603	6357
917.715	6467
917.826	6422
917.938	6338
918.049	6251
918.161	6369
918.272	6410
918.384	6445
918.495	6323
918.606	6285
918.717	6209
918.828	6262
918.939	6285
919.05	6224
919.161	6213
919.272	6129
919.383	6155
919.494	6327
919.604	6433
919.715	6273
919.826	6285
919.936	6289
920.047	6331
920.157	6289
920.267	6445
920.378	6285
920.488	6266
920.598	6467
920.708	6604
920.818	6506
920.928	6490
921.038	6620
921.148	6582
921.258	6369
921.368	6304
921.477	6213
921.587	6159
921.697	6095
921.806	6213
921.916	6079
922.025	5996
922.134	5901
922.244	5912
922.353	5961
922.462	5885
922.571	5844
922.68	5722
922.789	5695
922.898	5691
923.007	5661
923.116	5703
923.224	5722
923.333	5619
923.442	5653
923.55	5562
923.659	5585
923.767	5627
923.876	5585
923.984	5608
924.092	5573
924.201	5600
924.309	5611
924.417	5547
924.525	5452
924.633	5551
924.741	6258
924.849	5379
924.956	5509
925.064	5337
925.172	5360
925.279	5353
925.387	5364
925.494	5315
925.602	5402
925.709	5398
925.816	5322
925.924	5318
926.031	5376
926.138	5326
926.245	5387
926.352	5197
926.459	5315
926.566	5391
926.673	5197
926.779	5208
926.886	5117
926.993	5018
927.099	5014
927.206	5037
927.312	4949
927.419	5033
927.525	4980
927.631	4980
927.737	4892
927.843	4885
927.95	4782
928.056	4866
928.162	4866
928.267	4877
928.373	5254
928.479	4854
928.585	4729
928.69	4771
928.796	4797
928.901	4656
929.007	4592
929.112	4691
929.218	4729
929.323	4630
929.428	4596
929.533	4675
929.638	4550
929.743	4554
929.848	4561
929.953	4500
930.058	4459
930.163	4348
930.267	4383
930.372	4417
930.477	4310
930.581	4481
930.685	4394
930.79	4276
930.894	4314
930.998	4284
931.103	4379
931.207	4135
931.311	4105
931.415	4036
931.519	3930
931.623	3987
