Data from glass_V78500241_1931.txt Node
Date: Wed Sep 01 19:27:53 CST 2021
User: usil
Spectrometer: V785-0024
Trigger mode: 0
Integration Time (sec): 4.000000E-1
Scans to average: 1
Nonlinearity correction enabled: false
Boxcar width: 0
Storing dark spectrum: false
XAxis mode: Wavelengths
Number of Pixels in Spectrum: 1024
>>>>>Begin Spectral Data<<<<<
801.071	3743
801.214	3743
801.356	3713
801.499	3740
801.641	3732
801.783	3740
801.926	3800
802.068	3838
802.211	3899
802.353	3869
802.496	3854
802.638	3896
802.78	3922
802.923	3918
803.065	3876
803.208	3865
803.35	3911
803.492	3835
803.635	3918
803.777	3808
803.919	3903
804.061	4143
804.204	3964
804.346	3907
804.488	3937
804.63	4067
804.773	3941
804.915	4013
805.057	4185
805.199	4044
805.341	4032
805.483	4154
805.626	4147
805.768	4120
805.91	4223
806.052	4219
806.194	4215
806.336	4314
806.478	4223
806.62	4185
806.762	4196
806.904	4200
807.046	4299
807.188	4196
807.33	4162
807.472	4234
807.614	4200
807.756	4257
807.898	4200
808.04	4230
808.182	4276
808.324	4303
808.465	4341
808.607	4447
808.749	4432
808.891	4466
809.033	4500
809.174	4375
809.316	4246
809.458	4242
809.6	4185
809.741	4166
809.883	4131
810.025	4196
810.166	4257
810.308	4223
810.45	4276
810.591	4211
810.733	4223
810.875	4493
811.016	4839
811.158	5132
811.299	5326
811.441	5296
811.582	5094
811.724	4641
811.865	4500
812.007	4470
812.148	4432
812.29	4390
812.431	4436
812.573	4398
812.714	4341
812.855	4398
812.997	4402
813.138	4478
813.279	4451
813.421	4405
813.562	4379
813.703	4352
813.845	4310
813.986	4253
814.127	4234
814.268	4265
814.41	4284
814.551	4234
814.692	4356
814.833	4268
814.974	4268
815.115	4344
815.256	4242
815.397	4276
815.539	4306
815.68	4192
815.821	4211
815.962	4291
816.103	4276
816.244	4261
816.385	4223
816.526	4287
816.666	4177
816.807	4101
816.948	4169
817.089	4166
817.23	4150
817.371	4040
817.512	4067
817.653	4074
817.793	4036
817.934	4048
818.075	4048
818.216	4059
818.356	4093
818.497	3968
818.638	3892
818.778	3850
818.919	3903
819.06	3884
819.2	3934
819.341	3876
819.481	3842
819.622	3899
819.762	4025
819.903	3979
820.043	3827
820.184	3854
820.324	3838
820.465	3854
820.605	3850
820.746	3857
820.886	3785
821.026	3953
821.167	3899
821.307	4025
821.447	3960
821.588	3953
821.728	3934
821.868	3915
822.008	3846
822.149	3888
822.289	3892
822.429	3797
822.569	3713
822.709	3816
822.849	3686
822.99	3705
823.13	3728
823.27	3743
823.41	3709
823.55	3705
823.69	3709
823.83	3713
823.97	3728
824.11	3587
824.25	3606
824.389	3629
824.529	3686
824.669	3622
824.809	3675
824.949	3759
825.089	3698
825.228	3686
825.368	3568
825.508	3553
825.648	3591
825.787	3637
825.927	3610
826.067	3633
826.206	3663
826.346	3770
826.485	3842
826.625	3876
826.765	3922
826.904	3865
827.044	3557
827.183	3523
827.323	3409
827.462	3469
827.601	3389
827.741	3424
827.88	3431
828.02	3340
828.159	3428
828.298	3481
828.437	3538
828.577	3481
828.716	3580
828.855	3507
828.994	3397
829.134	3370
829.273	3348
829.412	3340
829.551	3302
829.69	3393
829.829	3435
829.968	3530
830.107	3420
830.246	3466
830.385	3382
830.524	3363
830.663	3321
830.802	3275
830.941	3188
831.08	3211
831.219	3260
831.357	3256
831.496	3355
831.635	3222
831.774	3176
831.913	3184
832.051	3150
832.19	3138
832.329	3207
832.467	3131
832.606	3135
832.744	3173
832.883	3180
833.022	3192
833.16	3272
833.299	3283
833.437	3351
833.576	3389
833.714	3370
833.852	3454
833.991	3443
834.129	3458
834.267	3447
834.406	3378
834.544	3428
834.682	3435
834.821	3435
834.959	3584
835.097	3458
835.235	3534
835.373	3481
835.511	3496
835.65	3458
835.788	3462
835.926	3435
836.064	3370
836.202	3382
836.34	3599
836.478	3587
836.615	3553
836.753	3591
836.891	3641
837.029	3644
837.167	3561
837.305	3561
837.443	3511
837.58	3504
837.718	3599
837.856	3515
837.993	3534
838.131	3591
838.269	3603
838.406	3603
838.544	3542
838.681	3435
838.819	3492
838.956	3397
839.094	3389
839.231	3428
839.369	3523
839.506	3724
839.643	3606
839.781	3450
839.918	3485
840.055	3549
840.193	3519
840.33	3523
840.467	3561
840.604	3576
840.742	3781
840.879	3553
841.016	3545
841.153	3591
841.29	3778
841.427	3709
841.564	3705
841.701	3713
841.838	3686
841.975	3663
842.112	3755
842.249	3625
842.385	3622
842.522	3812
842.659	3709
842.796	3682
842.933	3705
843.069	3679
843.206	3755
843.343	3789
843.479	3770
843.616	3835
843.752	3698
843.889	3663
844.025	3876
844.162	3728
844.298	3846
844.435	3778
844.571	3781
844.708	3850
844.844	3964
844.98	3991
845.117	4010
845.253	3968
845.389	3827
845.525	3979
845.661	3956
845.798	3899
845.934	3991
846.07	3953
846.206	4059
846.342	4135
846.478	4078
846.614	3960
846.75	3934
846.886	3915
847.022	4051
847.158	3979
847.294	4017
847.429	4006
847.565	4017
847.701	4242
847.837	3884
847.972	3835
848.108	3964
848.244	3956
848.379	3842
848.515	3797
848.65	3827
848.786	3808
848.921	3861
849.057	3934
849.192	3903
849.328	3899
849.463	3930
849.598	3888
849.734	3857
849.869	3819
850.004	3785
850.14	3766
850.275	3823
850.41	3766
850.545	3778
850.68	3785
850.815	3819
850.95	3789
851.085	3907
851.22	3884
851.355	3816
851.49	3747
851.625	3762
851.76	3808
851.895	3701
852.03	3694
852.165	3789
852.299	3827
852.434	3918
852.569	3819
852.703	3842
852.838	3968
852.973	3991
853.107	3968
853.242	3865
853.376	3831
853.511	3778
853.645	3857
853.78	4006
853.914	3892
854.048	3918
854.183	3857
854.317	3934
854.451	4086
854.585	3926
854.72	3918
854.854	4017
854.988	3915
855.122	3979
855.256	3926
855.39	4032
855.524	4105
855.658	4051
855.792	4086
855.926	4135
856.06	4166
856.194	4207
856.327	4147
856.461	4154
856.595	4154
856.729	4173
856.862	4272
856.996	4211
857.13	4322
857.263	4310
857.397	4367
857.53	4276
857.664	4352
857.797	4413
857.931	4375
858.064	4398
858.197	4424
858.331	4383
858.464	4375
858.597	4367
858.731	4394
858.864	4428
858.997	4451
859.13	4489
859.263	4542
859.396	4569
859.529	4489
859.662	4550
859.795	4569
859.928	4611
860.061	4694
860.194	4706
860.327	4637
860.46	4664
860.592	4725
860.725	4691
860.858	4763
860.99	4645
861.123	4702
861.256	4687
861.388	4759
861.521	5379
861.653	4710
861.786	4698
861.918	4736
862.05	4763
862.183	4862
862.315	4816
862.447	4900
862.58	4866
862.712	4801
862.844	4759
862.976	4858
863.108	4847
863.24	5159
863.372	4816
863.504	4915
863.636	4873
863.768	5022
863.9	4938
864.032	4927
864.164	4991
864.296	5022
864.428	5086
864.559	5048
864.691	5132
864.823	5181
864.954	5109
865.086	5128
865.217	5121
865.349	5136
865.48	5155
865.612	5231
865.743	5277
865.875	5223
866.006	5193
866.137	5242
866.269	5250
866.4	5242
866.531	5254
866.662	5261
866.793	5273
866.924	5273
867.055	5345
867.186	5341
867.317	5322
867.448	5307
867.579	5379
867.71	5341
867.841	5360
867.972	5467
868.103	5448
868.233	5452
868.364	5505
868.495	5577
868.625	5684
868.756	5760
868.886	5672
869.017	5680
869.147	5802
869.278	5870
869.408	5802
869.539	5817
869.669	5923
869.799	5901
869.929	6034
870.06	5984
870.19	6224
870.32	6232
870.45	6251
870.58	6338
870.71	6399
870.84	6464
870.97	6388
871.1	6380
871.23	6597
871.36	6673
871.489	6631
871.619	6692
871.749	6821
871.879	6810
872.008	6962
872.138	6947
872.267	7076
872.397	7046
872.526	7012
872.656	7076
872.785	7187
872.915	7316
873.044	7540
873.173	7597
873.303	7712
873.432	7677
873.561	7856
873.69	7909
873.819	8005
873.948	8107
874.077	8180
874.206	8313
874.335	8389
874.464	8568
874.593	8838
874.722	8944
874.851	9192
874.979	9233
875.108	9370
875.237	9431
875.365	9511
875.494	9633
875.623	9831
875.751	9800
875.88	9991
876.008	10116
876.136	10196
876.265	10428
876.393	10759
876.521	10656
876.65	10740
876.778	10892
876.906	10862
877.034	11029
877.162	11132
877.29	11166
877.418	11280
877.546	11296
877.674	11455
877.802	11497
877.93	11501
878.058	11467
878.185	11463
878.313	11532
878.441	11760
878.568	11611
878.696	11783
878.824	11904
878.951	11942
879.079	11988
879.206	12087
879.333	12045
879.461	11988
879.588	12045
879.715	12106
879.842	12251
879.97	12064
880.097	11904
880.224	11851
880.351	11866
880.478	11840
880.605	11783
880.732	11771
880.859	12034
880.986	11828
881.112	11882
881.239	11684
881.366	11707
881.493	11642
881.619	11539
881.746	11562
881.872	11528
881.999	11516
882.125	11570
882.252	11478
882.378	11592
882.505	11493
882.631	11376
882.757	11261
882.883	11414
883.01	11242
883.136	11220
883.262	11117
883.388	11162
883.514	11204
883.64	11147
883.766	11136
883.892	10984
884.018	11048
884.143	11022
884.269	11048
884.395	10927
884.52	10778
884.646	10672
884.772	10744
884.897	10679
885.023	10714
885.148	10714
885.274	10740
885.399	10679
885.524	10649
885.65	10634
885.775	10535
885.9	10596
886.025	10603
886.15	10512
886.275	10459
886.4	10341
886.525	10394
886.65	10409
886.775	10318
886.9	10474
887.025	10504
887.149	10356
887.274	10211
887.399	10196
887.523	10207
887.648	10097
887.773	10166
887.897	10261
888.021	10234
888.146	10135
888.27	10200
888.395	10219
888.519	10150
888.643	10242
888.767	10112
888.891	10116
889.015	10017
889.139	10032
889.263	9922
889.387	10082
889.511	10109
889.635	10051
889.759	10002
889.883	10109
890.006	10025
890.13	10059
890.254	9911
890.377	10055
890.501	9945
890.624	9797
890.748	9854
890.871	9793
890.995	9705
891.118	9747
891.241	9835
891.364	9740
891.488	9895
891.611	9732
891.734	9698
891.857	9781
891.98	9675
892.103	9751
892.226	9717
892.349	9705
892.471	9534
892.594	9561
892.717	9671
892.839	9603
892.962	9587
893.085	9656
893.207	9576
893.33	9439
893.452	9507
893.575	9587
893.697	9523
893.819	9652
893.941	9587
894.064	9553
894.186	9466
894.308	9378
894.43	9576
894.552	9515
894.674	9454
894.796	9344
894.918	9431
895.04	9340
895.161	9344
895.283	9386
895.405	9272
895.526	9313
895.648	9230
895.769	9272
895.891	9241
896.012	9241
896.134	9249
896.255	9176
896.376	9085
896.498	9142
896.619	9104
896.74	9070
896.861	9032
896.982	9226
897.103	9230
897.224	9135
897.345	9047
897.466	9089
897.587	8967
897.708	9100
897.828	9017
897.949	8880
898.07	8853
898.19	8887
898.311	9032
898.431	8910
898.552	8876
898.672	9001
898.792	8960
898.913	8857
899.033	8796
899.153	8762
899.273	8701
899.393	8663
899.513	8750
899.633	8731
899.753	8727
899.873	8625
899.993	8743
900.113	8731
900.232	8682
900.352	8636
900.472	8587
900.591	8511
900.711	8632
900.83	8549
900.95	8659
901.069	8739
901.189	8590
901.308	8454
901.427	8473
901.546	8450
901.665	8415
901.784	8503
901.904	8351
902.023	8248
902.141	8248
902.26	8183
902.379	8279
902.498	8214
902.617	8267
902.735	8248
902.854	8195
902.973	8267
903.091	8134
903.21	8103
903.328	8202
903.446	8119
903.565	8031
903.683	8103
903.801	8024
903.919	8103
904.038	8183
904.156	8031
904.274	8073
904.392	8081
904.51	7978
904.627	8092
904.745	8096
904.863	8164
904.981	7940
905.098	7883
905.216	7864
905.334	7955
905.451	7913
905.569	7811
905.686	7898
905.803	7875
905.921	7742
906.038	7879
906.155	7780
906.272	7704
906.389	7761
906.506	7636
906.623	7658
906.74	7662
906.857	7571
906.974	7578
907.091	7670
907.208	7674
907.324	7658
907.441	7563
907.557	7426
907.674	7438
907.79	7392
907.907	7441
908.023	7426
908.139	7449
908.256	7430
908.372	7358
908.488	7354
908.604	7327
908.72	7244
908.836	7225
908.952	7289
909.068	7240
909.184	7324
909.3	7194
909.415	7293
909.531	7270
909.647	7133
909.762	7133
909.878	7137
909.993	7168
910.108	7065
910.224	7088
910.339	7114
910.454	6966
910.57	7084
910.685	6939
910.8	7145
910.915	7126
911.03	6977
911.145	6920
911.259	6909
911.374	6905
911.489	6829
911.604	6802
911.718	6722
911.833	6760
911.947	6669
912.062	6601
912.176	6646
912.291	6688
912.405	6692
912.519	6852
912.633	6810
912.748	6688
912.862	6696
912.976	6597
913.09	6521
913.204	6547
913.318	6574
913.431	6669
913.545	6662
913.659	6700
913.772	6654
913.886	6536
914	6582
914.113	6559
914.226	6631
914.34	6627
914.453	6532
914.566	6528
914.68	6547
914.793	6509
914.906	6372
915.019	6433
915.132	6410
915.245	6445
915.358	6429
915.47	6467
915.583	6414
915.696	6540
915.809	6532
915.921	6471
916.034	6403
916.146	6414
916.259	6376
916.371	6509
916.483	6448
916.595	6334
916.708	6388
916.82	6350
916.932	6407
917.044	6414
917.156	6399
917.268	6281
917.38	6323
917.491	6315
917.603	6342
917.715	6380
917.826	6376
917.938	6311
918.049	6209
918.161	6338
918.272	6391
918.384	6380
918.495	6342
918.606	6262
918.717	6186
918.828	6270
918.939	6262
919.05	6140
919.161	6216
919.272	6098
919.383	6148
919.494	6281
919.604	6414
919.715	6308
919.826	6190
919.936	6205
920.047	6311
920.157	6308
920.267	6437
920.378	6334
920.488	6235
920.598	6395
920.708	6585
920.818	6445
920.928	6452
921.038	6616
921.148	6582
921.258	6380
921.368	6308
921.477	6220
921.587	6186
921.697	6007
921.806	6171
921.916	6041
922.025	5950
922.134	5882
922.244	5855
922.353	5939
922.462	5817
922.571	5760
922.68	5665
922.789	5657
922.898	5668
923.007	5661
923.116	5695
923.224	5665
923.333	5668
923.442	5623
923.55	5524
923.659	5604
923.767	5611
923.876	5520
923.984	5596
924.092	5497
924.201	5520
924.309	5543
924.417	5581
924.525	5528
924.633	5547
924.741	6254
924.849	5334
924.956	5471
925.064	5360
925.172	5330
925.279	5330
925.387	5322
925.494	5353
925.602	5410
925.709	5383
925.816	5269
925.924	5315
926.031	5353
926.138	5284
926.245	5296
926.352	5246
926.459	5280
926.566	5326
926.673	5227
926.779	5113
926.886	5128
926.993	5025
927.099	5003
927.206	4968
927.312	4968
927.419	4976
927.525	4957
927.631	4980
927.737	4904
927.843	4858
927.95	4782
928.056	4824
928.162	4854
928.267	4835
928.373	5277
928.479	4816
928.585	4656
928.69	4744
928.796	4752
928.901	4675
929.007	4607
929.112	4698
929.218	4592
929.323	4592
929.428	4558
929.533	4615
929.638	4493
929.743	4462
929.848	4538
929.953	4538
930.058	4451
930.163	4341
930.267	4322
930.372	4421
930.477	4314
930.581	4455
930.685	4348
930.79	4246
930.894	4268
930.998	4268
931.103	4341
931.207	4097
931.311	4090
931.415	4063
931.519	3911
931.623	3934
