Data from glass_V78500241_2059.txt Node
Date: Wed Sep 01 19:28:46 CST 2021
User: usil
Spectrometer: V785-0024
Trigger mode: 0
Integration Time (sec): 4.000000E-1
Scans to average: 1
Nonlinearity correction enabled: false
Boxcar width: 0
Storing dark spectrum: false
XAxis mode: Wavelengths
Number of Pixels in Spectrum: 1024
>>>>>Begin Spectral Data<<<<<
801.071	3724
801.214	3751
801.356	3736
801.499	3686
801.641	3717
801.783	3766
801.926	3857
802.068	3800
802.211	3865
802.353	3846
802.496	3842
802.638	3896
802.78	3892
802.923	3876
803.065	3850
803.208	3835
803.35	3857
803.492	3884
803.635	3918
803.777	3774
803.919	3854
804.061	4116
804.204	3964
804.346	3937
804.488	3945
804.63	4006
804.773	3956
804.915	4032
805.057	4188
805.199	4067
805.341	4090
805.483	4143
805.626	4086
805.768	4147
805.91	4200
806.052	4253
806.194	4215
806.336	4356
806.478	4223
806.62	4154
806.762	4196
806.904	4257
807.046	4325
807.188	4211
807.33	4139
807.472	4204
807.614	4200
807.756	4272
807.898	4166
808.04	4196
808.182	4253
808.324	4265
808.465	4383
808.607	4424
808.749	4443
808.891	4451
809.033	4481
809.174	4417
809.316	4238
809.458	4234
809.6	4131
809.741	4143
809.883	4131
810.025	4207
810.166	4173
810.308	4173
810.45	4257
810.591	4230
810.733	4280
810.875	4508
811.016	4828
811.158	5117
811.299	5273
811.441	5273
811.582	5048
811.724	4710
811.865	4421
812.007	4493
812.148	4398
812.29	4371
812.431	4371
812.573	4363
812.714	4348
812.855	4375
812.997	4394
813.138	4451
813.279	4436
813.421	4341
813.562	4363
813.703	4318
813.845	4295
813.986	4215
814.127	4234
814.268	4276
814.41	4253
814.551	4261
814.692	4333
814.833	4246
814.974	4318
815.115	4306
815.256	4223
815.397	4253
815.539	4276
815.68	4196
815.821	4215
815.962	4284
816.103	4234
816.244	4227
816.385	4223
816.526	4284
816.666	4169
816.807	4120
816.948	4173
817.089	4150
817.23	4131
817.371	4078
817.512	4071
817.653	4071
817.793	4048
817.934	4044
818.075	4071
818.216	4090
818.356	4090
818.497	3972
818.638	3854
818.778	3896
818.919	3873
819.06	3819
819.2	3918
819.341	3835
819.481	3812
819.622	3884
819.762	4021
819.903	3953
820.043	3854
820.184	3846
820.324	3842
820.465	3861
820.605	3884
820.746	3903
820.886	3774
821.026	3896
821.167	3896
821.307	3953
821.447	4013
821.588	3922
821.728	3892
821.868	3956
822.008	3819
822.149	3930
822.289	3907
822.429	3766
822.569	3774
822.709	3819
822.849	3682
822.99	3732
823.13	3720
823.27	3781
823.41	3694
823.55	3766
823.69	3679
823.83	3770
823.97	3667
824.11	3610
824.25	3587
824.389	3603
824.529	3625
824.669	3610
824.809	3717
824.949	3766
825.089	3720
825.228	3694
825.368	3534
825.508	3557
825.648	3534
825.787	3625
825.927	3637
826.067	3599
826.206	3675
826.346	3797
826.485	3819
826.625	3842
826.765	3926
826.904	3854
827.044	3610
827.183	3496
827.323	3454
827.462	3473
827.601	3416
827.741	3416
827.88	3439
828.02	3420
828.159	3428
828.298	3466
828.437	3504
828.577	3466
828.716	3580
828.855	3492
828.994	3363
829.134	3355
829.273	3393
829.412	3363
829.551	3367
829.69	3348
829.829	3420
829.968	3500
830.107	3405
830.246	3428
830.385	3351
830.524	3336
830.663	3317
830.802	3253
830.941	3142
831.08	3237
831.219	3241
831.357	3275
831.496	3393
831.635	3233
831.774	3173
831.913	3214
832.051	3123
832.19	3116
832.329	3207
832.467	3135
832.606	3085
832.744	3176
832.883	3176
833.022	3154
833.16	3272
833.299	3317
833.437	3310
833.576	3313
833.714	3389
833.852	3420
833.991	3462
834.129	3500
834.267	3458
834.406	3382
834.544	3424
834.682	3389
834.821	3393
834.959	3568
835.097	3450
835.235	3557
835.373	3488
835.511	3485
835.65	3443
835.788	3481
835.926	3344
836.064	3351
836.202	3424
836.34	3530
836.478	3584
836.615	3542
836.753	3568
836.891	3641
837.029	3572
837.167	3606
837.305	3553
837.443	3542
837.58	3443
837.718	3587
837.856	3515
837.993	3584
838.131	3564
838.269	3553
838.406	3614
838.544	3534
838.681	3443
838.819	3458
838.956	3348
839.094	3389
839.231	3481
839.369	3538
839.506	3701
839.643	3633
839.781	3519
839.918	3454
840.055	3530
840.193	3519
840.33	3469
840.467	3591
840.604	3564
840.742	3781
840.879	3511
841.016	3534
841.153	3580
841.29	3728
841.427	3698
841.564	3740
841.701	3679
841.838	3675
841.975	3698
842.112	3732
842.249	3637
842.385	3644
842.522	3816
842.659	3682
842.796	3648
842.933	3709
843.069	3709
843.206	3713
843.343	3808
843.479	3793
843.616	3766
843.752	3690
843.889	3675
844.025	3827
844.162	3743
844.298	3835
844.435	3762
844.571	3770
844.708	3903
844.844	4002
844.98	4013
845.117	3987
845.253	3880
845.389	3896
845.525	3930
845.661	3964
845.798	3903
845.934	3972
846.07	3903
846.206	3994
846.342	4147
846.478	4029
846.614	3949
846.75	3964
846.886	3934
847.022	3998
847.158	3949
847.294	4040
847.429	3991
847.565	4040
847.701	4211
847.837	3842
847.972	3842
848.108	3953
848.244	3994
848.379	3846
848.515	3804
848.65	3800
848.786	3816
848.921	3827
849.057	3918
849.192	3979
849.328	3884
849.463	3922
849.598	3892
849.734	3846
849.869	3857
850.004	3800
850.14	3812
850.275	3774
850.41	3755
850.545	3709
850.68	3800
850.815	3755
850.95	3770
851.085	3937
851.22	3816
851.355	3842
851.49	3819
851.625	3770
851.76	3789
851.895	3701
852.03	3747
852.165	3766
852.299	3831
852.434	3899
852.569	3873
852.703	3880
852.838	3915
852.973	3968
853.107	3956
853.242	3846
853.376	3861
853.511	3778
853.645	3793
853.78	4013
853.914	3907
854.048	3899
854.183	3892
854.317	3937
854.451	4086
854.585	3945
854.72	3949
854.854	4036
854.988	3956
855.122	4006
855.256	3922
855.39	4025
855.524	4120
855.658	4086
855.792	4074
855.926	4139
856.06	4150
856.194	4188
856.327	4173
856.461	4093
856.595	4109
856.729	4154
856.862	4257
856.996	4238
857.13	4318
857.263	4310
857.397	4356
857.53	4261
857.664	4306
857.797	4360
857.931	4394
858.064	4314
858.197	4440
858.331	4363
858.464	4386
858.597	4360
858.731	4432
858.864	4421
858.997	4481
859.13	4550
859.263	4519
859.396	4622
859.529	4474
859.662	4512
859.795	4523
859.928	4630
860.061	4679
860.194	4733
860.327	4668
860.46	4656
860.592	4694
860.725	4721
860.858	4763
860.99	4729
861.123	4687
861.256	4706
861.388	4801
861.521	5402
861.653	4691
861.786	4717
861.918	4782
862.05	4767
862.183	4786
862.315	4889
862.447	4934
862.58	4850
862.712	4782
862.844	4744
862.976	4816
863.108	4824
863.24	5189
863.372	4782
863.504	4896
863.636	4923
863.768	4968
863.9	4896
864.032	4908
864.164	4938
864.296	5003
864.428	5056
864.559	5090
864.691	5121
864.823	5098
864.954	5083
865.086	5128
865.217	5071
865.349	5121
865.48	5151
865.612	5166
865.743	5299
865.875	5223
866.006	5151
866.137	5193
866.269	5189
866.4	5265
866.531	5220
866.662	5220
866.793	5254
866.924	5322
867.055	5322
867.186	5337
867.317	5280
867.448	5303
867.579	5372
867.71	5421
867.841	5368
867.972	5459
868.103	5463
868.233	5429
868.364	5516
868.495	5566
868.625	5676
868.756	5756
868.886	5634
869.017	5722
869.147	5844
869.278	5836
869.408	5786
869.539	5821
869.669	5908
869.799	5912
869.929	5961
870.06	5984
870.19	6205
870.32	6216
870.45	6277
870.58	6323
870.71	6483
870.84	6445
870.97	6399
871.1	6407
871.23	6608
871.36	6662
871.489	6700
871.619	6677
871.749	6795
871.879	6856
872.008	6924
872.138	6958
872.267	6993
872.397	6954
872.526	7012
872.656	7061
872.785	7122
872.915	7388
873.044	7514
873.173	7514
873.303	7689
873.432	7738
873.561	7852
873.69	7906
873.819	7989
873.948	8187
874.077	8305
874.206	8377
874.335	8374
874.464	8663
874.593	8918
874.722	8891
874.851	9062
874.979	9264
875.108	9378
875.237	9439
875.365	9454
875.494	9614
875.623	9861
875.751	9797
875.88	9998
876.008	10223
876.136	10280
876.265	10500
876.393	10653
876.521	10759
876.65	10843
876.778	10957
876.906	10881
877.034	11071
877.162	11105
877.29	11162
877.418	11326
877.546	11292
877.674	11486
877.802	11478
877.93	11551
878.058	11463
878.185	11551
878.313	11600
878.441	11718
878.568	11634
878.696	11847
878.824	11882
878.951	11901
879.079	11954
879.206	12136
879.333	11996
879.461	11969
879.588	12011
879.715	12076
879.842	12136
879.97	12030
880.097	11916
880.224	11866
880.351	11866
880.478	11882
880.605	11851
880.732	11767
880.859	11958
880.986	11809
881.112	11832
881.239	11726
881.366	11623
881.493	11596
881.619	11646
881.746	11615
881.872	11497
881.999	11581
882.125	11421
882.252	11478
882.378	11573
882.505	11520
882.631	11383
882.757	11254
882.883	11334
883.01	11147
883.136	11155
883.262	11075
883.388	11064
883.514	11132
883.64	11162
883.766	11185
883.892	10965
884.018	11018
884.143	11067
884.269	11121
884.395	10824
884.52	10797
884.646	10729
884.772	10675
884.897	10736
885.023	10706
885.148	10717
885.274	10744
885.399	10660
885.524	10573
885.65	10542
885.775	10637
885.9	10531
886.025	10538
886.15	10485
886.275	10413
886.4	10375
886.525	10379
886.65	10398
886.775	10265
886.9	10440
887.025	10481
887.149	10303
887.274	10249
887.399	10325
887.523	10261
887.648	10078
887.773	10150
887.897	10207
888.021	10185
888.146	10143
888.27	10196
888.395	10249
888.519	10162
888.643	10162
888.767	10238
888.891	10055
889.015	9983
889.139	10021
889.263	9991
889.387	10086
889.511	10120
889.635	9998
889.759	9922
889.883	10044
890.006	10010
890.13	10086
890.254	10055
890.377	9922
890.501	9846
890.624	9865
890.748	9819
890.871	9778
890.995	9713
891.118	9720
891.241	9652
891.364	9736
891.488	9778
891.611	9732
891.734	9759
891.857	9740
891.98	9705
892.103	9755
892.226	9770
892.349	9663
892.471	9545
892.594	9648
892.717	9561
892.839	9622
892.962	9625
893.085	9671
893.207	9504
893.33	9519
893.452	9511
893.575	9507
893.697	9496
893.819	9580
893.941	9648
894.064	9561
894.186	9454
894.308	9401
894.43	9530
894.552	9564
894.674	9530
894.796	9401
894.918	9359
895.04	9348
895.161	9447
895.283	9249
895.405	9203
895.526	9237
895.648	9283
895.769	9256
895.891	9268
896.012	9279
896.134	9253
896.255	9203
896.376	9146
896.498	9097
896.619	9131
896.74	9093
896.861	9192
896.982	9264
897.103	9306
897.224	9150
897.345	9123
897.466	8952
897.587	9009
897.708	9100
897.828	9100
897.949	8960
898.07	8872
898.19	8906
898.311	8982
898.431	8902
898.552	9005
898.672	8937
898.792	8937
898.913	8963
899.033	8838
899.153	8781
899.273	8625
899.393	8746
899.513	8678
899.633	8712
899.753	8678
899.873	8701
899.993	8735
900.113	8689
900.232	8724
900.352	8621
900.472	8610
900.591	8552
900.711	8617
900.83	8518
900.95	8701
901.069	8739
901.189	8571
901.308	8469
901.427	8408
901.546	8408
901.665	8484
901.784	8503
901.904	8309
902.023	8381
902.141	8256
902.26	8275
902.379	8233
902.498	8240
902.617	8145
902.735	8347
902.854	8298
902.973	8240
903.091	8096
903.21	8123
903.328	8202
903.446	8084
903.565	8069
903.683	8084
903.801	7974
903.919	8119
904.038	8115
904.156	8046
904.274	8077
904.392	8092
904.51	8039
904.627	8065
904.745	8065
904.863	8054
904.981	7875
905.098	7833
905.216	7868
905.334	7909
905.451	7875
905.569	7856
905.686	7925
905.803	7898
905.921	7734
906.038	7807
906.155	7795
906.272	7753
906.389	7689
906.506	7601
906.623	7662
906.74	7533
906.857	7510
906.974	7514
907.091	7643
907.208	7696
907.324	7643
907.441	7601
907.557	7438
907.674	7480
907.79	7373
907.907	7403
908.023	7441
908.139	7449
908.256	7350
908.372	7358
908.488	7381
908.604	7285
908.72	7187
908.836	7251
908.952	7301
909.068	7305
909.184	7377
909.3	7217
909.415	7301
909.531	7263
909.647	7099
909.762	7069
909.878	7103
909.993	7164
910.108	7046
910.224	7091
910.339	7179
910.454	7034
910.57	7069
910.685	6970
910.8	7126
910.915	7088
911.03	7069
911.145	6916
911.259	6913
911.374	6909
911.489	6779
911.604	6779
911.718	6749
911.833	6715
911.947	6688
912.062	6578
912.176	6707
912.291	6703
912.405	6665
912.519	6844
912.633	6882
912.748	6730
912.862	6741
912.976	6532
913.09	6566
913.204	6597
913.318	6623
913.431	6646
913.545	6703
913.659	6665
913.772	6570
913.886	6589
914	6570
914.113	6563
914.226	6620
914.34	6646
914.453	6574
914.566	6536
914.68	6479
914.793	6544
914.906	6410
915.019	6384
915.132	6346
915.245	6437
915.358	6448
915.47	6418
915.583	6426
915.696	6448
915.809	6585
915.921	6536
916.034	6448
916.146	6357
916.259	6407
916.371	6486
916.483	6407
916.595	6414
916.708	6338
916.82	6384
916.932	6319
917.044	6407
917.156	6380
917.268	6300
917.38	6346
917.491	6315
917.603	6361
917.715	6403
917.826	6414
917.938	6388
918.049	6247
918.161	6369
918.272	6369
918.384	6361
918.495	6357
918.606	6213
918.717	6235
918.828	6239
918.939	6247
919.05	6228
919.161	6251
919.272	6057
919.383	6129
919.494	6323
919.604	6426
919.715	6315
919.826	6228
919.936	6232
920.047	6235
920.157	6304
920.267	6528
920.378	6311
920.488	6243
920.598	6467
920.708	6555
920.818	6422
920.928	6445
921.038	6612
921.148	6506
921.258	6426
921.368	6327
921.477	6159
921.587	6186
921.697	6076
921.806	6178
921.916	6060
922.025	5977
922.134	5961
922.244	5912
922.353	5927
922.462	5847
922.571	5809
922.68	5718
922.789	5657
922.898	5657
923.007	5668
923.116	5680
923.224	5646
923.333	5627
923.442	5627
923.55	5520
923.659	5505
923.767	5623
923.876	5539
923.984	5573
924.092	5516
924.201	5493
924.309	5577
924.417	5524
924.525	5524
924.633	5516
924.741	6277
924.849	5334
924.956	5467
925.064	5345
925.172	5311
925.279	5284
925.387	5337
925.494	5326
925.602	5349
925.709	5372
925.816	5265
925.924	5265
926.031	5387
926.138	5220
926.245	5292
926.352	5254
926.459	5334
926.566	5334
926.673	5193
926.779	5140
926.886	5128
926.993	4991
927.099	4999
927.206	5022
927.312	4911
927.419	5037
927.525	4999
927.631	4991
927.737	4938
927.843	4828
927.95	4733
928.056	4839
928.162	4816
928.267	4862
928.373	5246
928.479	4854
928.585	4649
928.69	4778
928.796	4725
928.901	4622
929.007	4573
929.112	4649
929.218	4626
929.323	4615
929.428	4516
929.533	4683
929.638	4527
929.743	4436
929.848	4546
929.953	4481
930.058	4440
930.163	4329
930.267	4329
930.372	4417
930.477	4303
930.581	4462
930.685	4367
930.79	4196
930.894	4261
930.998	4280
931.103	4417
931.207	4101
931.311	4143
931.415	4029
931.519	3945
931.623	3956
