Data from glass_V78500241_2796.txt Node
Date: Wed Sep 01 19:33:52 CST 2021
User: usil
Spectrometer: V785-0024
Trigger mode: 0
Integration Time (sec): 4.000000E-1
Scans to average: 1
Nonlinearity correction enabled: false
Boxcar width: 0
Storing dark spectrum: false
XAxis mode: Wavelengths
Number of Pixels in Spectrum: 1024
>>>>>Begin Spectral Data<<<<<
801.071	3762
801.214	3755
801.356	3679
801.499	3747
801.641	3720
801.783	3781
801.926	3819
802.068	3835
802.211	3838
802.353	3892
802.496	3804
802.638	3831
802.78	3876
802.923	3926
803.065	3899
803.208	3823
803.35	3884
803.492	3823
803.635	3937
803.777	3785
803.919	3869
804.061	4120
804.204	3979
804.346	3896
804.488	3934
804.63	3991
804.773	3960
804.915	4002
805.057	4147
805.199	4017
805.341	4071
805.483	4116
805.626	4112
805.768	4124
805.91	4150
806.052	4196
806.194	4181
806.336	4344
806.478	4173
806.62	4105
806.762	4204
806.904	4204
807.046	4310
807.188	4249
807.33	4131
807.472	4204
807.614	4207
807.756	4261
807.898	4215
808.04	4150
808.182	4287
808.324	4295
808.465	4356
808.607	4447
808.749	4413
808.891	4485
809.033	4516
809.174	4363
809.316	4276
809.458	4200
809.6	4166
809.741	4120
809.883	4120
810.025	4207
810.166	4230
810.308	4158
810.45	4265
810.591	4211
810.733	4261
810.875	4451
811.016	4752
811.158	5094
811.299	5235
811.441	5265
811.582	5090
811.724	4687
811.865	4481
812.007	4466
812.148	4432
812.29	4375
812.431	4424
812.573	4303
812.714	4375
812.855	4398
812.997	4383
813.138	4466
813.279	4360
813.421	4409
813.562	4360
813.703	4306
813.845	4375
813.986	4207
814.127	4196
814.268	4246
814.41	4261
814.551	4268
814.692	4295
814.833	4249
814.974	4284
815.115	4379
815.256	4246
815.397	4196
815.539	4272
815.68	4219
815.821	4196
815.962	4280
816.103	4303
816.244	4234
816.385	4234
816.526	4223
816.666	4154
816.807	4067
816.948	4169
817.089	4158
817.23	4169
817.371	4025
817.512	3983
817.653	4013
817.793	4013
817.934	3983
818.075	4071
818.216	4036
818.356	4051
818.497	3983
818.638	3903
818.778	3896
818.919	3880
819.06	3861
819.2	3892
819.341	3854
819.481	3827
819.622	3911
819.762	4017
819.903	3964
820.043	3850
820.184	3831
820.324	3838
820.465	3835
820.605	3869
820.746	3869
820.886	3770
821.026	3922
821.167	3926
821.307	3934
821.447	3972
821.588	3949
821.728	3915
821.868	3926
822.008	3808
822.149	3884
822.289	3896
822.429	3766
822.569	3740
822.709	3789
822.849	3679
822.99	3728
823.13	3785
823.27	3755
823.41	3720
823.55	3736
823.69	3713
823.83	3709
823.97	3667
824.11	3606
824.25	3595
824.389	3641
824.529	3682
824.669	3671
824.809	3679
824.949	3701
825.089	3686
825.228	3667
825.368	3572
825.508	3561
825.648	3549
825.787	3584
825.927	3648
826.067	3622
826.206	3648
826.346	3774
826.485	3835
826.625	3819
826.765	3915
826.904	3808
827.044	3595
827.183	3511
827.323	3458
827.462	3492
827.601	3447
827.741	3447
827.88	3435
828.02	3370
828.159	3412
828.298	3439
828.437	3545
828.577	3439
828.716	3591
828.855	3454
828.994	3382
829.134	3348
829.273	3382
829.412	3336
829.551	3306
829.69	3370
829.829	3401
829.968	3507
830.107	3424
830.246	3424
830.385	3351
830.524	3363
830.663	3302
830.802	3218
830.941	3195
831.08	3176
831.219	3256
831.357	3230
831.496	3378
831.635	3230
831.774	3169
831.913	3199
832.051	3165
832.19	3169
832.329	3214
832.467	3142
832.606	3077
832.744	3112
832.883	3192
833.022	3192
833.16	3245
833.299	3306
833.437	3332
833.576	3389
833.714	3393
833.852	3416
833.991	3469
834.129	3466
834.267	3454
834.406	3382
834.544	3378
834.682	3416
834.821	3409
834.959	3504
835.097	3424
835.235	3549
835.373	3496
835.511	3466
835.65	3416
835.788	3504
835.926	3409
836.064	3344
836.202	3374
836.34	3568
836.478	3572
836.615	3534
836.753	3515
836.891	3652
837.029	3584
837.167	3549
837.305	3553
837.443	3507
837.58	3507
837.718	3584
837.856	3534
837.993	3538
838.131	3561
838.269	3500
838.406	3561
838.544	3545
838.681	3439
838.819	3424
838.956	3374
839.094	3367
839.231	3439
839.369	3439
839.506	3755
839.643	3603
839.781	3481
839.918	3454
840.055	3488
840.193	3564
840.33	3530
840.467	3553
840.604	3545
840.742	3751
840.879	3534
841.016	3584
841.153	3637
841.29	3728
841.427	3732
841.564	3663
841.701	3671
841.838	3644
841.975	3660
842.112	3698
842.249	3614
842.385	3614
842.522	3850
842.659	3633
842.796	3667
842.933	3698
843.069	3660
843.206	3686
843.343	3827
843.479	3774
843.616	3781
843.752	3671
843.889	3709
844.025	3800
844.162	3667
844.298	3781
844.435	3751
844.571	3797
844.708	3876
844.844	3945
844.98	3994
845.117	4032
845.253	3915
845.389	3884
845.525	3918
845.661	3956
845.798	3907
845.934	3956
846.07	3937
846.206	4025
846.342	4067
846.478	4055
846.614	3918
846.75	3918
846.886	3911
847.022	4029
847.158	3972
847.294	3987
847.429	3937
847.565	3956
847.701	4265
847.837	3873
847.972	3846
848.108	3968
848.244	3953
848.379	3827
848.515	3789
848.65	3831
848.786	3812
848.921	3873
849.057	3930
849.192	3949
849.328	3876
849.463	3892
849.598	3888
849.734	3854
849.869	3819
850.004	3778
850.14	3751
850.275	3793
850.41	3720
850.545	3770
850.68	3743
850.815	3789
850.95	3751
851.085	3918
851.22	3831
851.355	3816
851.49	3781
851.625	3740
851.76	3759
851.895	3774
852.03	3717
852.165	3781
852.299	3850
852.434	3896
852.569	3831
852.703	3823
852.838	3861
852.973	3968
853.107	3968
853.242	3838
853.376	3827
853.511	3751
853.645	3808
853.78	3930
853.914	3876
854.048	3850
854.183	3861
854.317	3934
854.451	4032
854.585	3953
854.72	3911
854.854	4051
854.988	3907
855.122	4017
855.256	3861
855.39	3979
855.524	4067
855.658	4086
855.792	4082
855.926	4097
856.06	4120
856.194	4185
856.327	4109
856.461	4090
856.595	4147
856.729	4169
856.862	4242
856.996	4200
857.13	4280
857.263	4325
857.397	4344
857.53	4238
857.664	4341
857.797	4341
857.931	4421
858.064	4413
858.197	4413
858.331	4371
858.464	4367
858.597	4318
858.731	4459
858.864	4481
858.997	4394
859.13	4508
859.263	4428
859.396	4558
859.529	4508
859.662	4500
859.795	4508
859.928	4569
860.061	4687
860.194	4733
860.327	4626
860.46	4618
860.592	4725
860.725	4748
860.858	4774
860.99	4683
861.123	4729
861.256	4675
861.388	4782
861.521	5223
861.653	4656
861.786	4694
861.918	4694
862.05	4801
862.183	4816
862.315	4866
862.447	4850
862.58	4862
862.712	4774
862.844	4805
862.976	4824
863.108	4820
863.24	5143
863.372	4809
863.504	4877
863.636	4900
863.768	4934
863.9	4938
864.032	4881
864.164	4915
864.296	5022
864.428	5060
864.559	5098
864.691	5128
864.823	5128
864.954	5124
865.086	5128
865.217	5090
865.349	5056
865.48	5105
865.612	5166
865.743	5334
865.875	5185
866.006	5166
866.137	5220
866.269	5231
866.4	5212
866.531	5231
866.662	5208
866.793	5273
866.924	5311
867.055	5307
867.186	5292
867.317	5261
867.448	5349
867.579	5398
867.71	5368
867.841	5360
867.972	5444
868.103	5505
868.233	5482
868.364	5528
868.495	5543
868.625	5691
868.756	5786
868.886	5680
869.017	5710
869.147	5844
869.278	5824
869.408	5779
869.539	5832
869.669	5866
869.799	5893
869.929	5988
870.06	5996
870.19	6178
870.32	6167
870.45	6201
870.58	6281
870.71	6460
870.84	6433
870.97	6422
871.1	6350
871.23	6646
871.36	6658
871.489	6639
871.619	6715
871.749	6776
871.879	6867
872.008	6970
872.138	6966
872.267	6932
872.397	7012
872.526	6966
872.656	7061
872.785	7168
872.915	7400
873.044	7495
873.173	7510
873.303	7674
873.432	7723
873.561	7883
873.69	7856
873.819	8001
873.948	8187
874.077	8180
874.206	8309
874.335	8396
874.464	8682
874.593	8815
874.722	8895
874.851	9089
874.979	9218
875.108	9393
875.237	9450
875.365	9534
875.494	9618
875.623	9816
875.751	9778
875.88	9937
876.008	10116
876.136	10200
876.265	10500
876.393	10683
876.521	10649
876.65	10824
876.778	10752
876.906	10850
877.034	10923
877.162	11075
877.29	11102
877.418	11296
877.546	11326
877.674	11421
877.802	11410
877.93	11532
878.058	11528
878.185	11551
878.313	11615
878.441	11726
878.568	11638
878.696	11745
878.824	11729
878.951	11889
879.079	12003
879.206	12152
879.333	11958
879.461	11931
879.588	12102
879.715	12106
879.842	12167
879.97	12015
880.097	11847
880.224	11961
880.351	11859
880.478	11840
880.605	11935
880.732	11771
880.859	11996
880.986	11828
881.112	11824
881.239	11703
881.366	11657
881.493	11570
881.619	11585
881.746	11619
881.872	11577
881.999	11543
882.125	11543
882.252	11566
882.378	11486
882.505	11547
882.631	11337
882.757	11254
882.883	11345
883.01	11223
883.136	11246
883.262	11102
883.388	11064
883.514	11117
883.64	11109
883.766	11029
883.892	10930
884.018	10965
884.143	11003
884.269	11022
884.395	10797
884.52	10729
884.646	10763
884.772	10679
884.897	10622
885.023	10691
885.148	10710
885.274	10679
885.399	10736
885.524	10580
885.65	10577
885.775	10577
885.9	10493
886.025	10523
886.15	10565
886.275	10478
886.4	10432
886.525	10409
886.65	10356
886.775	10325
886.9	10447
887.025	10538
887.149	10329
887.274	10295
887.399	10169
887.523	10196
887.648	10067
887.773	10188
887.897	10249
888.021	10268
888.146	10025
888.27	10257
888.395	10246
888.519	10169
888.643	10219
888.767	10188
888.891	10109
889.015	9892
889.139	10036
889.263	9934
889.387	10078
889.511	10116
889.635	10131
889.759	9930
889.883	9964
890.006	10010
890.13	10143
890.254	9934
890.377	9949
890.501	9785
890.624	9831
890.748	9812
890.871	9751
890.995	9720
891.118	9625
891.241	9740
891.364	9686
891.488	9827
891.611	9736
891.734	9740
891.857	9770
891.98	9728
892.103	9770
892.226	9743
892.349	9564
892.471	9564
892.594	9580
892.717	9561
892.839	9606
892.962	9568
893.085	9652
893.207	9515
893.33	9553
893.452	9549
893.575	9534
893.697	9435
893.819	9614
893.941	9568
894.064	9603
894.186	9416
894.308	9435
894.43	9504
894.552	9572
894.674	9515
894.796	9405
894.918	9363
895.04	9294
895.161	9310
895.283	9344
895.405	9249
895.526	9195
895.648	9218
895.769	9203
895.891	9241
896.012	9233
896.134	9142
896.255	9112
896.376	9085
896.498	9176
896.619	9108
896.74	9131
896.861	9081
896.982	9245
897.103	9245
897.224	9150
897.345	9119
897.466	8979
897.587	9009
897.708	9093
897.828	9020
897.949	8960
898.07	8826
898.19	8868
898.311	9013
898.431	8944
898.552	8918
898.672	8998
898.792	8921
898.913	8880
899.033	8781
899.153	8712
899.273	8636
899.393	8686
899.513	8632
899.633	8735
899.753	8743
899.873	8682
899.993	8689
900.113	8701
900.232	8678
900.352	8678
900.472	8636
900.591	8556
900.711	8556
900.83	8537
900.95	8663
901.069	8640
901.189	8560
901.308	8419
901.427	8339
901.546	8286
901.665	8427
901.784	8533
901.904	8450
902.023	8351
902.141	8202
902.26	8145
902.379	8225
902.498	8172
902.617	8191
902.735	8267
902.854	8248
902.973	8279
903.091	8130
903.21	8119
903.328	8145
903.446	8077
903.565	8100
903.683	8077
903.801	8008
903.919	8130
904.038	8115
904.156	7982
904.274	8027
904.392	7986
904.51	7989
904.627	8065
904.745	8043
904.863	8054
904.981	7883
905.098	7909
905.216	7868
905.334	7875
905.451	7894
905.569	7852
905.686	7879
905.803	7917
905.921	7769
906.038	7902
906.155	7811
906.272	7693
906.389	7738
906.506	7639
906.623	7563
906.74	7578
906.857	7540
906.974	7548
907.091	7597
907.208	7769
907.324	7590
907.441	7506
907.557	7392
907.674	7422
907.79	7384
907.907	7377
908.023	7480
908.139	7396
908.256	7301
908.372	7422
908.488	7312
908.604	7206
908.72	7244
908.836	7282
908.952	7259
909.068	7213
909.184	7282
909.3	7240
909.415	7289
909.531	7251
909.647	7099
909.762	7114
909.878	7027
909.993	7053
910.108	7023
910.224	7046
910.339	7126
910.454	7046
910.57	7015
910.685	6913
910.8	7114
910.915	7118
911.03	6993
911.145	6886
911.259	6878
911.374	6806
911.489	6825
911.604	6806
911.718	6745
911.833	6707
911.947	6616
912.062	6597
912.176	6650
912.291	6719
912.405	6616
912.519	6791
912.633	6814
912.748	6802
912.862	6673
912.976	6563
913.09	6525
913.204	6604
913.318	6616
913.431	6642
913.545	6677
913.659	6673
913.772	6654
913.886	6521
914	6486
914.113	6589
914.226	6631
914.34	6559
914.453	6502
914.566	6608
914.68	6525
914.793	6532
914.906	6391
915.019	6403
915.132	6346
915.245	6395
915.358	6369
915.47	6422
915.583	6460
915.696	6464
915.809	6441
915.921	6486
916.034	6418
916.146	6429
916.259	6391
916.371	6429
916.483	6418
916.595	6369
916.708	6338
916.82	6331
916.932	6369
917.044	6334
917.156	6376
917.268	6289
917.38	6350
917.491	6353
917.603	6304
917.715	6399
917.826	6403
917.938	6338
918.049	6258
918.161	6361
918.272	6350
918.384	6407
918.495	6380
918.606	6235
918.717	6209
918.828	6220
918.939	6262
919.05	6182
919.161	6247
919.272	6095
919.383	6125
919.494	6270
919.604	6414
919.715	6300
919.826	6194
919.936	6224
920.047	6281
920.157	6247
920.267	6464
920.378	6304
920.488	6251
920.598	6422
920.708	6517
920.818	6456
920.928	6403
921.038	6635
921.148	6585
921.258	6353
921.368	6254
921.477	6209
921.587	6117
921.697	6057
921.806	6148
921.916	6102
922.025	5874
922.134	5874
922.244	5855
922.353	5977
922.462	5813
922.571	5748
922.68	5722
922.789	5653
922.898	5718
923.007	5630
923.116	5703
923.224	5691
923.333	5653
923.442	5611
923.55	5554
923.659	5562
923.767	5577
923.876	5463
923.984	5627
924.092	5493
924.201	5551
924.309	5493
924.417	5482
924.525	5459
924.633	5524
924.741	6209
924.849	5330
924.956	5429
925.064	5315
925.172	5341
925.279	5273
925.387	5315
925.494	5303
925.602	5360
925.709	5421
925.816	5284
925.924	5280
926.031	5341
926.138	5273
926.245	5303
926.352	5223
926.459	5288
926.566	5334
926.673	5162
926.779	5113
926.886	5090
926.993	5037
927.099	5003
927.206	4972
927.312	4972
927.419	5010
927.525	4965
927.631	4972
927.737	4870
927.843	4873
927.95	4755
928.056	4759
928.162	4828
928.267	4812
928.373	5318
928.479	4847
928.585	4641
928.69	4759
928.796	4801
928.901	4694
929.007	4558
929.112	4660
929.218	4611
929.323	4577
929.428	4561
929.533	4660
929.638	4481
929.743	4554
929.848	4538
929.953	4481
930.058	4417
930.163	4284
930.267	4333
930.372	4386
930.477	4257
930.581	4432
930.685	4291
930.79	4227
930.894	4261
930.998	4261
931.103	4375
931.207	4105
931.311	4090
931.415	3983
931.519	3918
931.623	3964
