Data from glass_V78500241_780.txt Node
Date: Wed Sep 01 19:19:54 CST 2021
User: usil
Spectrometer: V785-0024
Trigger mode: 0
Integration Time (sec): 4.000000E-1
Scans to average: 1
Nonlinearity correction enabled: false
Boxcar width: 0
Storing dark spectrum: false
XAxis mode: Wavelengths
Number of Pixels in Spectrum: 1024
>>>>>Begin Spectral Data<<<<<
801.071	3778
801.214	3770
801.356	3701
801.499	3709
801.641	3732
801.783	3804
801.926	3876
802.068	3884
802.211	3876
802.353	3876
802.496	3857
802.638	3915
802.78	3915
802.923	3941
803.065	3930
803.208	3819
803.35	3892
803.492	3903
803.635	3953
803.777	3808
803.919	3873
804.061	4131
804.204	3960
804.346	3937
804.488	3884
804.63	4036
804.773	3975
804.915	4021
805.057	4192
805.199	4048
805.341	4097
805.483	4093
805.626	4158
805.768	4071
805.91	4215
806.052	4230
806.194	4196
806.336	4337
806.478	4211
806.62	4181
806.762	4173
806.904	4242
807.046	4360
807.188	4219
807.33	4173
807.472	4234
807.614	4181
807.756	4287
807.898	4238
808.04	4230
808.182	4284
808.324	4360
808.465	4352
808.607	4455
808.749	4443
808.891	4497
809.033	4573
809.174	4409
809.316	4276
809.458	4246
809.6	4162
809.741	4124
809.883	4188
810.025	4238
810.166	4207
810.308	4261
810.45	4249
810.591	4230
810.733	4284
810.875	4497
811.016	4885
811.158	5147
811.299	5242
811.441	5315
811.582	5109
811.724	4748
811.865	4459
812.007	4462
812.148	4470
812.29	4379
812.431	4409
812.573	4424
812.714	4402
812.855	4474
812.997	4443
813.138	4485
813.279	4421
813.421	4455
813.562	4405
813.703	4348
813.845	4310
813.986	4268
814.127	4219
814.268	4268
814.41	4337
814.551	4238
814.692	4280
814.833	4322
814.974	4284
815.115	4356
815.256	4268
815.397	4261
815.539	4261
815.68	4196
815.821	4238
815.962	4306
816.103	4284
816.244	4257
816.385	4261
816.526	4257
816.666	4219
816.807	4101
816.948	4177
817.089	4188
817.23	4086
817.371	4036
817.512	4055
817.653	4067
817.793	4044
817.934	4025
818.075	4147
818.216	4124
818.356	4059
818.497	4006
818.638	3903
818.778	3934
818.919	3941
819.06	3846
819.2	3949
819.341	3842
819.481	3850
819.622	3922
819.762	4071
819.903	3983
820.043	3857
820.184	3838
820.324	3854
820.465	3892
820.605	3838
820.746	3850
820.886	3846
821.026	3926
821.167	3918
821.307	3968
821.447	4017
821.588	3956
821.728	3956
821.868	3972
822.008	3907
822.149	3899
822.289	3911
822.429	3774
822.569	3778
822.709	3823
822.849	3701
822.99	3747
823.13	3770
823.27	3789
823.41	3698
823.55	3770
823.69	3667
823.83	3736
823.97	3682
824.11	3633
824.25	3618
824.389	3652
824.529	3660
824.669	3629
824.809	3736
824.949	3762
825.089	3751
825.228	3736
825.368	3580
825.508	3587
825.648	3603
825.787	3622
825.927	3663
826.067	3648
826.206	3709
826.346	3812
826.485	3846
826.625	3857
826.765	3975
826.904	3857
827.044	3580
827.183	3542
827.323	3450
827.462	3515
827.601	3488
827.741	3431
827.88	3439
828.02	3370
828.159	3454
828.298	3511
828.437	3576
828.577	3511
828.716	3637
828.855	3477
828.994	3401
829.134	3378
829.273	3397
829.412	3351
829.551	3348
829.69	3393
829.829	3447
829.968	3496
830.107	3447
830.246	3485
830.385	3348
830.524	3367
830.663	3317
830.802	3275
830.941	3245
831.08	3226
831.219	3241
831.357	3260
831.496	3424
831.635	3222
831.774	3203
831.913	3211
832.051	3154
832.19	3169
832.329	3226
832.467	3138
832.606	3116
832.744	3184
832.883	3192
833.022	3169
833.16	3256
833.299	3287
833.437	3359
833.576	3336
833.714	3405
833.852	3443
833.991	3431
834.129	3488
834.267	3443
834.406	3416
834.544	3454
834.682	3420
834.821	3412
834.959	3553
835.097	3450
835.235	3568
835.373	3496
835.511	3492
835.65	3485
835.788	3447
835.926	3382
836.064	3412
836.202	3431
836.34	3580
836.478	3614
836.615	3545
836.753	3584
836.891	3633
837.029	3618
837.167	3614
837.305	3568
837.443	3576
837.58	3523
837.718	3637
837.856	3587
837.993	3576
838.131	3622
838.269	3606
838.406	3641
838.544	3564
838.681	3500
838.819	3466
838.956	3348
839.094	3382
839.231	3454
839.369	3500
839.506	3770
839.643	3618
839.781	3507
839.918	3500
840.055	3534
840.193	3599
840.33	3511
840.467	3580
840.604	3587
840.742	3793
840.879	3599
841.016	3595
841.153	3580
841.29	3762
841.427	3720
841.564	3720
841.701	3762
841.838	3694
841.975	3698
842.112	3701
842.249	3667
842.385	3644
842.522	3831
842.659	3694
842.796	3656
842.933	3770
843.069	3728
843.206	3709
843.343	3800
843.479	3812
843.616	3808
843.752	3686
843.889	3675
844.025	3846
844.162	3797
844.298	3892
844.435	3789
844.571	3819
844.708	3903
844.844	3994
844.98	4067
845.117	4036
845.253	3972
845.389	3888
845.525	4013
845.661	3987
845.798	3983
845.934	3998
846.07	3979
846.206	4063
846.342	4112
846.478	3998
846.614	3975
846.75	3960
846.886	3907
847.022	4063
847.158	4051
847.294	4017
847.429	4067
847.565	4040
847.701	4253
847.837	3922
847.972	3850
848.108	3979
848.244	3998
848.379	3911
848.515	3819
848.65	3831
848.786	3873
848.921	3884
849.057	3926
849.192	3945
849.328	3960
849.463	3892
849.598	3918
849.734	3880
849.869	3842
850.004	3778
850.14	3823
850.275	3781
850.41	3762
850.545	3789
850.68	3766
850.815	3797
850.95	3797
851.085	3960
851.22	3892
851.355	3835
851.49	3808
851.625	3823
851.76	3797
851.895	3717
852.03	3740
852.165	3808
852.299	3869
852.434	3899
852.569	3926
852.703	3869
852.838	3915
852.973	3983
853.107	4010
853.242	3903
853.376	3915
853.511	3751
853.645	3854
853.78	3934
853.914	3899
854.048	3918
854.183	3899
854.317	3945
854.451	4044
854.585	3975
854.72	3975
854.854	4044
854.988	3937
855.122	4006
855.256	3926
855.39	4021
855.524	4124
855.658	4109
855.792	4093
855.926	4166
856.06	4185
856.194	4154
856.327	4181
856.461	4124
856.595	4147
856.729	4196
856.862	4325
856.996	4234
857.13	4310
857.263	4333
857.397	4413
857.53	4272
857.664	4375
857.797	4375
857.931	4421
858.064	4409
858.197	4466
858.331	4398
858.464	4424
858.597	4337
858.731	4405
858.864	4440
858.997	4470
859.13	4500
859.263	4561
859.396	4577
859.529	4554
859.662	4546
859.795	4512
859.928	4645
860.061	4698
860.194	4752
860.327	4653
860.46	4698
860.592	4725
860.725	4790
860.858	4797
860.99	4694
861.123	4683
861.256	4721
861.388	4790
861.521	5402
861.653	4748
861.786	4740
861.918	4809
862.05	4812
862.183	4858
862.315	4919
862.447	4942
862.58	4885
862.712	4824
862.844	4812
862.976	4911
863.108	4866
863.24	5261
863.372	4854
863.504	4892
863.636	4892
863.768	4999
863.9	5018
864.032	4942
864.164	4976
864.296	5037
864.428	5090
864.559	5113
864.691	5136
864.823	5071
864.954	5132
865.086	5174
865.217	5166
865.349	5105
865.48	5136
865.612	5181
865.743	5299
865.875	5204
866.006	5201
866.137	5250
866.269	5258
866.4	5254
866.531	5269
866.662	5273
866.793	5303
866.924	5284
867.055	5360
867.186	5341
867.317	5322
867.448	5357
867.579	5379
867.71	5391
867.841	5372
867.972	5474
868.103	5497
868.233	5535
868.364	5528
868.495	5581
868.625	5680
868.756	5847
868.886	5665
869.017	5748
869.147	5870
869.278	5874
869.408	5844
869.539	5802
869.669	5916
869.799	5855
869.929	6003
870.06	5950
870.19	6190
870.32	6205
870.45	6304
870.58	6342
870.71	6407
870.84	6414
870.97	6452
871.1	6471
871.23	6650
871.36	6734
871.489	6650
871.619	6772
871.749	6867
871.879	6901
872.008	7034
872.138	7027
872.267	6985
872.397	7053
872.526	7069
872.656	7046
872.785	7190
872.915	7354
873.044	7575
873.173	7544
873.303	7719
873.432	7780
873.561	7784
873.69	7925
873.819	8016
873.948	8161
874.077	8282
874.206	8343
874.335	8450
874.464	8659
874.593	8887
874.722	8929
874.851	9116
874.979	9291
875.108	9370
875.237	9424
875.365	9504
875.494	9656
875.623	9819
875.751	9846
875.88	9964
876.008	10169
876.136	10322
876.265	10512
876.393	10698
876.521	10740
876.65	10790
876.778	10869
876.906	10927
877.034	10995
877.162	11060
877.29	11185
877.418	11299
877.546	11311
877.674	11421
877.802	11539
877.93	11543
878.058	11516
878.185	11604
878.313	11623
878.441	11813
878.568	11688
878.696	11764
878.824	11851
878.951	11901
879.079	11988
879.206	12064
879.333	12019
879.461	11988
879.588	12167
879.715	12083
879.842	12167
879.97	11973
880.097	11824
880.224	11870
880.351	11847
880.478	11927
880.605	11889
880.732	11832
880.859	12072
880.986	11783
881.112	11916
881.239	11786
881.366	11695
881.493	11634
881.619	11592
881.746	11615
881.872	11554
881.999	11486
882.125	11482
882.252	11535
882.378	11562
882.505	11558
882.631	11337
882.757	11311
882.883	11322
883.01	11280
883.136	11178
883.262	11197
883.388	11060
883.514	11189
883.64	11208
883.766	11174
883.892	11018
884.018	10972
884.143	11094
884.269	11201
884.395	10854
884.52	10797
884.646	10824
884.772	10763
884.897	10664
885.023	10767
885.148	10782
885.274	10862
885.399	10717
885.524	10611
885.65	10565
885.775	10615
885.9	10546
886.025	10653
886.15	10592
886.275	10390
886.4	10413
886.525	10405
886.65	10375
886.775	10303
886.9	10519
887.025	10459
887.149	10375
887.274	10230
887.399	10166
887.523	10131
887.648	10090
887.773	10017
887.897	10249
888.021	10265
888.146	10120
888.27	10310
888.395	10200
888.519	10135
888.643	10150
888.767	10154
888.891	10086
889.015	10044
889.139	10055
889.263	10051
889.387	10097
889.511	10063
889.635	10135
889.759	9979
889.883	10021
890.006	9941
890.13	10090
890.254	9934
890.377	9991
890.501	9869
890.624	9880
890.748	9873
890.871	9736
890.995	9842
891.118	9663
891.241	9740
891.364	9755
891.488	9854
891.611	9667
891.734	9740
891.857	9804
891.98	9705
892.103	9747
892.226	9660
892.349	9713
892.471	9466
892.594	9568
892.717	9633
892.839	9572
892.962	9572
893.085	9648
893.207	9584
893.33	9545
893.452	9542
893.575	9595
893.697	9462
893.819	9606
893.941	9572
894.064	9603
894.186	9477
894.308	9351
894.43	9553
894.552	9542
894.674	9462
894.796	9344
894.918	9405
895.04	9370
895.161	9389
895.283	9382
895.405	9313
895.526	9245
895.648	9214
895.769	9374
895.891	9203
896.012	9272
896.134	9249
896.255	9119
896.376	9142
896.498	9184
896.619	9123
896.74	9127
896.861	9051
896.982	9272
897.103	9344
897.224	9199
897.345	9085
897.466	9036
897.587	9017
897.708	9173
897.828	9005
897.949	8956
898.07	8861
898.19	8941
898.311	8990
898.431	8823
898.552	8891
898.672	8990
898.792	8994
898.913	8952
899.033	8769
899.153	8800
899.273	8697
899.393	8720
899.513	8735
899.633	8693
899.753	8716
899.873	8674
899.993	8804
900.113	8682
900.232	8705
900.352	8674
900.472	8617
900.591	8526
900.711	8594
900.83	8552
900.95	8697
901.069	8727
901.189	8556
901.308	8438
901.427	8438
901.546	8503
901.665	8454
901.784	8518
901.904	8400
902.023	8362
902.141	8176
902.26	8279
902.379	8309
902.498	8244
902.617	8298
902.735	8317
902.854	8374
902.973	8248
903.091	8168
903.21	8164
903.328	8172
903.446	8126
903.565	8054
903.683	8126
903.801	8024
903.919	8115
904.038	8092
904.156	8031
904.274	8130
904.392	7997
904.51	8027
904.627	8065
904.745	8115
904.863	8088
904.981	7997
905.098	7845
905.216	7894
905.334	7921
905.451	7890
905.569	7826
905.686	7898
905.803	7947
905.921	7750
906.038	7890
906.155	7837
906.272	7753
906.389	7723
906.506	7666
906.623	7685
906.74	7582
906.857	7537
906.974	7624
907.091	7647
907.208	7761
907.324	7647
907.441	7601
907.557	7438
907.674	7392
907.79	7422
907.907	7441
908.023	7495
908.139	7392
908.256	7377
908.372	7346
908.488	7270
908.604	7274
908.72	7289
908.836	7327
908.952	7305
909.068	7320
909.184	7362
909.3	7339
909.415	7266
909.531	7285
909.647	7103
909.762	7091
909.878	7126
909.993	7156
910.108	7137
910.224	7118
910.339	7122
910.454	7034
910.57	7004
910.685	6928
910.8	7187
910.915	7084
911.03	7084
911.145	6916
911.259	6901
911.374	6928
911.489	6859
911.604	6798
911.718	6738
911.833	6734
911.947	6585
912.062	6563
912.176	6711
912.291	6768
912.405	6696
912.519	6856
912.633	6821
912.748	6764
912.862	6745
912.976	6631
913.09	6589
913.204	6654
913.318	6627
913.431	6642
913.545	6654
913.659	6722
913.772	6707
913.886	6589
914	6589
914.113	6623
914.226	6715
914.34	6662
914.453	6536
914.566	6684
914.68	6593
914.793	6486
914.906	6441
915.019	6391
915.132	6353
915.245	6426
915.358	6437
915.47	6475
915.583	6437
915.696	6494
915.809	6574
915.921	6521
916.034	6490
916.146	6426
916.259	6407
916.371	6475
916.483	6498
916.595	6422
916.708	6460
916.82	6384
916.932	6369
917.044	6357
917.156	6403
917.268	6277
917.38	6327
917.491	6270
917.603	6391
917.715	6391
917.826	6448
917.938	6311
918.049	6247
918.161	6399
918.272	6509
918.384	6460
918.495	6380
918.606	6292
918.717	6182
918.828	6296
918.939	6258
919.05	6258
919.161	6220
919.272	6117
919.383	6163
919.494	6338
919.604	6437
919.715	6285
919.826	6251
919.936	6285
920.047	6376
920.157	6308
920.267	6460
920.378	6327
920.488	6319
920.598	6426
920.708	6563
920.818	6483
920.928	6513
921.038	6627
921.148	6589
921.258	6376
921.368	6292
921.477	6171
921.587	6197
921.697	6083
921.806	6201
921.916	6129
922.025	5942
922.134	5931
922.244	5897
922.353	5954
922.462	5847
922.571	5802
922.68	5691
922.789	5684
922.898	5718
923.007	5646
923.116	5722
923.224	5680
923.333	5699
923.442	5581
923.55	5562
923.659	5577
923.767	5608
923.876	5573
923.984	5623
924.092	5543
924.201	5528
924.309	5558
924.417	5528
924.525	5455
924.633	5516
924.741	6182
924.849	5395
924.956	5524
925.064	5341
925.172	5288
925.279	5337
925.387	5368
925.494	5398
925.602	5440
925.709	5383
925.816	5376
925.924	5334
926.031	5368
926.138	5318
926.245	5337
926.352	5208
926.459	5337
926.566	5364
926.673	5250
926.779	5159
926.886	5143
926.993	4991
927.099	5014
927.206	4961
927.312	4946
927.419	5033
927.525	4972
927.631	4972
927.737	4858
927.843	4843
927.95	4847
928.056	4873
928.162	4831
928.267	4854
928.373	5372
928.479	4873
928.585	4698
928.69	4763
928.796	4805
928.901	4668
929.007	4656
929.112	4694
929.218	4611
929.323	4565
929.428	4569
929.533	4679
929.638	4558
929.743	4561
929.848	4565
929.953	4478
930.058	4451
930.163	4318
930.267	4379
930.372	4481
930.477	4310
930.581	4466
930.685	4371
930.79	4265
930.894	4306
930.998	4242
931.103	4390
931.207	4120
931.311	4116
931.415	4067
931.519	3972
931.623	3975
