Data from glass_V78500241_269.txt Node
Date: Wed Sep 01 19:16:21 CST 2021
User: usil
Spectrometer: V785-0024
Trigger mode: 0
Integration Time (sec): 4.000000E-1
Scans to average: 1
Nonlinearity correction enabled: false
Boxcar width: 0
Storing dark spectrum: false
XAxis mode: Wavelengths
Number of Pixels in Spectrum: 1024
>>>>>Begin Spectral Data<<<<<
801.071	3781
801.214	3766
801.356	3736
801.499	3743
801.641	3778
801.783	3778
801.926	3899
802.068	3835
802.211	3876
802.353	3911
802.496	3873
802.638	3880
802.78	3960
802.923	3975
803.065	3876
803.208	3880
803.35	3896
803.492	3930
803.635	3922
803.777	3838
803.919	3915
804.061	4169
804.204	3991
804.346	3983
804.488	3975
804.63	4093
804.773	3968
804.915	4059
805.057	4166
805.199	4063
805.341	4078
805.483	4143
805.626	4131
805.768	4143
805.91	4215
806.052	4242
806.194	4200
806.336	4367
806.478	4196
806.62	4185
806.762	4196
806.904	4280
807.046	4322
807.188	4196
807.33	4223
807.472	4207
807.614	4166
807.756	4303
807.898	4192
808.04	4246
808.182	4363
808.324	4306
808.465	4329
808.607	4485
808.749	4470
808.891	4466
809.033	4512
809.174	4428
809.316	4257
809.458	4246
809.6	4131
809.741	4143
809.883	4154
810.025	4177
810.166	4204
810.308	4227
810.45	4272
810.591	4238
810.733	4306
810.875	4550
811.016	4843
811.158	5193
811.299	5318
811.441	5341
811.582	5090
811.724	4694
811.865	4481
812.007	4485
812.148	4424
812.29	4443
812.431	4424
812.573	4417
812.714	4375
812.855	4428
812.997	4402
813.138	4497
813.279	4428
813.421	4371
813.562	4428
813.703	4379
813.845	4344
813.986	4280
814.127	4230
814.268	4276
814.41	4261
814.551	4276
814.692	4329
814.833	4272
814.974	4341
815.115	4379
815.256	4257
815.397	4249
815.539	4253
815.68	4196
815.821	4200
815.962	4356
816.103	4291
816.244	4276
816.385	4268
816.526	4280
816.666	4246
816.807	4105
816.948	4200
817.089	4242
817.23	4169
817.371	4105
817.512	4086
817.653	4112
817.793	4082
817.934	4040
818.075	4116
818.216	4086
818.356	4116
818.497	3998
818.638	3926
818.778	3911
818.919	3884
819.06	3865
819.2	3945
819.341	3869
819.481	3861
819.622	3953
819.762	4025
819.903	3983
820.043	3892
820.184	3831
820.324	3857
820.465	3907
820.605	3888
820.746	3896
820.886	3747
821.026	3934
821.167	3896
821.307	3964
821.447	4006
821.588	3979
821.728	3949
821.868	3930
822.008	3884
822.149	3956
822.289	3934
822.429	3793
822.569	3800
822.709	3827
822.849	3705
822.99	3717
823.13	3797
823.27	3823
823.41	3698
823.55	3774
823.69	3713
823.83	3755
823.97	3717
824.11	3629
824.25	3572
824.389	3641
824.529	3701
824.669	3648
824.809	3747
824.949	3724
825.089	3778
825.228	3740
825.368	3610
825.508	3549
825.648	3561
825.787	3637
825.927	3637
826.067	3648
826.206	3709
826.346	3766
826.485	3831
826.625	3922
826.765	3956
826.904	3819
827.044	3614
827.183	3568
827.323	3477
827.462	3523
827.601	3458
827.741	3447
827.88	3481
828.02	3416
828.159	3428
828.298	3507
828.437	3576
828.577	3477
828.716	3614
828.855	3477
828.994	3370
829.134	3378
829.273	3393
829.412	3393
829.551	3359
829.69	3393
829.829	3466
829.968	3504
830.107	3443
830.246	3454
830.385	3393
830.524	3363
830.663	3336
830.802	3291
830.941	3218
831.08	3241
831.219	3302
831.357	3283
831.496	3428
831.635	3237
831.774	3173
831.913	3176
832.051	3184
832.19	3184
832.329	3245
832.467	3104
832.606	3188
832.744	3211
832.883	3237
833.022	3237
833.16	3279
833.299	3287
833.437	3397
833.576	3397
833.714	3447
833.852	3428
833.991	3458
834.129	3473
834.267	3454
834.406	3428
834.544	3435
834.682	3443
834.821	3424
834.959	3603
835.097	3450
835.235	3519
835.373	3523
835.511	3481
835.65	3443
835.788	3500
835.926	3359
836.064	3389
836.202	3443
836.34	3599
836.478	3599
836.615	3553
836.753	3603
836.891	3633
837.029	3618
837.167	3580
837.305	3568
837.443	3519
837.58	3511
837.718	3641
837.856	3580
837.993	3500
838.131	3603
838.269	3595
838.406	3595
838.544	3572
838.681	3466
838.819	3473
838.956	3378
839.094	3428
839.231	3488
839.369	3515
839.506	3766
839.643	3644
839.781	3500
839.918	3526
840.055	3511
840.193	3515
840.33	3557
840.467	3584
840.604	3561
840.742	3854
840.879	3572
841.016	3576
841.153	3625
841.29	3762
841.427	3743
841.564	3732
841.701	3785
841.838	3713
841.975	3732
842.112	3743
842.249	3713
842.385	3644
842.522	3869
842.659	3720
842.796	3671
842.933	3675
843.069	3690
843.206	3713
843.343	3797
843.479	3789
843.616	3797
843.752	3667
843.889	3705
844.025	3846
844.162	3751
844.298	3850
844.435	3797
844.571	3804
844.708	3934
844.844	3949
844.98	4074
845.117	4025
845.253	4006
845.389	3968
845.525	3975
845.661	3994
845.798	3922
845.934	4036
846.07	3945
846.206	4078
846.342	4135
846.478	4051
846.614	3983
846.75	3934
846.886	3899
847.022	4017
847.158	3975
847.294	4025
847.429	4040
847.565	3972
847.701	4284
847.837	3899
847.972	3915
848.108	3998
848.244	4013
848.379	3876
848.515	3861
848.65	3857
848.786	3861
848.921	3854
849.057	3934
849.192	3979
849.328	3907
849.463	3876
849.598	3888
849.734	3831
849.869	3869
850.004	3816
850.14	3827
850.275	3789
850.41	3774
850.545	3797
850.68	3755
850.815	3857
850.95	3831
851.085	3926
851.22	3876
851.355	3823
851.49	3823
851.625	3812
851.76	3831
851.895	3743
852.03	3770
852.165	3861
852.299	3888
852.434	3926
852.569	3869
852.703	3884
852.838	3956
852.973	4029
853.107	3975
853.242	3911
853.376	3846
853.511	3766
853.645	3873
853.78	3998
853.914	3941
854.048	3918
854.183	3915
854.317	4002
854.451	4059
854.585	3983
854.72	3968
854.854	4074
854.988	3937
855.122	4006
855.256	3899
855.39	4048
855.524	4143
855.658	4131
855.792	4116
855.926	4154
856.06	4196
856.194	4185
856.327	4204
856.461	4109
856.595	4211
856.729	4173
856.862	4295
856.996	4265
857.13	4291
857.263	4341
857.397	4363
857.53	4337
857.664	4367
857.797	4428
857.931	4417
858.064	4424
858.197	4493
858.331	4424
858.464	4367
858.597	4394
858.731	4470
858.864	4466
858.997	4481
859.13	4504
859.263	4546
859.396	4626
859.529	4538
859.662	4550
859.795	4546
859.928	4599
860.061	4752
860.194	4714
860.327	4694
860.46	4615
860.592	4805
860.725	4771
860.858	4744
860.99	4702
861.123	4759
861.256	4759
861.388	4801
861.521	5315
861.653	4740
861.786	4725
861.918	4790
862.05	4820
862.183	4866
862.315	4885
862.447	4980
862.58	4927
862.712	4831
862.844	4755
862.976	4896
863.108	4854
863.24	5303
863.372	4843
863.504	4915
863.636	4915
863.768	4984
863.9	4938
864.032	4892
864.164	5006
864.296	5018
864.428	5155
864.559	5124
864.691	5102
864.823	5124
864.954	5140
865.086	5151
865.217	5140
865.349	5140
865.48	5136
865.612	5239
865.743	5315
865.875	5212
866.006	5185
866.137	5246
866.269	5220
866.4	5277
866.531	5235
866.662	5201
866.793	5242
866.924	5341
867.055	5322
867.186	5326
867.317	5360
867.448	5303
867.579	5402
867.71	5455
867.841	5402
867.972	5520
868.103	5444
868.233	5520
868.364	5566
868.495	5573
868.625	5710
868.756	5813
868.886	5672
869.017	5760
869.147	5874
869.278	5870
869.408	5771
869.539	5832
869.669	5920
869.799	5923
869.929	5988
870.06	6076
870.19	6224
870.32	6205
870.45	6232
870.58	6361
870.71	6448
870.84	6486
870.97	6445
871.1	6422
871.23	6654
871.36	6692
871.489	6662
871.619	6749
871.749	6818
871.879	6905
872.008	7012
872.138	6981
872.267	6977
872.397	7015
872.526	6989
872.656	7095
872.785	7160
872.915	7441
873.044	7487
873.173	7559
873.303	7681
873.432	7811
873.561	7932
873.69	7932
873.819	7951
873.948	8142
874.077	8237
874.206	8377
874.335	8484
874.464	8689
874.593	8880
874.722	8925
874.851	9135
874.979	9180
875.108	9397
875.237	9447
875.365	9511
875.494	9591
875.623	9884
875.751	9873
875.88	10059
876.008	10230
876.136	10287
876.265	10485
876.393	10805
876.521	10656
876.65	10843
876.778	10869
876.906	10919
877.034	11022
877.162	11060
877.29	11174
877.418	11277
877.546	11376
877.674	11433
877.802	11493
877.93	11600
878.058	11509
878.185	11577
878.313	11642
878.441	11684
878.568	11710
878.696	11783
878.824	11863
878.951	12026
879.079	12091
879.206	12171
879.333	12041
879.461	12022
879.588	12194
879.715	12152
879.842	12281
879.97	12125
880.097	11843
880.224	11923
880.351	11870
880.478	11901
880.605	11805
880.732	11870
880.859	12019
880.986	11904
881.112	11882
881.239	11703
881.366	11657
881.493	11661
881.619	11501
881.746	11573
881.872	11448
881.999	11528
882.125	11471
882.252	11642
882.378	11505
882.505	11589
882.631	11398
882.757	11288
882.883	11311
883.01	11299
883.136	11189
883.262	11159
883.388	11029
883.514	11193
883.64	11143
883.766	11086
883.892	10991
884.018	10957
884.143	11132
884.269	11151
884.395	10934
884.52	10816
884.646	10816
884.772	10687
884.897	10706
885.023	10668
885.148	10786
885.274	10774
885.399	10714
885.524	10626
885.65	10561
885.775	10630
885.9	10618
886.025	10637
886.15	10656
886.275	10405
886.4	10478
886.525	10451
886.65	10394
886.775	10348
886.9	10474
887.025	10538
887.149	10360
887.274	10280
887.399	10173
887.523	10207
887.648	10265
887.773	10139
887.897	10192
888.021	10310
888.146	10188
888.27	10253
888.395	10147
888.519	10147
888.643	10223
888.767	10200
888.891	10131
889.015	10021
889.139	10002
889.263	10013
889.387	10051
889.511	10154
889.635	10048
889.759	9960
889.883	9991
890.006	9983
890.13	10143
890.254	9991
890.377	10006
890.501	9812
890.624	9937
890.748	9884
890.871	9857
890.995	9759
891.118	9690
891.241	9743
891.364	9686
891.488	9797
891.611	9751
891.734	9759
891.857	9827
891.98	9724
892.103	9717
892.226	9778
892.349	9629
892.471	9523
892.594	9625
892.717	9641
892.839	9614
892.962	9564
893.085	9686
893.207	9625
893.33	9526
893.452	9519
893.575	9614
893.697	9435
893.819	9701
893.941	9648
894.064	9618
894.186	9397
894.308	9443
894.43	9492
894.552	9690
894.674	9595
894.796	9351
894.918	9397
895.04	9367
895.161	9340
895.283	9336
895.405	9279
895.526	9272
895.648	9332
895.769	9249
895.891	9237
896.012	9272
896.134	9218
896.255	9154
896.376	9127
896.498	9226
896.619	9173
896.74	9093
896.861	9066
896.982	9275
897.103	9313
897.224	9207
897.345	9074
897.466	8986
897.587	9017
897.708	9176
897.828	9055
897.949	9032
898.07	8845
898.19	8937
898.311	9039
898.431	8842
898.552	8891
898.672	8990
898.792	9009
898.913	8937
899.033	8823
899.153	8754
899.273	8705
899.393	8724
899.513	8762
899.633	8773
899.753	8758
899.873	8727
899.993	8724
900.113	8743
900.232	8739
900.352	8678
900.472	8682
900.591	8579
900.711	8549
900.83	8564
900.95	8686
901.069	8777
901.189	8606
901.308	8461
901.427	8450
901.546	8438
901.665	8499
901.784	8533
901.904	8362
902.023	8400
902.141	8256
902.26	8221
902.379	8294
902.498	8214
902.617	8240
902.735	8320
902.854	8237
902.973	8199
903.091	8164
903.21	8172
903.328	8206
903.446	8149
903.565	8001
903.683	8084
903.801	8020
903.919	8145
904.038	8183
904.156	8081
904.274	8069
904.392	8062
904.51	8058
904.627	8081
904.745	8123
904.863	8123
904.981	7959
905.098	7879
905.216	7852
905.334	7951
905.451	7936
905.569	7852
905.686	7932
905.803	7967
905.921	7765
906.038	7913
906.155	7833
906.272	7753
906.389	7708
906.506	7616
906.623	7575
906.74	7628
906.857	7514
906.974	7563
907.091	7719
907.208	7750
907.324	7624
907.441	7563
907.557	7491
907.674	7476
907.79	7415
907.907	7453
908.023	7487
908.139	7540
908.256	7308
908.372	7392
908.488	7369
908.604	7285
908.72	7274
908.836	7312
908.952	7209
909.068	7236
909.184	7285
909.3	7194
909.415	7278
909.531	7339
909.647	7152
909.762	7179
909.878	7088
909.993	7118
910.108	7084
910.224	7099
910.339	7152
910.454	7019
910.57	7031
910.685	6951
910.8	7141
910.915	7149
911.03	7015
911.145	6928
911.259	6932
911.374	6905
911.489	6837
911.604	6852
911.718	6738
911.833	6760
911.947	6684
912.062	6635
912.176	6757
912.291	6665
912.405	6684
912.519	6791
912.633	6852
912.748	6757
912.862	6722
912.976	6692
913.09	6528
913.204	6582
913.318	6627
913.431	6681
913.545	6677
913.659	6700
913.772	6692
913.886	6597
914	6570
914.113	6601
914.226	6620
914.34	6639
914.453	6483
914.566	6623
914.68	6563
914.793	6544
914.906	6445
915.019	6422
915.132	6414
915.245	6433
915.358	6448
915.47	6513
915.583	6460
915.696	6498
915.809	6517
915.921	6559
916.034	6426
916.146	6490
916.259	6407
916.371	6502
916.483	6471
916.595	6350
916.708	6365
916.82	6426
916.932	6376
917.044	6391
917.156	6426
917.268	6331
917.38	6292
917.491	6361
917.603	6342
917.715	6422
917.826	6452
917.938	6311
918.049	6224
918.161	6334
918.272	6422
918.384	6426
918.495	6369
918.606	6258
918.717	6205
918.828	6254
918.939	6304
919.05	6205
919.161	6239
919.272	6110
919.383	6194
919.494	6251
919.604	6418
919.715	6273
919.826	6220
919.936	6281
920.047	6311
920.157	6251
920.267	6460
920.378	6372
920.488	6304
920.598	6483
920.708	6525
920.818	6494
920.928	6486
921.038	6604
921.148	6601
921.258	6372
921.368	6327
921.477	6224
921.587	6144
921.697	6064
921.806	6167
921.916	6041
922.025	5961
922.134	5904
922.244	5908
922.353	5977
922.462	5855
922.571	5790
922.68	5691
922.789	5707
922.898	5661
923.007	5585
923.116	5737
923.224	5665
923.333	5657
923.442	5589
923.55	5570
923.659	5630
923.767	5642
923.876	5573
923.984	5661
924.092	5528
924.201	5539
924.309	5551
924.417	5558
924.525	5467
924.633	5562
924.741	6350
924.849	5398
924.956	5482
925.064	5414
925.172	5311
925.279	5292
925.387	5334
925.494	5315
925.602	5440
925.709	5387
925.816	5273
925.924	5303
926.031	5341
926.138	5273
926.245	5303
926.352	5303
926.459	5326
926.566	5322
926.673	5292
926.779	5132
926.886	5143
926.993	5041
927.099	5029
927.206	5003
927.312	4949
927.419	5045
927.525	4965
927.631	5022
927.737	4908
927.843	4831
927.95	4771
928.056	4805
928.162	4850
928.267	4801
928.373	5277
928.479	4831
928.585	4691
928.69	4793
928.796	4771
928.901	4668
929.007	4565
929.112	4683
929.218	4656
929.323	4649
929.428	4546
929.533	4675
929.638	4516
929.743	4577
929.848	4542
929.953	4538
930.058	4481
930.163	4375
930.267	4318
930.372	4428
930.477	4360
930.581	4481
930.685	4363
930.79	4276
930.894	4291
930.998	4310
931.103	4405
931.207	4147
931.311	4059
931.415	4067
931.519	3945
931.623	3930
