Data from glass_V78500241_86.txt Node
Date: Wed Sep 01 19:15:05 CST 2021
User: usil
Spectrometer: V785-0024
Trigger mode: 0
Integration Time (sec): 4.000000E-1
Scans to average: 1
Nonlinearity correction enabled: false
Boxcar width: 0
Storing dark spectrum: false
XAxis mode: Wavelengths
Number of Pixels in Spectrum: 1024
>>>>>Begin Spectral Data<<<<<
801.071	3743
801.214	3770
801.356	3709
801.499	3732
801.641	3686
801.783	3816
801.926	3876
802.068	3812
802.211	3857
802.353	3903
802.496	3842
802.638	3888
802.78	3861
802.923	3907
803.065	3880
803.208	3857
803.35	3880
803.492	3956
803.635	3915
803.777	3846
803.919	3884
804.061	4131
804.204	3953
804.346	4006
804.488	3949
804.63	4059
804.773	4021
804.915	4071
805.057	4173
805.199	4078
805.341	4067
805.483	4196
805.626	4131
805.768	4112
805.91	4219
806.052	4257
806.194	4211
806.336	4356
806.478	4238
806.62	4169
806.762	4223
806.904	4272
807.046	4341
807.188	4265
807.33	4200
807.472	4276
807.614	4234
807.756	4257
807.898	4284
808.04	4238
808.182	4276
808.324	4333
808.465	4375
808.607	4455
808.749	4451
808.891	4474
809.033	4481
809.174	4443
809.316	4314
809.458	4246
809.6	4192
809.741	4143
809.883	4097
810.025	4253
810.166	4188
810.308	4219
810.45	4284
810.591	4249
810.733	4303
810.875	4542
811.016	4831
811.158	5178
811.299	5299
811.441	5311
811.582	5105
811.724	4721
811.865	4512
812.007	4508
812.148	4455
812.29	4470
812.431	4466
812.573	4421
812.714	4383
812.855	4390
812.997	4424
813.138	4474
813.279	4451
813.421	4398
813.562	4409
813.703	4398
813.845	4341
813.986	4223
814.127	4242
814.268	4276
814.41	4246
814.551	4295
814.692	4333
814.833	4272
814.974	4306
815.115	4363
815.256	4306
815.397	4265
815.539	4272
815.68	4219
815.821	4227
815.962	4344
816.103	4291
816.244	4268
816.385	4291
816.526	4295
816.666	4238
816.807	4101
816.948	4211
817.089	4200
817.23	4139
817.371	4090
817.512	4067
817.653	4097
817.793	4048
817.934	4063
818.075	4082
818.216	4105
818.356	4120
818.497	4006
818.638	3941
818.778	3953
818.919	3903
819.06	3865
819.2	3930
819.341	3869
819.481	3907
819.622	3880
819.762	4051
819.903	3983
820.043	3884
820.184	3873
820.324	3846
820.465	3896
820.605	3880
820.746	3892
820.886	3789
821.026	3922
821.167	3945
821.307	3960
821.447	3987
821.588	3953
821.728	3972
821.868	3953
822.008	3854
822.149	3934
822.289	3915
822.429	3823
822.569	3759
822.709	3774
822.849	3686
822.99	3717
823.13	3785
823.27	3766
823.41	3770
823.55	3747
823.69	3747
823.83	3762
823.97	3686
824.11	3622
824.25	3652
824.389	3633
824.529	3698
824.669	3637
824.809	3751
824.949	3827
825.089	3747
825.228	3686
825.368	3584
825.508	3557
825.648	3572
825.787	3622
825.927	3667
826.067	3652
826.206	3641
826.346	3804
826.485	3861
826.625	3899
826.765	3964
826.904	3850
827.044	3637
827.183	3542
827.323	3462
827.462	3447
827.601	3431
827.741	3462
827.88	3492
828.02	3367
828.159	3454
828.298	3496
828.437	3538
828.577	3462
828.716	3644
828.855	3507
828.994	3382
829.134	3401
829.273	3370
829.412	3344
829.551	3329
829.69	3378
829.829	3458
829.968	3542
830.107	3462
830.246	3435
830.385	3386
830.524	3367
830.663	3302
830.802	3291
830.941	3203
831.08	3195
831.219	3249
831.357	3287
831.496	3405
831.635	3260
831.774	3192
831.913	3233
832.051	3154
832.19	3211
832.329	3230
832.467	3138
832.606	3112
832.744	3188
832.883	3169
833.022	3218
833.16	3272
833.299	3344
833.437	3329
833.576	3378
833.714	3439
833.852	3439
833.991	3466
834.129	3439
834.267	3466
834.406	3409
834.544	3454
834.682	3439
834.821	3450
834.959	3584
835.097	3450
835.235	3515
835.373	3530
835.511	3507
835.65	3485
835.788	3504
835.926	3409
836.064	3397
836.202	3435
836.34	3557
836.478	3698
836.615	3538
836.753	3614
836.891	3679
837.029	3644
837.167	3618
837.305	3618
837.443	3523
837.58	3545
837.718	3584
837.856	3595
837.993	3538
838.131	3618
838.269	3633
838.406	3584
838.544	3542
838.681	3458
838.819	3496
838.956	3397
839.094	3401
839.231	3492
839.369	3507
839.506	3755
839.643	3595
839.781	3534
839.918	3462
840.055	3545
840.193	3530
840.33	3511
840.467	3557
840.604	3606
840.742	3838
840.879	3542
841.016	3584
841.153	3584
841.29	3778
841.427	3740
841.564	3740
841.701	3774
841.838	3728
841.975	3671
842.112	3724
842.249	3633
842.385	3625
842.522	3819
842.659	3694
842.796	3701
842.933	3720
843.069	3701
843.206	3732
843.343	3873
843.479	3797
843.616	3850
843.752	3740
843.889	3698
844.025	3865
844.162	3694
844.298	3861
844.435	3816
844.571	3823
844.708	3915
844.844	4040
844.98	4006
845.117	4006
845.253	3934
845.389	3915
845.525	4013
845.661	3987
845.798	3941
845.934	4029
846.07	3934
846.206	4097
846.342	4200
846.478	4078
846.614	3972
846.75	3941
846.886	3915
847.022	4029
847.158	4013
847.294	4029
847.429	4067
847.565	4025
847.701	4227
847.837	3888
847.972	3861
848.108	4029
848.244	3983
848.379	3869
848.515	3835
848.65	3861
848.786	3861
848.921	3884
849.057	3937
849.192	3968
849.328	3930
849.463	3949
849.598	3918
849.734	3888
849.869	3865
850.004	3781
850.14	3873
850.275	3816
850.41	3743
850.545	3785
850.68	3781
850.815	3850
850.95	3819
851.085	3945
851.22	3918
851.355	3827
851.49	3774
851.625	3774
851.76	3808
851.895	3762
852.03	3747
852.165	3808
852.299	3857
852.434	3876
852.569	3861
852.703	3915
852.838	3945
852.973	4017
853.107	3979
853.242	3941
853.376	3869
853.511	3804
853.645	3827
853.78	3972
853.914	3945
854.048	3918
854.183	3884
854.317	3998
854.451	4101
854.585	3949
854.72	3941
854.854	4097
854.988	3953
855.122	4044
855.256	3934
855.39	4029
855.524	4124
855.658	4071
855.792	4143
855.926	4135
856.06	4154
856.194	4219
856.327	4150
856.461	4162
856.595	4177
856.729	4192
856.862	4276
856.996	4268
857.13	4303
857.263	4367
857.397	4421
857.53	4318
857.664	4375
857.797	4459
857.931	4413
858.064	4371
858.197	4424
858.331	4432
858.464	4379
858.597	4322
858.731	4413
858.864	4451
858.997	4478
859.13	4531
859.263	4554
859.396	4554
859.529	4554
859.662	4550
859.795	4565
859.928	4565
860.061	4744
860.194	4767
860.327	4702
860.46	4649
860.592	4740
860.725	4786
860.858	4763
860.99	4698
861.123	4694
861.256	4748
861.388	4797
861.521	5566
861.653	4763
861.786	4710
861.918	4717
862.05	4870
862.183	4870
862.315	4873
862.447	4965
862.58	4873
862.712	4843
862.844	4790
862.976	4866
863.108	4889
863.24	5311
863.372	4881
863.504	4923
863.636	4930
863.768	4968
863.9	5018
864.032	4965
864.164	4976
864.296	5060
864.428	5113
864.559	5067
864.691	5159
864.823	5132
864.954	5140
865.086	5174
865.217	5181
865.349	5143
865.48	5166
865.612	5174
865.743	5307
865.875	5239
866.006	5246
866.137	5239
866.269	5265
866.4	5254
866.531	5292
866.662	5277
866.793	5258
866.924	5341
867.055	5360
867.186	5303
867.317	5299
867.448	5299
867.579	5376
867.71	5391
867.841	5436
867.972	5474
868.103	5440
868.233	5474
868.364	5558
868.495	5585
868.625	5695
868.756	5771
868.886	5691
869.017	5752
869.147	5882
869.278	5851
869.408	5821
869.539	5817
869.669	5935
869.799	5923
869.929	6007
870.06	5988
870.19	6178
870.32	6178
870.45	6289
870.58	6380
870.71	6456
870.84	6460
870.97	6414
871.1	6448
871.23	6639
871.36	6703
871.489	6760
871.619	6738
871.749	6863
871.879	6878
872.008	6977
872.138	7038
872.267	7008
872.397	6989
872.526	7072
872.656	7110
872.785	7198
872.915	7445
873.044	7556
873.173	7594
873.303	7666
873.432	7788
873.561	7902
873.69	7902
873.819	8016
873.948	8195
874.077	8214
874.206	8275
874.335	8454
874.464	8670
874.593	8937
874.722	8914
874.851	9135
874.979	9264
875.108	9336
875.237	9469
875.365	9424
875.494	9618
875.623	9785
875.751	9903
875.88	9998
876.008	10135
876.136	10268
876.265	10447
876.393	10668
876.521	10771
876.65	10790
876.778	10824
876.906	10850
877.034	10908
877.162	11098
877.29	11170
877.418	11326
877.546	11379
877.674	11543
877.802	11539
877.93	11554
878.058	11585
878.185	11596
878.313	11699
878.441	11767
878.568	11756
878.696	11847
878.824	11889
878.951	11893
879.079	12045
879.206	12129
879.333	12091
879.461	11988
879.588	12095
879.715	12110
879.842	12243
879.97	12064
880.097	11889
880.224	11824
880.351	11939
880.478	11965
880.605	11901
880.732	11798
880.859	11942
880.986	11866
881.112	11863
881.239	11813
881.366	11676
881.493	11657
881.619	11585
881.746	11562
881.872	11608
881.999	11444
882.125	11501
882.252	11497
882.378	11474
882.505	11653
882.631	11349
882.757	11315
882.883	11311
883.01	11292
883.136	11288
883.262	11113
883.388	11113
883.514	11212
883.64	11140
883.766	11128
883.892	10908
884.018	10987
884.143	11090
884.269	11220
884.395	10877
884.52	10816
884.646	10828
884.772	10710
884.897	10675
885.023	10679
885.148	10797
885.274	10801
885.399	10675
885.524	10615
885.65	10592
885.775	10592
885.9	10550
886.025	10615
886.15	10641
886.275	10527
886.4	10371
886.525	10443
886.65	10432
886.775	10284
886.9	10493
887.025	10538
887.149	10390
887.274	10188
887.399	10173
887.523	10147
887.648	10158
887.773	10139
887.897	10242
888.021	10211
888.146	10173
888.27	10207
888.395	10268
888.519	10204
888.643	10166
888.767	10128
888.891	10120
889.015	9968
889.139	10097
889.263	9949
889.387	10082
889.511	10147
889.635	10063
889.759	10006
889.883	9991
890.006	10025
890.13	10200
890.254	9926
890.377	9998
890.501	9850
890.624	9926
890.748	9930
890.871	9755
890.995	9717
891.118	9778
891.241	9785
891.364	9789
891.488	9759
891.611	9808
891.734	9682
891.857	9838
891.98	9698
892.103	9747
892.226	9705
892.349	9663
892.471	9580
892.594	9549
892.717	9564
892.839	9584
892.962	9698
893.085	9713
893.207	9557
893.33	9496
893.452	9545
893.575	9591
893.697	9610
893.819	9595
893.941	9652
894.064	9576
894.186	9534
894.308	9401
894.43	9519
894.552	9564
894.674	9549
894.796	9408
894.918	9473
895.04	9344
895.161	9386
895.283	9367
895.405	9249
895.526	9294
895.648	9233
895.769	9237
895.891	9211
896.012	9264
896.134	9245
896.255	9203
896.376	9131
896.498	9142
896.619	9218
896.74	9066
896.861	9089
896.982	9256
897.103	9355
897.224	9127
897.345	9161
897.466	8994
897.587	9001
897.708	9112
897.828	9028
897.949	8883
898.07	8857
898.19	8937
898.311	9017
898.431	8952
898.552	8929
898.672	9009
898.792	8952
898.913	8948
899.033	8788
899.153	8811
899.273	8655
899.393	8727
899.513	8712
899.633	8788
899.753	8766
899.873	8712
899.993	8785
900.113	8731
900.232	8720
900.352	8663
900.472	8636
900.591	8541
900.711	8568
900.83	8541
900.95	8682
901.069	8754
901.189	8499
901.308	8533
901.427	8438
901.546	8385
901.665	8408
901.784	8518
901.904	8374
902.023	8358
902.141	8225
902.26	8237
902.379	8248
902.498	8221
902.617	8259
902.735	8294
902.854	8294
902.973	8309
903.091	8130
903.21	8187
903.328	8180
903.446	8130
903.565	8046
903.683	8115
903.801	8096
903.919	8149
904.038	8138
904.156	8092
904.274	8138
904.392	8027
904.51	8008
904.627	8088
904.745	8107
904.863	8043
904.981	7951
905.098	7917
905.216	7928
905.334	7978
905.451	7909
905.569	7902
905.686	7978
905.803	7898
905.921	7772
906.038	7890
906.155	7814
906.272	7731
906.389	7708
906.506	7624
906.623	7655
906.74	7597
906.857	7518
906.974	7639
907.091	7761
907.208	7750
907.324	7594
907.441	7586
907.557	7468
907.674	7441
907.79	7373
907.907	7483
908.023	7415
908.139	7472
908.256	7396
908.372	7381
908.488	7312
908.604	7308
908.72	7308
908.836	7244
908.952	7190
909.068	7308
909.184	7308
909.3	7263
909.415	7331
909.531	7255
909.647	7145
909.762	7183
909.878	7065
909.993	7122
910.108	7126
910.224	7122
910.339	7141
910.454	7042
910.57	7015
910.685	6962
910.8	7183
910.915	7129
911.03	7023
911.145	6932
911.259	6859
911.374	6897
911.489	6829
911.604	6753
911.718	6715
911.833	6749
911.947	6684
912.062	6646
912.176	6684
912.291	6719
912.405	6662
912.519	6825
912.633	6867
912.748	6776
912.862	6738
912.976	6669
913.09	6525
913.204	6574
913.318	6631
913.431	6681
913.545	6646
913.659	6711
913.772	6662
913.886	6574
914	6566
914.113	6597
914.226	6665
914.34	6589
914.453	6502
914.566	6654
914.68	6540
914.793	6540
914.906	6448
915.019	6372
915.132	6380
915.245	6456
915.358	6414
915.47	6426
915.583	6460
915.696	6490
915.809	6536
915.921	6593
916.034	6414
916.146	6346
916.259	6403
916.371	6479
916.483	6456
916.595	6342
916.708	6399
916.82	6448
916.932	6422
917.044	6399
917.156	6414
917.268	6300
917.38	6388
917.491	6346
917.603	6266
917.715	6467
917.826	6403
917.938	6334
918.049	6216
918.161	6281
918.272	6445
918.384	6426
918.495	6353
918.606	6270
918.717	6266
918.828	6319
918.939	6277
919.05	6232
919.161	6220
919.272	6133
919.383	6175
919.494	6327
919.604	6460
919.715	6247
919.826	6254
919.936	6235
920.047	6357
920.157	6331
920.267	6494
920.378	6380
920.488	6273
920.598	6479
920.708	6578
920.818	6452
920.928	6498
921.038	6582
921.148	6582
921.258	6422
921.368	6251
921.477	6194
921.587	6182
921.697	6083
921.806	6182
921.916	6076
922.025	5973
922.134	5946
922.244	5885
922.353	5954
922.462	5897
922.571	5809
922.68	5737
922.789	5760
922.898	5726
923.007	5623
923.116	5672
923.224	5703
923.333	5688
923.442	5661
923.55	5627
923.659	5585
923.767	5668
923.876	5562
923.984	5604
924.092	5501
924.201	5524
924.309	5592
924.417	5539
924.525	5512
924.633	5535
924.741	6292
924.849	5406
924.956	5532
925.064	5349
925.172	5303
925.279	5360
925.387	5376
925.494	5337
925.602	5417
925.709	5402
925.816	5322
925.924	5395
926.031	5406
926.138	5360
926.245	5318
926.352	5216
926.459	5326
926.566	5284
926.673	5239
926.779	5124
926.886	5128
926.993	5025
927.099	4991
927.206	5006
927.312	4984
927.419	5006
927.525	4991
927.631	4984
927.737	4877
927.843	4877
927.95	4805
928.056	4801
928.162	4816
928.267	4873
928.373	5330
928.479	4854
928.585	4683
928.69	4828
928.796	4797
928.901	4694
929.007	4622
929.112	4721
929.218	4714
929.323	4618
929.428	4569
929.533	4714
929.638	4558
929.743	4550
929.848	4622
929.953	4500
930.058	4459
930.163	4344
930.267	4360
930.372	4455
930.477	4299
930.581	4455
930.685	4383
930.79	4284
930.894	4310
930.998	4246
931.103	4421
931.207	4135
931.311	4101
931.415	4017
931.519	3953
931.623	3956
