Data from glass_V78500241_2016.txt Node
Date: Wed Sep 01 19:28:28 CST 2021
User: usil
Spectrometer: V785-0024
Trigger mode: 0
Integration Time (sec): 4.000000E-1
Scans to average: 1
Nonlinearity correction enabled: false
Boxcar width: 0
Storing dark spectrum: false
XAxis mode: Wavelengths
Number of Pixels in Spectrum: 1024
>>>>>Begin Spectral Data<<<<<
801.071	3736
801.214	3762
801.356	3705
801.499	3770
801.641	3724
801.783	3808
801.926	3869
802.068	3842
802.211	3896
802.353	3842
802.496	3819
802.638	3846
802.78	3899
802.923	3926
803.065	3915
803.208	3816
803.35	3846
803.492	3873
803.635	3926
803.777	3762
803.919	3911
804.061	4131
804.204	3983
804.346	3949
804.488	3880
804.63	4013
804.773	3964
804.915	3994
805.057	4139
805.199	4017
805.341	4120
805.483	4128
805.626	4147
805.768	4116
805.91	4185
806.052	4249
806.194	4166
806.336	4352
806.478	4253
806.62	4143
806.762	4166
806.904	4276
807.046	4352
807.188	4211
807.33	4185
807.472	4257
807.614	4211
807.756	4249
807.898	4192
808.04	4238
808.182	4219
808.324	4310
808.465	4352
808.607	4424
808.749	4432
808.891	4489
809.033	4538
809.174	4436
809.316	4249
809.458	4227
809.6	4112
809.741	4162
809.883	4135
810.025	4185
810.166	4227
810.308	4181
810.45	4238
810.591	4242
810.733	4261
810.875	4493
811.016	4797
811.158	5117
811.299	5242
811.441	5318
811.582	5003
811.724	4656
811.865	4459
812.007	4500
812.148	4451
812.29	4379
812.431	4386
812.573	4405
812.714	4390
812.855	4379
812.997	4424
813.138	4485
813.279	4348
813.421	4367
813.562	4363
813.703	4322
813.845	4325
813.986	4325
814.127	4246
814.268	4310
814.41	4291
814.551	4257
814.692	4299
814.833	4257
814.974	4314
815.115	4314
815.256	4265
815.397	4284
815.539	4257
815.68	4253
815.821	4192
815.962	4322
816.103	4299
816.244	4219
816.385	4227
816.526	4200
816.666	4200
816.807	4116
816.948	4162
817.089	4181
817.23	4128
817.371	4048
817.512	4044
817.653	4059
817.793	4021
817.934	4044
818.075	4090
818.216	4097
818.356	4074
818.497	3960
818.638	3941
818.778	3884
818.919	3903
819.06	3876
819.2	3896
819.341	3835
819.481	3869
819.622	3899
819.762	4006
819.903	3937
820.043	3846
820.184	3812
820.324	3838
820.465	3850
820.605	3846
820.746	3846
820.886	3793
821.026	3918
821.167	3861
821.307	3975
821.447	3975
821.588	3926
821.728	3899
821.868	3956
822.008	3857
822.149	3911
822.289	3907
822.429	3781
822.569	3736
822.709	3781
822.849	3690
822.99	3698
823.13	3728
823.27	3770
823.41	3743
823.55	3701
823.69	3770
823.83	3743
823.97	3618
824.11	3614
824.25	3599
824.389	3641
824.529	3648
824.669	3637
824.809	3717
824.949	3759
825.089	3705
825.228	3709
825.368	3561
825.508	3530
825.648	3511
825.787	3576
825.927	3656
826.067	3618
826.206	3686
826.346	3747
826.485	3838
826.625	3846
826.765	3926
826.904	3816
827.044	3663
827.183	3511
827.323	3401
827.462	3447
827.601	3458
827.741	3439
827.88	3462
828.02	3329
828.159	3443
828.298	3492
828.437	3538
828.577	3481
828.716	3591
828.855	3462
828.994	3386
829.134	3363
829.273	3340
829.412	3321
829.551	3359
829.69	3389
829.829	3405
829.968	3526
830.107	3424
830.246	3424
830.385	3393
830.524	3306
830.663	3291
830.802	3253
830.941	3173
831.08	3176
831.219	3268
831.357	3253
831.496	3401
831.635	3192
831.774	3188
831.913	3192
832.051	3146
832.19	3131
832.329	3195
832.467	3150
832.606	3097
832.744	3161
832.883	3176
833.022	3192
833.16	3249
833.299	3321
833.437	3249
833.576	3378
833.714	3409
833.852	3439
833.991	3412
834.129	3462
834.267	3431
834.406	3412
834.544	3435
834.682	3405
834.821	3393
834.959	3534
835.097	3355
835.235	3549
835.373	3492
835.511	3477
835.65	3488
835.788	3477
835.926	3359
836.064	3363
836.202	3412
836.34	3549
836.478	3603
836.615	3564
836.753	3644
836.891	3614
837.029	3660
837.167	3595
837.305	3545
837.443	3549
837.58	3500
837.718	3591
837.856	3538
837.993	3530
838.131	3587
838.269	3595
838.406	3610
838.544	3568
838.681	3435
838.819	3439
838.956	3382
839.094	3370
839.231	3416
839.369	3488
839.506	3705
839.643	3614
839.781	3485
839.918	3485
840.055	3542
840.193	3534
840.33	3507
840.467	3564
840.604	3580
840.742	3800
840.879	3591
841.016	3561
841.153	3610
841.29	3732
841.427	3720
841.564	3732
841.701	3740
841.838	3686
841.975	3694
842.112	3728
842.249	3618
842.385	3614
842.522	3861
842.659	3690
842.796	3660
842.933	3736
843.069	3686
843.206	3663
843.343	3762
843.479	3793
843.616	3827
843.752	3682
843.889	3717
844.025	3835
844.162	3743
844.298	3838
844.435	3774
844.571	3755
844.708	3911
844.844	4002
844.98	4013
845.117	4017
845.253	3941
845.389	3934
845.525	3934
845.661	3934
845.798	3922
845.934	4051
846.07	3945
846.206	4032
846.342	4093
846.478	3998
846.614	3991
846.75	3941
846.886	3918
847.022	4071
847.158	3975
847.294	3994
847.429	3994
847.565	3998
847.701	4207
847.837	3854
847.972	3850
848.108	3956
848.244	3937
848.379	3869
848.515	3823
848.65	3800
848.786	3831
848.921	3892
849.057	3934
849.192	3949
849.328	3861
849.463	3903
849.598	3842
849.734	3831
849.869	3819
850.004	3808
850.14	3835
850.275	3812
850.41	3751
850.545	3781
850.68	3778
850.815	3846
850.95	3785
851.085	3934
851.22	3880
851.355	3812
851.49	3759
851.625	3774
851.76	3774
851.895	3705
852.03	3732
852.165	3816
852.299	3835
852.434	3915
852.569	3892
852.703	3865
852.838	3915
852.973	3956
853.107	3998
853.242	3854
853.376	3827
853.511	3755
853.645	3812
853.78	3979
853.914	3896
854.048	3876
854.183	3835
854.317	3972
854.451	4059
854.585	3945
854.72	3960
854.854	4025
854.988	3945
855.122	3998
855.256	3915
855.39	4032
855.524	4044
855.658	4086
855.792	4051
855.926	4143
856.06	4169
856.194	4162
856.327	4120
856.461	4097
856.595	4116
856.729	4188
856.862	4280
856.996	4230
857.13	4299
857.263	4310
857.397	4318
857.53	4284
857.664	4325
857.797	4390
857.931	4436
858.064	4360
858.197	4409
858.331	4386
858.464	4386
858.597	4333
858.731	4424
858.864	4466
858.997	4447
859.13	4523
859.263	4538
859.396	4596
859.529	4481
859.662	4523
859.795	4500
859.928	4622
860.061	4736
860.194	4714
860.327	4630
860.46	4634
860.592	4694
860.725	4733
860.858	4767
860.99	4683
861.123	4694
861.256	4748
861.388	4767
861.521	5387
861.653	4736
861.786	4698
861.918	4725
862.05	4752
862.183	4763
862.315	4877
862.447	4911
862.58	4873
862.712	4816
862.844	4843
862.976	4850
863.108	4866
863.24	5181
863.372	4828
863.504	4866
863.636	4873
863.768	5006
863.9	4961
864.032	4862
864.164	4934
864.296	5029
864.428	5045
864.559	5037
864.691	5109
864.823	5113
864.954	5086
865.086	5162
865.217	5124
865.349	5147
865.48	5140
865.612	5231
865.743	5250
865.875	5239
866.006	5140
866.137	5239
866.269	5212
866.4	5216
866.531	5220
866.662	5235
866.793	5201
866.924	5265
867.055	5322
867.186	5341
867.317	5311
867.448	5280
867.579	5360
867.71	5368
867.841	5368
867.972	5471
868.103	5482
868.233	5486
868.364	5516
868.495	5493
868.625	5695
868.756	5821
868.886	5684
869.017	5718
869.147	5847
869.278	5866
869.408	5844
869.539	5771
869.669	5927
869.799	5828
869.929	5980
870.06	6049
870.19	6228
870.32	6144
870.45	6235
870.58	6327
870.71	6437
870.84	6490
870.97	6410
871.1	6437
871.23	6612
871.36	6738
871.489	6681
871.619	6719
871.749	6764
871.879	6939
872.008	6954
872.138	6924
872.267	7015
872.397	6939
872.526	7034
872.656	7084
872.785	7236
872.915	7377
873.044	7499
873.173	7575
873.303	7620
873.432	7753
873.561	7883
873.69	7902
873.819	8035
873.948	8149
874.077	8183
874.206	8377
874.335	8431
874.464	8636
874.593	8849
874.722	8925
874.851	9123
874.979	9287
875.108	9351
875.237	9462
875.365	9439
875.494	9584
875.623	9808
875.751	9884
875.88	9983
876.008	10120
876.136	10268
876.265	10523
876.393	10698
876.521	10710
876.65	10831
876.778	10881
876.906	10843
877.034	11025
877.162	11083
877.29	11147
877.418	11277
877.546	11315
877.674	11387
877.802	11486
877.93	11474
878.058	11630
878.185	11535
878.313	11646
878.441	11824
878.568	11680
878.696	11851
878.824	11958
878.951	12034
879.079	12011
879.206	12060
879.333	12102
879.461	12038
879.588	12053
879.715	12079
879.842	12167
879.97	11980
880.097	11927
880.224	11889
880.351	11859
880.478	11901
880.605	11927
880.732	11859
880.859	11977
880.986	11923
881.112	11813
881.239	11630
881.366	11608
881.493	11638
881.619	11501
881.746	11585
881.872	11581
881.999	11486
882.125	11581
882.252	11493
882.378	11459
882.505	11493
882.631	11337
882.757	11288
882.883	11334
883.01	11235
883.136	11178
883.262	11143
883.388	11170
883.514	11223
883.64	11132
883.766	11075
883.892	11014
884.018	10961
884.143	11025
884.269	11136
884.395	10835
884.52	10725
884.646	10748
884.772	10611
884.897	10668
885.023	10736
885.148	10778
885.274	10744
885.399	10736
885.524	10588
885.65	10573
885.775	10561
885.9	10516
886.025	10603
886.15	10523
886.275	10417
886.4	10409
886.525	10428
886.65	10306
886.775	10303
886.9	10421
887.025	10481
887.149	10375
887.274	10261
887.399	10204
887.523	10242
887.648	10154
887.773	10181
887.897	10238
888.021	10204
888.146	10139
888.27	10234
888.395	10253
888.519	10211
888.643	10200
888.767	10147
888.891	10105
889.015	10025
889.139	10055
889.263	9987
889.387	10044
889.511	10074
889.635	10074
889.759	9937
889.883	9998
890.006	9922
890.13	10105
890.254	10021
890.377	9972
890.501	9846
890.624	9835
890.748	9865
890.871	9766
890.995	9751
891.118	9694
891.241	9759
891.364	9804
891.488	9785
891.611	9800
891.734	9732
891.857	9804
891.98	9690
892.103	9724
892.226	9648
892.349	9671
892.471	9538
892.594	9576
892.717	9576
892.839	9587
892.962	9561
893.085	9553
893.207	9523
893.33	9523
893.452	9534
893.575	9595
893.697	9542
893.819	9606
893.941	9679
894.064	9622
894.186	9431
894.308	9431
894.43	9538
894.552	9610
894.674	9538
894.796	9367
894.918	9344
895.04	9378
895.161	9336
895.283	9306
895.405	9287
895.526	9260
895.648	9180
895.769	9203
895.891	9237
896.012	9214
896.134	9222
896.255	9249
896.376	9119
896.498	9127
896.619	9169
896.74	9039
896.861	9165
896.982	9279
897.103	9275
897.224	9161
897.345	9043
897.466	8986
897.587	9032
897.708	9131
897.828	9039
897.949	8902
898.07	8853
898.19	8979
898.311	9047
898.431	8880
898.552	8918
898.672	8944
898.792	9001
898.913	8838
899.033	8781
899.153	8792
899.273	8610
899.393	8788
899.513	8750
899.633	8743
899.753	8720
899.873	8758
899.993	8754
900.113	8766
900.232	8659
900.352	8636
900.472	8644
900.591	8636
900.711	8587
900.83	8587
900.95	8739
901.069	8629
901.189	8530
901.308	8434
901.427	8434
901.546	8461
901.665	8533
901.784	8438
901.904	8377
902.023	8286
902.141	8263
902.26	8237
902.379	8317
902.498	8202
902.617	8153
902.735	8332
902.854	8275
902.973	8206
903.091	8172
903.21	8221
903.328	8180
903.446	8149
903.565	8050
903.683	8145
903.801	8058
903.919	8157
904.038	8088
904.156	8058
904.274	8077
904.392	7974
904.51	8016
904.627	8016
904.745	8096
904.863	8119
904.981	7917
905.098	7864
905.216	7951
905.334	7928
905.451	7974
905.569	7803
905.686	7959
905.803	7898
905.921	7719
906.038	7860
906.155	7734
906.272	7712
906.389	7689
906.506	7613
906.623	7704
906.74	7658
906.857	7449
906.974	7636
907.091	7662
907.208	7769
907.324	7613
907.441	7571
907.557	7449
907.674	7449
907.79	7415
907.907	7419
908.023	7483
908.139	7480
908.256	7362
908.372	7362
908.488	7339
908.604	7301
908.72	7194
908.836	7251
908.952	7225
909.068	7270
909.184	7289
909.3	7217
909.415	7278
909.531	7263
909.647	7099
909.762	7145
909.878	7164
909.993	7179
910.108	7099
910.224	7076
910.339	7095
910.454	7053
910.57	6996
910.685	6981
910.8	7110
910.915	7122
911.03	6989
911.145	6958
911.259	6897
911.374	6863
911.489	6852
911.604	6859
911.718	6757
911.833	6783
911.947	6662
912.062	6623
912.176	6692
912.291	6734
912.405	6692
912.519	6871
912.633	6863
912.748	6715
912.862	6696
912.976	6582
913.09	6525
913.204	6574
913.318	6604
913.431	6654
913.545	6646
913.659	6719
913.772	6715
913.886	6528
914	6578
914.113	6604
914.226	6616
914.34	6566
914.453	6528
914.566	6635
914.68	6483
914.793	6536
914.906	6426
915.019	6426
915.132	6388
915.245	6418
915.358	6433
915.47	6361
915.583	6467
915.696	6422
915.809	6521
915.921	6551
916.034	6361
916.146	6429
916.259	6350
916.371	6441
916.483	6486
916.595	6418
916.708	6388
916.82	6410
916.932	6365
917.044	6380
917.156	6391
917.268	6315
917.38	6376
917.491	6300
917.603	6319
917.715	6334
917.826	6369
917.938	6304
918.049	6239
918.161	6304
918.272	6372
918.384	6388
918.495	6334
918.606	6296
918.717	6228
918.828	6190
918.939	6277
919.05	6209
919.161	6216
919.272	6121
919.383	6163
919.494	6270
919.604	6410
919.715	6285
919.826	6163
919.936	6251
920.047	6296
920.157	6266
920.267	6452
920.378	6323
920.488	6277
920.598	6407
920.708	6585
920.818	6399
920.928	6479
921.038	6544
921.148	6559
921.258	6357
921.368	6277
921.477	6209
921.587	6201
921.697	6083
921.806	6186
921.916	6102
922.025	5969
922.134	5916
922.244	5901
922.353	5897
922.462	5863
922.571	5748
922.68	5707
922.789	5657
922.898	5707
923.007	5646
923.116	5722
923.224	5688
923.333	5695
923.442	5585
923.55	5532
923.659	5592
923.767	5619
923.876	5554
923.984	5577
924.092	5505
924.201	5528
924.309	5551
924.417	5516
924.525	5520
924.633	5501
924.741	6216
924.849	5406
924.956	5497
925.064	5307
925.172	5311
925.279	5379
925.387	5345
925.494	5341
925.602	5406
925.709	5357
925.816	5330
925.924	5303
926.031	5337
926.138	5265
926.245	5296
926.352	5166
926.459	5337
926.566	5261
926.673	5197
926.779	5220
926.886	5109
926.993	5067
927.099	5022
927.206	4942
927.312	4965
927.419	5006
927.525	4980
927.631	4999
927.737	4870
927.843	4835
927.95	4740
928.056	4752
928.162	4782
928.267	4862
928.373	5273
928.479	4839
928.585	4714
928.69	4733
928.796	4733
928.901	4698
929.007	4542
929.112	4630
929.218	4653
929.323	4641
929.428	4546
929.533	4706
929.638	4527
929.743	4538
929.848	4550
929.953	4527
930.058	4417
930.163	4314
930.267	4306
930.372	4394
930.477	4291
930.581	4478
930.685	4344
930.79	4249
930.894	4299
930.998	4242
931.103	4333
931.207	4131
931.311	4131
931.415	4013
931.519	3983
931.623	3960
