Data from glass_V78500241_667.txt Node
Date: Wed Sep 01 19:19:07 CST 2021
User: usil
Spectrometer: V785-0024
Trigger mode: 0
Integration Time (sec): 4.000000E-1
Scans to average: 1
Nonlinearity correction enabled: false
Boxcar width: 0
Storing dark spectrum: false
XAxis mode: Wavelengths
Number of Pixels in Spectrum: 1024
>>>>>Begin Spectral Data<<<<<
801.071	3743
801.214	3789
801.356	3781
801.499	3747
801.641	3751
801.783	3789
801.926	3850
802.068	3835
802.211	3857
802.353	3949
802.496	3876
802.638	3884
802.78	3930
802.923	3934
803.065	3888
803.208	3865
803.35	3873
803.492	3926
803.635	3926
803.777	3823
803.919	3926
804.061	4131
804.204	4017
804.346	3960
804.488	3972
804.63	4063
804.773	3991
804.915	4040
805.057	4177
805.199	4086
805.341	4086
805.483	4139
805.626	4139
805.768	4147
805.91	4234
806.052	4249
806.194	4238
806.336	4341
806.478	4238
806.62	4147
806.762	4200
806.904	4265
807.046	4341
807.188	4181
807.33	4219
807.472	4249
807.614	4230
807.756	4287
807.898	4238
808.04	4219
808.182	4337
808.324	4333
808.465	4409
808.607	4474
808.749	4440
808.891	4485
809.033	4504
809.174	4413
809.316	4291
809.458	4272
809.6	4128
809.741	4173
809.883	4185
810.025	4204
810.166	4249
810.308	4249
810.45	4261
810.591	4253
810.733	4265
810.875	4531
811.016	4828
811.158	5136
811.299	5250
811.441	5330
811.582	5056
811.724	4698
811.865	4481
812.007	4440
812.148	4402
812.29	4451
812.431	4409
812.573	4405
812.714	4356
812.855	4440
812.997	4428
813.138	4519
813.279	4424
813.421	4421
813.562	4394
813.703	4360
813.845	4363
813.986	4253
814.127	4272
814.268	4276
814.41	4249
814.551	4257
814.692	4352
814.833	4257
814.974	4314
815.115	4367
815.256	4238
815.397	4230
815.539	4242
815.68	4227
815.821	4204
815.962	4322
816.103	4310
816.244	4272
816.385	4284
816.526	4291
816.666	4188
816.807	4124
816.948	4196
817.089	4188
817.23	4150
817.371	4090
817.512	4048
817.653	4078
817.793	4040
817.934	4067
818.075	4093
818.216	4093
818.356	4090
818.497	3987
818.638	3907
818.778	3937
818.919	3922
819.06	3880
819.2	3930
819.341	3865
819.481	3850
819.622	3922
819.762	4086
819.903	3949
820.043	3850
820.184	3797
820.324	3816
820.465	3892
820.605	3880
820.746	3907
820.886	3823
821.026	3930
821.167	3953
821.307	3991
821.447	3918
821.588	3926
821.728	3960
821.868	3975
822.008	3827
822.149	3926
822.289	3934
822.429	3789
822.569	3789
822.709	3823
822.849	3701
822.99	3732
823.13	3808
823.27	3804
823.41	3717
823.55	3759
823.69	3732
823.83	3778
823.97	3709
824.11	3614
824.25	3625
824.389	3622
824.529	3679
824.669	3641
824.809	3759
824.949	3736
825.089	3762
825.228	3732
825.368	3625
825.508	3545
825.648	3606
825.787	3637
825.927	3625
826.067	3652
826.206	3682
826.346	3800
826.485	3846
826.625	3892
826.765	3991
826.904	3842
827.044	3618
827.183	3568
827.323	3443
827.462	3534
827.601	3428
827.741	3458
827.88	3492
828.02	3401
828.159	3488
828.298	3523
828.437	3523
828.577	3523
828.716	3622
828.855	3519
828.994	3348
829.134	3382
829.273	3431
829.412	3374
829.551	3359
829.69	3355
829.829	3450
829.968	3523
830.107	3481
830.246	3447
830.385	3401
830.524	3336
830.663	3287
830.802	3230
830.941	3192
831.08	3222
831.219	3268
831.357	3260
831.496	3389
831.635	3233
831.774	3218
831.913	3218
832.051	3146
832.19	3150
832.329	3188
832.467	3135
832.606	3070
832.744	3176
832.883	3169
833.022	3207
833.16	3253
833.299	3310
833.437	3359
833.576	3416
833.714	3378
833.852	3435
833.991	3458
834.129	3469
834.267	3469
834.406	3435
834.544	3424
834.682	3420
834.821	3405
834.959	3568
835.097	3416
835.235	3530
835.373	3431
835.511	3530
835.65	3473
835.788	3469
835.926	3435
836.064	3409
836.202	3435
836.34	3557
836.478	3644
836.615	3553
836.753	3614
836.891	3671
837.029	3648
837.167	3633
837.305	3584
837.443	3549
837.58	3545
837.718	3587
837.856	3534
837.993	3542
838.131	3591
838.269	3587
838.406	3599
838.544	3545
838.681	3481
838.819	3481
838.956	3393
839.094	3370
839.231	3409
839.369	3530
839.506	3732
839.643	3648
839.781	3519
839.918	3450
840.055	3526
840.193	3542
840.33	3561
840.467	3591
840.604	3618
840.742	3804
840.879	3580
841.016	3564
841.153	3625
841.29	3762
841.427	3705
841.564	3736
841.701	3755
841.838	3728
841.975	3675
842.112	3770
842.249	3656
842.385	3614
842.522	3873
842.659	3713
842.796	3694
842.933	3740
843.069	3694
843.206	3698
843.343	3850
843.479	3789
843.616	3823
843.752	3663
843.889	3686
844.025	3915
844.162	3770
844.298	3838
844.435	3804
844.571	3823
844.708	3934
844.844	3964
844.98	3998
845.117	4067
845.253	3926
845.389	3964
845.525	3979
845.661	4006
845.798	3983
845.934	4002
846.07	3956
846.206	4040
846.342	4105
846.478	4082
846.614	4025
846.75	3945
846.886	3911
847.022	4063
847.158	4006
847.294	4032
847.429	4036
847.565	3953
847.701	4219
847.837	3907
847.972	3869
848.108	3998
848.244	3991
848.379	3876
848.515	3846
848.65	3812
848.786	3873
848.921	3869
849.057	3972
849.192	4010
849.328	3918
849.463	3918
849.598	3861
849.734	3884
849.869	3835
850.004	3797
850.14	3812
850.275	3816
850.41	3770
850.545	3789
850.68	3789
850.815	3827
850.95	3827
851.085	4002
851.22	3857
851.355	3835
851.49	3797
851.625	3823
851.76	3812
851.895	3740
852.03	3778
852.165	3804
852.299	3899
852.434	3911
852.569	3865
852.703	3915
852.838	3949
852.973	4021
853.107	4025
853.242	3899
853.376	3842
853.511	3778
853.645	3800
853.78	3930
853.914	3911
854.048	3880
854.183	3896
854.317	3907
854.451	4093
854.585	3972
854.72	3934
854.854	4032
854.988	3975
855.122	3983
855.256	3934
855.39	4048
855.524	4124
855.658	4120
855.792	4154
855.926	4177
856.06	4173
856.194	4219
856.327	4128
856.461	4112
856.595	4158
856.729	4181
856.862	4246
856.996	4242
857.13	4363
857.263	4322
857.397	4421
857.53	4295
857.664	4322
857.797	4428
857.931	4451
858.064	4405
858.197	4485
858.331	4383
858.464	4386
858.597	4379
858.731	4478
858.864	4466
858.997	4474
859.13	4538
859.263	4565
859.396	4607
859.529	4481
859.662	4554
859.795	4538
859.928	4577
860.061	4717
860.194	4740
860.327	4641
860.46	4634
860.592	4733
860.725	4759
860.858	4790
860.99	4698
861.123	4687
861.256	4733
861.388	4782
861.521	5315
861.653	4782
861.786	4702
861.918	4729
862.05	4812
862.183	4866
862.315	4908
862.447	4949
862.58	4870
862.712	4805
862.844	4854
862.976	4896
863.108	4877
863.24	5223
863.372	4839
863.504	4877
863.636	4900
863.768	5003
863.9	4984
864.032	4949
864.164	4953
864.296	4999
864.428	5029
864.559	5155
864.691	5128
864.823	5151
864.954	5109
865.086	5159
865.217	5113
865.349	5170
865.48	5189
865.612	5227
865.743	5265
865.875	5261
866.006	5170
866.137	5258
866.269	5235
866.4	5254
866.531	5231
866.662	5261
866.793	5273
866.924	5318
867.055	5353
867.186	5360
867.317	5353
867.448	5334
867.579	5391
867.71	5398
867.841	5391
867.972	5463
868.103	5535
868.233	5452
868.364	5490
868.495	5558
868.625	5714
868.756	5764
868.886	5703
869.017	5703
869.147	5844
869.278	5847
869.408	5844
869.539	5866
869.669	5901
869.799	5908
869.929	6022
870.06	5992
870.19	6209
870.32	6209
870.45	6311
870.58	6308
870.71	6426
870.84	6479
870.97	6414
871.1	6475
871.23	6631
871.36	6722
871.489	6711
871.619	6741
871.749	6745
871.879	6882
872.008	7015
872.138	6943
872.267	6989
872.397	7000
872.526	7023
872.656	7129
872.785	7240
872.915	7422
873.044	7556
873.173	7540
873.303	7639
873.432	7769
873.561	7841
873.69	7887
873.819	8008
873.948	8145
874.077	8347
874.206	8336
874.335	8377
874.464	8693
874.593	8876
874.722	8963
874.851	9195
874.979	9253
875.108	9370
875.237	9519
875.365	9492
875.494	9701
875.623	9880
875.751	9766
875.88	10036
876.008	10242
876.136	10246
876.265	10527
876.393	10744
876.521	10679
876.65	10869
876.778	10942
876.906	10831
877.034	11029
877.162	11094
877.29	11132
877.418	11296
877.546	11360
877.674	11433
877.802	11452
877.93	11623
878.058	11627
878.185	11619
878.313	11707
878.441	11767
878.568	11649
878.696	11733
878.824	11912
878.951	11977
879.079	11950
879.206	12213
879.333	12041
879.461	11977
879.588	12224
879.715	12079
879.842	12239
879.97	12201
880.097	11927
880.224	11942
880.351	11984
880.478	11958
880.605	11859
880.732	11760
880.859	11988
880.986	11737
881.112	11752
881.239	11783
881.366	11668
881.493	11638
881.619	11516
881.746	11592
881.872	11589
881.999	11562
882.125	11440
882.252	11532
882.378	11512
882.505	11577
882.631	11360
882.757	11311
882.883	11360
883.01	11277
883.136	11185
883.262	11170
883.388	11140
883.514	11254
883.64	11170
883.766	11159
883.892	11010
884.018	10999
884.143	11025
884.269	11140
884.395	10911
884.52	10805
884.646	10835
884.772	10668
884.897	10592
885.023	10672
885.148	10675
885.274	10736
885.399	10679
885.524	10637
885.65	10592
885.775	10550
885.9	10577
886.025	10584
886.15	10516
886.275	10451
886.4	10402
886.525	10508
886.65	10417
886.775	10257
886.9	10500
887.025	10478
887.149	10333
887.274	10314
887.399	10192
887.523	10200
887.648	10219
887.773	10078
887.897	10215
888.021	10314
888.146	10173
888.27	10249
888.395	10223
888.519	10261
888.643	10272
888.767	10166
888.891	10059
889.015	9987
889.139	10025
889.263	10040
889.387	10086
889.511	10177
889.635	10040
889.759	9926
889.883	9972
890.006	10006
890.13	10063
890.254	9991
890.377	10006
890.501	9838
890.624	9918
890.748	9918
890.871	9899
890.995	9770
891.118	9705
891.241	9785
891.364	9804
891.488	9827
891.611	9705
891.734	9747
891.857	9781
891.98	9720
892.103	9789
892.226	9724
892.349	9675
892.471	9587
892.594	9622
892.717	9625
892.839	9625
892.962	9603
893.085	9698
893.207	9580
893.33	9530
893.452	9584
893.575	9576
893.697	9519
893.819	9648
893.941	9682
894.064	9545
894.186	9405
894.308	9386
894.43	9568
894.552	9572
894.674	9576
894.796	9363
894.918	9450
895.04	9401
895.161	9344
895.283	9374
895.405	9241
895.526	9272
895.648	9233
895.769	9294
895.891	9260
896.012	9329
896.134	9245
896.255	9157
896.376	9062
896.498	9161
896.619	9184
896.74	9081
896.861	9161
896.982	9340
897.103	9336
897.224	9237
897.345	9127
897.466	9024
897.587	9024
897.708	9150
897.828	8990
897.949	8937
898.07	8834
898.19	8956
898.311	9119
898.431	8899
898.552	8956
898.672	8948
898.792	9047
898.913	8941
899.033	8777
899.153	8731
899.273	8697
899.393	8693
899.513	8750
899.633	8727
899.753	8758
899.873	8754
899.993	8716
900.113	8674
900.232	8758
900.352	8644
900.472	8606
900.591	8598
900.711	8503
900.83	8530
900.95	8758
901.069	8689
901.189	8533
901.308	8465
901.427	8446
901.546	8419
901.665	8461
901.784	8499
901.904	8431
902.023	8336
902.141	8206
902.26	8275
902.379	8332
902.498	8286
902.617	8221
902.735	8244
902.854	8282
902.973	8294
903.091	8183
903.21	8130
903.328	8202
903.446	8126
903.565	8069
903.683	8214
903.801	8054
903.919	8153
904.038	8088
904.156	8100
904.274	8107
904.392	8092
904.51	8065
904.627	8069
904.745	8065
904.863	8077
904.981	7970
905.098	7909
905.216	7856
905.334	7928
905.451	7894
905.569	7913
905.686	7932
905.803	7833
905.921	7788
906.038	7860
906.155	7799
906.272	7719
906.389	7742
906.506	7685
906.623	7609
906.74	7601
906.857	7590
906.974	7594
907.091	7666
907.208	7742
907.324	7601
907.441	7544
907.557	7407
907.674	7480
907.79	7407
907.907	7381
908.023	7464
908.139	7426
908.256	7358
908.372	7381
908.488	7400
908.604	7259
908.72	7175
908.836	7270
908.952	7278
909.068	7266
909.184	7308
909.3	7263
909.415	7312
909.531	7247
909.647	7095
909.762	7107
909.878	7107
909.993	7107
910.108	7107
910.224	7149
910.339	7129
910.454	7061
910.57	6935
910.685	6962
910.8	7149
910.915	7061
911.03	7053
911.145	6966
911.259	6935
911.374	6852
911.489	6856
911.604	6791
911.718	6757
911.833	6757
911.947	6753
912.062	6639
912.176	6726
912.291	6707
912.405	6681
912.519	6871
912.633	6787
912.748	6719
912.862	6764
912.976	6585
913.09	6589
913.204	6589
913.318	6658
913.431	6726
913.545	6681
913.659	6734
913.772	6646
913.886	6547
914	6593
914.113	6627
914.226	6696
914.34	6608
914.453	6540
914.566	6616
914.68	6544
914.793	6589
914.906	6429
915.019	6422
915.132	6342
915.245	6467
915.358	6521
915.47	6452
915.583	6483
915.696	6448
915.809	6471
915.921	6589
916.034	6346
916.146	6422
916.259	6403
916.371	6486
916.483	6441
916.595	6372
916.708	6407
916.82	6372
916.932	6384
917.044	6384
917.156	6433
917.268	6350
917.38	6369
917.491	6311
917.603	6388
917.715	6422
917.826	6437
917.938	6346
918.049	6232
918.161	6350
918.272	6429
918.384	6414
918.495	6399
918.606	6285
918.717	6251
918.828	6258
918.939	6289
919.05	6209
919.161	6311
919.272	6148
919.383	6182
919.494	6319
919.604	6429
919.715	6277
919.826	6220
919.936	6232
920.047	6376
920.157	6327
920.267	6479
920.378	6292
920.488	6327
920.598	6456
920.708	6574
920.818	6479
920.928	6483
921.038	6635
921.148	6646
921.258	6388
921.368	6365
921.477	6311
921.587	6216
921.697	6114
921.806	6216
921.916	6095
922.025	5954
922.134	5965
922.244	5935
922.353	5931
922.462	5832
922.571	5802
922.68	5714
922.789	5714
922.898	5760
923.007	5649
923.116	5661
923.224	5737
923.333	5630
923.442	5688
923.55	5619
923.659	5604
923.767	5672
923.876	5562
923.984	5543
924.092	5471
924.201	5532
924.309	5577
924.417	5573
924.525	5501
924.633	5520
924.741	6148
924.849	5360
924.956	5455
925.064	5357
925.172	5265
925.279	5296
925.387	5349
925.494	5341
925.602	5474
925.709	5357
925.816	5307
925.924	5337
926.031	5372
926.138	5334
926.245	5360
926.352	5239
926.459	5330
926.566	5315
926.673	5265
926.779	5143
926.886	5113
926.993	5060
927.099	5014
927.206	4972
927.312	4965
927.419	5014
927.525	4957
927.631	4980
927.737	4942
927.843	4873
927.95	4790
928.056	4828
928.162	4831
928.267	4850
928.373	5318
928.479	4866
928.585	4672
928.69	4729
928.796	4778
928.901	4714
929.007	4599
929.112	4656
929.218	4653
929.323	4580
929.428	4550
929.533	4672
929.638	4542
929.743	4535
929.848	4546
929.953	4508
930.058	4470
930.163	4371
930.267	4352
930.372	4466
930.477	4333
930.581	4459
930.685	4367
930.79	4295
930.894	4295
930.998	4272
931.103	4443
931.207	4158
931.311	4086
931.415	4044
931.519	3926
931.623	3960
