Data from glass_V78500241_160.txt Node
Date: Wed Sep 01 19:15:36 CST 2021
User: usil
Spectrometer: V785-0024
Trigger mode: 0
Integration Time (sec): 4.000000E-1
Scans to average: 1
Nonlinearity correction enabled: false
Boxcar width: 0
Storing dark spectrum: false
XAxis mode: Wavelengths
Number of Pixels in Spectrum: 1024
>>>>>Begin Spectral Data<<<<<
801.071	3808
801.214	3785
801.356	3728
801.499	3759
801.641	3747
801.783	3819
801.926	3896
802.068	3823
802.211	3835
802.353	3918
802.496	3846
802.638	3876
802.78	3968
802.923	3987
803.065	3899
803.208	3838
803.35	3880
803.492	3903
803.635	3922
803.777	3819
803.919	3915
804.061	4154
804.204	4006
804.346	3983
804.488	3972
804.63	4048
804.773	3983
804.915	4025
805.057	4128
805.199	4044
805.341	4090
805.483	4154
805.626	4109
805.768	4131
805.91	4219
806.052	4318
806.194	4246
806.336	4402
806.478	4223
806.62	4188
806.762	4211
806.904	4276
807.046	4348
807.188	4227
807.33	4166
807.472	4265
807.614	4200
807.756	4299
807.898	4249
808.04	4227
808.182	4322
808.324	4337
808.465	4379
808.607	4485
808.749	4481
808.891	4519
809.033	4519
809.174	4413
809.316	4230
809.458	4272
809.6	4162
809.741	4204
809.883	4169
810.025	4257
810.166	4223
810.308	4249
810.45	4249
810.591	4242
810.733	4318
810.875	4569
811.016	4828
811.158	5170
811.299	5284
811.441	5284
811.582	5083
811.724	4706
811.865	4478
812.007	4470
812.148	4428
812.29	4398
812.431	4402
812.573	4440
812.714	4432
812.855	4394
812.997	4413
813.138	4512
813.279	4432
813.421	4375
813.562	4383
813.703	4352
813.845	4375
813.986	4257
814.127	4223
814.268	4268
814.41	4295
814.551	4306
814.692	4268
814.833	4272
814.974	4299
815.115	4337
815.256	4303
815.397	4230
815.539	4238
815.68	4257
815.821	4242
815.962	4318
816.103	4322
816.244	4238
816.385	4265
816.526	4333
816.666	4234
816.807	4135
816.948	4192
817.089	4185
817.23	4093
817.371	4097
817.512	4074
817.653	4063
817.793	4086
817.934	4055
818.075	4105
818.216	4090
818.356	4105
818.497	4021
818.638	3956
818.778	3926
818.919	3915
819.06	3854
819.2	3896
819.341	3892
819.481	3899
819.622	3953
819.762	4021
819.903	3972
820.043	3869
820.184	3842
820.324	3850
820.465	3918
820.605	3899
820.746	3907
820.886	3816
821.026	3956
821.167	3949
821.307	3972
821.447	4002
821.588	3953
821.728	3968
821.868	3949
822.008	3888
822.149	3934
822.289	3937
822.429	3804
822.569	3759
822.709	3831
822.849	3770
822.99	3781
823.13	3728
823.27	3789
823.41	3701
823.55	3808
823.69	3732
823.83	3751
823.97	3690
824.11	3637
824.25	3694
824.389	3660
824.529	3694
824.669	3641
824.809	3736
824.949	3755
825.089	3743
825.228	3724
825.368	3595
825.508	3553
825.648	3572
825.787	3622
825.927	3641
826.067	3660
826.206	3698
826.346	3789
826.485	3911
826.625	3854
826.765	3960
826.904	3857
827.044	3610
827.183	3507
827.323	3443
827.462	3485
827.601	3435
827.741	3439
827.88	3519
828.02	3363
828.159	3447
828.298	3477
828.437	3584
828.577	3515
828.716	3625
828.855	3553
828.994	3382
829.134	3355
829.273	3428
829.412	3378
829.551	3340
829.69	3397
829.829	3428
829.968	3526
830.107	3439
830.246	3458
830.385	3374
830.524	3367
830.663	3340
830.802	3283
830.941	3241
831.08	3233
831.219	3291
831.357	3298
831.496	3412
831.635	3260
831.774	3214
831.913	3226
832.051	3142
832.19	3176
832.329	3203
832.467	3173
832.606	3119
832.744	3203
832.883	3184
833.022	3188
833.16	3298
833.299	3306
833.437	3386
833.576	3386
833.714	3447
833.852	3428
833.991	3443
834.129	3492
834.267	3462
834.406	3420
834.544	3405
834.682	3397
834.821	3424
834.959	3568
835.097	3454
835.235	3564
835.373	3526
835.511	3481
835.65	3466
835.788	3507
835.926	3405
836.064	3386
836.202	3447
836.34	3633
836.478	3644
836.615	3572
836.753	3618
836.891	3679
837.029	3637
837.167	3591
837.305	3587
837.443	3580
837.58	3538
837.718	3648
837.856	3553
837.993	3545
838.131	3576
838.269	3584
838.406	3595
838.544	3610
838.681	3526
838.819	3511
838.956	3424
839.094	3416
839.231	3405
839.369	3496
839.506	3793
839.643	3622
839.781	3511
839.918	3492
840.055	3545
840.193	3504
840.33	3515
840.467	3549
840.604	3625
840.742	3819
840.879	3599
841.016	3610
841.153	3614
841.29	3785
841.427	3778
841.564	3762
841.701	3740
841.838	3694
841.975	3701
842.112	3732
842.249	3648
842.385	3633
842.522	3827
842.659	3686
842.796	3686
842.933	3724
843.069	3732
843.206	3690
843.343	3827
843.479	3778
843.616	3808
843.752	3671
843.889	3701
844.025	3869
844.162	3732
844.298	3884
844.435	3770
844.571	3778
844.708	3915
844.844	3968
844.98	4044
845.117	4059
845.253	3945
845.389	3941
845.525	3983
845.661	4002
845.798	3934
845.934	4029
846.07	3934
846.206	4059
846.342	4101
846.478	4078
846.614	3972
846.75	3945
846.886	3941
847.022	4051
847.158	4006
847.294	4013
847.429	4044
847.565	4029
847.701	4284
847.837	3899
847.972	3884
848.108	4021
848.244	3979
848.379	3922
848.515	3854
848.65	3827
848.786	3835
848.921	3865
849.057	3934
849.192	3918
849.328	3937
849.463	3896
849.598	3873
849.734	3930
849.869	3850
850.004	3816
850.14	3846
850.275	3800
850.41	3766
850.545	3740
850.68	3770
850.815	3838
850.95	3804
851.085	3960
851.22	3918
851.355	3857
851.49	3789
851.625	3812
851.76	3816
851.895	3759
852.03	3755
852.165	3831
852.299	3869
852.434	3922
852.569	3873
852.703	3930
852.838	3941
852.973	4036
853.107	4021
853.242	3918
853.376	3850
853.511	3812
853.645	3857
853.78	3998
853.914	3899
854.048	3915
854.183	3918
854.317	3934
854.451	4055
854.585	3972
854.72	3991
854.854	4063
854.988	3926
855.122	4036
855.256	3922
855.39	4013
855.524	4090
855.658	4143
855.792	4109
855.926	4166
856.06	4181
856.194	4211
856.327	4158
856.461	4120
856.595	4143
856.729	4227
856.862	4306
856.996	4242
857.13	4329
857.263	4344
857.397	4375
857.53	4291
857.664	4390
857.797	4432
857.931	4470
858.064	4398
858.197	4459
858.331	4394
858.464	4379
858.597	4394
858.731	4443
858.864	4485
858.997	4474
859.13	4588
859.263	4596
859.396	4626
859.529	4561
859.662	4588
859.795	4523
859.928	4618
860.061	4740
860.194	4790
860.327	4736
860.46	4675
860.592	4790
860.725	4755
860.858	4759
860.99	4702
861.123	4691
861.256	4694
861.388	4733
861.521	5379
861.653	4744
861.786	4744
861.918	4729
862.05	4782
862.183	4885
862.315	4904
862.447	4919
862.58	4923
862.712	4824
862.844	4820
862.976	4812
863.108	4919
863.24	5223
863.372	4816
863.504	4919
863.636	4904
863.768	4980
863.9	4980
864.032	4904
864.164	4972
864.296	5022
864.428	5086
864.559	5132
864.691	5113
864.823	5174
864.954	5124
865.086	5136
865.217	5143
865.349	5162
865.48	5235
865.612	5204
865.743	5311
865.875	5159
866.006	5178
866.137	5246
866.269	5265
866.4	5239
866.531	5284
866.662	5193
866.793	5258
866.924	5261
867.055	5345
867.186	5345
867.317	5349
867.448	5334
867.579	5421
867.71	5337
867.841	5345
867.972	5478
868.103	5539
868.233	5501
868.364	5474
868.495	5592
868.625	5661
868.756	5813
868.886	5707
869.017	5783
869.147	5866
869.278	5870
869.408	5790
869.539	5878
869.669	5897
869.799	5931
869.929	6007
870.06	6053
870.19	6190
870.32	6247
870.45	6262
870.58	6391
870.71	6452
870.84	6464
870.97	6407
871.1	6471
871.23	6639
871.36	6692
871.489	6707
871.619	6757
871.749	6776
871.879	6916
872.008	7012
872.138	7015
872.267	7034
872.397	6966
872.526	7034
872.656	7095
872.785	7251
872.915	7426
873.044	7506
873.173	7521
873.303	7632
873.432	7712
873.561	7944
873.69	7917
873.819	7986
873.948	8123
874.077	8233
874.206	8351
874.335	8469
874.464	8663
874.593	8868
874.722	8956
874.851	9173
874.979	9264
875.108	9367
875.237	9496
875.365	9534
875.494	9610
875.623	9842
875.751	9816
875.88	9983
876.008	10105
876.136	10291
876.265	10504
876.393	10729
876.521	10740
876.65	10816
876.778	10934
876.906	10953
877.034	11060
877.162	11071
877.29	11235
877.418	11265
877.546	11368
877.674	11459
877.802	11452
877.93	11558
878.058	11516
878.185	11455
878.313	11611
878.441	11779
878.568	11661
878.696	11805
878.824	11847
878.951	11920
879.079	12030
879.206	12117
879.333	12015
879.461	12026
879.588	12159
879.715	12045
879.842	12224
879.97	12098
880.097	11874
880.224	11889
880.351	11897
880.478	11916
880.605	11897
880.732	11832
880.859	11920
880.986	11828
881.112	11859
881.239	11745
881.366	11627
881.493	11554
881.619	11585
881.746	11512
881.872	11592
881.999	11501
882.125	11478
882.252	11615
882.378	11467
882.505	11604
882.631	11391
882.757	11307
882.883	11349
883.01	11261
883.136	11220
883.262	11132
883.388	11098
883.514	11155
883.64	11132
883.766	11178
883.892	10991
884.018	11022
884.143	11052
884.269	11098
884.395	10847
884.52	10824
884.646	10698
884.772	10714
884.897	10702
885.023	10672
885.148	10786
885.274	10721
885.399	10679
885.524	10622
885.65	10580
885.775	10611
885.9	10493
886.025	10649
886.15	10588
886.275	10440
886.4	10402
886.525	10432
886.65	10447
886.775	10318
886.9	10462
887.025	10546
887.149	10284
887.274	10265
887.399	10215
887.523	10181
887.648	10169
887.773	10128
887.897	10299
888.021	10131
888.146	10185
888.27	10261
888.395	10192
888.519	10154
888.643	10223
888.767	10230
888.891	10093
889.015	10021
889.139	10093
889.263	10109
889.387	10120
889.511	10090
889.635	10048
889.759	10063
889.883	9960
890.006	10040
890.13	10116
890.254	9926
890.377	9945
890.501	9842
890.624	9899
890.748	9888
890.871	9835
890.995	9789
891.118	9804
891.241	9717
891.364	9743
891.488	9895
891.611	9751
891.734	9835
891.857	9785
891.98	9766
892.103	9819
892.226	9667
892.349	9572
892.471	9511
892.594	9599
892.717	9580
892.839	9622
892.962	9595
893.085	9625
893.207	9587
893.33	9542
893.452	9488
893.575	9667
893.697	9515
893.819	9641
893.941	9698
894.064	9622
894.186	9458
894.308	9351
894.43	9587
894.552	9599
894.674	9561
894.796	9416
894.918	9450
895.04	9306
895.161	9389
895.283	9393
895.405	9268
895.526	9260
895.648	9302
895.769	9226
895.891	9291
896.012	9256
896.134	9241
896.255	9199
896.376	9112
896.498	9188
896.619	9169
896.74	9104
896.861	9070
896.982	9294
897.103	9272
897.224	9123
897.345	9127
897.466	9051
897.587	9047
897.708	9123
897.828	9070
897.949	9020
898.07	8906
898.19	8899
898.311	9020
898.431	8921
898.552	8918
898.672	8994
898.792	8963
898.913	8929
899.033	8853
899.153	8785
899.273	8674
899.393	8708
899.513	8746
899.633	8773
899.753	8804
899.873	8686
899.993	8674
900.113	8762
900.232	8746
900.352	8625
900.472	8617
900.591	8568
900.711	8568
900.83	8552
900.95	8659
901.069	8727
901.189	8606
901.308	8514
901.427	8419
901.546	8480
901.665	8533
901.784	8598
901.904	8446
902.023	8328
902.141	8202
902.26	8271
902.379	8339
902.498	8229
902.617	8157
902.735	8298
902.854	8294
902.973	8240
903.091	8107
903.21	8176
903.328	8214
903.446	8092
903.565	8142
903.683	8065
903.801	8039
903.919	8084
904.038	8130
904.156	8065
904.274	8092
904.392	7997
904.51	8054
904.627	8005
904.745	8069
904.863	8107
904.981	7967
905.098	7913
905.216	7860
905.334	7898
905.451	7944
905.569	7864
905.686	7925
905.803	7906
905.921	7856
906.038	7883
906.155	7799
906.272	7712
906.389	7681
906.506	7712
906.623	7624
906.74	7601
906.857	7506
906.974	7647
907.091	7685
907.208	7753
907.324	7632
907.441	7556
907.557	7502
907.674	7464
907.79	7434
907.907	7430
908.023	7419
908.139	7422
908.256	7362
908.372	7415
908.488	7422
908.604	7285
908.72	7301
908.836	7316
908.952	7263
909.068	7194
909.184	7400
909.3	7266
909.415	7327
909.531	7255
909.647	7156
909.762	7145
909.878	7069
909.993	7202
910.108	7126
910.224	7091
910.339	7118
910.454	7046
910.57	7015
910.685	6962
910.8	7221
910.915	7114
911.03	7015
911.145	6920
911.259	6913
911.374	6897
911.489	6863
911.604	6818
911.718	6677
911.833	6772
911.947	6677
912.062	6654
912.176	6749
912.291	6681
912.405	6722
912.519	6856
912.633	6848
912.748	6753
912.862	6730
912.976	6627
913.09	6536
913.204	6604
913.318	6639
913.431	6726
913.545	6673
913.659	6730
913.772	6662
913.886	6601
914	6570
914.113	6677
914.226	6703
914.34	6631
914.453	6483
914.566	6677
914.68	6532
914.793	6551
914.906	6433
915.019	6403
915.132	6361
915.245	6441
915.358	6410
915.47	6441
915.583	6433
915.696	6479
915.809	6540
915.921	6589
916.034	6399
916.146	6456
916.259	6399
916.371	6540
916.483	6479
916.595	6426
916.708	6422
916.82	6448
916.932	6357
917.044	6376
917.156	6395
917.268	6292
917.38	6350
917.491	6372
917.603	6407
917.715	6418
917.826	6429
917.938	6273
918.049	6254
918.161	6281
918.272	6414
918.384	6471
918.495	6376
918.606	6216
918.717	6285
918.828	6308
918.939	6266
919.05	6220
919.161	6270
919.272	6098
919.383	6205
919.494	6247
919.604	6467
919.715	6285
919.826	6213
919.936	6254
920.047	6315
920.157	6296
920.267	6467
920.378	6361
920.488	6311
920.598	6479
920.708	6593
920.818	6467
920.928	6559
921.038	6642
921.148	6604
921.258	6384
921.368	6323
921.477	6216
921.587	6175
921.697	6121
921.806	6197
921.916	6114
922.025	5984
922.134	5965
922.244	5912
922.353	5916
922.462	5866
922.571	5828
922.68	5703
922.789	5707
922.898	5741
923.007	5657
923.116	5745
923.224	5668
923.333	5695
923.442	5611
923.55	5646
923.659	5619
923.767	5676
923.876	5566
923.984	5566
924.092	5539
924.201	5577
924.309	5558
924.417	5558
924.525	5452
924.633	5509
924.741	6110
924.849	5391
924.956	5459
925.064	5334
925.172	5315
925.279	5341
925.387	5429
925.494	5383
925.602	5425
925.709	5391
925.816	5284
925.924	5326
926.031	5383
926.138	5387
926.245	5345
926.352	5197
926.459	5311
926.566	5318
926.673	5235
926.779	5181
926.886	5136
926.993	5052
927.099	5037
927.206	5029
927.312	4972
927.419	5045
927.525	5033
927.631	4968
927.737	4900
927.843	4877
927.95	4801
928.056	4873
928.162	4862
928.267	4828
928.373	5372
928.479	4904
928.585	4683
928.69	4793
928.796	4763
928.901	4698
929.007	4622
929.112	4672
929.218	4622
929.323	4607
929.428	4599
929.533	4675
929.638	4516
929.743	4561
929.848	4577
929.953	4485
930.058	4402
930.163	4352
930.267	4360
930.372	4470
930.477	4329
930.581	4497
930.685	4394
930.79	4314
930.894	4272
930.998	4276
931.103	4405
931.207	4143
931.311	4051
931.415	4067
931.519	3930
931.623	3922
