Data from glass_V78500241_2638.txt Node
Date: Wed Sep 01 19:32:47 CST 2021
User: usil
Spectrometer: V785-0024
Trigger mode: 0
Integration Time (sec): 4.000000E-1
Scans to average: 1
Nonlinearity correction enabled: false
Boxcar width: 0
Storing dark spectrum: false
XAxis mode: Wavelengths
Number of Pixels in Spectrum: 1024
>>>>>Begin Spectral Data<<<<<
801.071	3701
801.214	3747
801.356	3667
801.499	3724
801.641	3724
801.783	3759
801.926	3827
802.068	3850
802.211	3861
802.353	3854
802.496	3816
802.638	3907
802.78	3888
802.923	3930
803.065	3873
803.208	3831
803.35	3838
803.492	3922
803.635	3865
803.777	3835
803.919	3873
804.061	4105
804.204	3953
804.346	3941
804.488	3979
804.63	4040
804.773	3987
804.915	3994
805.057	4131
805.199	4067
805.341	4055
805.483	4173
805.626	4093
805.768	4048
805.91	4204
806.052	4246
806.194	4219
806.336	4356
806.478	4204
806.62	4196
806.762	4128
806.904	4227
807.046	4337
807.188	4181
807.33	4166
807.472	4185
807.614	4169
807.756	4242
807.898	4204
808.04	4177
808.182	4299
808.324	4356
808.465	4371
808.607	4447
808.749	4405
808.891	4485
809.033	4462
809.174	4386
809.316	4287
809.458	4253
809.6	4120
809.741	4162
809.883	4109
810.025	4162
810.166	4215
810.308	4227
810.45	4227
810.591	4223
810.733	4295
810.875	4523
811.016	4828
811.158	5109
811.299	5261
811.441	5269
811.582	5083
811.724	4664
811.865	4428
812.007	4451
812.148	4432
812.29	4371
812.431	4424
812.573	4417
812.714	4417
812.855	4390
812.997	4325
813.138	4462
813.279	4394
813.421	4371
813.562	4379
813.703	4325
813.845	4329
813.986	4257
814.127	4253
814.268	4284
814.41	4291
814.551	4261
814.692	4322
814.833	4238
814.974	4265
815.115	4329
815.256	4230
815.397	4215
815.539	4234
815.68	4158
815.821	4196
815.962	4284
816.103	4234
816.244	4242
816.385	4223
816.526	4219
816.666	4181
816.807	4074
816.948	4192
817.089	4169
817.23	4105
817.371	4067
817.512	4032
817.653	4032
817.793	3991
817.934	4040
818.075	4105
818.216	4055
818.356	4082
818.497	3998
818.638	3861
818.778	3896
818.919	3880
819.06	3823
819.2	3892
819.341	3857
819.481	3831
819.622	3865
819.762	3983
819.903	3888
820.043	3880
820.184	3789
820.324	3804
820.465	3892
820.605	3880
820.746	3922
820.886	3789
821.026	3922
821.167	3896
821.307	3873
821.447	3968
821.588	3953
821.728	3926
821.868	3949
822.008	3823
822.149	3888
822.289	3945
822.429	3732
822.569	3759
822.709	3770
822.849	3644
822.99	3671
823.13	3713
823.27	3724
823.41	3694
823.55	3770
823.69	3713
823.83	3736
823.97	3682
824.11	3633
824.25	3595
824.389	3648
824.529	3648
824.669	3637
824.809	3732
824.949	3743
825.089	3717
825.228	3660
825.368	3542
825.508	3530
825.648	3538
825.787	3606
825.927	3652
826.067	3614
826.206	3667
826.346	3785
826.485	3827
826.625	3850
826.765	3918
826.904	3823
827.044	3599
827.183	3549
827.323	3389
827.462	3523
827.601	3424
827.741	3439
827.88	3454
828.02	3359
828.159	3428
828.298	3431
828.437	3534
828.577	3462
828.716	3576
828.855	3481
828.994	3355
829.134	3344
829.273	3370
829.412	3340
829.551	3332
829.69	3370
829.829	3424
829.968	3507
830.107	3409
830.246	3393
830.385	3359
830.524	3325
830.663	3268
830.802	3264
830.941	3214
831.08	3199
831.219	3241
831.357	3237
831.496	3386
831.635	3253
831.774	3180
831.913	3176
832.051	3135
832.19	3135
832.329	3195
832.467	3138
832.606	3070
832.744	3188
832.883	3146
833.022	3176
833.16	3230
833.299	3310
833.437	3340
833.576	3374
833.714	3412
833.852	3424
833.991	3454
834.129	3473
834.267	3485
834.406	3370
834.544	3469
834.682	3397
834.821	3424
834.959	3557
835.097	3416
835.235	3545
835.373	3496
835.511	3500
835.65	3454
835.788	3485
835.926	3431
836.064	3374
836.202	3439
836.34	3545
836.478	3606
836.615	3519
836.753	3584
836.891	3667
837.029	3610
837.167	3572
837.305	3553
837.443	3538
837.58	3488
837.718	3561
837.856	3526
837.993	3530
838.131	3599
838.269	3549
838.406	3523
838.544	3557
838.681	3447
838.819	3458
838.956	3367
839.094	3416
839.231	3424
839.369	3496
839.506	3720
839.643	3637
839.781	3462
839.918	3450
840.055	3488
840.193	3492
840.33	3530
840.467	3561
840.604	3622
840.742	3785
840.879	3538
841.016	3557
841.153	3591
841.29	3747
841.427	3720
841.564	3717
841.701	3728
841.838	3709
841.975	3629
842.112	3690
842.249	3595
842.385	3599
842.522	3816
842.659	3671
842.796	3705
842.933	3663
843.069	3701
843.206	3762
843.343	3793
843.479	3747
843.616	3785
843.752	3671
843.889	3652
844.025	3831
844.162	3675
844.298	3831
844.435	3797
844.571	3747
844.708	3899
844.844	3968
844.98	4029
845.117	3975
845.253	3892
845.389	3861
845.525	3941
845.661	3998
845.798	3915
845.934	3991
846.07	3903
846.206	4044
846.342	4124
846.478	4044
846.614	3937
846.75	3915
846.886	3941
847.022	4010
847.158	3945
847.294	3991
847.429	3987
847.565	3979
847.701	4261
847.837	3854
847.972	3861
848.108	3926
848.244	3983
848.379	3854
848.515	3823
848.65	3823
848.786	3812
848.921	3915
849.057	3876
849.192	3907
849.328	3892
849.463	3922
849.598	3903
849.734	3903
849.869	3800
850.004	3812
850.14	3857
850.275	3755
850.41	3812
850.545	3755
850.68	3759
850.815	3778
850.95	3797
851.085	3918
851.22	3842
851.355	3842
851.49	3774
851.625	3766
851.76	3793
851.895	3728
852.03	3728
852.165	3823
852.299	3835
852.434	3876
852.569	3846
852.703	3823
852.838	3926
852.973	3975
853.107	3998
853.242	3865
853.376	3869
853.511	3766
853.645	3812
853.78	3979
853.914	3873
854.048	3838
854.183	3884
854.317	3934
854.451	4006
854.585	3937
854.72	3896
854.854	4044
854.988	3922
855.122	3956
855.256	3922
855.39	3987
855.524	4071
855.658	4040
855.792	4090
855.926	4139
856.06	4154
856.194	4173
856.327	4192
856.461	4086
856.595	4124
856.729	4188
856.862	4230
856.996	4234
857.13	4257
857.263	4295
857.397	4356
857.53	4322
857.664	4310
857.797	4367
857.931	4402
858.064	4367
858.197	4455
858.331	4398
858.464	4394
858.597	4314
858.731	4428
858.864	4432
858.997	4424
859.13	4523
859.263	4508
859.396	4599
859.529	4497
859.662	4531
859.795	4493
859.928	4611
860.061	4668
860.194	4729
860.327	4656
860.46	4660
860.592	4729
860.725	4767
860.858	4729
860.99	4759
861.123	4664
861.256	4660
861.388	4725
861.521	5280
861.653	4763
861.786	4710
861.918	4733
862.05	4736
862.183	4847
862.315	4847
862.447	4953
862.58	4873
862.712	4843
862.844	4740
862.976	4881
863.108	4904
863.24	5284
863.372	4790
863.504	4915
863.636	4835
863.768	4908
863.9	4927
864.032	4889
864.164	4957
864.296	5022
864.428	5117
864.559	5124
864.691	5079
864.823	5079
864.954	5098
865.086	5166
865.217	5113
865.349	5071
865.48	5178
865.612	5216
865.743	5284
865.875	5223
866.006	5208
866.137	5250
866.269	5239
866.4	5239
866.531	5189
866.662	5201
866.793	5258
866.924	5269
867.055	5311
867.186	5383
867.317	5288
867.448	5322
867.579	5322
867.71	5406
867.841	5406
867.972	5395
868.103	5448
868.233	5486
868.364	5520
868.495	5551
868.625	5691
868.756	5729
868.886	5608
869.017	5733
869.147	5897
869.278	5866
869.408	5855
869.539	5798
869.669	5893
869.799	5935
869.929	5958
870.06	5980
870.19	6232
870.32	6171
870.45	6243
870.58	6327
870.71	6342
870.84	6403
870.97	6422
871.1	6441
871.23	6642
871.36	6703
871.489	6646
871.619	6719
871.749	6791
871.879	6818
872.008	6924
872.138	6916
872.267	6977
872.397	6989
872.526	7065
872.656	7095
872.785	7270
872.915	7377
873.044	7537
873.173	7506
873.303	7666
873.432	7723
873.561	7776
873.69	7917
873.819	7993
873.948	8168
874.077	8240
874.206	8377
874.335	8461
874.464	8674
874.593	8849
874.722	8956
874.851	9127
874.979	9218
875.108	9397
875.237	9428
875.365	9454
875.494	9667
875.623	9812
875.751	9785
875.88	9994
876.008	10120
876.136	10276
876.265	10481
876.393	10637
876.521	10748
876.65	10835
876.778	10873
876.906	10919
877.034	11052
877.162	11151
877.29	11216
877.418	11242
877.546	11379
877.674	11459
877.802	11493
877.93	11497
878.058	11539
878.185	11539
878.313	11634
878.441	11737
878.568	11703
878.696	11794
878.824	11813
878.951	11939
879.079	11988
879.206	12159
879.333	12072
879.461	12026
879.588	12144
879.715	12019
879.842	12281
879.97	12083
880.097	11847
880.224	11901
880.351	11824
880.478	11855
880.605	11843
880.732	11847
880.859	12045
880.986	11775
881.112	11866
881.239	11718
881.366	11604
881.493	11589
881.619	11634
881.746	11604
881.872	11532
881.999	11547
882.125	11425
882.252	11562
882.378	11512
882.505	11535
882.631	11421
882.757	11296
882.883	11318
883.01	11269
883.136	11201
883.262	11109
883.388	11109
883.514	11212
883.64	11155
883.766	11083
883.892	10953
884.018	10999
884.143	11067
884.269	11151
884.395	10866
884.52	10843
884.646	10774
884.772	10725
884.897	10645
885.023	10672
885.148	10736
885.274	10736
885.399	10698
885.524	10561
885.65	10653
885.775	10626
885.9	10611
886.025	10603
886.15	10531
886.275	10436
886.4	10356
886.525	10443
886.65	10356
886.775	10356
886.9	10447
887.025	10504
887.149	10375
887.274	10276
887.399	10135
887.523	10192
887.648	10116
887.773	10154
887.897	10219
888.021	10207
888.146	10150
888.27	10242
888.395	10185
888.519	10192
888.643	10169
888.767	10223
888.891	10101
889.015	9953
889.139	10093
889.263	9949
889.387	9987
889.511	10135
889.635	10044
889.759	10002
889.883	9949
890.006	9968
890.13	10154
890.254	9994
890.377	9953
890.501	9838
890.624	9949
890.748	9850
890.871	9846
890.995	9800
891.118	9793
891.241	9800
891.364	9766
891.488	9861
891.611	9705
891.734	9732
891.857	9827
891.98	9713
892.103	9766
892.226	9800
892.349	9694
892.471	9519
892.594	9580
892.717	9618
892.839	9568
892.962	9534
893.085	9701
893.207	9568
893.33	9443
893.452	9504
893.575	9591
893.697	9428
893.819	9553
893.941	9633
894.064	9530
894.186	9469
894.308	9416
894.43	9572
894.552	9526
894.674	9462
894.796	9351
894.918	9370
895.04	9389
895.161	9389
895.283	9317
895.405	9192
895.526	9294
895.648	9268
895.769	9211
895.891	9275
896.012	9203
896.134	9195
896.255	9150
896.376	9112
896.498	9097
896.619	9112
896.74	9074
896.861	9058
896.982	9321
897.103	9283
897.224	9135
897.345	9032
897.466	9001
897.587	9043
897.708	9024
897.828	9028
897.949	8941
898.07	8773
898.19	8880
898.311	9020
898.431	8853
898.552	8937
898.672	8994
898.792	8986
898.913	8902
899.033	8826
899.153	8686
899.273	8689
899.393	8640
899.513	8731
899.633	8640
899.753	8743
899.873	8689
899.993	8716
900.113	8720
900.232	8693
900.352	8617
900.472	8606
900.591	8587
900.711	8503
900.83	8549
900.95	8670
901.069	8655
901.189	8541
901.308	8389
901.427	8374
901.546	8438
901.665	8419
901.784	8461
901.904	8465
902.023	8298
902.141	8259
902.26	8256
902.379	8279
902.498	8210
902.617	8202
902.735	8301
902.854	8279
902.973	8240
903.091	8172
903.21	8157
903.328	8058
903.446	8206
903.565	8157
903.683	8107
903.801	8012
903.919	8161
904.038	8164
904.156	8020
904.274	8149
904.392	7974
904.51	8005
904.627	7993
904.745	8157
904.863	8088
904.981	7925
905.098	7928
905.216	7890
905.334	7868
905.451	7978
905.569	7852
905.686	7925
905.803	7871
905.921	7803
906.038	7852
906.155	7753
906.272	7719
906.389	7765
906.506	7597
906.623	7613
906.74	7578
906.857	7499
906.974	7571
907.091	7624
907.208	7677
907.324	7601
907.441	7609
907.557	7480
907.674	7453
907.79	7430
907.907	7377
908.023	7415
908.139	7460
908.256	7362
908.372	7369
908.488	7324
908.604	7236
908.72	7278
908.836	7293
908.952	7221
909.068	7202
909.184	7297
909.3	7266
909.415	7266
909.531	7236
909.647	7118
909.762	7095
909.878	7107
909.993	7057
910.108	7076
910.224	7057
910.339	7110
910.454	7031
910.57	7065
910.685	6947
910.8	7190
910.915	7145
911.03	6947
911.145	6916
911.259	6886
911.374	6920
911.489	6886
911.604	6791
911.718	6722
911.833	6692
911.947	6654
912.062	6646
912.176	6703
912.291	6738
912.405	6688
912.519	6802
912.633	6772
912.748	6658
912.862	6677
912.976	6574
913.09	6601
913.204	6593
913.318	6612
913.431	6677
913.545	6722
913.659	6730
913.772	6658
913.886	6601
914	6494
914.113	6601
914.226	6608
914.34	6616
914.453	6506
914.566	6570
914.68	6540
914.793	6498
914.906	6464
915.019	6380
915.132	6407
915.245	6448
915.358	6475
915.47	6429
915.583	6528
915.696	6445
915.809	6494
915.921	6620
916.034	6429
916.146	6422
916.259	6403
916.371	6506
916.483	6426
916.595	6437
916.708	6418
916.82	6391
916.932	6357
917.044	6346
917.156	6361
917.268	6338
917.38	6353
917.491	6315
917.603	6319
917.715	6399
917.826	6376
917.938	6338
918.049	6232
918.161	6361
918.272	6418
918.384	6365
918.495	6270
918.606	6232
918.717	6262
918.828	6266
918.939	6273
919.05	6186
919.161	6205
919.272	6129
919.383	6102
919.494	6258
919.604	6464
919.715	6292
919.826	6323
919.936	6216
920.047	6331
920.157	6285
920.267	6418
920.378	6342
920.488	6289
920.598	6437
920.708	6525
920.818	6483
920.928	6407
921.038	6555
921.148	6582
921.258	6323
921.368	6258
921.477	6171
921.587	6152
921.697	6022
921.806	6144
921.916	6053
922.025	5939
922.134	5893
922.244	5824
922.353	5912
922.462	5805
922.571	5790
922.68	5707
922.789	5657
922.898	5695
923.007	5604
923.116	5703
923.224	5668
923.333	5688
923.442	5566
923.55	5562
923.659	5630
923.767	5642
923.876	5535
923.984	5566
924.092	5512
924.201	5505
924.309	5512
924.417	5551
924.525	5512
924.633	5482
924.741	6216
924.849	5364
924.956	5478
925.064	5368
925.172	5269
925.279	5296
925.387	5387
925.494	5368
925.602	5383
925.709	5322
925.816	5277
925.924	5280
926.031	5391
926.138	5296
926.245	5311
926.352	5204
926.459	5277
926.566	5334
926.673	5254
926.779	5147
926.886	5083
926.993	5006
927.099	4991
927.206	4949
927.312	4949
927.419	5018
927.525	4965
927.631	5003
927.737	4873
927.843	4885
927.95	4748
928.056	4774
928.162	4873
928.267	4858
928.373	5307
928.479	4820
928.585	4687
928.69	4752
928.796	4790
928.901	4668
929.007	4634
929.112	4694
929.218	4637
929.323	4554
929.428	4516
929.533	4645
929.638	4497
929.743	4599
929.848	4519
929.953	4455
930.058	4481
930.163	4341
930.267	4348
930.372	4428
930.477	4295
930.581	4447
930.685	4360
930.79	4265
930.894	4272
930.998	4257
931.103	4360
931.207	4143
931.311	4078
931.415	4044
931.519	3896
931.623	3949
