Data from glass_V78500241_1103.txt Node
Date: Wed Sep 01 19:22:08 CST 2021
User: usil
Spectrometer: V785-0024
Trigger mode: 0
Integration Time (sec): 4.000000E-1
Scans to average: 1
Nonlinearity correction enabled: false
Boxcar width: 0
Storing dark spectrum: false
XAxis mode: Wavelengths
Number of Pixels in Spectrum: 1024
>>>>>Begin Spectral Data<<<<<
801.071	3751
801.214	3766
801.356	3717
801.499	3720
801.641	3759
801.783	3808
801.926	3903
802.068	3854
802.211	3861
802.353	3896
802.496	3838
802.638	3846
802.78	3907
802.923	3934
803.065	3880
803.208	3842
803.35	3907
803.492	3918
803.635	3911
803.777	3812
803.919	3911
804.061	4177
804.204	3968
804.346	3941
804.488	3964
804.63	4025
804.773	4013
804.915	4040
805.057	4105
805.199	4067
805.341	4074
805.483	4112
805.626	4120
805.768	4124
805.91	4261
806.052	4211
806.194	4215
806.336	4356
806.478	4207
806.62	4200
806.762	4215
806.904	4299
807.046	4314
807.188	4158
807.33	4211
807.472	4268
807.614	4238
807.756	4284
807.898	4169
808.04	4177
808.182	4325
808.324	4310
808.465	4352
808.607	4440
808.749	4432
808.891	4481
809.033	4493
809.174	4371
809.316	4295
809.458	4223
809.6	4158
809.741	4135
809.883	4143
810.025	4219
810.166	4230
810.308	4261
810.45	4238
810.591	4306
810.733	4337
810.875	4546
811.016	4790
811.158	5170
811.299	5269
811.441	5307
811.582	5094
811.724	4717
811.865	4474
812.007	4455
812.148	4462
812.29	4413
812.431	4386
812.573	4424
812.714	4383
812.855	4428
812.997	4421
813.138	4432
813.279	4451
813.421	4402
813.562	4413
813.703	4379
813.845	4333
813.986	4272
814.127	4265
814.268	4268
814.41	4291
814.551	4253
814.692	4337
814.833	4295
814.974	4299
815.115	4367
815.256	4257
815.397	4261
815.539	4230
815.68	4196
815.821	4204
815.962	4272
816.103	4322
816.244	4268
816.385	4192
816.526	4299
816.666	4230
816.807	4124
816.948	4139
817.089	4177
817.23	4135
817.371	4074
817.512	4051
817.653	4082
817.793	4044
817.934	4093
818.075	4051
818.216	4105
818.356	4078
818.497	4029
818.638	3937
818.778	3926
818.919	3880
819.06	3873
819.2	3949
819.341	3899
819.481	3846
819.622	3869
819.762	4017
819.903	3930
820.043	3873
820.184	3846
820.324	3819
820.465	3857
820.605	3899
820.746	3854
820.886	3797
821.026	3911
821.167	3876
821.307	3968
821.447	3972
821.588	3945
821.728	3991
821.868	3922
822.008	3896
822.149	3911
822.289	3899
822.429	3789
822.569	3804
822.709	3770
822.849	3698
822.99	3698
823.13	3755
823.27	3770
823.41	3694
823.55	3747
823.69	3698
823.83	3759
823.97	3701
824.11	3603
824.25	3614
824.389	3644
824.529	3686
824.669	3641
824.809	3747
824.949	3736
825.089	3766
825.228	3717
825.368	3618
825.508	3553
825.648	3648
825.787	3625
825.927	3663
826.067	3652
826.206	3709
826.346	3812
826.485	3838
826.625	3884
826.765	3926
826.904	3869
827.044	3606
827.183	3500
827.323	3462
827.462	3488
827.601	3439
827.741	3431
827.88	3492
828.02	3363
828.159	3485
828.298	3458
828.437	3538
828.577	3507
828.716	3603
828.855	3488
828.994	3386
829.134	3409
829.273	3378
829.412	3370
829.551	3389
829.69	3363
829.829	3416
829.968	3523
830.107	3431
830.246	3488
830.385	3374
830.524	3378
830.663	3291
830.802	3272
830.941	3180
831.08	3192
831.219	3272
831.357	3279
831.496	3401
831.635	3237
831.774	3233
831.913	3188
832.051	3123
832.19	3131
832.329	3207
832.467	3173
832.606	3127
832.744	3195
832.883	3222
833.022	3237
833.16	3241
833.299	3275
833.437	3355
833.576	3382
833.714	3420
833.852	3412
833.991	3450
834.129	3485
834.267	3466
834.406	3416
834.544	3462
834.682	3458
834.821	3431
834.959	3625
835.097	3466
835.235	3515
835.373	3443
835.511	3542
835.65	3439
835.788	3496
835.926	3393
836.064	3397
836.202	3409
836.34	3591
836.478	3625
836.615	3553
836.753	3633
836.891	3686
837.029	3641
837.167	3618
837.305	3557
837.443	3580
837.58	3511
837.718	3637
837.856	3538
837.993	3557
838.131	3580
838.269	3587
838.406	3557
838.544	3564
838.681	3545
838.819	3473
838.956	3405
839.094	3367
839.231	3447
839.369	3504
839.506	3766
839.643	3660
839.781	3500
839.918	3496
840.055	3542
840.193	3511
840.33	3584
840.467	3542
840.604	3629
840.742	3823
840.879	3553
841.016	3576
841.153	3587
841.29	3751
841.427	3720
841.564	3774
841.701	3785
841.838	3724
841.975	3671
842.112	3686
842.249	3633
842.385	3625
842.522	3797
842.659	3686
842.796	3694
842.933	3690
843.069	3694
843.206	3724
843.343	3804
843.479	3785
843.616	3861
843.752	3743
843.889	3671
844.025	3896
844.162	3732
844.298	3896
844.435	3770
844.571	3831
844.708	3892
844.844	3983
844.98	4040
845.117	4036
845.253	3937
845.389	3903
845.525	3964
845.661	3998
845.798	3899
845.934	4021
846.07	3945
846.206	4086
846.342	4150
846.478	4059
846.614	3983
846.75	3960
846.886	3922
847.022	4029
847.158	4013
847.294	3994
847.429	4074
847.565	4040
847.701	4265
847.837	3934
847.972	3884
848.108	3994
848.244	3987
848.379	3846
848.515	3793
848.65	3819
848.786	3888
848.921	3831
849.057	3884
849.192	3994
849.328	3915
849.463	3945
849.598	3918
849.734	3873
849.869	3899
850.004	3819
850.14	3812
850.275	3793
850.41	3759
850.545	3759
850.68	3808
850.815	3793
850.95	3797
851.085	3956
851.22	3873
851.355	3819
851.49	3797
851.625	3797
851.76	3804
851.895	3770
852.03	3728
852.165	3785
852.299	3869
852.434	3918
852.569	3842
852.703	3884
852.838	3979
852.973	4021
853.107	3994
853.242	3953
853.376	3880
853.511	3778
853.645	3827
853.78	3983
853.914	3945
854.048	3907
854.183	3899
854.317	3937
854.451	4078
854.585	3987
854.72	3945
854.854	4051
854.988	3956
855.122	4040
855.256	3930
855.39	4029
855.524	4090
855.658	4139
855.792	4101
855.926	4093
856.06	4188
856.194	4230
856.327	4124
856.461	4166
856.595	4162
856.729	4227
856.862	4306
856.996	4253
857.13	4314
857.263	4299
857.397	4341
857.53	4284
857.664	4375
857.797	4405
857.931	4436
858.064	4424
858.197	4451
858.331	4386
858.464	4409
858.597	4367
858.731	4474
858.864	4478
858.997	4424
859.13	4531
859.263	4588
859.396	4493
859.529	4508
859.662	4531
859.795	4546
859.928	4573
860.061	4679
860.194	4782
860.327	4668
860.46	4645
860.592	4752
860.725	4744
860.858	4740
860.99	4698
861.123	4725
861.256	4702
861.388	4755
861.521	5425
861.653	4744
861.786	4736
861.918	4698
862.05	4797
862.183	4820
862.315	4927
862.447	4957
862.58	4828
862.712	4839
862.844	4729
862.976	4911
863.108	4885
863.24	5170
863.372	4835
863.504	4892
863.636	4885
863.768	4999
863.9	4991
864.032	4953
864.164	4961
864.296	5048
864.428	5090
864.559	5105
864.691	5159
864.823	5102
864.954	5151
865.086	5155
865.217	5170
865.349	5086
865.48	5166
865.612	5227
865.743	5269
865.875	5208
866.006	5155
866.137	5208
866.269	5250
866.4	5273
866.531	5220
866.662	5269
866.793	5280
866.924	5307
867.055	5391
867.186	5341
867.317	5368
867.448	5311
867.579	5391
867.71	5398
867.841	5368
867.972	5448
868.103	5471
868.233	5471
868.364	5566
868.495	5558
868.625	5688
868.756	5767
868.886	5661
869.017	5741
869.147	5870
869.278	5878
869.408	5855
869.539	5824
869.669	5916
869.799	5908
869.929	5988
870.06	5973
870.19	6186
870.32	6220
870.45	6266
870.58	6357
870.71	6403
870.84	6544
870.97	6391
871.1	6445
871.23	6620
871.36	6707
871.489	6703
871.619	6787
871.749	6821
871.879	6897
872.008	6993
872.138	6993
872.267	7031
872.397	6947
872.526	7038
872.656	7145
872.785	7221
872.915	7407
873.044	7616
873.173	7559
873.303	7651
873.432	7780
873.561	7860
873.69	7852
873.819	8008
873.948	8218
874.077	8256
874.206	8271
874.335	8473
874.464	8632
874.593	8887
874.722	8918
874.851	9157
874.979	9253
875.108	9325
875.237	9466
875.365	9576
875.494	9682
875.623	9816
875.751	9781
875.88	10006
876.008	10109
876.136	10249
876.265	10489
876.393	10656
876.521	10706
876.65	10767
876.778	10862
876.906	10927
877.034	11033
877.162	11162
877.29	11181
877.418	11288
877.546	11341
877.674	11444
877.802	11455
877.93	11585
878.058	11512
878.185	11554
878.313	11680
878.441	11688
878.568	11657
878.696	11901
878.824	11786
878.951	11939
879.079	11969
879.206	12232
879.333	12095
879.461	12019
879.588	12072
879.715	12121
879.842	12232
879.97	12125
880.097	11931
880.224	11897
880.351	11870
880.478	11863
880.605	11817
880.732	11935
880.859	12022
880.986	11817
881.112	11821
881.239	11756
881.366	11707
881.493	11619
881.619	11535
881.746	11577
881.872	11471
881.999	11600
882.125	11543
882.252	11577
882.378	11535
882.505	11570
882.631	11334
882.757	11337
882.883	11299
883.01	11235
883.136	11220
883.262	11090
883.388	11086
883.514	11193
883.64	11155
883.766	11060
883.892	10904
884.018	11052
884.143	11124
884.269	11140
884.395	10801
884.52	10824
884.646	10782
884.772	10740
884.897	10641
885.023	10694
885.148	10759
885.274	10809
885.399	10626
885.524	10607
885.65	10558
885.775	10588
885.9	10626
886.025	10618
886.15	10618
886.275	10489
886.4	10363
886.525	10398
886.65	10417
886.775	10417
886.9	10504
887.025	10481
887.149	10367
887.274	10204
887.399	10265
887.523	10219
887.648	10143
887.773	10158
887.897	10306
888.021	10196
888.146	10154
888.27	10261
888.395	10257
888.519	10234
888.643	10284
888.767	10207
888.891	10101
889.015	10029
889.139	10071
889.263	9930
889.387	10078
889.511	10093
889.635	10090
889.759	10006
889.883	10017
890.006	9991
890.13	10078
890.254	9983
890.377	10010
890.501	9869
890.624	9880
890.748	9892
890.871	9865
890.995	9717
891.118	9686
891.241	9770
891.364	9713
891.488	9781
891.611	9781
891.734	9774
891.857	9838
891.98	9740
892.103	9774
892.226	9648
892.349	9686
892.471	9507
892.594	9618
892.717	9652
892.839	9580
892.962	9591
893.085	9599
893.207	9614
893.33	9576
893.452	9523
893.575	9629
893.697	9507
893.819	9614
893.941	9633
894.064	9526
894.186	9450
894.308	9485
894.43	9469
894.552	9618
894.674	9553
894.796	9359
894.918	9431
895.04	9386
895.161	9336
895.283	9332
895.405	9332
895.526	9279
895.648	9253
895.769	9287
895.891	9256
896.012	9374
896.134	9283
896.255	9218
896.376	9104
896.498	9165
896.619	9154
896.74	9085
896.861	9070
896.982	9245
897.103	9374
897.224	9154
897.345	9123
897.466	9017
897.587	9043
897.708	9123
897.828	9081
897.949	8979
898.07	8861
898.19	8952
898.311	9074
898.431	9001
898.552	8872
898.672	9017
898.792	8956
898.913	8975
899.033	8811
899.153	8739
899.273	8689
899.393	8731
899.513	8800
899.633	8708
899.753	8804
899.873	8746
899.993	8678
900.113	8674
900.232	8682
900.352	8617
900.472	8651
900.591	8568
900.711	8530
900.83	8552
900.95	8678
901.069	8708
901.189	8495
901.308	8427
901.427	8381
901.546	8469
901.665	8454
901.784	8541
901.904	8393
902.023	8317
902.141	8225
902.26	8248
902.379	8328
902.498	8202
902.617	8180
902.735	8286
902.854	8279
902.973	8256
903.091	8176
903.21	8164
903.328	8111
903.446	8123
903.565	8065
903.683	8138
903.801	8050
903.919	8138
904.038	8202
904.156	8054
904.274	8077
904.392	8111
904.51	8065
904.627	8096
904.745	8065
904.863	8103
904.981	7944
905.098	7795
905.216	7864
905.334	7928
905.451	7989
905.569	7932
905.686	7871
905.803	7913
905.921	7765
906.038	7887
906.155	7772
906.272	7696
906.389	7715
906.506	7597
906.623	7632
906.74	7594
906.857	7567
906.974	7616
907.091	7651
907.208	7750
907.324	7639
907.441	7571
907.557	7403
907.674	7464
907.79	7419
907.907	7476
908.023	7483
908.139	7411
908.256	7365
908.372	7396
908.488	7343
908.604	7259
908.72	7274
908.836	7270
908.952	7263
909.068	7308
909.184	7358
909.3	7247
909.415	7305
909.531	7240
909.647	7072
909.762	7145
909.878	7072
909.993	7133
910.108	7110
910.224	7122
910.339	7065
910.454	7103
910.57	6989
910.685	6966
910.8	7194
910.915	7084
911.03	7061
911.145	6962
911.259	6897
911.374	6916
911.489	6852
911.604	6867
911.718	6711
911.833	6719
911.947	6623
912.062	6631
912.176	6646
912.291	6772
912.405	6707
912.519	6802
912.633	6848
912.748	6783
912.862	6650
912.976	6623
913.09	6570
913.204	6578
913.318	6593
913.431	6650
913.545	6715
913.659	6715
913.772	6601
913.886	6593
914	6604
914.113	6589
914.226	6612
914.34	6574
914.453	6525
914.566	6631
914.68	6486
914.793	6467
914.906	6479
915.019	6388
915.132	6388
915.245	6361
915.358	6456
915.47	6433
915.583	6506
915.696	6471
915.809	6589
915.921	6509
916.034	6464
916.146	6388
916.259	6376
916.371	6467
916.483	6437
916.595	6342
916.708	6395
916.82	6369
916.932	6376
917.044	6391
917.156	6376
917.268	6334
917.38	6353
917.491	6338
917.603	6285
917.715	6479
917.826	6467
917.938	6292
918.049	6281
918.161	6346
918.272	6456
918.384	6418
918.495	6380
918.606	6300
918.717	6251
918.828	6273
918.939	6292
919.05	6159
919.161	6262
919.272	6148
919.383	6152
919.494	6334
919.604	6456
919.715	6270
919.826	6235
919.936	6235
920.047	6376
920.157	6281
920.267	6388
920.378	6384
920.488	6300
920.598	6445
920.708	6620
920.818	6498
920.928	6479
921.038	6612
921.148	6582
921.258	6338
921.368	6334
921.477	6224
921.587	6197
921.697	6091
921.806	6178
921.916	6098
922.025	5946
922.134	5973
922.244	5916
922.353	6015
922.462	5931
922.571	5885
922.68	5714
922.789	5680
922.898	5695
923.007	5665
923.116	5764
923.224	5680
923.333	5657
923.442	5547
923.55	5585
923.659	5649
923.767	5615
923.876	5585
923.984	5608
924.092	5482
924.201	5570
924.309	5535
924.417	5535
924.525	5459
924.633	5532
924.741	6350
924.849	5334
924.956	5467
925.064	5288
925.172	5288
925.279	5349
925.387	5383
925.494	5360
925.602	5433
925.709	5398
925.816	5299
925.924	5269
926.031	5376
926.138	5292
926.245	5280
926.352	5223
926.459	5349
926.566	5307
926.673	5269
926.779	5151
926.886	5162
926.993	5041
927.099	4999
927.206	4976
927.312	4968
927.419	5041
927.525	4972
927.631	4984
927.737	4911
927.843	4809
927.95	4763
928.056	4809
928.162	4889
928.267	4877
928.373	5429
928.479	4839
928.585	4694
928.69	4763
928.796	4771
928.901	4656
929.007	4554
929.112	4656
929.218	4653
929.323	4626
929.428	4558
929.533	4710
929.638	4527
929.743	4573
929.848	4542
929.953	4481
930.058	4421
930.163	4303
930.267	4341
930.372	4436
930.477	4337
930.581	4462
930.685	4348
930.79	4246
930.894	4287
930.998	4249
931.103	4379
931.207	4116
931.311	4074
931.415	4086
931.519	3922
931.623	3945
