Data from glass_V78500241_2616.txt Node
Date: Wed Sep 01 19:32:38 CST 2021
User: usil
Spectrometer: V785-0024
Trigger mode: 0
Integration Time (sec): 4.000000E-1
Scans to average: 1
Nonlinearity correction enabled: false
Boxcar width: 0
Storing dark spectrum: false
XAxis mode: Wavelengths
Number of Pixels in Spectrum: 1024
>>>>>Begin Spectral Data<<<<<
801.071	3740
801.214	3778
801.356	3694
801.499	3736
801.641	3728
801.783	3759
801.926	3861
802.068	3808
802.211	3831
802.353	3888
802.496	3823
802.638	3884
802.78	3903
802.923	3945
803.065	3930
803.208	3861
803.35	3854
803.492	3873
803.635	3922
803.777	3842
803.919	3892
804.061	4143
804.204	3998
804.346	3945
804.488	3911
804.63	4021
804.773	3953
804.915	4002
805.057	4147
805.199	4044
805.341	4097
805.483	4139
805.626	4101
805.768	4105
805.91	4188
806.052	4185
806.194	4177
806.336	4303
806.478	4166
806.62	4162
806.762	4166
806.904	4242
807.046	4314
807.188	4211
807.33	4162
807.472	4253
807.614	4192
807.756	4211
807.898	4196
808.04	4219
808.182	4310
808.324	4322
808.465	4329
808.607	4443
808.749	4436
808.891	4489
809.033	4455
809.174	4386
809.316	4291
809.458	4223
809.6	4105
809.741	4135
809.883	4071
810.025	4223
810.166	4234
810.308	4192
810.45	4253
810.591	4265
810.733	4257
810.875	4516
811.016	4828
811.158	5143
811.299	5258
811.441	5299
811.582	5033
811.724	4698
811.865	4485
812.007	4459
812.148	4466
812.29	4367
812.431	4371
812.573	4367
812.714	4371
812.855	4428
812.997	4375
813.138	4493
813.279	4402
813.421	4371
813.562	4356
813.703	4329
813.845	4287
813.986	4223
814.127	4204
814.268	4268
814.41	4280
814.551	4299
814.692	4344
814.833	4253
814.974	4341
815.115	4318
815.256	4303
815.397	4230
815.539	4227
815.68	4185
815.821	4230
815.962	4363
816.103	4253
816.244	4276
816.385	4200
816.526	4265
816.666	4204
816.807	4051
816.948	4135
817.089	4181
817.23	4112
817.371	4078
817.512	4021
817.653	4071
817.793	4017
817.934	4029
818.075	4105
818.216	4013
818.356	4044
818.497	3968
818.638	3915
818.778	3903
818.919	3865
819.06	3835
819.2	3907
819.341	3846
819.481	3842
819.622	3892
819.762	4006
819.903	3926
820.043	3865
820.184	3816
820.324	3838
820.465	3831
820.605	3838
820.746	3816
820.886	3755
821.026	3922
821.167	3873
821.307	3896
821.447	3991
821.588	3949
821.728	3941
821.868	3941
822.008	3892
822.149	3888
822.289	3880
822.429	3751
822.569	3770
822.709	3800
822.849	3698
822.99	3724
823.13	3743
823.27	3747
823.41	3682
823.55	3720
823.69	3705
823.83	3736
823.97	3690
824.11	3606
824.25	3618
824.389	3637
824.529	3641
824.669	3633
824.809	3663
824.949	3766
825.089	3720
825.228	3690
825.368	3568
825.508	3542
825.648	3561
825.787	3622
825.927	3595
826.067	3660
826.206	3705
826.346	3762
826.485	3835
826.625	3846
826.765	3941
826.904	3804
827.044	3625
827.183	3538
827.323	3409
827.462	3469
827.601	3428
827.741	3382
827.88	3401
828.02	3401
828.159	3420
828.298	3454
828.437	3496
828.577	3462
828.716	3557
828.855	3492
828.994	3348
829.134	3325
829.273	3363
829.412	3370
829.551	3313
829.69	3355
829.829	3378
829.968	3481
830.107	3431
830.246	3389
830.385	3370
830.524	3332
830.663	3275
830.802	3272
830.941	3184
831.08	3184
831.219	3245
831.357	3260
831.496	3405
831.635	3226
831.774	3173
831.913	3207
832.051	3104
832.19	3119
832.329	3180
832.467	3127
832.606	3119
832.744	3203
832.883	3169
833.022	3195
833.16	3249
833.299	3302
833.437	3287
833.576	3340
833.714	3382
833.852	3378
833.991	3435
834.129	3485
834.267	3443
834.406	3359
834.544	3424
834.682	3393
834.821	3386
834.959	3595
835.097	3393
835.235	3515
835.373	3481
835.511	3530
835.65	3401
835.788	3469
835.926	3409
836.064	3344
836.202	3363
836.34	3553
836.478	3606
836.615	3511
836.753	3564
836.891	3633
837.029	3580
837.167	3549
837.305	3515
837.443	3538
837.58	3504
837.718	3564
837.856	3591
837.993	3496
838.131	3595
838.269	3572
838.406	3572
838.544	3599
838.681	3454
838.819	3443
838.956	3367
839.094	3428
839.231	3439
839.369	3515
839.506	3732
839.643	3660
839.781	3450
839.918	3481
840.055	3500
840.193	3507
840.33	3557
840.467	3572
840.604	3538
840.742	3770
840.879	3534
841.016	3580
841.153	3587
841.29	3743
841.427	3641
841.564	3705
841.701	3724
841.838	3732
841.975	3675
842.112	3720
842.249	3610
842.385	3622
842.522	3800
842.659	3686
842.796	3644
842.933	3682
843.069	3713
843.206	3679
843.343	3781
843.479	3751
843.616	3835
843.752	3671
843.889	3660
844.025	3800
844.162	3698
844.298	3831
844.435	3770
844.571	3785
844.708	3888
844.844	3987
844.98	4036
845.117	3998
845.253	3937
845.389	3930
845.525	3956
845.661	3949
845.798	3934
845.934	3979
846.07	3964
846.206	4044
846.342	4101
846.478	4013
846.614	3934
846.75	3934
846.886	3888
847.022	4002
847.158	3941
847.294	4006
847.429	3987
847.565	4002
847.701	4204
847.837	3854
847.972	3884
848.108	3975
848.244	3972
848.379	3896
848.515	3808
848.65	3823
848.786	3865
848.921	3823
849.057	3884
849.192	3922
849.328	3915
849.463	3930
849.598	3899
849.734	3873
849.869	3850
850.004	3785
850.14	3827
850.275	3785
850.41	3720
850.545	3713
850.68	3785
850.815	3759
850.95	3766
851.085	3945
851.22	3869
851.355	3823
851.49	3804
851.625	3759
851.76	3781
851.895	3740
852.03	3694
852.165	3770
852.299	3838
852.434	3899
852.569	3854
852.703	3903
852.838	3915
852.973	4013
853.107	3991
853.242	3869
853.376	3827
853.511	3740
853.645	3838
853.78	3937
853.914	3846
854.048	3854
854.183	3865
854.317	3937
854.451	4105
854.585	3937
854.72	3899
854.854	3998
854.988	3926
855.122	3945
855.256	3915
855.39	3987
855.524	4109
855.658	4063
855.792	4074
855.926	4116
856.06	4131
856.194	4181
856.327	4154
856.461	4090
856.595	4131
856.729	4154
856.862	4242
856.996	4219
857.13	4265
857.263	4322
857.397	4360
857.53	4253
857.664	4341
857.797	4383
857.931	4371
858.064	4341
858.197	4459
858.331	4383
858.464	4367
858.597	4337
858.731	4432
858.864	4413
858.997	4489
859.13	4500
859.263	4470
859.396	4577
859.529	4504
859.662	4535
859.795	4512
859.928	4489
860.061	4683
860.194	4683
860.327	4626
860.46	4577
860.592	4714
860.725	4767
860.858	4744
860.99	4672
861.123	4668
861.256	4683
861.388	4759
861.521	5311
861.653	4759
861.786	4668
861.918	4748
862.05	4774
862.183	4774
862.315	4870
862.447	4923
862.58	4877
862.712	4748
862.844	4748
862.976	4839
863.108	4835
863.24	5231
863.372	4828
863.504	4892
863.636	4889
863.768	4965
863.9	4987
864.032	4927
864.164	4953
864.296	4999
864.428	5033
864.559	5090
864.691	5105
864.823	5079
864.954	5083
865.086	5124
865.217	5109
865.349	5067
865.48	5143
865.612	5201
865.743	5299
865.875	5178
866.006	5170
866.137	5239
866.269	5231
866.4	5212
866.531	5174
866.662	5197
866.793	5280
866.924	5299
867.055	5372
867.186	5292
867.317	5299
867.448	5288
867.579	5395
867.71	5417
867.841	5391
867.972	5402
868.103	5436
868.233	5490
868.364	5532
868.495	5501
868.625	5634
868.756	5745
868.886	5623
869.017	5657
869.147	5817
869.278	5828
869.408	5851
869.539	5851
869.669	5939
869.799	5920
869.929	5961
870.06	6011
870.19	6205
870.32	6194
870.45	6262
870.58	6365
870.71	6418
870.84	6357
870.97	6407
871.1	6448
871.23	6700
871.36	6654
871.489	6627
871.619	6719
871.749	6837
871.879	6848
872.008	6924
872.138	6909
872.267	7027
872.397	6962
872.526	7050
872.656	7061
872.785	7137
872.915	7335
873.044	7506
873.173	7529
873.303	7681
873.432	7795
873.561	7906
873.69	7928
873.819	7978
873.948	8180
874.077	8237
874.206	8377
874.335	8374
874.464	8689
874.593	8826
874.722	8792
874.851	9135
874.979	9192
875.108	9344
875.237	9405
875.365	9424
875.494	9599
875.623	9827
875.751	9838
875.88	10013
876.008	10112
876.136	10249
876.265	10580
876.393	10622
876.521	10660
876.65	10763
876.778	10824
876.906	10881
877.034	10984
877.162	11105
877.29	11189
877.418	11235
877.546	11383
877.674	11440
877.802	11387
877.93	11467
878.058	11551
878.185	11623
878.313	11703
878.441	11775
878.568	11745
878.696	11775
878.824	11893
878.951	11935
879.079	11950
879.206	12057
879.333	12060
879.461	12003
879.588	12091
879.715	12110
879.842	12254
879.97	12049
880.097	11824
880.224	11836
880.351	11885
880.478	11855
880.605	11866
880.732	11786
880.859	11973
880.986	11798
881.112	11840
881.239	11718
881.366	11623
881.493	11665
881.619	11497
881.746	11627
881.872	11471
881.999	11463
882.125	11554
882.252	11535
882.378	11512
882.505	11566
882.631	11387
882.757	11303
882.883	11387
883.01	11208
883.136	11189
883.262	11086
883.388	11086
883.514	11193
883.64	11151
883.766	11147
883.892	11033
884.018	10934
884.143	11075
884.269	11041
884.395	10862
884.52	10714
884.646	10721
884.772	10717
884.897	10710
885.023	10679
885.148	10721
885.274	10755
885.399	10630
885.524	10618
885.65	10558
885.775	10645
885.9	10554
886.025	10519
886.15	10596
886.275	10474
886.4	10371
886.525	10424
886.65	10428
886.775	10337
886.9	10485
887.025	10489
887.149	10405
887.274	10272
887.399	10181
887.523	10177
887.648	10169
887.773	10112
887.897	10192
888.021	10143
888.146	10124
888.27	10242
888.395	10204
888.519	10185
888.643	10169
888.767	10139
888.891	10086
889.015	10013
889.139	10059
889.263	9949
889.387	10063
889.511	10097
889.635	10055
889.759	9968
889.883	9895
890.006	9972
890.13	10097
890.254	9888
890.377	9899
890.501	9876
890.624	9850
890.748	9846
890.871	9827
890.995	9720
891.118	9740
891.241	9736
891.364	9751
891.488	9816
891.611	9717
891.734	9785
891.857	9797
891.98	9701
892.103	9660
892.226	9797
892.349	9644
892.471	9534
892.594	9603
892.717	9637
892.839	9595
892.962	9599
893.085	9675
893.207	9542
893.33	9450
893.452	9584
893.575	9614
893.697	9466
893.819	9557
893.941	9648
894.064	9660
894.186	9447
894.308	9428
894.43	9473
894.552	9466
894.674	9515
894.796	9348
894.918	9340
895.04	9306
895.161	9424
895.283	9401
895.405	9245
895.526	9283
895.648	9218
895.769	9222
895.891	9203
896.012	9233
896.134	9291
896.255	9237
896.376	9085
896.498	9146
896.619	9131
896.74	9017
896.861	9089
896.982	9291
897.103	9363
897.224	9222
897.345	9074
897.466	9032
897.587	9081
897.708	8979
897.828	8971
897.949	8948
898.07	8826
898.19	8925
898.311	8994
898.431	8895
898.552	8925
898.672	8960
898.792	8918
898.913	8933
899.033	8830
899.153	8788
899.273	8640
899.393	8693
899.513	8735
899.633	8667
899.753	8754
899.873	8739
899.993	8689
900.113	8746
900.232	8655
900.352	8621
900.472	8568
900.591	8545
900.711	8583
900.83	8587
900.95	8648
901.069	8724
901.189	8511
901.308	8457
901.427	8328
901.546	8431
901.665	8412
901.784	8480
901.904	8415
902.023	8332
902.141	8195
902.26	8218
902.379	8286
902.498	8214
902.617	8206
902.735	8279
902.854	8279
902.973	8214
903.091	8126
903.21	8210
903.328	8191
903.446	8119
903.565	8111
903.683	8115
903.801	8065
903.919	8126
904.038	8088
904.156	8012
904.274	8027
904.392	8024
904.51	8020
904.627	8012
904.745	8092
904.863	8054
904.981	7959
905.098	7871
905.216	7890
905.334	7894
905.451	7925
905.569	7864
905.686	7940
905.803	7868
905.921	7780
906.038	7784
906.155	7799
906.272	7685
906.389	7662
906.506	7582
906.623	7624
906.74	7506
906.857	7480
906.974	7609
907.091	7681
907.208	7658
907.324	7639
907.441	7567
907.557	7464
907.674	7388
907.79	7362
907.907	7449
908.023	7426
908.139	7472
908.256	7426
908.372	7343
908.488	7335
908.604	7259
908.72	7198
908.836	7259
908.952	7179
909.068	7232
909.184	7301
909.3	7255
909.415	7274
909.531	7232
909.647	7103
909.762	7137
909.878	7118
909.993	7152
910.108	7126
910.224	7084
910.339	7088
910.454	7004
910.57	6954
910.685	6966
910.8	7107
910.915	7076
911.03	6985
911.145	6951
911.259	6837
911.374	6871
911.489	6886
911.604	6833
911.718	6703
911.833	6741
911.947	6631
912.062	6570
912.176	6681
912.291	6711
912.405	6696
912.519	6863
912.633	6818
912.748	6741
912.862	6646
912.976	6597
913.09	6536
913.204	6608
913.318	6631
913.431	6681
913.545	6681
913.659	6684
913.772	6601
913.886	6608
914	6597
914.113	6612
914.226	6551
914.34	6566
914.453	6502
914.566	6544
914.68	6486
914.793	6494
914.906	6494
915.019	6391
915.132	6353
915.245	6380
915.358	6403
915.47	6418
915.583	6441
915.696	6418
915.809	6456
915.921	6521
916.034	6380
916.146	6410
916.259	6369
916.371	6517
916.483	6467
916.595	6384
916.708	6452
916.82	6399
916.932	6372
917.044	6399
917.156	6376
917.268	6315
917.38	6319
917.491	6224
917.603	6357
917.715	6399
917.826	6456
917.938	6277
918.049	6216
918.161	6384
918.272	6445
918.384	6365
918.495	6292
918.606	6273
918.717	6163
918.828	6262
918.939	6235
919.05	6163
919.161	6270
919.272	6133
919.383	6102
919.494	6319
919.604	6365
919.715	6281
919.826	6197
919.936	6216
920.047	6376
920.157	6254
920.267	6433
920.378	6342
920.488	6308
920.598	6429
920.708	6536
920.818	6475
920.928	6513
921.038	6563
921.148	6513
921.258	6384
921.368	6331
921.477	6216
921.587	6133
921.697	6114
921.806	6152
921.916	6053
922.025	5893
922.134	5946
922.244	5882
922.353	5927
922.462	5847
922.571	5786
922.68	5688
922.789	5649
922.898	5691
923.007	5657
923.116	5695
923.224	5638
923.333	5638
923.442	5611
923.55	5573
923.659	5539
923.767	5623
923.876	5493
923.984	5608
924.092	5505
924.201	5501
924.309	5524
924.417	5581
924.525	5459
924.633	5539
924.741	6243
924.849	5383
924.956	5417
925.064	5315
925.172	5303
925.279	5315
925.387	5349
925.494	5376
925.602	5387
925.709	5357
925.816	5269
925.924	5303
926.031	5395
926.138	5239
926.245	5292
926.352	5227
926.459	5334
926.566	5353
926.673	5197
926.779	5090
926.886	5128
926.993	4991
927.099	4972
927.206	4984
927.312	4953
927.419	5018
927.525	4949
927.631	4984
927.737	4870
927.843	4824
927.95	4736
928.056	4797
928.162	4801
928.267	4809
928.373	5277
928.479	4885
928.585	4691
928.69	4793
928.796	4782
928.901	4698
929.007	4573
929.112	4656
929.218	4603
929.323	4580
929.428	4538
929.533	4656
929.638	4504
929.743	4527
929.848	4535
929.953	4459
930.058	4394
930.163	4303
930.267	4352
930.372	4443
930.477	4291
930.581	4428
930.685	4299
930.79	4253
930.894	4303
930.998	4219
931.103	4421
931.207	4139
931.311	4059
931.415	4036
931.519	3926
931.623	3953
