Data from glass_V78500241_366.txt Node
Date: Wed Sep 01 19:17:02 CST 2021
User: usil
Spectrometer: V785-0024
Trigger mode: 0
Integration Time (sec): 4.000000E-1
Scans to average: 1
Nonlinearity correction enabled: false
Boxcar width: 0
Storing dark spectrum: false
XAxis mode: Wavelengths
Number of Pixels in Spectrum: 1024
>>>>>Begin Spectral Data<<<<<
801.071	3743
801.214	3781
801.356	3732
801.499	3751
801.641	3759
801.783	3770
801.926	3899
802.068	3842
802.211	3876
802.353	3861
802.496	3869
802.638	3934
802.78	3876
802.923	3941
803.065	3884
803.208	3850
803.35	3892
803.492	3899
803.635	3937
803.777	3827
803.919	3911
804.061	4181
804.204	3987
804.346	3945
804.488	3911
804.63	4036
804.773	3983
804.915	3991
805.057	4162
805.199	4101
805.341	4086
805.483	4105
805.626	4154
805.768	4112
805.91	4207
806.052	4261
806.194	4238
806.336	4379
806.478	4219
806.62	4204
806.762	4215
806.904	4284
807.046	4322
807.188	4265
807.33	4246
807.472	4287
807.614	4219
807.756	4310
807.898	4215
808.04	4253
808.182	4314
808.324	4287
808.465	4379
808.607	4459
808.749	4432
808.891	4455
809.033	4538
809.174	4367
809.316	4303
809.458	4211
809.6	4158
809.741	4158
809.883	4166
810.025	4234
810.166	4238
810.308	4234
810.45	4261
810.591	4230
810.733	4291
810.875	4516
811.016	4824
811.158	5121
811.299	5265
811.441	5261
811.582	5079
811.724	4714
811.865	4523
812.007	4466
812.148	4466
812.29	4390
812.431	4402
812.573	4428
812.714	4417
812.855	4424
812.997	4405
813.138	4500
813.279	4421
813.421	4432
813.562	4394
813.703	4352
813.845	4344
813.986	4257
814.127	4215
814.268	4303
814.41	4314
814.551	4318
814.692	4325
814.833	4295
814.974	4325
815.115	4379
815.256	4299
815.397	4257
815.539	4280
815.68	4192
815.821	4215
815.962	4329
816.103	4276
816.244	4284
816.385	4223
816.526	4295
816.666	4219
816.807	4071
816.948	4196
817.089	4215
817.23	4124
817.371	4082
817.512	4109
817.653	4097
817.793	4048
817.934	4082
818.075	4116
818.216	4105
818.356	4071
818.497	4025
818.638	3922
818.778	3911
818.919	3888
819.06	3876
819.2	3922
819.341	3854
819.481	3846
819.622	3934
819.762	4036
819.903	3979
820.043	3835
820.184	3873
820.324	3835
820.465	3888
820.605	3892
820.746	3865
820.886	3823
821.026	3964
821.167	3941
821.307	3972
821.447	4025
821.588	3915
821.728	3960
821.868	3926
822.008	3873
822.149	3934
822.289	3918
822.429	3823
822.569	3774
822.709	3808
822.849	3717
822.99	3743
823.13	3747
823.27	3800
823.41	3751
823.55	3728
823.69	3789
823.83	3766
823.97	3713
824.11	3629
824.25	3603
824.389	3633
824.529	3675
824.669	3622
824.809	3724
824.949	3751
825.089	3755
825.228	3717
825.368	3618
825.508	3587
825.648	3584
825.787	3610
825.927	3629
826.067	3656
826.206	3656
826.346	3831
826.485	3873
826.625	3869
826.765	3903
826.904	3846
827.044	3610
827.183	3523
827.323	3439
827.462	3492
827.601	3462
827.741	3428
827.88	3488
828.02	3389
828.159	3431
828.298	3481
828.437	3504
828.577	3496
828.716	3652
828.855	3523
828.994	3405
829.134	3389
829.273	3389
829.412	3397
829.551	3332
829.69	3389
829.829	3420
829.968	3557
830.107	3496
830.246	3469
830.385	3378
830.524	3378
830.663	3340
830.802	3291
830.941	3233
831.08	3226
831.219	3272
831.357	3294
831.496	3428
831.635	3256
831.774	3226
831.913	3211
832.051	3176
832.19	3184
832.329	3233
832.467	3138
832.606	3123
832.744	3195
832.883	3222
833.022	3195
833.16	3245
833.299	3332
833.437	3325
833.576	3378
833.714	3416
833.852	3477
833.991	3435
834.129	3469
834.267	3473
834.406	3355
834.544	3473
834.682	3431
834.821	3439
834.959	3561
835.097	3424
835.235	3580
835.373	3523
835.511	3542
835.65	3466
835.788	3534
835.926	3420
836.064	3416
836.202	3447
836.34	3561
836.478	3614
836.615	3553
836.753	3633
836.891	3675
837.029	3660
837.167	3595
837.305	3557
837.443	3580
837.58	3492
837.718	3614
837.856	3564
837.993	3564
838.131	3618
838.269	3553
838.406	3599
838.544	3599
838.681	3515
838.819	3462
838.956	3405
839.094	3405
839.231	3469
839.369	3553
839.506	3720
839.643	3663
839.781	3500
839.918	3515
840.055	3515
840.193	3523
840.33	3595
840.467	3568
840.604	3641
840.742	3785
840.879	3523
841.016	3572
841.153	3584
841.29	3759
841.427	3682
841.564	3698
841.701	3804
841.838	3701
841.975	3675
842.112	3724
842.249	3641
842.385	3667
842.522	3850
842.659	3705
842.796	3709
842.933	3740
843.069	3732
843.206	3713
843.343	3835
843.479	3785
843.616	3816
843.752	3724
843.889	3648
844.025	3857
844.162	3724
844.298	3892
844.435	3762
844.571	3766
844.708	3918
844.844	3983
844.98	3991
845.117	3979
845.253	3941
845.389	3899
845.525	3956
845.661	3994
845.798	3926
845.934	4017
846.07	3941
846.206	4071
846.342	4109
846.478	4128
846.614	3937
846.75	3960
846.886	3926
847.022	4074
847.158	3983
847.294	4021
847.429	4029
847.565	4048
847.701	4230
847.837	3880
847.972	3915
848.108	3994
848.244	3987
848.379	3922
848.515	3819
848.65	3835
848.786	3873
848.921	3896
849.057	3930
849.192	3979
849.328	3941
849.463	3937
849.598	3918
849.734	3869
849.869	3846
850.004	3766
850.14	3831
850.275	3808
850.41	3751
850.545	3816
850.68	3774
850.815	3808
850.95	3819
851.085	3972
851.22	3873
851.355	3873
851.49	3804
851.625	3770
851.76	3778
851.895	3755
852.03	3728
852.165	3816
852.299	3865
852.434	3892
852.569	3892
852.703	3861
852.838	3956
852.973	3994
853.107	3994
853.242	3930
853.376	3857
853.511	3762
853.645	3785
853.78	3964
853.914	3892
854.048	3918
854.183	3915
854.317	3972
854.451	4044
854.585	4032
854.72	3911
854.854	4032
854.988	3926
855.122	4017
855.256	3960
855.39	4044
855.524	4124
855.658	4116
855.792	4124
855.926	4112
856.06	4177
856.194	4230
856.327	4173
856.461	4135
856.595	4147
856.729	4173
856.862	4265
856.996	4303
857.13	4379
857.263	4337
857.397	4405
857.53	4314
857.664	4337
857.797	4455
857.931	4447
858.064	4386
858.197	4474
858.331	4424
858.464	4383
858.597	4379
858.731	4459
858.864	4428
858.997	4474
859.13	4519
859.263	4554
859.396	4558
859.529	4558
859.662	4561
859.795	4535
859.928	4626
860.061	4702
860.194	4744
860.327	4637
860.46	4653
860.592	4759
860.725	4797
860.858	4793
860.99	4729
861.123	4675
861.256	4771
861.388	4771
861.521	5429
861.653	4752
861.786	4702
861.918	4725
862.05	4858
862.183	4858
862.315	4923
862.447	4946
862.58	4877
862.712	4831
862.844	4809
862.976	4885
863.108	4911
863.24	5258
863.372	4824
863.504	4911
863.636	4930
863.768	4999
863.9	4972
864.032	4923
864.164	4923
864.296	5094
864.428	5071
864.559	5079
864.691	5132
864.823	5147
864.954	5071
865.086	5162
865.217	5166
865.349	5102
865.48	5136
865.612	5239
865.743	5277
865.875	5212
866.006	5174
866.137	5277
866.269	5208
866.4	5318
866.531	5250
866.662	5204
866.793	5280
866.924	5258
867.055	5398
867.186	5334
867.317	5322
867.448	5368
867.579	5318
867.71	5357
867.841	5376
867.972	5436
868.103	5436
868.233	5509
868.364	5509
868.495	5566
868.625	5699
868.756	5813
868.886	5638
869.017	5718
869.147	5889
869.278	5859
869.408	5790
869.539	5840
869.669	5939
869.799	5878
869.929	6019
870.06	6007
870.19	6220
870.32	6243
870.45	6262
870.58	6304
870.71	6445
870.84	6540
870.97	6460
871.1	6464
871.23	6684
871.36	6703
871.489	6635
871.619	6760
871.749	6798
871.879	6837
872.008	6947
872.138	6962
872.267	6973
872.397	6996
872.526	7034
872.656	7053
872.785	7251
872.915	7354
873.044	7552
873.173	7518
873.303	7700
873.432	7704
873.561	7879
873.69	7894
873.819	8001
873.948	8153
874.077	8252
874.206	8393
874.335	8393
874.464	8701
874.593	8853
874.722	8937
874.851	9116
874.979	9253
875.108	9401
875.237	9382
875.365	9458
875.494	9610
875.623	9945
875.751	9918
875.88	10044
876.008	10120
876.136	10287
876.265	10535
876.393	10660
876.521	10626
876.65	10786
876.778	10881
876.906	10885
877.034	10999
877.162	11079
877.29	11094
877.418	11220
877.546	11376
877.674	11455
877.802	11436
877.93	11558
878.058	11581
878.185	11589
878.313	11680
878.441	11798
878.568	11714
878.696	11802
878.824	11939
878.951	11954
879.079	12030
879.206	12072
879.333	12083
879.461	11958
879.588	12140
879.715	12049
879.842	12213
879.97	12091
880.097	11935
880.224	11828
880.351	11866
880.478	11931
880.605	11828
880.732	11809
880.859	11992
880.986	11779
881.112	11889
881.239	11733
881.366	11710
881.493	11589
881.619	11604
881.746	11551
881.872	11524
881.999	11554
882.125	11440
882.252	11581
882.378	11532
882.505	11615
882.631	11398
882.757	11315
882.883	11280
883.01	11322
883.136	11201
883.262	11117
883.388	11109
883.514	11113
883.64	11159
883.766	11079
883.892	11006
884.018	10946
884.143	11033
884.269	11105
884.395	10786
884.52	10752
884.646	10812
884.772	10748
884.897	10569
885.023	10679
885.148	10752
885.274	10774
885.399	10656
885.524	10698
885.65	10546
885.775	10637
885.9	10596
886.025	10664
886.15	10569
886.275	10508
886.4	10402
886.525	10402
886.65	10360
886.775	10352
886.9	10504
887.025	10481
887.149	10329
887.274	10295
887.399	10249
887.523	10242
887.648	10112
887.773	10211
887.897	10253
888.021	10257
888.146	10150
888.27	10265
888.395	10249
888.519	10135
888.643	10196
888.767	10154
888.891	10147
889.015	10036
889.139	10059
889.263	9972
889.387	10147
889.511	10109
889.635	10093
889.759	9930
889.883	10006
890.006	10006
890.13	10082
890.254	9903
890.377	9880
890.501	9903
890.624	9789
890.748	9911
890.871	9789
890.995	9804
891.118	9713
891.241	9797
891.364	9736
891.488	9850
891.611	9781
891.734	9656
891.857	9785
891.98	9732
892.103	9751
892.226	9709
892.349	9732
892.471	9447
892.594	9610
892.717	9603
892.839	9618
892.962	9679
893.085	9633
893.207	9545
893.33	9523
893.452	9561
893.575	9656
893.697	9485
893.819	9580
893.941	9728
894.064	9648
894.186	9492
894.308	9439
894.43	9587
894.552	9709
894.674	9557
894.796	9443
894.918	9405
895.04	9389
895.161	9405
895.283	9378
895.405	9264
895.526	9302
895.648	9344
895.769	9313
895.891	9230
896.012	9325
896.134	9313
896.255	9218
896.376	9195
896.498	9150
896.619	9112
896.74	9077
896.861	9138
896.982	9298
897.103	9272
897.224	9199
897.345	9058
897.466	9047
897.587	8986
897.708	9131
897.828	9032
897.949	8956
898.07	8864
898.19	8925
898.311	9039
898.431	8906
898.552	8990
898.672	9024
898.792	9013
898.913	8902
899.033	8838
899.153	8746
899.273	8716
899.393	8701
899.513	8788
899.633	8754
899.753	8792
899.873	8686
899.993	8773
900.113	8655
900.232	8689
900.352	8651
900.472	8602
900.591	8522
900.711	8610
900.83	8549
900.95	8659
901.069	8693
901.189	8549
901.308	8454
901.427	8343
901.546	8408
901.665	8438
901.784	8507
901.904	8438
902.023	8313
902.141	8183
902.26	8256
902.379	8244
902.498	8244
902.617	8164
902.735	8339
902.854	8229
902.973	8218
903.091	8142
903.21	8054
903.328	8149
903.446	8119
903.565	8077
903.683	8058
903.801	8119
903.919	8145
904.038	8103
904.156	8050
904.274	8065
904.392	8069
904.51	8039
904.627	8119
904.745	8103
904.863	8180
904.981	7909
905.098	7868
905.216	7894
905.334	7913
905.451	7955
905.569	7852
905.686	7944
905.803	7898
905.921	7807
906.038	7845
906.155	7803
906.272	7727
906.389	7708
906.506	7632
906.623	7662
906.74	7624
906.857	7590
906.974	7552
907.091	7696
907.208	7715
907.324	7681
907.441	7552
907.557	7499
907.674	7514
907.79	7384
907.907	7392
908.023	7464
908.139	7449
908.256	7339
908.372	7354
908.488	7324
908.604	7293
908.72	7282
908.836	7270
908.952	7247
909.068	7221
909.184	7305
909.3	7270
909.415	7289
909.531	7327
909.647	7129
909.762	7141
909.878	7209
909.993	7118
910.108	7057
910.224	7072
910.339	7149
910.454	7015
910.57	7050
910.685	6958
910.8	7156
910.915	7110
911.03	7091
911.145	6886
911.259	6943
911.374	6932
911.489	6875
911.604	6810
911.718	6688
911.833	6707
911.947	6684
912.062	6616
912.176	6707
912.291	6741
912.405	6738
912.519	6844
912.633	6776
912.748	6696
912.862	6677
912.976	6608
913.09	6525
913.204	6601
913.318	6627
913.431	6734
913.545	6665
913.659	6757
913.772	6623
913.886	6616
914	6593
914.113	6582
914.226	6627
914.34	6608
914.453	6566
914.566	6654
914.68	6612
914.793	6563
914.906	6391
915.019	6426
915.132	6384
915.245	6426
915.358	6486
915.47	6460
915.583	6471
915.696	6517
915.809	6528
915.921	6555
916.034	6426
916.146	6399
916.259	6395
916.371	6471
916.483	6536
916.595	6380
916.708	6388
916.82	6414
916.932	6380
917.044	6399
917.156	6414
917.268	6376
917.38	6407
917.491	6357
917.603	6350
917.715	6369
917.826	6418
917.938	6308
918.049	6251
918.161	6384
918.272	6445
918.384	6441
918.495	6338
918.606	6254
918.717	6266
918.828	6308
918.939	6266
919.05	6216
919.161	6266
919.272	6155
919.383	6186
919.494	6289
919.604	6395
919.715	6315
919.826	6194
919.936	6262
920.047	6361
920.157	6315
920.267	6441
920.378	6357
920.488	6277
920.598	6486
920.708	6547
920.818	6483
920.928	6467
921.038	6582
921.148	6604
921.258	6403
921.368	6315
921.477	6213
921.587	6175
921.697	6148
921.806	6235
921.916	6125
922.025	6045
922.134	5908
922.244	5889
922.353	5988
922.462	5878
922.571	5786
922.68	5722
922.789	5611
922.898	5707
923.007	5627
923.116	5710
923.224	5695
923.333	5634
923.442	5573
923.55	5581
923.659	5573
923.767	5638
923.876	5573
923.984	5668
924.092	5566
924.201	5619
924.309	5532
924.417	5570
924.525	5532
924.633	5535
924.741	6308
924.849	5357
924.956	5467
925.064	5387
925.172	5296
925.279	5372
925.387	5376
925.494	5372
925.602	5448
925.709	5360
925.816	5292
925.924	5299
926.031	5357
926.138	5258
926.245	5322
926.352	5239
926.459	5330
926.566	5334
926.673	5231
926.779	5155
926.886	5109
926.993	5090
927.099	4995
927.206	4980
927.312	5056
927.419	5052
927.525	5018
927.631	5045
927.737	4927
927.843	4873
927.95	4809
928.056	4854
928.162	4881
928.267	4850
928.373	5242
928.479	4839
928.585	4698
928.69	4763
928.796	4763
928.901	4706
929.007	4630
929.112	4660
929.218	4618
929.323	4649
929.428	4577
929.533	4691
929.638	4573
929.743	4550
929.848	4558
929.953	4519
930.058	4432
930.163	4344
930.267	4322
930.372	4489
930.477	4310
930.581	4489
930.685	4413
930.79	4303
930.894	4287
930.998	4242
931.103	4443
931.207	4147
931.311	4116
931.415	4051
931.519	3964
931.623	3983
