Data from glass_V78500241_882.txt Node
Date: Wed Sep 01 19:20:36 CST 2021
User: usil
Spectrometer: V785-0024
Trigger mode: 0
Integration Time (sec): 4.000000E-1
Scans to average: 1
Nonlinearity correction enabled: false
Boxcar width: 0
Storing dark spectrum: false
XAxis mode: Wavelengths
Number of Pixels in Spectrum: 1024
>>>>>Begin Spectral Data<<<<<
801.071	3740
801.214	3755
801.356	3713
801.499	3785
801.641	3690
801.783	3793
801.926	3892
802.068	3838
802.211	3850
802.353	3873
802.496	3857
802.638	3896
802.78	3873
802.923	3953
803.065	3907
803.208	3842
803.35	3903
803.492	3907
803.635	3892
803.777	3831
803.919	3903
804.061	4139
804.204	3983
804.346	3979
804.488	3964
804.63	4048
804.773	3934
804.915	4059
805.057	4131
805.199	4074
805.341	4116
805.483	4143
805.626	4135
805.768	4135
805.91	4185
806.052	4230
806.194	4219
806.336	4386
806.478	4238
806.62	4181
806.762	4169
806.904	4242
807.046	4325
807.188	4227
807.33	4200
807.472	4287
807.614	4207
807.756	4268
807.898	4261
808.04	4215
808.182	4276
808.324	4333
808.465	4363
808.607	4462
808.749	4462
808.891	4436
809.033	4523
809.174	4394
809.316	4272
809.458	4261
809.6	4215
809.741	4154
809.883	4150
810.025	4230
810.166	4215
810.308	4238
810.45	4230
810.591	4200
810.733	4287
810.875	4523
811.016	4831
811.158	5155
811.299	5303
811.441	5307
811.582	5102
811.724	4664
811.865	4512
812.007	4485
812.148	4440
812.29	4417
812.431	4390
812.573	4398
812.714	4428
812.855	4383
812.997	4421
813.138	4512
813.279	4459
813.421	4402
813.562	4394
813.703	4291
813.845	4306
813.986	4242
814.127	4242
814.268	4276
814.41	4299
814.551	4276
814.692	4322
814.833	4306
814.974	4356
815.115	4379
815.256	4265
815.397	4265
815.539	4272
815.68	4200
815.821	4219
815.962	4287
816.103	4268
816.244	4230
816.385	4310
816.526	4344
816.666	4196
816.807	4112
816.948	4154
817.089	4200
817.23	4135
817.371	4101
817.512	4074
817.653	4074
817.793	4051
817.934	4017
818.075	4166
818.216	4090
818.356	4074
818.497	3987
818.638	3956
818.778	3918
818.919	3896
819.06	3846
819.2	3930
819.341	3861
819.481	3873
819.622	3953
819.762	4021
819.903	3987
820.043	3846
820.184	3827
820.324	3842
820.465	3880
820.605	3896
820.746	3892
820.886	3808
821.026	3941
821.167	3926
821.307	3983
821.447	3953
821.588	3975
821.728	3968
821.868	3964
822.008	3888
822.149	3915
822.289	3953
822.429	3827
822.569	3751
822.709	3800
822.849	3701
822.99	3709
823.13	3743
823.27	3789
823.41	3717
823.55	3759
823.69	3759
823.83	3762
823.97	3652
824.11	3603
824.25	3648
824.389	3599
824.529	3717
824.669	3633
824.809	3747
824.949	3785
825.089	3743
825.228	3682
825.368	3580
825.508	3591
825.648	3622
825.787	3622
825.927	3660
826.067	3625
826.206	3686
826.346	3823
826.485	3861
826.625	3850
826.765	3953
826.904	3846
827.044	3637
827.183	3534
827.323	3447
827.462	3534
827.601	3435
827.741	3416
827.88	3443
828.02	3401
828.159	3458
828.298	3523
828.437	3538
828.577	3496
828.716	3610
828.855	3500
828.994	3348
829.134	3382
829.273	3367
829.412	3370
829.551	3340
829.69	3363
829.829	3424
829.968	3523
830.107	3469
830.246	3412
830.385	3378
830.524	3378
830.663	3332
830.802	3260
830.941	3233
831.08	3222
831.219	3253
831.357	3272
831.496	3405
831.635	3253
831.774	3199
831.913	3230
832.051	3108
832.19	3180
832.329	3226
832.467	3127
832.606	3135
832.744	3165
832.883	3214
833.022	3150
833.16	3268
833.299	3298
833.437	3351
833.576	3363
833.714	3405
833.852	3435
833.991	3481
834.129	3511
834.267	3477
834.406	3401
834.544	3447
834.682	3397
834.821	3412
834.959	3603
835.097	3485
835.235	3549
835.373	3488
835.511	3504
835.65	3450
835.788	3496
835.926	3405
836.064	3393
836.202	3382
836.34	3603
836.478	3599
836.615	3564
836.753	3545
836.891	3641
837.029	3633
837.167	3587
837.305	3557
837.443	3542
837.58	3515
837.718	3587
837.856	3564
837.993	3595
838.131	3610
838.269	3591
838.406	3595
838.544	3591
838.681	3496
838.819	3450
838.956	3351
839.094	3393
839.231	3454
839.369	3576
839.506	3713
839.643	3633
839.781	3492
839.918	3504
840.055	3557
840.193	3568
840.33	3515
840.467	3580
840.604	3564
840.742	3804
840.879	3557
841.016	3568
841.153	3625
841.29	3778
841.427	3728
841.564	3713
841.701	3774
841.838	3690
841.975	3709
842.112	3724
842.249	3603
842.385	3629
842.522	3869
842.659	3709
842.796	3667
842.933	3720
843.069	3686
843.206	3690
843.343	3857
843.479	3812
843.616	3827
843.752	3648
843.889	3679
844.025	3800
844.162	3728
844.298	3861
844.435	3838
844.571	3755
844.708	3854
844.844	4044
844.98	4032
845.117	4032
845.253	3941
845.389	3876
845.525	3968
845.661	3975
845.798	3922
845.934	4010
846.07	3975
846.206	4055
846.342	4109
846.478	4078
846.614	3991
846.75	3956
846.886	3926
847.022	4074
847.158	3945
847.294	4010
847.429	4051
847.565	4017
847.701	4242
847.837	3907
847.972	3842
848.108	4032
848.244	3964
848.379	3888
848.515	3854
848.65	3835
848.786	3854
848.921	3854
849.057	3930
849.192	3926
849.328	3911
849.463	3953
849.598	3899
849.734	3876
849.869	3816
850.004	3816
850.14	3873
850.275	3793
850.41	3755
850.545	3740
850.68	3793
850.815	3800
850.95	3823
851.085	3945
851.22	3876
851.355	3827
851.49	3808
851.625	3835
851.76	3800
851.895	3740
852.03	3743
852.165	3789
852.299	3842
852.434	3922
852.569	3835
852.703	3873
852.838	3934
852.973	4010
853.107	3983
853.242	3934
853.376	3888
853.511	3808
853.645	3838
853.78	3983
853.914	3911
854.048	3907
854.183	3880
854.317	3960
854.451	4074
854.585	4010
854.72	3949
854.854	4010
854.988	3941
855.122	4040
855.256	3956
855.39	4044
855.524	4112
855.658	4116
855.792	4090
855.926	4135
856.06	4147
856.194	4230
856.327	4128
856.461	4147
856.595	4124
856.729	4215
856.862	4287
856.996	4238
857.13	4322
857.263	4333
857.397	4371
857.53	4310
857.664	4352
857.797	4398
857.931	4432
858.064	4386
858.197	4462
858.331	4417
858.464	4398
858.597	4386
858.731	4443
858.864	4485
858.997	4508
859.13	4500
859.263	4558
859.396	4618
859.529	4542
859.662	4531
859.795	4561
859.928	4615
860.061	4694
860.194	4717
860.327	4691
860.46	4668
860.592	4774
860.725	4824
860.858	4755
860.99	4660
861.123	4706
861.256	4691
861.388	4786
861.521	5516
861.653	4752
861.786	4664
861.918	4763
862.05	4828
862.183	4824
862.315	4908
862.447	4946
862.58	4946
862.712	4793
862.844	4805
862.976	4847
863.108	4862
863.24	5159
863.372	4828
863.504	4942
863.636	4927
863.768	4972
863.9	4991
864.032	4961
864.164	5010
864.296	5045
864.428	5140
864.559	5094
864.691	5136
864.823	5113
864.954	5132
865.086	5159
865.217	5174
865.349	5132
865.48	5208
865.612	5227
865.743	5322
865.875	5197
866.006	5193
866.137	5261
866.269	5307
866.4	5288
866.531	5212
866.662	5193
866.793	5261
866.924	5292
867.055	5318
867.186	5330
867.317	5303
867.448	5315
867.579	5383
867.71	5402
867.841	5436
867.972	5417
868.103	5532
868.233	5482
868.364	5539
868.495	5558
868.625	5623
868.756	5790
868.886	5657
869.017	5752
869.147	5821
869.278	5851
869.408	5855
869.539	5885
869.669	5882
869.799	5885
869.929	5946
870.06	6072
870.19	6194
870.32	6243
870.45	6304
870.58	6304
870.71	6452
870.84	6441
870.97	6456
871.1	6441
871.23	6646
871.36	6684
871.489	6669
871.619	6741
871.749	6890
871.879	6890
872.008	6973
872.138	6985
872.267	7057
872.397	7012
872.526	7031
872.656	7114
872.785	7244
872.915	7384
873.044	7533
873.173	7544
873.303	7670
873.432	7734
873.561	7890
873.69	7925
873.819	8039
873.948	8168
874.077	8172
874.206	8305
874.335	8434
874.464	8655
874.593	8948
874.722	8933
874.851	9173
874.979	9275
875.108	9363
875.237	9428
875.365	9462
875.494	9724
875.623	9873
875.751	9797
875.88	9956
876.008	10109
876.136	10287
876.265	10512
876.393	10736
876.521	10702
876.65	10873
876.778	10980
876.906	10942
877.034	10953
877.162	11064
877.29	11178
877.418	11337
877.546	11387
877.674	11478
877.802	11474
877.93	11516
878.058	11528
878.185	11554
878.313	11737
878.441	11764
878.568	11642
878.696	11771
878.824	11885
878.951	11923
879.079	12019
879.206	12148
879.333	12095
879.461	12057
879.588	12136
879.715	12114
879.842	12224
879.97	12091
880.097	11942
880.224	11977
880.351	11843
880.478	11996
880.605	11809
880.732	11859
880.859	11927
880.986	11859
881.112	11882
881.239	11752
881.366	11661
881.493	11653
881.619	11592
881.746	11589
881.872	11562
881.999	11570
882.125	11581
882.252	11524
882.378	11505
882.505	11627
882.631	11360
882.757	11299
882.883	11334
883.01	11303
883.136	11246
883.262	11124
883.388	11140
883.514	11117
883.64	11162
883.766	11140
883.892	11045
884.018	11067
884.143	11083
884.269	11140
884.395	10942
884.52	10820
884.646	10782
884.772	10656
884.897	10729
885.023	10687
885.148	10763
885.274	10759
885.399	10748
885.524	10729
885.65	10577
885.775	10603
885.9	10500
886.025	10660
886.15	10538
886.275	10443
886.4	10382
886.525	10424
886.65	10424
886.775	10360
886.9	10512
887.025	10554
887.149	10402
887.274	10230
887.399	10211
887.523	10173
887.648	10112
887.773	10124
887.897	10230
888.021	10261
888.146	10265
888.27	10234
888.395	10204
888.519	10242
888.643	10169
888.767	10120
888.891	10063
889.015	10082
889.139	10025
889.263	9994
889.387	10158
889.511	10162
889.635	10036
889.759	10013
889.883	9964
890.006	9987
890.13	10128
890.254	10025
890.377	9930
890.501	9857
890.624	9892
890.748	9850
890.871	9800
890.995	9800
891.118	9740
891.241	9724
891.364	9671
891.488	9816
891.611	9740
891.734	9789
891.857	9720
891.98	9732
892.103	9800
892.226	9728
892.349	9625
892.471	9462
892.594	9622
892.717	9606
892.839	9614
892.962	9667
893.085	9736
893.207	9595
893.33	9538
893.452	9561
893.575	9610
893.697	9420
893.819	9663
893.941	9580
894.064	9644
894.186	9469
894.308	9397
894.43	9454
894.552	9545
894.674	9557
894.796	9416
894.918	9363
895.04	9325
895.161	9374
895.283	9291
895.405	9275
895.526	9287
895.648	9321
895.769	9214
895.891	9275
896.012	9302
896.134	9214
896.255	9176
896.376	9146
896.498	9150
896.619	9100
896.74	9047
896.861	9081
896.982	9253
897.103	9340
897.224	9211
897.345	9089
897.466	8948
897.587	9066
897.708	9138
897.828	9047
897.949	8921
898.07	8887
898.19	8994
898.311	9005
898.431	8933
898.552	8956
898.672	9017
898.792	8902
898.913	8906
899.033	8785
899.153	8708
899.273	8667
899.393	8670
899.513	8781
899.633	8724
899.753	8758
899.873	8682
899.993	8689
900.113	8720
900.232	8727
900.352	8655
900.472	8598
900.591	8575
900.711	8613
900.83	8522
900.95	8674
901.069	8659
901.189	8575
901.308	8423
901.427	8377
901.546	8457
901.665	8404
901.784	8571
901.904	8396
902.023	8290
902.141	8279
902.26	8275
902.379	8279
902.498	8229
902.617	8210
902.735	8366
902.854	8256
902.973	8294
903.091	8164
903.21	8164
903.328	8142
903.446	8103
903.565	8145
903.683	8161
903.801	8119
903.919	8145
904.038	8161
904.156	8001
904.274	8142
904.392	8039
904.51	8069
904.627	8119
904.745	8138
904.863	8088
904.981	7951
905.098	7887
905.216	7894
905.334	7944
905.451	7936
905.569	7826
905.686	7989
905.803	7928
905.921	7818
906.038	7902
906.155	7784
906.272	7696
906.389	7761
906.506	7677
906.623	7677
906.74	7609
906.857	7613
906.974	7613
907.091	7662
907.208	7753
907.324	7655
907.441	7552
907.557	7434
907.674	7468
907.79	7419
907.907	7407
908.023	7491
908.139	7438
908.256	7346
908.372	7377
908.488	7358
908.604	7301
908.72	7308
908.836	7289
908.952	7312
909.068	7171
909.184	7270
909.3	7270
909.415	7308
909.531	7278
909.647	7190
909.762	7099
909.878	7050
909.993	7137
910.108	7084
910.224	7095
910.339	7114
910.454	7095
910.57	6981
910.685	6977
910.8	7175
910.915	7126
911.03	7031
911.145	6863
911.259	6886
911.374	6901
911.489	6844
911.604	6814
911.718	6757
911.833	6730
911.947	6684
912.062	6620
912.176	6688
912.291	6734
912.405	6696
912.519	6818
912.633	6806
912.748	6711
912.862	6662
912.976	6631
913.09	6555
913.204	6631
913.318	6631
913.431	6669
913.545	6612
913.659	6741
913.772	6684
913.886	6517
914	6563
914.113	6608
914.226	6665
914.34	6650
914.453	6563
914.566	6597
914.68	6547
914.793	6490
914.906	6464
915.019	6338
915.132	6365
915.245	6460
915.358	6464
915.47	6479
915.583	6513
915.696	6509
915.809	6464
915.921	6574
916.034	6460
916.146	6418
916.259	6410
916.371	6483
916.483	6407
916.595	6410
916.708	6391
916.82	6445
916.932	6410
917.044	6433
917.156	6418
917.268	6315
917.38	6357
917.491	6350
917.603	6353
917.715	6464
917.826	6407
917.938	6399
918.049	6254
918.161	6418
918.272	6429
918.384	6445
918.495	6403
918.606	6308
918.717	6159
918.828	6270
918.939	6311
919.05	6228
919.161	6266
919.272	6129
919.383	6159
919.494	6327
919.604	6410
919.715	6292
919.826	6178
919.936	6251
920.047	6342
920.157	6277
920.267	6483
920.378	6334
920.488	6300
920.598	6483
920.708	6540
920.818	6433
920.928	6490
921.038	6585
921.148	6620
921.258	6334
921.368	6311
921.477	6205
921.587	6224
921.697	6095
921.806	6159
921.916	6110
922.025	5916
922.134	5916
922.244	5855
922.353	5958
922.462	5866
922.571	5798
922.68	5726
922.789	5691
922.898	5699
923.007	5611
923.116	5665
923.224	5668
923.333	5649
923.442	5581
923.55	5585
923.659	5646
923.767	5646
923.876	5577
923.984	5600
924.092	5551
924.201	5589
924.309	5512
924.417	5535
924.525	5455
924.633	5585
924.741	6152
924.849	5353
924.956	5524
925.064	5433
925.172	5284
925.279	5364
925.387	5383
925.494	5330
925.602	5444
925.709	5448
925.816	5254
925.924	5280
926.031	5326
926.138	5273
926.245	5311
926.352	5239
926.459	5337
926.566	5315
926.673	5181
926.779	5185
926.886	5159
926.993	5029
927.099	4995
927.206	5014
927.312	4953
927.419	5067
927.525	4991
927.631	5022
927.737	4953
927.843	4896
927.95	4752
928.056	4839
928.162	4896
928.267	4854
928.373	5341
928.479	4847
928.585	4687
928.69	4759
928.796	4790
928.901	4729
929.007	4630
929.112	4660
929.218	4675
929.323	4622
929.428	4546
929.533	4706
929.638	4519
929.743	4561
929.848	4588
929.953	4538
930.058	4432
930.163	4314
930.267	4329
930.372	4405
930.477	4280
930.581	4462
930.685	4352
930.79	4268
930.894	4310
930.998	4295
931.103	4371
931.207	4135
931.311	4101
931.415	4097
931.519	3911
931.623	3972
