Data from glass_V78500241_73.txt Node
Date: Wed Sep 01 19:15:00 CST 2021
User: usil
Spectrometer: V785-0024
Trigger mode: 0
Integration Time (sec): 4.000000E-1
Scans to average: 1
Nonlinearity correction enabled: false
Boxcar width: 0
Storing dark spectrum: false
XAxis mode: Wavelengths
Number of Pixels in Spectrum: 1024
>>>>>Begin Spectral Data<<<<<
801.071	3743
801.214	3740
801.356	3709
801.499	3778
801.641	3762
801.783	3812
801.926	3857
802.068	3876
802.211	3907
802.353	3915
802.496	3857
802.638	3876
802.78	3922
802.923	3945
803.065	3903
803.208	3804
803.35	3865
803.492	3922
803.635	3888
803.777	3751
803.919	3903
804.061	4177
804.204	3968
804.346	3991
804.488	3949
804.63	4097
804.773	4006
804.915	4017
805.057	4162
805.199	4036
805.341	4093
805.483	4139
805.626	4181
805.768	4162
805.91	4207
806.052	4207
806.194	4211
806.336	4363
806.478	4249
806.62	4215
806.762	4204
806.904	4295
807.046	4379
807.188	4207
807.33	4166
807.472	4295
807.614	4207
807.756	4287
807.898	4215
808.04	4276
808.182	4303
808.324	4337
808.465	4360
808.607	4443
808.749	4451
808.891	4447
809.033	4470
809.174	4459
809.316	4265
809.458	4246
809.6	4162
809.741	4093
809.883	4143
810.025	4284
810.166	4223
810.308	4230
810.45	4276
810.591	4276
810.733	4314
810.875	4485
811.016	4881
811.158	5155
811.299	5265
811.441	5254
811.582	5041
811.724	4691
811.865	4481
812.007	4478
812.148	4459
812.29	4440
812.431	4428
812.573	4440
812.714	4371
812.855	4443
812.997	4436
813.138	4493
813.279	4375
813.421	4402
813.562	4394
813.703	4375
813.845	4299
813.986	4257
814.127	4230
814.268	4257
814.41	4341
814.551	4249
814.692	4329
814.833	4306
814.974	4284
815.115	4379
815.256	4284
815.397	4230
815.539	4261
815.68	4185
815.821	4249
815.962	4341
816.103	4287
816.244	4230
816.385	4227
816.526	4291
816.666	4227
816.807	4093
816.948	4169
817.089	4188
817.23	4109
817.371	4040
817.512	4071
817.653	4120
817.793	4048
817.934	4078
818.075	4124
818.216	4059
818.356	4105
818.497	4036
818.638	3911
818.778	3892
818.919	3918
819.06	3846
819.2	3873
819.341	3873
819.481	3915
819.622	3964
819.762	4013
819.903	3975
820.043	3876
820.184	3816
820.324	3903
820.465	3945
820.605	3884
820.746	3915
820.886	3778
821.026	3956
821.167	3934
821.307	3972
821.447	4044
821.588	3972
821.728	3953
821.868	3953
822.008	3869
822.149	3964
822.289	3930
822.429	3854
822.569	3812
822.709	3816
822.849	3698
822.99	3781
823.13	3766
823.27	3823
823.41	3732
823.55	3747
823.69	3759
823.83	3762
823.97	3698
824.11	3599
824.25	3614
824.389	3660
824.529	3694
824.669	3622
824.809	3747
824.949	3751
825.089	3724
825.228	3671
825.368	3595
825.508	3595
825.648	3572
825.787	3603
825.927	3682
826.067	3652
826.206	3652
826.346	3819
826.485	3835
826.625	3846
826.765	3979
826.904	3827
827.044	3622
827.183	3564
827.323	3469
827.462	3496
827.601	3443
827.741	3435
827.88	3477
828.02	3416
828.159	3466
828.298	3507
828.437	3545
828.577	3435
828.716	3603
828.855	3500
828.994	3351
829.134	3405
829.273	3393
829.412	3367
829.551	3378
829.69	3374
829.829	3477
829.968	3504
830.107	3485
830.246	3458
830.385	3393
830.524	3359
830.663	3351
830.802	3256
830.941	3237
831.08	3207
831.219	3298
831.357	3249
831.496	3409
831.635	3260
831.774	3233
831.913	3195
832.051	3123
832.19	3161
832.329	3180
832.467	3154
832.606	3119
832.744	3226
832.883	3161
833.022	3222
833.16	3253
833.299	3321
833.437	3370
833.576	3458
833.714	3439
833.852	3424
833.991	3473
834.129	3500
834.267	3469
834.406	3420
834.544	3473
834.682	3401
834.821	3431
834.959	3572
835.097	3401
835.235	3526
835.373	3511
835.511	3542
835.65	3466
835.788	3466
835.926	3409
836.064	3389
836.202	3405
836.34	3603
836.478	3625
836.615	3572
836.753	3553
836.891	3644
837.029	3625
837.167	3603
837.305	3599
837.443	3599
837.58	3515
837.718	3637
837.856	3595
837.993	3534
838.131	3660
838.269	3591
838.406	3629
838.544	3561
838.681	3450
838.819	3504
838.956	3412
839.094	3397
839.231	3477
839.369	3568
839.506	3766
839.643	3629
839.781	3530
839.918	3485
840.055	3530
840.193	3576
840.33	3530
840.467	3572
840.604	3644
840.742	3800
840.879	3564
841.016	3591
841.153	3580
841.29	3770
841.427	3709
841.564	3728
841.701	3740
841.838	3686
841.975	3682
842.112	3732
842.249	3625
842.385	3622
842.522	3869
842.659	3705
842.796	3675
842.933	3740
843.069	3743
843.206	3698
843.343	3819
843.479	3838
843.616	3808
843.752	3652
843.889	3705
844.025	3865
844.162	3728
844.298	3857
844.435	3789
844.571	3785
844.708	3907
844.844	3987
844.98	4044
845.117	4010
845.253	3911
845.389	3888
845.525	3960
845.661	3934
845.798	3945
845.934	4021
846.07	3972
846.206	4063
846.342	4120
846.478	4112
846.614	3994
846.75	3975
846.886	3918
847.022	4051
847.158	4021
847.294	4002
847.429	4002
847.565	3998
847.701	4227
847.837	3892
847.972	3876
848.108	4025
848.244	3956
848.379	3850
848.515	3827
848.65	3835
848.786	3854
848.921	3880
849.057	3949
849.192	3926
849.328	3892
849.463	3934
849.598	3869
849.734	3854
849.869	3823
850.004	3785
850.14	3823
850.275	3800
850.41	3740
850.545	3781
850.68	3831
850.815	3789
850.95	3789
851.085	3975
851.22	3854
851.355	3842
851.49	3770
851.625	3808
851.76	3823
851.895	3793
852.03	3766
852.165	3812
852.299	3842
852.434	3926
852.569	3918
852.703	3880
852.838	3968
852.973	4032
853.107	4044
853.242	3880
853.376	3884
853.511	3797
853.645	3869
853.78	3991
853.914	3892
854.048	3892
854.183	3876
854.317	4013
854.451	4036
854.585	4002
854.72	3968
854.854	4048
854.988	3934
855.122	4048
855.256	3903
855.39	3987
855.524	4158
855.658	4135
855.792	4067
855.926	4139
856.06	4177
856.194	4242
856.327	4135
856.461	4150
856.595	4150
856.729	4196
856.862	4268
856.996	4268
857.13	4303
857.263	4299
857.397	4383
857.53	4287
857.664	4329
857.797	4405
857.931	4474
858.064	4417
858.197	4466
858.331	4424
858.464	4405
858.597	4409
858.731	4474
858.864	4489
858.997	4455
859.13	4512
859.263	4527
859.396	4596
859.529	4546
859.662	4527
859.795	4508
859.928	4668
860.061	4675
860.194	4759
860.327	4664
860.46	4668
860.592	4759
860.725	4763
860.858	4786
860.99	4729
861.123	4672
861.256	4706
861.388	4744
861.521	5406
861.653	4740
861.786	4702
861.918	4725
862.05	4850
862.183	4870
862.315	4927
862.447	4930
862.58	4870
862.712	4828
862.844	4793
862.976	4877
863.108	4892
863.24	5239
863.372	4858
863.504	4927
863.636	4930
863.768	4991
863.9	4976
864.032	4999
864.164	4957
864.296	5018
864.428	5075
864.559	5124
864.691	5140
864.823	5113
864.954	5159
865.086	5189
865.217	5151
865.349	5102
865.48	5159
865.612	5242
865.743	5311
865.875	5242
866.006	5166
866.137	5277
866.269	5235
866.4	5220
866.531	5239
866.662	5220
866.793	5265
866.924	5311
867.055	5277
867.186	5315
867.317	5315
867.448	5292
867.579	5433
867.71	5421
867.841	5391
867.972	5490
868.103	5497
868.233	5467
868.364	5528
868.495	5630
868.625	5707
868.756	5802
868.886	5657
869.017	5684
869.147	5908
869.278	5863
869.408	5764
869.539	5859
869.669	5950
869.799	5901
869.929	5961
870.06	6034
870.19	6175
870.32	6159
870.45	6277
870.58	6369
870.71	6502
870.84	6456
870.97	6433
871.1	6464
871.23	6654
871.36	6722
871.489	6631
871.619	6768
871.749	6764
871.879	6928
872.008	7000
872.138	7031
872.267	7046
872.397	6977
872.526	7084
872.656	7088
872.785	7232
872.915	7434
873.044	7483
873.173	7559
873.303	7639
873.432	7780
873.561	7951
873.69	7906
873.819	8046
873.948	8214
874.077	8271
874.206	8396
874.335	8454
874.464	8606
874.593	8921
874.722	8986
874.851	9112
874.979	9294
875.108	9416
875.237	9405
875.365	9431
875.494	9698
875.623	9793
875.751	9846
875.88	9953
876.008	10207
876.136	10261
876.265	10573
876.393	10706
876.521	10740
876.65	10828
876.778	10953
876.906	10858
877.034	11018
877.162	11128
877.29	11159
877.418	11296
877.546	11360
877.674	11471
877.802	11535
877.93	11551
878.058	11596
878.185	11585
878.313	11665
878.441	11767
878.568	11733
878.696	11893
878.824	11840
878.951	11999
879.079	11984
879.206	12140
879.333	12015
879.461	12087
879.588	12095
879.715	12186
879.842	12197
879.97	12030
880.097	11843
880.224	11897
880.351	11904
880.478	11836
880.605	11794
880.732	11824
880.859	11950
880.986	11790
881.112	11893
881.239	11745
881.366	11646
881.493	11570
881.619	11570
881.746	11604
881.872	11615
881.999	11532
882.125	11425
882.252	11570
882.378	11471
882.505	11646
882.631	11387
882.757	11284
882.883	11345
883.01	11258
883.136	11193
883.262	11143
883.388	11086
883.514	11136
883.64	11124
883.766	11075
883.892	11037
884.018	10980
884.143	11075
884.269	11067
884.395	10812
884.52	10786
884.646	10866
884.772	10801
884.897	10691
885.023	10714
885.148	10763
885.274	10820
885.399	10702
885.524	10626
885.65	10588
885.775	10618
885.9	10466
886.025	10615
886.15	10569
886.275	10497
886.4	10333
886.525	10382
886.65	10390
886.775	10344
886.9	10474
887.025	10554
887.149	10287
887.274	10215
887.399	10257
887.523	10147
887.648	10238
887.773	10116
887.897	10268
888.021	10181
888.146	10230
888.27	10268
888.395	10227
888.519	10200
888.643	10211
888.767	10139
888.891	10063
889.015	10044
889.139	10059
889.263	9926
889.387	10078
889.511	10120
889.635	10093
889.759	9956
889.883	10025
890.006	10051
890.13	10124
890.254	9899
890.377	10036
890.501	9850
890.624	9873
890.748	9899
890.871	9793
890.995	9644
891.118	9724
891.241	9759
891.364	9800
891.488	9808
891.611	9652
891.734	9804
891.857	9800
891.98	9724
892.103	9797
892.226	9728
892.349	9663
892.471	9587
892.594	9606
892.717	9610
892.839	9584
892.962	9648
893.085	9675
893.207	9625
893.33	9504
893.452	9519
893.575	9595
893.697	9564
893.819	9610
893.941	9599
894.064	9591
894.186	9507
894.308	9473
894.43	9557
894.552	9553
894.674	9534
894.796	9473
894.918	9386
895.04	9302
895.161	9386
895.283	9378
895.405	9302
895.526	9260
895.648	9241
895.769	9214
895.891	9253
896.012	9256
896.134	9317
896.255	9214
896.376	9142
896.498	9127
896.619	9180
896.74	9135
896.861	9146
896.982	9264
897.103	9279
897.224	9249
897.345	9116
897.466	9036
897.587	9032
897.708	9165
897.828	9024
897.949	8944
898.07	8849
898.19	8902
898.311	9097
898.431	8876
898.552	8948
898.672	8975
898.792	8956
898.913	8906
899.033	8830
899.153	8720
899.273	8720
899.393	8674
899.513	8804
899.633	8697
899.753	8727
899.873	8773
899.993	8727
900.113	8682
900.232	8674
900.352	8659
900.472	8659
900.591	8587
900.711	8670
900.83	8556
900.95	8648
901.069	8697
901.189	8590
901.308	8438
901.427	8427
901.546	8503
901.665	8419
901.784	8526
901.904	8412
902.023	8324
902.141	8214
902.26	8237
902.379	8271
902.498	8252
902.617	8225
902.735	8313
902.854	8294
902.973	8263
903.091	8157
903.21	8119
903.328	8145
903.446	8100
903.565	8119
903.683	8210
903.801	8065
903.919	8107
904.038	8100
904.156	8100
904.274	8180
904.392	7978
904.51	8024
904.627	8069
904.745	8096
904.863	8168
904.981	7947
905.098	7852
905.216	7849
905.334	7909
905.451	7894
905.569	7841
905.686	7917
905.803	7871
905.921	7833
906.038	7864
906.155	7811
906.272	7670
906.389	7727
906.506	7685
906.623	7647
906.74	7605
906.857	7533
906.974	7594
907.091	7712
907.208	7712
907.324	7704
907.441	7605
907.557	7514
907.674	7403
907.79	7415
907.907	7430
908.023	7415
908.139	7476
908.256	7407
908.372	7369
908.488	7384
908.604	7297
908.72	7263
908.836	7305
908.952	7244
909.068	7221
909.184	7282
909.3	7247
909.415	7285
909.531	7320
909.647	7152
909.762	7129
909.878	7103
909.993	7133
910.108	7095
910.224	7126
910.339	7129
910.454	7061
910.57	7023
910.685	6943
910.8	7183
910.915	7080
911.03	7019
911.145	6962
911.259	6897
911.374	6932
911.489	6867
911.604	6878
911.718	6749
911.833	6757
911.947	6654
912.062	6536
912.176	6696
912.291	6726
912.405	6719
912.519	6852
912.633	6825
912.748	6734
912.862	6688
912.976	6616
913.09	6578
913.204	6582
913.318	6642
913.431	6669
913.545	6726
913.659	6719
913.772	6681
913.886	6582
914	6547
914.113	6582
914.226	6719
914.34	6654
914.453	6460
914.566	6570
914.68	6528
914.793	6547
914.906	6429
915.019	6410
915.132	6365
915.245	6437
915.358	6486
915.47	6426
915.583	6464
915.696	6517
915.809	6574
915.921	6578
916.034	6456
916.146	6407
916.259	6342
916.371	6467
916.483	6467
916.595	6380
916.708	6464
916.82	6365
916.932	6414
917.044	6410
917.156	6422
917.268	6304
917.38	6311
917.491	6327
917.603	6304
917.715	6357
917.826	6483
917.938	6319
918.049	6251
918.161	6353
918.272	6456
918.384	6422
918.495	6361
918.606	6277
918.717	6186
918.828	6243
918.939	6281
919.05	6262
919.161	6292
919.272	6167
919.383	6194
919.494	6350
919.604	6399
919.715	6315
919.826	6243
919.936	6235
920.047	6315
920.157	6292
920.267	6426
920.378	6380
920.488	6319
920.598	6486
920.708	6589
920.818	6391
920.928	6494
921.038	6639
921.148	6616
921.258	6365
921.368	6315
921.477	6270
921.587	6167
921.697	6129
921.806	6213
921.916	6129
922.025	5950
922.134	5908
922.244	5920
922.353	5961
922.462	5813
922.571	5802
922.68	5752
922.789	5718
922.898	5756
923.007	5619
923.116	5714
923.224	5668
923.333	5668
923.442	5665
923.55	5600
923.659	5596
923.767	5611
923.876	5573
923.984	5619
924.092	5581
924.201	5570
924.309	5589
924.417	5581
924.525	5543
924.633	5509
924.741	6254
924.849	5429
924.956	5436
925.064	5372
925.172	5322
925.279	5368
925.387	5425
925.494	5364
925.602	5410
925.709	5353
925.816	5296
925.924	5368
926.031	5364
926.138	5326
926.245	5334
926.352	5288
926.459	5326
926.566	5360
926.673	5254
926.779	5143
926.886	5178
926.993	5075
927.099	5014
927.206	4976
927.312	4999
927.419	5014
927.525	5010
927.631	5079
927.737	4957
927.843	4885
927.95	4816
928.056	4862
928.162	4858
928.267	4896
928.373	5391
928.479	4831
928.585	4729
928.69	4812
928.796	4809
928.901	4645
929.007	4603
929.112	4672
929.218	4630
929.323	4622
929.428	4565
929.533	4706
929.638	4504
929.743	4580
929.848	4592
929.953	4542
930.058	4436
930.163	4341
930.267	4344
930.372	4428
930.477	4344
930.581	4481
930.685	4383
930.79	4257
930.894	4314
930.998	4287
931.103	4417
931.207	4067
931.311	4128
931.415	4074
931.519	3934
931.623	3903
