Data from glass_V78500241_1688.txt Node
Date: Wed Sep 01 19:26:12 CST 2021
User: usil
Spectrometer: V785-0024
Trigger mode: 0
Integration Time (sec): 4.000000E-1
Scans to average: 1
Nonlinearity correction enabled: false
Boxcar width: 0
Storing dark spectrum: false
XAxis mode: Wavelengths
Number of Pixels in Spectrum: 1024
>>>>>Begin Spectral Data<<<<<
801.071	3778
801.214	3762
801.356	3747
801.499	3682
801.641	3717
801.783	3774
801.926	3865
802.068	3823
802.211	3896
802.353	3915
802.496	3808
802.638	3865
802.78	3941
802.923	3956
803.065	3915
803.208	3880
803.35	3873
803.492	3907
803.635	3907
803.777	3770
803.919	3915
804.061	4162
804.204	3953
804.346	3949
804.488	3911
804.63	4040
804.773	3937
804.915	4002
805.057	4158
805.199	4055
805.341	4086
805.483	4173
805.626	4139
805.768	4074
805.91	4192
806.052	4234
806.194	4230
806.336	4341
806.478	4223
806.62	4169
806.762	4181
806.904	4276
807.046	4337
807.188	4177
807.33	4162
807.472	4295
807.614	4188
807.756	4265
807.898	4223
808.04	4135
808.182	4280
808.324	4383
808.465	4337
808.607	4485
808.749	4474
808.891	4443
809.033	4493
809.174	4417
809.316	4238
809.458	4227
809.6	4139
809.741	4185
809.883	4185
810.025	4185
810.166	4227
810.308	4227
810.45	4200
810.591	4253
810.733	4322
810.875	4508
811.016	4831
811.158	5094
811.299	5284
811.441	5311
811.582	5060
811.724	4679
811.865	4470
812.007	4413
812.148	4428
812.29	4474
812.431	4462
812.573	4417
812.714	4371
812.855	4421
812.997	4402
813.138	4459
813.279	4421
813.421	4386
813.562	4337
813.703	4310
813.845	4291
813.986	4299
814.127	4230
814.268	4280
814.41	4299
814.551	4280
814.692	4318
814.833	4306
814.974	4265
815.115	4310
815.256	4246
815.397	4215
815.539	4242
815.68	4154
815.821	4242
815.962	4276
816.103	4299
816.244	4207
816.385	4265
816.526	4318
816.666	4253
816.807	4055
816.948	4204
817.089	4154
817.23	4143
817.371	4044
817.512	4017
817.653	4017
817.793	4017
817.934	4040
818.075	4109
818.216	4044
818.356	4082
818.497	3983
818.638	3968
818.778	3903
818.919	3926
819.06	3884
819.2	3945
819.341	3861
819.481	3888
819.622	3899
819.762	4078
819.903	3915
820.043	3880
820.184	3842
820.324	3838
820.465	3903
820.605	3896
820.746	3869
820.886	3774
821.026	3953
821.167	3953
821.307	3972
821.447	3983
821.588	3991
821.728	3960
821.868	3918
822.008	3842
822.149	3918
822.289	3918
822.429	3747
822.569	3755
822.709	3736
822.849	3656
822.99	3698
823.13	3736
823.27	3816
823.41	3709
823.55	3743
823.69	3717
823.83	3740
823.97	3656
824.11	3618
824.25	3591
824.389	3606
824.529	3671
824.669	3625
824.809	3736
824.949	3709
825.089	3743
825.228	3705
825.368	3568
825.508	3576
825.648	3599
825.787	3618
825.927	3618
826.067	3622
826.206	3679
826.346	3804
826.485	3838
826.625	3861
826.765	3922
826.904	3838
827.044	3591
827.183	3545
827.323	3435
827.462	3466
827.601	3454
827.741	3435
827.88	3454
828.02	3374
828.159	3454
828.298	3462
828.437	3515
828.577	3458
828.716	3587
828.855	3500
828.994	3363
829.134	3348
829.273	3409
829.412	3313
829.551	3344
829.69	3370
829.829	3397
829.968	3511
830.107	3428
830.246	3420
830.385	3367
830.524	3374
830.663	3287
830.802	3275
830.941	3176
831.08	3165
831.219	3237
831.357	3279
831.496	3412
831.635	3260
831.774	3207
831.913	3222
832.051	3127
832.19	3154
832.329	3195
832.467	3150
832.606	3108
832.744	3157
832.883	3180
833.022	3176
833.16	3306
833.299	3306
833.437	3317
833.576	3321
833.714	3412
833.852	3439
833.991	3450
834.129	3462
834.267	3492
834.406	3378
834.544	3412
834.682	3416
834.821	3428
834.959	3542
835.097	3416
835.235	3564
835.373	3500
835.511	3504
835.65	3447
835.788	3473
835.926	3416
836.064	3317
836.202	3374
836.34	3576
836.478	3606
836.615	3576
836.753	3606
836.891	3629
837.029	3606
837.167	3625
837.305	3595
837.443	3576
837.58	3504
837.718	3564
837.856	3587
837.993	3542
838.131	3629
838.269	3580
838.406	3576
838.544	3561
838.681	3458
838.819	3424
838.956	3393
839.094	3382
839.231	3409
839.369	3545
839.506	3736
839.643	3648
839.781	3481
839.918	3485
840.055	3572
840.193	3526
840.33	3519
840.467	3587
840.604	3625
840.742	3793
840.879	3545
841.016	3553
841.153	3587
841.29	3751
841.427	3724
841.564	3698
841.701	3720
841.838	3686
841.975	3671
842.112	3679
842.249	3629
842.385	3584
842.522	3854
842.659	3660
842.796	3663
842.933	3701
843.069	3705
843.206	3709
843.343	3846
843.479	3808
843.616	3793
843.752	3606
843.889	3682
844.025	3808
844.162	3728
844.298	3781
844.435	3800
844.571	3759
844.708	3907
844.844	3983
844.98	3968
845.117	4017
845.253	3937
845.389	3903
845.525	3960
845.661	3994
845.798	3934
845.934	3998
846.07	3956
846.206	4048
846.342	4162
846.478	4036
846.614	3979
846.75	3949
846.886	3915
847.022	4029
847.158	3972
847.294	3991
847.429	3987
847.565	4006
847.701	4215
847.837	3869
847.972	3903
848.108	3979
848.244	4006
848.379	3850
848.515	3816
848.65	3831
848.786	3838
848.921	3896
849.057	3945
849.192	3941
849.328	3896
849.463	3922
849.598	3899
849.734	3888
849.869	3873
850.004	3808
850.14	3804
850.275	3740
850.41	3751
850.545	3728
850.68	3789
850.815	3808
850.95	3785
851.085	3956
851.22	3838
851.355	3846
851.49	3759
851.625	3755
851.76	3781
851.895	3728
852.03	3755
852.165	3797
852.299	3876
852.434	3934
852.569	3850
852.703	3892
852.838	3945
852.973	4013
853.107	3987
853.242	3850
853.376	3823
853.511	3762
853.645	3865
853.78	3945
853.914	3896
854.048	3911
854.183	3876
854.317	3945
854.451	4055
854.585	3937
854.72	3972
854.854	4013
854.988	3918
855.122	3994
855.256	3930
855.39	4002
855.524	4082
855.658	4051
855.792	4097
855.926	4147
856.06	4131
856.194	4181
856.327	4124
856.461	4128
856.595	4097
856.729	4200
856.862	4299
856.996	4253
857.13	4310
857.263	4333
857.397	4333
857.53	4280
857.664	4379
857.797	4421
857.931	4405
858.064	4352
858.197	4413
858.331	4352
858.464	4329
858.597	4337
858.731	4383
858.864	4455
858.997	4413
859.13	4500
859.263	4550
859.396	4596
859.529	4554
859.662	4523
859.795	4493
859.928	4618
860.061	4698
860.194	4729
860.327	4656
860.46	4668
860.592	4774
860.725	4748
860.858	4805
860.99	4721
861.123	4725
861.256	4721
861.388	4752
861.521	5341
861.653	4763
861.786	4679
861.918	4736
862.05	4812
862.183	4828
862.315	4889
862.447	4965
862.58	4885
862.712	4778
862.844	4774
862.976	4873
863.108	4892
863.24	5220
863.372	4839
863.504	4930
863.636	4892
863.768	4999
863.9	4957
864.032	4908
864.164	4934
864.296	5048
864.428	5098
864.559	5048
864.691	5083
864.823	5155
864.954	5166
865.086	5181
865.217	5151
865.349	5086
865.48	5155
865.612	5201
865.743	5269
865.875	5220
866.006	5155
866.137	5208
866.269	5208
866.4	5273
866.531	5296
866.662	5208
866.793	5280
866.924	5273
867.055	5360
867.186	5337
867.317	5364
867.448	5315
867.579	5379
867.71	5341
867.841	5421
867.972	5444
868.103	5486
868.233	5440
868.364	5455
868.495	5520
868.625	5638
868.756	5813
868.886	5691
869.017	5707
869.147	5832
869.278	5882
869.408	5760
869.539	5832
869.669	5893
869.799	5931
869.929	5999
870.06	6041
870.19	6159
870.32	6144
870.45	6239
870.58	6292
870.71	6429
870.84	6464
870.97	6437
871.1	6433
871.23	6639
871.36	6681
871.489	6627
871.619	6768
871.749	6821
871.879	6905
872.008	6962
872.138	6985
872.267	6935
872.397	6947
872.526	7004
872.656	7137
872.785	7213
872.915	7388
873.044	7521
873.173	7521
873.303	7643
873.432	7795
873.561	7917
873.69	7928
873.819	7944
873.948	8237
874.077	8256
874.206	8362
874.335	8454
874.464	8731
874.593	8861
874.722	8918
874.851	9176
874.979	9310
875.108	9355
875.237	9378
875.365	9526
875.494	9606
875.623	9770
875.751	9941
875.88	9994
876.008	10124
876.136	10272
876.265	10523
876.393	10668
876.521	10744
876.65	10828
876.778	10858
876.906	10889
877.034	11018
877.162	11109
877.29	11159
877.418	11265
877.546	11315
877.674	11410
877.802	11471
877.93	11570
878.058	11539
878.185	11619
878.313	11577
878.441	11809
878.568	11615
878.696	11824
878.824	11843
878.951	11999
879.079	12003
879.206	12159
879.333	12076
879.461	11999
879.588	12064
879.715	12121
879.842	12258
879.97	12121
880.097	11828
880.224	11813
880.351	11920
880.478	11927
880.605	11942
880.732	11824
880.859	12003
880.986	11863
881.112	11771
881.239	11695
881.366	11657
881.493	11649
881.619	11577
881.746	11554
881.872	11509
881.999	11535
882.125	11528
882.252	11474
882.378	11581
882.505	11623
882.631	11425
882.757	11261
882.883	11364
883.01	11334
883.136	11235
883.262	11102
883.388	11140
883.514	11132
883.64	11151
883.766	11197
883.892	11025
884.018	10923
884.143	11022
884.269	11235
884.395	10885
884.52	10710
884.646	10816
884.772	10698
884.897	10596
885.023	10725
885.148	10714
885.274	10767
885.399	10714
885.524	10622
885.65	10584
885.775	10558
885.9	10637
886.025	10596
886.15	10500
886.275	10421
886.4	10344
886.525	10360
886.65	10371
886.775	10402
886.9	10432
887.025	10577
887.149	10367
887.274	10287
887.399	10135
887.523	10223
887.648	10234
887.773	10154
887.897	10196
888.021	10295
888.146	10116
888.27	10276
888.395	10185
888.519	10139
888.643	10181
888.767	10242
888.891	10109
889.015	10055
889.139	10048
889.263	10036
889.387	10051
889.511	10063
889.635	10025
889.759	9892
889.883	9895
890.006	9956
890.13	10086
890.254	9930
890.377	9953
890.501	9884
890.624	9880
890.748	9884
890.871	9789
890.995	9770
891.118	9762
891.241	9762
891.364	9679
891.488	9808
891.611	9732
891.734	9800
891.857	9690
891.98	9694
892.103	9766
892.226	9656
892.349	9671
892.471	9580
892.594	9641
892.717	9686
892.839	9572
892.962	9622
893.085	9625
893.207	9542
893.33	9500
893.452	9545
893.575	9488
893.697	9469
893.819	9553
893.941	9610
894.064	9492
894.186	9492
894.308	9454
894.43	9443
894.552	9587
894.674	9549
894.796	9393
894.918	9374
895.04	9313
895.161	9291
895.283	9370
895.405	9253
895.526	9249
895.648	9256
895.769	9241
895.891	9253
896.012	9302
896.134	9203
896.255	9150
896.376	9165
896.498	9157
896.619	9154
896.74	9070
896.861	9074
896.982	9260
897.103	9374
897.224	9222
897.345	9013
897.466	9001
897.587	9039
897.708	9081
897.828	9062
897.949	8937
898.07	8921
898.19	8937
898.311	9024
898.431	8910
898.552	8941
898.672	8960
898.792	8914
898.913	8994
899.033	8777
899.153	8689
899.273	8663
899.393	8815
899.513	8724
899.633	8739
899.753	8689
899.873	8743
899.993	8682
900.113	8667
900.232	8762
900.352	8670
900.472	8632
900.591	8545
900.711	8568
900.83	8568
900.95	8689
901.069	8701
901.189	8522
901.308	8480
901.427	8423
901.546	8476
901.665	8454
901.784	8434
901.904	8408
902.023	8317
902.141	8218
902.26	8229
902.379	8267
902.498	8130
902.617	8214
902.735	8320
902.854	8210
902.973	8233
903.091	8164
903.21	8145
903.328	8168
903.446	8142
903.565	8065
903.683	8054
903.801	8054
903.919	8172
904.038	8088
904.156	8043
904.274	8077
904.392	8031
904.51	8073
904.627	8012
904.745	8119
904.863	8157
904.981	7986
905.098	7875
905.216	7898
905.334	7833
905.451	7917
905.569	7947
905.686	7936
905.803	7917
905.921	7761
906.038	7864
906.155	7769
906.272	7742
906.389	7685
906.506	7670
906.623	7643
906.74	7537
906.857	7586
906.974	7556
907.091	7700
907.208	7757
907.324	7601
907.441	7540
907.557	7483
907.674	7396
907.79	7388
907.907	7407
908.023	7438
908.139	7381
908.256	7301
908.372	7320
908.488	7293
908.604	7335
908.72	7274
908.836	7331
908.952	7285
909.068	7209
909.184	7339
909.3	7236
909.415	7247
909.531	7274
909.647	7137
909.762	7091
909.878	7103
909.993	7118
910.108	7156
910.224	7122
910.339	7107
910.454	6985
910.57	7000
910.685	6954
910.8	7171
910.915	7099
911.03	7080
911.145	6928
911.259	6852
911.374	6871
911.489	6791
911.604	6856
911.718	6738
911.833	6741
911.947	6639
912.062	6650
912.176	6650
912.291	6726
912.405	6700
912.519	6787
912.633	6818
912.748	6787
912.862	6673
912.976	6578
913.09	6452
913.204	6635
913.318	6612
913.431	6681
913.545	6639
913.659	6684
913.772	6700
913.886	6566
914	6551
914.113	6673
914.226	6677
914.34	6593
914.453	6456
914.566	6570
914.68	6532
914.793	6448
914.906	6399
915.019	6395
915.132	6437
915.245	6388
915.358	6437
915.47	6433
915.583	6445
915.696	6475
915.809	6506
915.921	6547
916.034	6380
916.146	6372
916.259	6365
916.371	6486
916.483	6452
916.595	6403
916.708	6422
916.82	6338
916.932	6350
917.044	6369
917.156	6357
917.268	6254
917.38	6361
917.491	6369
917.603	6346
917.715	6365
917.826	6410
917.938	6315
918.049	6235
918.161	6327
918.272	6418
918.384	6395
918.495	6365
918.606	6247
918.717	6167
918.828	6228
918.939	6273
919.05	6232
919.161	6220
919.272	6076
919.383	6098
919.494	6273
919.604	6407
919.715	6254
919.826	6251
919.936	6304
920.047	6342
920.157	6220
920.267	6471
920.378	6289
920.488	6365
920.598	6452
920.708	6486
920.818	6441
920.928	6547
921.038	6631
921.148	6608
921.258	6308
921.368	6258
921.477	6182
921.587	6163
921.697	6076
921.806	6148
921.916	6083
922.025	5969
922.134	5855
922.244	5954
922.353	5931
922.462	5885
922.571	5775
922.68	5748
922.789	5649
922.898	5672
923.007	5657
923.116	5695
923.224	5657
923.333	5672
923.442	5619
923.55	5577
923.659	5608
923.767	5596
923.876	5558
923.984	5573
924.092	5512
924.201	5589
924.309	5558
924.417	5547
924.525	5516
924.633	5486
924.741	6304
924.849	5379
924.956	5524
925.064	5364
925.172	5353
925.279	5288
925.387	5364
925.494	5318
925.602	5436
925.709	5410
925.816	5265
925.924	5311
926.031	5357
926.138	5337
926.245	5299
926.352	5193
926.459	5303
926.566	5303
926.673	5151
926.779	5143
926.886	5151
926.993	5060
927.099	4999
927.206	4934
927.312	4965
927.419	5006
927.525	5010
927.631	4953
927.737	4896
927.843	4839
927.95	4733
928.056	4809
928.162	4797
928.267	4820
928.373	5398
928.479	4862
928.585	4710
928.69	4782
928.796	4809
928.901	4672
929.007	4565
929.112	4694
929.218	4615
929.323	4653
929.428	4531
929.533	4679
929.638	4462
929.743	4538
929.848	4535
929.953	4558
930.058	4440
930.163	4325
930.267	4337
930.372	4398
930.477	4287
930.581	4443
930.685	4337
930.79	4253
930.894	4284
930.998	4234
931.103	4360
931.207	4120
931.311	4071
931.415	4055
931.519	3960
931.623	3945
