Data from glass_V78500241_682.txt Node
Date: Wed Sep 01 19:19:13 CST 2021
User: usil
Spectrometer: V785-0024
Trigger mode: 0
Integration Time (sec): 4.000000E-1
Scans to average: 1
Nonlinearity correction enabled: false
Boxcar width: 0
Storing dark spectrum: false
XAxis mode: Wavelengths
Number of Pixels in Spectrum: 1024
>>>>>Begin Spectral Data<<<<<
801.071	3736
801.214	3755
801.356	3709
801.499	3778
801.641	3717
801.783	3846
801.926	3903
802.068	3846
802.211	3869
802.353	3884
802.496	3838
802.638	3873
802.78	3922
802.923	3915
803.065	3899
803.208	3888
803.35	3899
803.492	3838
803.635	3941
803.777	3819
803.919	3869
804.061	4150
804.204	3987
804.346	3991
804.488	3964
804.63	4059
804.773	3937
804.915	4040
805.057	4158
805.199	4082
805.341	4112
805.483	4192
805.626	4101
805.768	4135
805.91	4215
806.052	4219
806.194	4223
806.336	4352
806.478	4230
806.62	4181
806.762	4223
806.904	4249
807.046	4337
807.188	4242
807.33	4169
807.472	4230
807.614	4227
807.756	4295
807.898	4215
808.04	4219
808.182	4265
808.324	4306
808.465	4405
808.607	4470
808.749	4481
808.891	4478
809.033	4508
809.174	4436
809.316	4268
809.458	4200
809.6	4124
809.741	4131
809.883	4158
810.025	4207
810.166	4253
810.308	4230
810.45	4295
810.591	4204
810.733	4306
810.875	4538
811.016	4839
811.158	5170
811.299	5258
811.441	5292
811.582	5010
811.724	4706
811.865	4493
812.007	4538
812.148	4398
812.29	4455
812.431	4443
812.573	4375
812.714	4398
812.855	4398
812.997	4432
813.138	4462
813.279	4436
813.421	4409
813.562	4383
813.703	4356
813.845	4348
813.986	4287
814.127	4268
814.268	4272
814.41	4306
814.551	4253
814.692	4314
814.833	4268
814.974	4318
815.115	4329
815.256	4272
815.397	4272
815.539	4234
815.68	4207
815.821	4173
815.962	4337
816.103	4253
816.244	4246
816.385	4238
816.526	4246
816.666	4234
816.807	4116
816.948	4150
817.089	4166
817.23	4139
817.371	4006
817.512	4067
817.653	4105
817.793	4097
817.934	4071
818.075	4112
818.216	4082
818.356	4082
818.497	4029
818.638	3930
818.778	3926
818.919	3949
819.06	3861
819.2	3911
819.341	3854
819.481	3876
819.622	3911
819.762	4051
819.903	4010
820.043	3915
820.184	3819
820.324	3831
820.465	3888
820.605	3876
820.746	3873
820.886	3804
821.026	3930
821.167	3956
821.307	4013
821.447	3975
821.588	3964
821.728	3979
821.868	3911
822.008	3892
822.149	3945
822.289	3907
822.429	3819
822.569	3781
822.709	3823
822.849	3728
822.99	3785
823.13	3762
823.27	3846
823.41	3747
823.55	3755
823.69	3724
823.83	3762
823.97	3679
824.11	3625
824.25	3591
824.389	3675
824.529	3694
824.669	3656
824.809	3740
824.949	3759
825.089	3770
825.228	3694
825.368	3595
825.508	3622
825.648	3610
825.787	3603
825.927	3671
826.067	3656
826.206	3644
826.346	3789
826.485	3854
826.625	3903
826.765	3960
826.904	3804
827.044	3618
827.183	3553
827.323	3458
827.462	3507
827.601	3481
827.741	3431
827.88	3477
828.02	3435
828.159	3424
828.298	3504
828.437	3526
828.577	3469
828.716	3614
828.855	3473
828.994	3397
829.134	3389
829.273	3382
829.412	3359
829.551	3329
829.69	3378
829.829	3420
829.968	3538
830.107	3450
830.246	3462
830.385	3405
830.524	3412
830.663	3302
830.802	3253
830.941	3222
831.08	3165
831.219	3256
831.357	3237
831.496	3458
831.635	3253
831.774	3192
831.913	3199
832.051	3142
832.19	3131
832.329	3199
832.467	3150
832.606	3142
832.744	3154
832.883	3195
833.022	3203
833.16	3256
833.299	3340
833.437	3317
833.576	3389
833.714	3412
833.852	3424
833.991	3412
834.129	3466
834.267	3450
834.406	3412
834.544	3462
834.682	3439
834.821	3424
834.959	3591
835.097	3462
835.235	3545
835.373	3507
835.511	3504
835.65	3458
835.788	3526
835.926	3409
836.064	3386
836.202	3412
836.34	3572
836.478	3618
836.615	3572
836.753	3614
836.891	3633
837.029	3671
837.167	3572
837.305	3572
837.443	3557
837.58	3523
837.718	3603
837.856	3584
837.993	3564
838.131	3580
838.269	3591
838.406	3576
838.544	3618
838.681	3466
838.819	3473
838.956	3409
839.094	3382
839.231	3473
839.369	3496
839.506	3747
839.643	3614
839.781	3526
839.918	3477
840.055	3557
840.193	3545
840.33	3584
840.467	3591
840.604	3591
840.742	3808
840.879	3568
841.016	3564
841.153	3606
841.29	3766
841.427	3690
841.564	3751
841.701	3766
841.838	3705
841.975	3740
842.112	3747
842.249	3717
842.385	3629
842.522	3823
842.659	3709
842.796	3698
842.933	3701
843.069	3720
843.206	3732
843.343	3819
843.479	3831
843.616	3827
843.752	3701
843.889	3701
844.025	3892
844.162	3720
844.298	3880
844.435	3793
844.571	3827
844.708	3926
844.844	4010
844.98	4051
845.117	4048
845.253	3953
845.389	3915
845.525	3926
845.661	4021
845.798	3941
845.934	4002
846.07	3949
846.206	4093
846.342	4101
846.478	4040
846.614	4002
846.75	3918
846.886	3922
847.022	4048
847.158	4010
847.294	3983
847.429	4067
847.565	3975
847.701	4227
847.837	3850
847.972	3854
848.108	3979
848.244	3964
848.379	3903
848.515	3850
848.65	3831
848.786	3823
848.921	3884
849.057	3949
849.192	3991
849.328	3907
849.463	3922
849.598	3880
849.734	3918
849.869	3865
850.004	3823
850.14	3835
850.275	3816
850.41	3717
850.545	3808
850.68	3808
850.815	3823
850.95	3762
851.085	3956
851.22	3903
851.355	3827
851.49	3766
851.625	3781
851.76	3823
851.895	3762
852.03	3751
852.165	3819
852.299	3808
852.434	3907
852.569	3888
852.703	3903
852.838	3949
852.973	3983
853.107	4010
853.242	3884
853.376	3785
853.511	3751
853.645	3869
853.78	4036
853.914	3911
854.048	3899
854.183	3869
854.317	3975
854.451	4082
854.585	3975
854.72	3956
854.854	4048
854.988	3960
855.122	4055
855.256	3941
855.39	4010
855.524	4116
855.658	4128
855.792	4093
855.926	4139
856.06	4181
856.194	4242
856.327	4124
856.461	4162
856.595	4200
856.729	4215
856.862	4314
856.996	4261
857.13	4329
857.263	4287
857.397	4348
857.53	4329
857.664	4398
857.797	4455
857.931	4413
858.064	4421
858.197	4516
858.331	4375
858.464	4402
858.597	4356
858.731	4455
858.864	4432
858.997	4455
859.13	4508
859.263	4565
859.396	4588
859.529	4489
859.662	4615
859.795	4542
859.928	4611
860.061	4748
860.194	4714
860.327	4672
860.46	4634
860.592	4755
860.725	4782
860.858	4809
860.99	4672
861.123	4706
861.256	4687
861.388	4805
861.521	5288
861.653	4714
861.786	4660
861.918	4774
862.05	4835
862.183	4816
862.315	4870
862.447	4949
862.58	4900
862.712	4828
862.844	4801
862.976	4847
863.108	4866
863.24	5246
863.372	4858
863.504	4923
863.636	4908
863.768	4961
863.9	4980
864.032	4949
864.164	4980
864.296	5003
864.428	5083
864.559	5033
864.691	5128
864.823	5109
864.954	5121
865.086	5109
865.217	5117
865.349	5113
865.48	5151
865.612	5220
865.743	5277
865.875	5212
866.006	5178
866.137	5220
866.269	5284
866.4	5220
866.531	5250
866.662	5261
866.793	5258
866.924	5261
867.055	5296
867.186	5345
867.317	5349
867.448	5299
867.579	5372
867.71	5391
867.841	5417
867.972	5455
868.103	5471
868.233	5471
868.364	5566
868.495	5524
868.625	5760
868.756	5764
868.886	5672
869.017	5729
869.147	5882
869.278	5882
869.408	5863
869.539	5790
869.669	5977
869.799	5889
869.929	6049
870.06	6057
870.19	6216
870.32	6209
870.45	6258
870.58	6361
870.71	6475
870.84	6521
870.97	6475
871.1	6422
871.23	6662
871.36	6681
871.489	6669
871.619	6741
871.749	6875
871.879	6814
872.008	6981
872.138	6958
872.267	7091
872.397	6981
872.526	7027
872.656	7084
872.785	7209
872.915	7419
873.044	7552
873.173	7594
873.303	7700
873.432	7792
873.561	7856
873.69	7970
873.819	8046
873.948	8202
874.077	8313
874.206	8298
874.335	8457
874.464	8716
874.593	8937
874.722	8952
874.851	9241
874.979	9226
875.108	9367
875.237	9492
875.365	9485
875.494	9610
875.623	9835
875.751	9861
875.88	10017
876.008	10097
876.136	10314
876.265	10596
876.393	10630
876.521	10679
876.65	10816
876.778	10900
876.906	10889
877.034	11022
877.162	11140
877.29	11204
877.418	11379
877.546	11299
877.674	11493
877.802	11520
877.93	11501
878.058	11482
878.185	11493
878.313	11634
878.441	11775
878.568	11703
878.696	11874
878.824	11863
878.951	11969
879.079	11984
879.206	12136
879.333	12087
879.461	12076
879.588	12140
879.715	12136
879.842	12213
879.97	12110
880.097	11885
880.224	11897
880.351	11935
880.478	11916
880.605	11832
880.732	11752
880.859	12011
880.986	11859
881.112	11912
881.239	11756
881.366	11794
881.493	11649
881.619	11524
881.746	11608
881.872	11570
881.999	11440
882.125	11478
882.252	11596
882.378	11554
882.505	11539
882.631	11379
882.757	11315
882.883	11311
883.01	11277
883.136	11143
883.262	11147
883.388	11025
883.514	11242
883.64	11246
883.766	11174
883.892	11033
884.018	11025
884.143	11025
884.269	11079
884.395	10847
884.52	10786
884.646	10801
884.772	10687
884.897	10664
885.023	10656
885.148	10778
885.274	10752
885.399	10668
885.524	10603
885.65	10706
885.775	10637
885.9	10588
886.025	10622
886.15	10573
886.275	10531
886.4	10466
886.525	10371
886.65	10329
886.775	10276
886.9	10436
887.025	10580
887.149	10360
887.274	10211
887.399	10268
887.523	10261
887.648	10169
887.773	10177
887.897	10192
888.021	10322
888.146	10150
888.27	10303
888.395	10257
888.519	10207
888.643	10207
888.767	10177
888.891	10143
889.015	10101
889.139	10059
889.263	10013
889.387	10158
889.511	10112
889.635	10040
889.759	9930
889.883	10051
890.006	9991
890.13	10139
890.254	9941
890.377	9937
890.501	9895
890.624	9880
890.748	9930
890.871	9880
890.995	9762
891.118	9724
891.241	9709
891.364	9759
891.488	9873
891.611	9694
891.734	9800
891.857	9831
891.98	9701
892.103	9740
892.226	9804
892.349	9675
892.471	9485
892.594	9591
892.717	9591
892.839	9614
892.962	9682
893.085	9660
893.207	9633
893.33	9519
893.452	9519
893.575	9580
893.697	9507
893.819	9603
893.941	9576
894.064	9584
894.186	9416
894.308	9428
894.43	9549
894.552	9587
894.674	9584
894.796	9367
894.918	9424
895.04	9397
895.161	9389
895.283	9344
895.405	9211
895.526	9253
895.648	9222
895.769	9253
895.891	9279
896.012	9363
896.134	9230
896.255	9157
896.376	9146
896.498	9222
896.619	9043
896.74	9123
896.861	9188
896.982	9287
897.103	9283
897.224	9146
897.345	9085
897.466	9036
897.587	9024
897.708	9085
897.828	9055
897.949	9009
898.07	8891
898.19	8857
898.311	9028
898.431	8956
898.552	8971
898.672	9013
898.792	8956
898.913	8929
899.033	8811
899.153	8701
899.273	8731
899.393	8716
899.513	8758
899.633	8667
899.753	8796
899.873	8689
899.993	8792
900.113	8682
900.232	8746
900.352	8731
900.472	8545
900.591	8492
900.711	8587
900.83	8571
900.95	8693
901.069	8663
901.189	8549
901.308	8469
901.427	8389
901.546	8442
901.665	8492
901.784	8438
901.904	8347
902.023	8305
902.141	8313
902.26	8187
902.379	8313
902.498	8256
902.617	8263
902.735	8282
902.854	8301
902.973	8294
903.091	8100
903.21	8180
903.328	8157
903.446	8221
903.565	8088
903.683	8119
903.801	8039
903.919	8153
904.038	8172
904.156	8027
904.274	8096
904.392	8012
904.51	8043
904.627	8054
904.745	8103
904.863	8115
904.981	7989
905.098	7898
905.216	7830
905.334	7898
905.451	7906
905.569	7902
905.686	7955
905.803	7864
905.921	7742
906.038	7917
906.155	7814
906.272	7670
906.389	7643
906.506	7658
906.623	7658
906.74	7658
906.857	7502
906.974	7575
907.091	7624
907.208	7715
907.324	7613
907.441	7548
907.557	7464
907.674	7407
907.79	7407
907.907	7400
908.023	7495
908.139	7411
908.256	7396
908.372	7426
908.488	7396
908.604	7324
908.72	7232
908.836	7278
908.952	7228
909.068	7266
909.184	7305
909.3	7259
909.415	7305
909.531	7270
909.647	7099
909.762	7080
909.878	7137
909.993	7091
910.108	7110
910.224	7099
910.339	7091
910.454	7072
910.57	7046
910.685	6981
910.8	7149
910.915	7061
911.03	7031
911.145	6916
911.259	6897
911.374	6920
911.489	6825
911.604	6791
911.718	6722
911.833	6738
911.947	6658
912.062	6650
912.176	6715
912.291	6730
912.405	6787
912.519	6814
912.633	6875
912.748	6757
912.862	6696
912.976	6574
913.09	6544
913.204	6597
913.318	6639
913.431	6760
913.545	6650
913.659	6745
913.772	6646
913.886	6585
914	6566
914.113	6620
914.226	6585
914.34	6654
914.453	6540
914.566	6635
914.68	6521
914.793	6574
914.906	6452
915.019	6338
915.132	6338
915.245	6448
915.358	6429
915.47	6456
915.583	6574
915.696	6452
915.809	6593
915.921	6566
916.034	6376
916.146	6414
916.259	6426
916.371	6426
916.483	6528
916.595	6475
916.708	6479
916.82	6407
916.932	6338
917.044	6414
917.156	6391
917.268	6384
917.38	6350
917.491	6323
917.603	6331
917.715	6418
917.826	6456
917.938	6380
918.049	6308
918.161	6365
918.272	6376
918.384	6437
918.495	6350
918.606	6292
918.717	6232
918.828	6247
918.939	6289
919.05	6197
919.161	6205
919.272	6186
919.383	6117
919.494	6258
919.604	6384
919.715	6289
919.826	6228
919.936	6289
920.047	6357
920.157	6342
920.267	6448
920.378	6338
920.488	6357
920.598	6445
920.708	6604
920.818	6471
920.928	6494
921.038	6627
921.148	6578
921.258	6338
921.368	6342
921.477	6216
921.587	6213
921.697	6167
921.806	6194
921.916	6095
922.025	5965
922.134	5901
922.244	5893
922.353	5954
922.462	5870
922.571	5779
922.68	5737
922.789	5642
922.898	5726
923.007	5608
923.116	5676
923.224	5661
923.333	5665
923.442	5600
923.55	5543
923.659	5615
923.767	5623
923.876	5554
923.984	5608
924.092	5539
924.201	5528
924.309	5570
924.417	5570
924.525	5528
924.633	5482
924.741	6171
924.849	5368
924.956	5478
925.064	5337
925.172	5326
925.279	5337
925.387	5406
925.494	5376
925.602	5452
925.709	5429
925.816	5307
925.924	5303
926.031	5417
926.138	5318
926.245	5337
926.352	5220
926.459	5311
926.566	5353
926.673	5197
926.779	5159
926.886	5132
926.993	5079
927.099	5025
927.206	4953
927.312	4968
927.419	4987
927.525	5006
927.631	5010
927.737	4889
927.843	4835
927.95	4767
928.056	4790
928.162	4850
928.267	4854
928.373	5402
928.479	4850
928.585	4668
928.69	4790
928.796	4797
928.901	4748
929.007	4641
929.112	4710
929.218	4641
929.323	4596
929.428	4603
929.533	4664
929.638	4588
929.743	4531
929.848	4584
929.953	4535
930.058	4459
930.163	4329
930.267	4360
930.372	4413
930.477	4291
930.581	4470
930.685	4367
930.79	4265
930.894	4257
930.998	4272
931.103	4379
931.207	4188
931.311	4131
931.415	4059
931.519	3934
931.623	3941
