Data from glass_V78500241_2445.txt Node
Date: Wed Sep 01 19:31:26 CST 2021
User: usil
Spectrometer: V785-0024
Trigger mode: 0
Integration Time (sec): 4.000000E-1
Scans to average: 1
Nonlinearity correction enabled: false
Boxcar width: 0
Storing dark spectrum: false
XAxis mode: Wavelengths
Number of Pixels in Spectrum: 1024
>>>>>Begin Spectral Data<<<<<
801.071	3732
801.214	3728
801.356	3690
801.499	3759
801.641	3701
801.783	3762
801.926	3831
802.068	3800
802.211	3819
802.353	3835
802.496	3785
802.638	3899
802.78	3903
802.923	3922
803.065	3857
803.208	3800
803.35	3854
803.492	3907
803.635	3876
803.777	3778
803.919	3884
804.061	4135
804.204	3975
804.346	3876
804.488	3907
804.63	4044
804.773	3937
804.915	4029
805.057	4101
805.199	4010
805.341	4082
805.483	4150
805.626	4124
805.768	4105
805.91	4227
806.052	4242
806.194	4177
806.336	4306
806.478	4223
806.62	4112
806.762	4192
806.904	4242
807.046	4367
807.188	4280
807.33	4181
807.472	4196
807.614	4188
807.756	4280
807.898	4173
808.04	4219
808.182	4268
808.324	4276
808.465	4337
808.607	4451
808.749	4443
808.891	4470
809.033	4451
809.174	4398
809.316	4268
809.458	4192
809.6	4147
809.741	4188
809.883	4166
810.025	4230
810.166	4188
810.308	4166
810.45	4219
810.591	4223
810.733	4306
810.875	4538
811.016	4835
811.158	5143
811.299	5273
811.441	5299
811.582	5083
811.724	4691
811.865	4459
812.007	4447
812.148	4417
812.29	4405
812.431	4459
812.573	4402
812.714	4348
812.855	4413
812.997	4421
813.138	4485
813.279	4424
813.421	4405
813.562	4367
813.703	4276
813.845	4280
813.986	4249
814.127	4215
814.268	4257
814.41	4261
814.551	4287
814.692	4325
814.833	4242
814.974	4314
815.115	4337
815.256	4219
815.397	4257
815.539	4230
815.68	4230
815.821	4230
815.962	4291
816.103	4276
816.244	4230
816.385	4234
816.526	4261
816.666	4200
816.807	4071
816.948	4169
817.089	4185
817.23	4051
817.371	4029
817.512	4063
817.653	4074
817.793	4029
817.934	4036
818.075	4109
818.216	4048
818.356	4032
818.497	3972
818.638	3956
818.778	3876
818.919	3873
819.06	3857
819.2	3911
819.341	3892
819.481	3835
819.622	3918
819.762	4025
819.903	3926
820.043	3831
820.184	3842
820.324	3804
820.465	3854
820.605	3842
820.746	3907
820.886	3770
821.026	3945
821.167	3865
821.307	3926
821.447	3975
821.588	3934
821.728	3934
821.868	3975
822.008	3911
822.149	3907
822.289	3896
822.429	3812
822.569	3766
822.709	3785
822.849	3698
822.99	3724
823.13	3812
823.27	3781
823.41	3686
823.55	3724
823.69	3732
823.83	3701
823.97	3656
824.11	3606
824.25	3606
824.389	3618
824.529	3679
824.669	3561
824.809	3682
824.949	3724
825.089	3724
825.228	3686
825.368	3603
825.508	3576
825.648	3538
825.787	3576
825.927	3599
826.067	3622
826.206	3641
826.346	3793
826.485	3823
826.625	3846
826.765	3911
826.904	3861
827.044	3557
827.183	3561
827.323	3431
827.462	3466
827.601	3424
827.741	3393
827.88	3439
828.02	3386
828.159	3420
828.298	3485
828.437	3526
828.577	3431
828.716	3606
828.855	3473
828.994	3412
829.134	3336
829.273	3386
829.412	3287
829.551	3317
829.69	3363
829.829	3382
829.968	3504
830.107	3454
830.246	3431
830.385	3389
830.524	3348
830.663	3294
830.802	3256
830.941	3203
831.08	3173
831.219	3256
831.357	3268
831.496	3370
831.635	3214
831.774	3142
831.913	3226
832.051	3131
832.19	3112
832.329	3192
832.467	3157
832.606	3131
832.744	3165
832.883	3142
833.022	3142
833.16	3275
833.299	3287
833.437	3336
833.576	3382
833.714	3401
833.852	3405
833.991	3450
834.129	3473
834.267	3405
834.406	3348
834.544	3389
834.682	3378
834.821	3397
834.959	3561
835.097	3443
835.235	3511
835.373	3469
835.511	3481
835.65	3443
835.788	3469
835.926	3409
836.064	3363
836.202	3401
836.34	3542
836.478	3580
836.615	3534
836.753	3599
836.891	3622
837.029	3587
837.167	3606
837.305	3523
837.443	3515
837.58	3450
837.718	3599
837.856	3591
837.993	3553
838.131	3557
838.269	3572
838.406	3561
838.544	3564
838.681	3447
838.819	3469
838.956	3367
839.094	3386
839.231	3439
839.369	3488
839.506	3717
839.643	3591
839.781	3481
839.918	3469
840.055	3507
840.193	3511
840.33	3496
840.467	3542
840.604	3599
840.742	3812
840.879	3553
841.016	3584
841.153	3576
841.29	3759
841.427	3671
841.564	3686
841.701	3713
841.838	3667
841.975	3694
842.112	3679
842.249	3610
842.385	3591
842.522	3827
842.659	3671
842.796	3656
842.933	3686
843.069	3614
843.206	3667
843.343	3800
843.479	3747
843.616	3785
843.752	3652
843.889	3663
844.025	3842
844.162	3747
844.298	3865
844.435	3823
844.571	3789
844.708	3888
844.844	3979
844.98	4013
845.117	4002
845.253	3926
845.389	3857
845.525	3949
845.661	3918
845.798	3869
845.934	3983
846.07	3930
846.206	4051
846.342	4067
846.478	4063
846.614	3945
846.75	3934
846.886	3896
847.022	4044
847.158	3953
847.294	3968
847.429	4036
847.565	3987
847.701	4207
847.837	3888
847.972	3876
848.108	3964
848.244	3918
848.379	3888
848.515	3812
848.65	3835
848.786	3823
848.921	3846
849.057	3888
849.192	3956
849.328	3899
849.463	3934
849.598	3861
849.734	3827
849.869	3800
850.004	3785
850.14	3816
850.275	3797
850.41	3717
850.545	3740
850.68	3759
850.815	3819
850.95	3785
851.085	3956
851.22	3846
851.355	3812
851.49	3778
851.625	3759
851.76	3720
851.895	3717
852.03	3736
852.165	3770
852.299	3823
852.434	3854
852.569	3865
852.703	3888
852.838	3907
852.973	4002
853.107	3922
853.242	3857
853.376	3808
853.511	3831
853.645	3846
853.78	3979
853.914	3918
854.048	3930
854.183	3922
854.317	3987
854.451	4078
854.585	3907
854.72	3888
854.854	4055
854.988	3922
855.122	3998
855.256	3857
855.39	4010
855.524	4082
855.658	4090
855.792	4101
855.926	4112
856.06	4147
856.194	4181
856.327	4169
856.461	4112
856.595	4143
856.729	4166
856.862	4261
856.996	4207
857.13	4303
857.263	4268
857.397	4379
857.53	4295
857.664	4322
857.797	4371
857.931	4424
858.064	4352
858.197	4436
858.331	4371
858.464	4363
858.597	4398
858.731	4417
858.864	4466
858.997	4436
859.13	4535
859.263	4535
859.396	4565
859.529	4504
859.662	4561
859.795	4504
859.928	4603
860.061	4679
860.194	4694
860.327	4637
860.46	4615
860.592	4679
860.725	4733
860.858	4797
860.99	4634
861.123	4672
861.256	4679
861.388	4736
861.521	5474
861.653	4691
861.786	4714
861.918	4759
862.05	4820
862.183	4862
862.315	4877
862.447	4892
862.58	4843
862.712	4790
862.844	4793
862.976	4850
863.108	4866
863.24	5151
863.372	4797
863.504	4908
863.636	4877
863.768	4946
863.9	4923
864.032	4923
864.164	4911
864.296	5033
864.428	5094
864.559	5105
864.691	5105
864.823	5113
864.954	5121
865.086	5132
865.217	5136
865.349	5090
865.48	5155
865.612	5220
865.743	5273
865.875	5181
866.006	5212
866.137	5231
866.269	5223
866.4	5166
866.531	5189
866.662	5242
866.793	5254
866.924	5330
867.055	5292
867.186	5341
867.317	5299
867.448	5318
867.579	5357
867.71	5364
867.841	5334
867.972	5482
868.103	5429
868.233	5455
868.364	5497
868.495	5497
868.625	5627
868.756	5798
868.886	5668
869.017	5710
869.147	5809
869.278	5897
869.408	5783
869.539	5802
869.669	5859
869.799	5874
869.929	5969
870.06	5958
870.19	6201
870.32	6190
870.45	6239
870.58	6372
870.71	6418
870.84	6452
870.97	6342
871.1	6441
871.23	6658
871.36	6688
871.489	6650
871.619	6681
871.749	6818
871.879	6943
872.008	6993
872.138	6905
872.267	6958
872.397	7000
872.526	7034
872.656	7076
872.785	7179
872.915	7343
873.044	7563
873.173	7571
873.303	7624
873.432	7715
873.561	7959
873.69	7830
873.819	7974
873.948	8157
874.077	8279
874.206	8286
874.335	8438
874.464	8674
874.593	8823
874.722	8895
874.851	9013
874.979	9157
875.108	9370
875.237	9431
875.365	9507
875.494	9603
875.623	9751
875.751	9778
875.88	10006
876.008	10097
876.136	10268
876.265	10493
876.393	10645
876.521	10790
876.65	10752
876.778	10858
876.906	10877
877.034	10999
877.162	11094
877.29	11147
877.418	11204
877.546	11364
877.674	11455
877.802	11551
877.93	11551
878.058	11547
878.185	11516
878.313	11688
878.441	11741
878.568	11668
878.696	11870
878.824	11836
878.951	11939
879.079	11942
879.206	12129
879.333	11973
879.461	12079
879.588	12011
879.715	12155
879.842	12159
879.97	12019
880.097	11828
880.224	11920
880.351	11889
880.478	11866
880.605	11954
880.732	11832
880.859	11973
880.986	11821
881.112	11847
881.239	11703
881.366	11592
881.493	11691
881.619	11653
881.746	11551
881.872	11505
881.999	11524
882.125	11600
882.252	11459
882.378	11402
882.505	11444
882.631	11356
882.757	11307
882.883	11318
883.01	11269
883.136	11197
883.262	11147
883.388	11094
883.514	11212
883.64	11178
883.766	11064
883.892	11006
884.018	10976
884.143	11075
884.269	11208
884.395	10858
884.52	10729
884.646	10710
884.772	10721
884.897	10656
885.023	10687
885.148	10755
885.274	10748
885.399	10668
885.524	10672
885.65	10573
885.775	10546
885.9	10573
886.025	10649
886.15	10554
886.275	10386
886.4	10303
886.525	10405
886.65	10367
886.775	10344
886.9	10428
887.025	10481
887.149	10398
887.274	10215
887.399	10185
887.523	10177
887.648	10097
887.773	10074
887.897	10223
888.021	10227
888.146	10120
888.27	10219
888.395	10143
888.519	10185
888.643	10177
888.767	10158
888.891	10109
889.015	9930
889.139	10013
889.263	9930
889.387	10071
889.511	10143
889.635	10112
889.759	9975
889.883	9991
890.006	9968
890.13	10112
890.254	9930
890.377	9972
890.501	9842
890.624	9827
890.748	9899
890.871	9812
890.995	9789
891.118	9679
891.241	9785
891.364	9660
891.488	9835
891.611	9743
891.734	9694
891.857	9724
891.98	9755
892.103	9766
892.226	9648
892.349	9652
892.471	9515
892.594	9622
892.717	9644
892.839	9542
892.962	9610
893.085	9675
893.207	9572
893.33	9447
893.452	9496
893.575	9549
893.697	9473
893.819	9561
893.941	9660
894.064	9523
894.186	9424
894.308	9389
894.43	9504
894.552	9599
894.674	9538
894.796	9397
894.918	9317
895.04	9321
895.161	9359
895.283	9348
895.405	9192
895.526	9279
895.648	9260
895.769	9184
895.891	9245
896.012	9298
896.134	9135
896.255	9173
896.376	9157
896.498	9169
896.619	9138
896.74	9104
896.861	9097
896.982	9310
897.103	9245
897.224	9058
897.345	8998
897.466	8998
897.587	8956
897.708	9081
897.828	8956
897.949	8937
898.07	8815
898.19	8906
898.311	8960
898.431	8811
898.552	8937
898.672	9017
898.792	8963
898.913	8887
899.033	8838
899.153	8743
899.273	8648
899.393	8708
899.513	8800
899.633	8708
899.753	8659
899.873	8655
899.993	8659
900.113	8769
900.232	8663
900.352	8705
900.472	8629
900.591	8545
900.711	8511
900.83	8590
900.95	8648
901.069	8670
901.189	8545
901.308	8454
901.427	8343
901.546	8362
901.665	8446
901.784	8484
901.904	8377
902.023	8351
902.141	8221
902.26	8225
902.379	8248
902.498	8168
902.617	8168
902.735	8275
902.854	8271
902.973	8275
903.091	8058
903.21	8126
903.328	8180
903.446	8046
903.565	8119
903.683	8103
903.801	7993
903.919	8046
904.038	8081
904.156	8020
904.274	8039
904.392	8077
904.51	8024
904.627	8069
904.745	8096
904.863	8134
904.981	7890
905.098	7837
905.216	7849
905.334	7883
905.451	7883
905.569	7932
905.686	7921
905.803	7906
905.921	7803
906.038	7822
906.155	7803
906.272	7689
906.389	7704
906.506	7616
906.623	7567
906.74	7578
906.857	7529
906.974	7510
907.091	7624
907.208	7662
907.324	7616
907.441	7597
907.557	7407
907.674	7434
907.79	7381
907.907	7400
908.023	7411
908.139	7441
908.256	7343
908.372	7350
908.488	7316
908.604	7228
908.72	7206
908.836	7225
908.952	7255
909.068	7213
909.184	7316
909.3	7194
909.415	7324
909.531	7289
909.647	7095
909.762	7145
909.878	7080
909.993	7152
910.108	7084
910.224	7095
910.339	7152
910.454	7050
910.57	6954
910.685	6973
910.8	7156
910.915	7065
911.03	7031
911.145	6920
911.259	6863
911.374	6901
911.489	6787
911.604	6749
911.718	6719
911.833	6745
911.947	6616
912.062	6616
912.176	6669
912.291	6707
912.405	6734
912.519	6818
912.633	6798
912.748	6730
912.862	6696
912.976	6669
913.09	6570
913.204	6589
913.318	6593
913.431	6650
913.545	6673
913.659	6719
913.772	6627
913.886	6616
914	6559
914.113	6555
914.226	6612
914.34	6582
914.453	6483
914.566	6616
914.68	6502
914.793	6517
914.906	6391
915.019	6410
915.132	6346
915.245	6418
915.358	6437
915.47	6448
915.583	6471
915.696	6437
915.809	6506
915.921	6547
916.034	6418
916.146	6365
916.259	6384
916.371	6464
916.483	6429
916.595	6300
916.708	6369
916.82	6376
916.932	6334
917.044	6361
917.156	6357
917.268	6338
917.38	6331
917.491	6277
917.603	6262
917.715	6410
917.826	6399
917.938	6289
918.049	6201
918.161	6304
918.272	6418
918.384	6372
918.495	6403
918.606	6254
918.717	6232
918.828	6308
918.939	6289
919.05	6201
919.161	6232
919.272	6133
919.383	6159
919.494	6296
919.604	6456
919.715	6315
919.826	6205
919.936	6235
920.047	6289
920.157	6273
920.267	6403
920.378	6281
920.488	6262
920.598	6426
920.708	6525
920.818	6479
920.928	6445
921.038	6642
921.148	6582
921.258	6334
921.368	6281
921.477	6178
921.587	6144
921.697	6041
921.806	6186
921.916	6060
922.025	5961
922.134	5870
922.244	5832
922.353	5939
922.462	5786
922.571	5786
922.68	5707
922.789	5672
922.898	5707
923.007	5604
923.116	5676
923.224	5684
923.333	5642
923.442	5573
923.55	5570
923.659	5630
923.767	5619
923.876	5528
923.984	5589
924.092	5459
924.201	5520
924.309	5551
924.417	5528
924.525	5520
924.633	5486
924.741	6308
924.849	5334
924.956	5459
925.064	5349
925.172	5315
925.279	5292
925.387	5353
925.494	5307
925.602	5417
925.709	5372
925.816	5242
925.924	5318
926.031	5337
926.138	5277
926.245	5364
926.352	5204
926.459	5334
926.566	5288
926.673	5208
926.779	5113
926.886	5117
926.993	4991
927.099	4987
927.206	4995
927.312	4877
927.419	4999
927.525	5022
927.631	4976
927.737	4919
927.843	4801
927.95	4744
928.056	4873
928.162	4835
928.267	4847
928.373	5277
928.479	4809
928.585	4702
928.69	4725
928.796	4782
928.901	4714
929.007	4592
929.112	4656
929.218	4641
929.323	4542
929.428	4516
929.533	4645
929.638	4493
929.743	4535
929.848	4558
929.953	4474
930.058	4455
930.163	4310
930.267	4360
930.372	4459
930.477	4257
930.581	4379
930.685	4344
930.79	4242
930.894	4310
930.998	4295
931.103	4352
931.207	4101
931.311	4082
931.415	4036
931.519	3930
931.623	3903
