Data from glass_V78500241_1646.txt Node
Date: Wed Sep 01 19:25:54 CST 2021
User: usil
Spectrometer: V785-0024
Trigger mode: 0
Integration Time (sec): 4.000000E-1
Scans to average: 1
Nonlinearity correction enabled: false
Boxcar width: 0
Storing dark spectrum: false
XAxis mode: Wavelengths
Number of Pixels in Spectrum: 1024
>>>>>Begin Spectral Data<<<<<
801.071	3671
801.214	3747
801.356	3720
801.499	3755
801.641	3732
801.783	3740
801.926	3896
802.068	3846
802.211	3861
802.353	3911
802.496	3892
802.638	3926
802.78	3934
802.923	3960
803.065	3854
803.208	3838
803.35	3850
803.492	3869
803.635	3903
803.777	3759
803.919	3907
804.061	4128
804.204	3956
804.346	3968
804.488	3865
804.63	3975
804.773	3998
804.915	3998
805.057	4135
805.199	4048
805.341	4078
805.483	4101
805.626	4143
805.768	4116
805.91	4242
806.052	4215
806.194	4196
806.336	4341
806.478	4169
806.62	4185
806.762	4177
806.904	4238
807.046	4310
807.188	4207
807.33	4200
807.472	4257
807.614	4158
807.756	4265
807.898	4219
808.04	4204
808.182	4265
808.324	4333
808.465	4348
808.607	4493
808.749	4478
808.891	4447
809.033	4440
809.174	4455
809.316	4257
809.458	4272
809.6	4150
809.741	4162
809.883	4158
810.025	4215
810.166	4154
810.308	4219
810.45	4253
810.591	4242
810.733	4268
810.875	4493
811.016	4847
811.158	5098
811.299	5265
811.441	5307
811.582	5037
811.724	4744
811.865	4455
812.007	4481
812.148	4424
812.29	4390
812.431	4398
812.573	4417
812.714	4398
812.855	4398
812.997	4466
813.138	4466
813.279	4417
813.421	4386
813.562	4398
813.703	4341
813.845	4322
813.986	4265
814.127	4204
814.268	4295
814.41	4295
814.551	4234
814.692	4291
814.833	4299
814.974	4272
815.115	4299
815.256	4276
815.397	4265
815.539	4280
815.68	4211
815.821	4249
815.962	4341
816.103	4287
816.244	4204
816.385	4188
816.526	4344
816.666	4196
816.807	4044
816.948	4181
817.089	4158
817.23	4124
817.371	4032
817.512	4082
817.653	4017
817.793	4036
817.934	3998
818.075	4078
818.216	4086
818.356	4112
818.497	4006
818.638	3922
818.778	3903
818.919	3884
819.06	3865
819.2	3945
819.341	3823
819.481	3854
819.622	3941
819.762	4029
819.903	3930
820.043	3846
820.184	3850
820.324	3854
820.465	3888
820.605	3865
820.746	3823
820.886	3770
821.026	3934
821.167	3918
821.307	3960
821.447	3945
821.588	3926
821.728	3918
821.868	3915
822.008	3831
822.149	3888
822.289	3930
822.429	3766
822.569	3770
822.709	3831
822.849	3679
822.99	3747
823.13	3740
823.27	3774
823.41	3698
823.55	3728
823.69	3736
823.83	3793
823.97	3671
824.11	3629
824.25	3603
824.389	3660
824.529	3694
824.669	3625
824.809	3728
824.949	3743
825.089	3751
825.228	3709
825.368	3595
825.508	3542
825.648	3580
825.787	3641
825.927	3656
826.067	3606
826.206	3644
826.346	3819
826.485	3838
826.625	3812
826.765	3945
826.904	3850
827.044	3591
827.183	3557
827.323	3435
827.462	3500
827.601	3443
827.741	3401
827.88	3488
828.02	3374
828.159	3443
828.298	3447
828.437	3534
828.577	3473
828.716	3576
828.855	3507
828.994	3382
829.134	3359
829.273	3401
829.412	3348
829.551	3340
829.69	3344
829.829	3447
829.968	3545
830.107	3443
830.246	3424
830.385	3367
830.524	3359
830.663	3283
830.802	3245
830.941	3180
831.08	3169
831.219	3256
831.357	3268
831.496	3374
831.635	3237
831.774	3214
831.913	3260
832.051	3123
832.19	3150
832.329	3207
832.467	3142
832.606	3108
832.744	3173
832.883	3199
833.022	3214
833.16	3287
833.299	3279
833.437	3359
833.576	3351
833.714	3393
833.852	3401
833.991	3458
834.129	3466
834.267	3405
834.406	3393
834.544	3416
834.682	3412
834.821	3420
834.959	3572
835.097	3435
835.235	3534
835.373	3481
835.511	3473
835.65	3428
835.788	3466
835.926	3412
836.064	3386
836.202	3386
836.34	3557
836.478	3603
836.615	3553
836.753	3603
836.891	3622
837.029	3603
837.167	3561
837.305	3557
837.443	3549
837.58	3454
837.718	3603
837.856	3542
837.993	3526
838.131	3591
838.269	3595
838.406	3603
838.544	3595
838.681	3485
838.819	3458
838.956	3378
839.094	3336
839.231	3458
839.369	3530
839.506	3720
839.643	3584
839.781	3458
839.918	3466
840.055	3538
840.193	3511
840.33	3519
840.467	3538
840.604	3595
840.742	3793
840.879	3519
841.016	3519
841.153	3572
841.29	3747
841.427	3686
841.564	3724
841.701	3766
841.838	3759
841.975	3705
842.112	3713
842.249	3633
842.385	3603
842.522	3846
842.659	3698
842.796	3698
842.933	3690
843.069	3724
843.206	3698
843.343	3774
843.479	3755
843.616	3800
843.752	3675
843.889	3679
844.025	3854
844.162	3694
844.298	3819
844.435	3743
844.571	3812
844.708	3896
844.844	3998
844.98	3994
845.117	3960
845.253	3937
845.389	3850
845.525	3941
845.661	3968
845.798	3926
845.934	4025
846.07	3987
846.206	4040
846.342	4116
846.478	4051
846.614	4006
846.75	3937
846.886	3972
847.022	4029
847.158	4002
847.294	4021
847.429	4025
847.565	3991
847.701	4181
847.837	3937
847.972	3896
848.108	3953
848.244	3972
848.379	3861
848.515	3774
848.65	3823
848.786	3842
848.921	3896
849.057	3930
849.192	3918
849.328	3911
849.463	3907
849.598	3911
849.734	3884
849.869	3831
850.004	3808
850.14	3819
850.275	3743
850.41	3743
850.545	3778
850.68	3781
850.815	3789
850.95	3778
851.085	3941
851.22	3861
851.355	3854
851.49	3743
851.625	3831
851.76	3800
851.895	3740
852.03	3694
852.165	3812
852.299	3842
852.434	3899
852.569	3880
852.703	3911
852.838	3937
852.973	3994
853.107	4010
853.242	3911
853.376	3842
853.511	3800
853.645	3823
853.78	3956
853.914	3884
854.048	3899
854.183	3907
854.317	3945
854.451	4090
854.585	3945
854.72	3930
854.854	4036
854.988	3949
855.122	4025
855.256	3937
855.39	4021
855.524	4135
855.658	4078
855.792	4090
855.926	4101
856.06	4166
856.194	4207
856.327	4131
856.461	4166
856.595	4128
856.729	4219
856.862	4272
856.996	4234
857.13	4325
857.263	4303
857.397	4344
857.53	4257
857.664	4367
857.797	4405
857.931	4394
858.064	4375
858.197	4417
858.331	4371
858.464	4398
858.597	4318
858.731	4443
858.864	4443
858.997	4481
859.13	4500
859.263	4577
859.396	4584
859.529	4535
859.662	4519
859.795	4538
859.928	4618
860.061	4748
860.194	4763
860.327	4679
860.46	4634
860.592	4702
860.725	4774
860.858	4790
860.99	4622
861.123	4721
861.256	4717
861.388	4774
861.521	5444
861.653	4717
861.786	4774
861.918	4755
862.05	4786
862.183	4797
862.315	4904
862.447	4953
862.58	4885
862.712	4801
862.844	4771
862.976	4896
863.108	4877
863.24	5254
863.372	4862
863.504	4919
863.636	4904
863.768	4968
863.9	4980
864.032	4900
864.164	4968
864.296	5010
864.428	5083
864.559	5086
864.691	5090
864.823	5105
864.954	5128
865.086	5178
865.217	5166
865.349	5094
865.48	5178
865.612	5140
865.743	5254
865.875	5166
866.006	5159
866.137	5261
866.269	5246
866.4	5231
866.531	5265
866.662	5258
866.793	5208
866.924	5284
867.055	5296
867.186	5296
867.317	5341
867.448	5326
867.579	5330
867.71	5360
867.841	5414
867.972	5482
868.103	5459
868.233	5497
868.364	5463
868.495	5562
868.625	5699
868.756	5847
868.886	5722
869.017	5741
869.147	5821
869.278	5897
869.408	5824
869.539	5844
869.669	5893
869.799	5897
869.929	5923
870.06	5973
870.19	6235
870.32	6201
870.45	6285
870.58	6292
870.71	6456
870.84	6506
870.97	6403
871.1	6418
871.23	6627
871.36	6707
871.489	6612
871.619	6764
871.749	6829
871.879	6916
872.008	7000
872.138	6962
872.267	7012
872.397	6985
872.526	7114
872.656	7042
872.785	7278
872.915	7400
873.044	7495
873.173	7594
873.303	7655
873.432	7784
873.561	7856
873.69	7921
873.819	8012
873.948	8157
874.077	8320
874.206	8320
874.335	8442
874.464	8659
874.593	8849
874.722	8933
874.851	9097
874.979	9241
875.108	9401
875.237	9439
875.365	9401
875.494	9618
875.623	9808
875.751	9759
875.88	10002
876.008	10177
876.136	10242
876.265	10531
876.393	10698
876.521	10793
876.65	10866
876.778	10885
876.906	10873
877.034	10995
877.162	11083
877.29	11185
877.418	11239
877.546	11372
877.674	11436
877.802	11433
877.93	11581
878.058	11570
878.185	11486
878.313	11627
878.441	11790
878.568	11619
878.696	11802
878.824	11760
878.951	11950
879.079	12034
879.206	12079
879.333	12087
879.461	12034
879.588	12072
879.715	12060
879.842	12232
879.97	12155
880.097	11920
880.224	11855
880.351	11809
880.478	11836
880.605	11836
880.732	11783
880.859	11942
880.986	11790
881.112	11813
881.239	11737
881.366	11653
881.493	11581
881.619	11512
881.746	11623
881.872	11619
881.999	11501
882.125	11429
882.252	11490
882.378	11474
882.505	11535
882.631	11417
882.757	11201
882.883	11391
883.01	11189
883.136	11178
883.262	11117
883.388	11090
883.514	11174
883.64	11151
883.766	11113
883.892	11003
884.018	10991
884.143	11143
884.269	11140
884.395	10854
884.52	10809
884.646	10763
884.772	10668
884.897	10641
885.023	10645
885.148	10729
885.274	10805
885.399	10733
885.524	10664
885.65	10554
885.775	10615
885.9	10577
886.025	10626
886.15	10561
886.275	10497
886.4	10451
886.525	10367
886.65	10375
886.775	10356
886.9	10519
887.025	10428
887.149	10371
887.274	10185
887.399	10177
887.523	10215
887.648	10124
887.773	10120
887.897	10230
888.021	10227
888.146	10147
888.27	10299
888.395	10287
888.519	10185
888.643	10131
888.767	10246
888.891	10067
889.015	9987
889.139	10063
889.263	10055
889.387	10109
889.511	10044
889.635	10090
889.759	9934
889.883	9975
890.006	9991
890.13	10116
890.254	9918
890.377	9960
890.501	9953
890.624	9808
890.748	9930
890.871	9740
890.995	9686
891.118	9648
891.241	9740
891.364	9747
891.488	9755
891.611	9785
891.734	9781
891.857	9736
891.98	9622
892.103	9717
892.226	9701
892.349	9656
892.471	9538
892.594	9610
892.717	9584
892.839	9564
892.962	9595
893.085	9648
893.207	9534
893.33	9530
893.452	9485
893.575	9637
893.697	9534
893.819	9686
893.941	9610
894.064	9682
894.186	9389
894.308	9393
894.43	9523
894.552	9526
894.674	9576
894.796	9405
894.918	9393
895.04	9325
895.161	9359
895.283	9359
895.405	9203
895.526	9310
895.648	9253
895.769	9230
895.891	9279
896.012	9272
896.134	9207
896.255	9195
896.376	9176
896.498	9150
896.619	9138
896.74	9039
896.861	9089
896.982	9249
897.103	9386
897.224	9150
897.345	9032
897.466	9058
897.587	9043
897.708	9058
897.828	9013
897.949	8944
898.07	8830
898.19	8906
898.311	8952
898.431	8944
898.552	8937
898.672	8986
898.792	8975
898.913	8918
899.033	8758
899.153	8705
899.273	8625
899.393	8746
899.513	8712
899.633	8762
899.753	8762
899.873	8727
899.993	8682
900.113	8682
900.232	8731
900.352	8678
900.472	8678
900.591	8610
900.711	8602
900.83	8530
900.95	8716
901.069	8682
901.189	8537
901.308	8400
901.427	8366
901.546	8434
901.665	8450
901.784	8495
901.904	8393
902.023	8301
902.141	8271
902.26	8210
902.379	8324
902.498	8229
902.617	8225
902.735	8317
902.854	8286
902.973	8229
903.091	8168
903.21	8157
903.328	8176
903.446	8138
903.565	8081
903.683	8107
903.801	8073
903.919	8103
904.038	8111
904.156	8027
904.274	8069
904.392	8001
904.51	8084
904.627	8065
904.745	8054
904.863	8119
904.981	7925
905.098	7898
905.216	7849
905.334	7921
905.451	7887
905.569	7849
905.686	7887
905.803	7898
905.921	7734
906.038	7898
906.155	7734
906.272	7670
906.389	7738
906.506	7628
906.623	7662
906.74	7624
906.857	7468
906.974	7590
907.091	7700
907.208	7677
907.324	7655
907.441	7563
907.557	7476
907.674	7373
907.79	7441
907.907	7407
908.023	7388
908.139	7422
908.256	7377
908.372	7350
908.488	7305
908.604	7331
908.72	7236
908.836	7305
908.952	7187
909.068	7164
909.184	7263
909.3	7247
909.415	7228
909.531	7331
909.647	7080
909.762	7122
909.878	7095
909.993	7084
910.108	7050
910.224	7129
910.339	7099
910.454	7019
910.57	6966
910.685	6962
910.8	7168
910.915	7080
911.03	6996
911.145	6916
911.259	6913
911.374	6924
911.489	6856
911.604	6840
911.718	6760
911.833	6791
911.947	6654
912.062	6517
912.176	6749
912.291	6806
912.405	6700
912.519	6833
912.633	6810
912.748	6715
912.862	6707
912.976	6616
913.09	6544
913.204	6570
913.318	6639
913.431	6688
913.545	6620
913.659	6730
913.772	6696
913.886	6563
914	6566
914.113	6589
914.226	6684
914.34	6574
914.453	6448
914.566	6620
914.68	6521
914.793	6593
914.906	6445
915.019	6376
915.132	6403
915.245	6426
915.358	6483
915.47	6471
915.583	6422
915.696	6422
915.809	6528
915.921	6544
916.034	6407
916.146	6426
916.259	6410
916.371	6483
916.483	6445
916.595	6369
916.708	6414
916.82	6372
916.932	6369
917.044	6418
917.156	6384
917.268	6327
917.38	6334
917.491	6319
917.603	6350
917.715	6361
917.826	6414
917.938	6346
918.049	6254
918.161	6334
918.272	6410
918.384	6445
918.495	6308
918.606	6296
918.717	6220
918.828	6239
918.939	6270
919.05	6205
919.161	6254
919.272	6140
919.383	6167
919.494	6311
919.604	6414
919.715	6296
919.826	6190
919.936	6270
920.047	6342
920.157	6304
920.267	6456
920.378	6304
920.488	6327
920.598	6422
920.708	6563
920.818	6445
920.928	6441
921.038	6578
921.148	6536
921.258	6323
921.368	6251
921.477	6194
921.587	6129
921.697	6110
921.806	6224
921.916	6072
922.025	5942
922.134	5882
922.244	5885
922.353	5920
922.462	5882
922.571	5771
922.68	5680
922.789	5661
922.898	5699
923.007	5611
923.116	5668
923.224	5646
923.333	5649
923.442	5627
923.55	5562
923.659	5585
923.767	5646
923.876	5524
923.984	5608
924.092	5524
924.201	5516
924.309	5539
924.417	5547
924.525	5474
924.633	5543
924.741	6266
924.849	5357
924.956	5463
925.064	5387
925.172	5345
925.279	5265
925.387	5303
925.494	5311
925.602	5395
925.709	5357
925.816	5296
925.924	5318
926.031	5315
926.138	5299
926.245	5303
926.352	5216
926.459	5292
926.566	5330
926.673	5227
926.779	5102
926.886	5124
926.993	5064
927.099	5025
927.206	4995
927.312	4972
927.419	5041
927.525	4999
927.631	4938
927.737	4870
927.843	4862
927.95	4736
928.056	4812
928.162	4816
928.267	4866
928.373	5349
928.479	4843
928.585	4691
928.69	4725
928.796	4778
928.901	4691
929.007	4607
929.112	4641
929.218	4668
929.323	4622
929.428	4569
929.533	4721
929.638	4478
929.743	4523
929.848	4561
929.953	4535
930.058	4421
930.163	4348
930.267	4299
930.372	4466
930.477	4318
930.581	4493
930.685	4337
930.79	4242
930.894	4291
930.998	4219
931.103	4405
931.207	4097
931.311	4048
931.415	4048
931.519	3934
931.623	3930
