Data from glass_V78500241_1806.txt Node
Date: Wed Sep 01 19:27:01 CST 2021
User: usil
Spectrometer: V785-0024
Trigger mode: 0
Integration Time (sec): 4.000000E-1
Scans to average: 1
Nonlinearity correction enabled: false
Boxcar width: 0
Storing dark spectrum: false
XAxis mode: Wavelengths
Number of Pixels in Spectrum: 1024
>>>>>Begin Spectral Data<<<<<
801.071	3720
801.214	3736
801.356	3709
801.499	3793
801.641	3743
801.783	3759
801.926	3907
802.068	3812
802.211	3835
802.353	3907
802.496	3838
802.638	3873
802.78	3907
802.923	3918
803.065	3911
803.208	3838
803.35	3888
803.492	3953
803.635	3918
803.777	3865
803.919	3949
804.061	4177
804.204	3953
804.346	3953
804.488	3899
804.63	4025
804.773	4006
804.915	4017
805.057	4139
805.199	4044
805.341	4131
805.483	4112
805.626	4154
805.768	4154
805.91	4211
806.052	4192
806.194	4219
806.336	4341
806.478	4223
806.62	4169
806.762	4200
806.904	4230
807.046	4348
807.188	4177
807.33	4185
807.472	4227
807.614	4200
807.756	4207
807.898	4192
808.04	4219
808.182	4318
808.324	4333
808.465	4371
808.607	4443
808.749	4466
808.891	4394
809.033	4523
809.174	4405
809.316	4280
809.458	4230
809.6	4139
809.741	4166
809.883	4169
810.025	4154
810.166	4188
810.308	4196
810.45	4200
810.591	4284
810.733	4227
810.875	4531
811.016	4862
811.158	5124
811.299	5318
811.441	5269
811.582	5052
811.724	4748
811.865	4470
812.007	4466
812.148	4428
812.29	4386
812.431	4386
812.573	4424
812.714	4352
812.855	4398
812.997	4436
813.138	4459
813.279	4443
813.421	4367
813.562	4394
813.703	4310
813.845	4337
813.986	4284
814.127	4188
814.268	4257
814.41	4257
814.551	4276
814.692	4329
814.833	4265
814.974	4322
815.115	4322
815.256	4291
815.397	4219
815.539	4242
815.68	4181
815.821	4253
815.962	4314
816.103	4287
816.244	4215
816.385	4238
816.526	4272
816.666	4207
816.807	4131
816.948	4177
817.089	4162
817.23	4128
817.371	4078
817.512	4002
817.653	4017
817.793	4006
817.934	4074
818.075	4128
818.216	4071
818.356	4086
818.497	3994
818.638	3918
818.778	3884
818.919	3907
819.06	3857
819.2	3960
819.341	3846
819.481	3857
819.622	3892
819.762	3945
819.903	3960
820.043	3823
820.184	3804
820.324	3827
820.465	3880
820.605	3812
820.746	3884
820.886	3789
821.026	3934
821.167	3911
821.307	3930
821.447	3972
821.588	3975
821.728	3930
821.868	3922
822.008	3854
822.149	3869
822.289	3899
822.429	3751
822.569	3804
822.709	3781
822.849	3671
822.99	3751
823.13	3785
823.27	3762
823.41	3686
823.55	3743
823.69	3713
823.83	3671
823.97	3671
824.11	3606
824.25	3622
824.389	3667
824.529	3701
824.669	3610
824.809	3713
824.949	3797
825.089	3717
825.228	3679
825.368	3580
825.508	3572
825.648	3557
825.787	3622
825.927	3625
826.067	3606
826.206	3679
826.346	3766
826.485	3797
826.625	3831
826.765	3949
826.904	3827
827.044	3595
827.183	3530
827.323	3462
827.462	3466
827.601	3450
827.741	3393
827.88	3447
828.02	3397
828.159	3420
828.298	3488
828.437	3496
828.577	3477
828.716	3584
828.855	3473
828.994	3363
829.134	3382
829.273	3367
829.412	3321
829.551	3329
829.69	3367
829.829	3428
829.968	3485
830.107	3466
830.246	3431
830.385	3374
830.524	3332
830.663	3264
830.802	3260
830.941	3233
831.08	3211
831.219	3279
831.357	3237
831.496	3412
831.635	3207
831.774	3230
831.913	3256
832.051	3100
832.19	3154
832.329	3218
832.467	3169
832.606	3116
832.744	3161
832.883	3184
833.022	3226
833.16	3245
833.299	3279
833.437	3344
833.576	3344
833.714	3420
833.852	3378
833.991	3420
834.129	3450
834.267	3447
834.406	3401
834.544	3439
834.682	3420
834.821	3428
834.959	3549
835.097	3412
835.235	3515
835.373	3488
835.511	3526
835.65	3431
835.788	3492
835.926	3378
836.064	3363
836.202	3363
836.34	3534
836.478	3599
836.615	3530
836.753	3629
836.891	3633
837.029	3625
837.167	3564
837.305	3584
837.443	3530
837.58	3496
837.718	3584
837.856	3553
837.993	3553
838.131	3606
838.269	3568
838.406	3614
838.544	3568
838.681	3454
838.819	3443
838.956	3370
839.094	3420
839.231	3412
839.369	3542
839.506	3736
839.643	3614
839.781	3447
839.918	3481
840.055	3523
840.193	3542
840.33	3500
840.467	3545
840.604	3606
840.742	3846
840.879	3576
841.016	3576
841.153	3603
841.29	3728
841.427	3694
841.564	3709
841.701	3740
841.838	3709
841.975	3679
842.112	3747
842.249	3644
842.385	3648
842.522	3808
842.659	3663
842.796	3686
842.933	3717
843.069	3698
843.206	3717
843.343	3838
843.479	3789
843.616	3850
843.752	3690
843.889	3743
844.025	3835
844.162	3705
844.298	3819
844.435	3762
844.571	3789
844.708	3888
844.844	4002
844.98	4021
845.117	4002
845.253	3930
845.389	3888
845.525	3941
845.661	3922
845.798	3911
845.934	4002
846.07	3922
846.206	4010
846.342	4124
846.478	4074
846.614	3937
846.75	3930
846.886	3911
847.022	4059
847.158	3945
847.294	4040
847.429	4017
847.565	3972
847.701	4211
847.837	3903
847.972	3869
848.108	3998
848.244	3956
848.379	3850
848.515	3800
848.65	3838
848.786	3861
848.921	3896
849.057	3926
849.192	3926
849.328	3956
849.463	3876
849.598	3896
849.734	3850
849.869	3835
850.004	3770
850.14	3861
850.275	3747
850.41	3766
850.545	3778
850.68	3770
850.815	3823
850.95	3804
851.085	3922
851.22	3892
851.355	3861
851.49	3770
851.625	3842
851.76	3766
851.895	3717
852.03	3743
852.165	3774
852.299	3823
852.434	3899
852.569	3831
852.703	3854
852.838	3918
852.973	4002
853.107	3991
853.242	3915
853.376	3857
853.511	3759
853.645	3800
853.78	3964
853.914	3876
854.048	3869
854.183	3915
854.317	4013
854.451	4055
854.585	3941
854.72	3949
854.854	4032
854.988	3941
855.122	4059
855.256	3918
855.39	4010
855.524	4124
855.658	4071
855.792	4059
855.926	4116
856.06	4120
856.194	4192
856.327	4192
856.461	4143
856.595	4143
856.729	4173
856.862	4272
856.996	4257
857.13	4291
857.263	4314
857.397	4367
857.53	4249
857.664	4337
857.797	4375
857.931	4379
858.064	4371
858.197	4447
858.331	4417
858.464	4394
858.597	4367
858.731	4409
858.864	4402
858.997	4485
859.13	4516
859.263	4527
859.396	4615
859.529	4535
859.662	4493
859.795	4542
859.928	4618
860.061	4698
860.194	4675
860.327	4694
860.46	4611
860.592	4710
860.725	4714
860.858	4767
860.99	4717
861.123	4706
861.256	4702
861.388	4786
861.521	5444
861.653	4725
861.786	4748
861.918	4763
862.05	4801
862.183	4839
862.315	4850
862.447	4961
862.58	4824
862.712	4801
862.844	4809
862.976	4904
863.108	4835
863.24	5254
863.372	4839
863.504	4923
863.636	4957
863.768	4984
863.9	4934
864.032	4934
864.164	4957
864.296	5090
864.428	5060
864.559	5113
864.691	5098
864.823	5102
864.954	5105
865.086	5132
865.217	5094
865.349	5090
865.48	5162
865.612	5261
865.743	5258
865.875	5193
866.006	5166
866.137	5261
866.269	5212
866.4	5246
866.531	5227
866.662	5231
866.793	5261
866.924	5315
867.055	5387
867.186	5334
867.317	5303
867.448	5326
867.579	5372
867.71	5372
867.841	5376
867.972	5440
868.103	5493
868.233	5478
868.364	5543
868.495	5509
868.625	5745
868.756	5832
868.886	5661
869.017	5729
869.147	5847
869.278	5901
869.408	5821
869.539	5783
869.669	5920
869.799	5882
869.929	6015
870.06	5988
870.19	6159
870.32	6182
870.45	6289
870.58	6372
870.71	6441
870.84	6467
870.97	6441
871.1	6464
871.23	6642
871.36	6700
871.489	6627
871.619	6818
871.749	6863
871.879	6863
872.008	6973
872.138	6905
872.267	6993
872.397	7027
872.526	7031
872.656	7065
872.785	7251
872.915	7346
873.044	7457
873.173	7563
873.303	7685
873.432	7830
873.561	7909
873.69	7906
873.819	7967
873.948	8115
874.077	8240
874.206	8351
874.335	8480
874.464	8663
874.593	8868
874.722	8990
874.851	9104
874.979	9211
875.108	9408
875.237	9431
875.365	9462
875.494	9633
875.623	9804
875.751	9873
875.88	9991
876.008	10135
876.136	10284
876.265	10500
876.393	10675
876.521	10679
876.65	10824
876.778	10908
876.906	10915
877.034	10938
877.162	11170
877.29	11121
877.418	11269
877.546	11364
877.674	11463
877.802	11486
877.93	11532
878.058	11596
878.185	11512
878.313	11668
878.441	11737
878.568	11726
878.696	11771
878.824	11802
878.951	12034
879.079	11999
879.206	12121
879.333	12087
879.461	11923
879.588	12060
879.715	12041
879.842	12205
879.97	12057
880.097	11904
880.224	11927
880.351	11786
880.478	12007
880.605	11851
880.732	11813
880.859	11961
880.986	11695
881.112	11866
881.239	11726
881.366	11691
881.493	11551
881.619	11581
881.746	11619
881.872	11543
881.999	11581
882.125	11417
882.252	11566
882.378	11452
882.505	11596
882.631	11307
882.757	11337
882.883	11417
883.01	11223
883.136	11174
883.262	11140
883.388	11045
883.514	11159
883.64	11079
883.766	11128
883.892	11029
884.018	10972
884.143	11086
884.269	11037
884.395	10892
884.52	10816
884.646	10771
884.772	10679
884.897	10569
885.023	10660
885.148	10691
885.274	10843
885.399	10687
885.524	10569
885.65	10641
885.775	10634
885.9	10603
886.025	10573
886.15	10523
886.275	10493
886.4	10451
886.525	10371
886.65	10356
886.775	10352
886.9	10443
887.025	10554
887.149	10375
887.274	10188
887.399	10120
887.523	10124
887.648	10158
887.773	10143
887.897	10253
888.021	10173
888.146	10169
888.27	10192
888.395	10211
888.519	10162
888.643	10181
888.767	10219
888.891	10109
889.015	10013
889.139	10086
889.263	10002
889.387	10116
889.511	10097
889.635	10051
889.759	9998
889.883	9994
890.006	9949
890.13	10063
890.254	9983
890.377	9899
890.501	9930
890.624	9838
890.748	9922
890.871	9846
890.995	9633
891.118	9743
891.241	9751
891.364	9732
891.488	9838
891.611	9793
891.734	9724
891.857	9766
891.98	9663
892.103	9698
892.226	9671
892.349	9629
892.471	9553
892.594	9523
892.717	9690
892.839	9595
892.962	9603
893.085	9648
893.207	9504
893.33	9473
893.452	9466
893.575	9603
893.697	9542
893.819	9595
893.941	9625
894.064	9606
894.186	9477
894.308	9428
894.43	9526
894.552	9564
894.674	9420
894.796	9363
894.918	9428
895.04	9294
895.161	9340
895.283	9302
895.405	9260
895.526	9268
895.648	9291
895.769	9264
895.891	9241
896.012	9272
896.134	9298
896.255	9138
896.376	9176
896.498	9066
896.619	9157
896.74	9070
896.861	9138
896.982	9344
897.103	9321
897.224	9161
897.345	9062
897.466	9066
897.587	9005
897.708	9100
897.828	9036
897.949	8944
898.07	8819
898.19	8944
898.311	8971
898.431	8845
898.552	8982
898.672	9032
898.792	8948
898.913	8979
899.033	8754
899.153	8811
899.273	8674
899.393	8754
899.513	8792
899.633	8766
899.753	8636
899.873	8731
899.993	8826
900.113	8670
900.232	8693
900.352	8678
900.472	8598
900.591	8579
900.711	8625
900.83	8575
900.95	8640
901.069	8667
901.189	8556
901.308	8476
901.427	8393
901.546	8412
901.665	8499
901.784	8511
901.904	8313
902.023	8374
902.141	8248
902.26	8214
902.379	8320
902.498	8168
902.617	8221
902.735	8343
902.854	8286
902.973	8290
903.091	8084
903.21	8180
903.328	8157
903.446	8115
903.565	8077
903.683	8092
903.801	8035
903.919	8065
904.038	8039
904.156	8008
904.274	8062
904.392	7989
904.51	8039
904.627	8035
904.745	8035
904.863	8123
904.981	7868
905.098	7841
905.216	7879
905.334	7913
905.451	7894
905.569	7909
905.686	7932
905.803	7879
905.921	7837
906.038	7921
906.155	7734
906.272	7772
906.389	7636
906.506	7658
906.623	7655
906.74	7666
906.857	7578
906.974	7616
907.091	7685
907.208	7677
907.324	7731
907.441	7590
907.557	7422
907.674	7460
907.79	7441
907.907	7411
908.023	7453
908.139	7438
908.256	7381
908.372	7388
908.488	7354
908.604	7255
908.72	7259
908.836	7270
908.952	7209
909.068	7270
909.184	7285
909.3	7266
909.415	7259
909.531	7358
909.647	7156
909.762	7114
909.878	7080
909.993	7107
910.108	7088
910.224	7091
910.339	7129
910.454	7053
910.57	7000
910.685	6935
910.8	7149
910.915	7061
911.03	7027
911.145	6913
911.259	6875
911.374	6894
911.489	6738
911.604	6852
911.718	6696
911.833	6783
911.947	6681
912.062	6620
912.176	6646
912.291	6703
912.405	6760
912.519	6818
912.633	6810
912.748	6738
912.862	6688
912.976	6521
913.09	6513
913.204	6570
913.318	6627
913.431	6631
913.545	6703
913.659	6734
913.772	6608
913.886	6578
914	6532
914.113	6627
914.226	6597
914.34	6521
914.453	6471
914.566	6623
914.68	6494
914.793	6517
914.906	6388
915.019	6384
915.132	6300
915.245	6403
915.358	6441
915.47	6486
915.583	6441
915.696	6486
915.809	6532
915.921	6582
916.034	6407
916.146	6414
916.259	6353
916.371	6486
916.483	6403
916.595	6334
916.708	6380
916.82	6429
916.932	6369
917.044	6395
917.156	6391
917.268	6315
917.38	6353
917.491	6304
917.603	6346
917.715	6384
917.826	6452
917.938	6357
918.049	6281
918.161	6334
918.272	6433
918.384	6460
918.495	6391
918.606	6247
918.717	6224
918.828	6300
918.939	6273
919.05	6224
919.161	6273
919.272	6144
919.383	6159
919.494	6300
919.604	6426
919.715	6304
919.826	6133
919.936	6209
920.047	6350
920.157	6277
920.267	6513
920.378	6319
920.488	6258
920.598	6437
920.708	6582
920.818	6502
920.928	6464
921.038	6612
921.148	6589
921.258	6311
921.368	6311
921.477	6209
921.587	6216
921.697	6079
921.806	6194
921.916	6057
922.025	5969
922.134	5897
922.244	5923
922.353	5961
922.462	5809
922.571	5771
922.68	5668
922.789	5619
922.898	5718
923.007	5596
923.116	5710
923.224	5676
923.333	5649
923.442	5627
923.55	5630
923.659	5585
923.767	5627
923.876	5551
923.984	5592
924.092	5505
924.201	5630
924.309	5592
924.417	5554
924.525	5516
924.633	5467
924.741	6235
924.849	5398
924.956	5486
925.064	5395
925.172	5307
925.279	5303
925.387	5337
925.494	5337
925.602	5452
925.709	5379
925.816	5277
925.924	5269
926.031	5383
926.138	5254
926.245	5326
926.352	5185
926.459	5349
926.566	5353
926.673	5174
926.779	5155
926.886	5105
926.993	5025
927.099	5006
927.206	4949
927.312	4927
927.419	5052
927.525	4991
927.631	4949
927.737	4900
927.843	4873
927.95	4740
928.056	4820
928.162	4839
928.267	4862
928.373	5349
928.479	4816
928.585	4721
928.69	4771
928.796	4733
928.901	4683
929.007	4599
929.112	4683
929.218	4615
929.323	4588
929.428	4516
929.533	4672
929.638	4474
929.743	4531
929.848	4561
929.953	4500
930.058	4485
930.163	4299
930.267	4333
930.372	4413
930.477	4268
930.581	4516
930.685	4360
930.79	4230
930.894	4299
930.998	4249
931.103	4363
931.207	4093
931.311	4090
931.415	4010
931.519	3941
931.623	3918
