Data from glass_V78500241_2408.txt Node
Date: Wed Sep 01 19:31:11 CST 2021
User: usil
Spectrometer: V785-0024
Trigger mode: 0
Integration Time (sec): 4.000000E-1
Scans to average: 1
Nonlinearity correction enabled: false
Boxcar width: 0
Storing dark spectrum: false
XAxis mode: Wavelengths
Number of Pixels in Spectrum: 1024
>>>>>Begin Spectral Data<<<<<
801.071	3728
801.214	3759
801.356	3705
801.499	3698
801.641	3713
801.783	3762
801.926	3865
802.068	3808
802.211	3873
802.353	3842
802.496	3846
802.638	3846
802.78	3888
802.923	3937
803.065	3888
803.208	3823
803.35	3873
803.492	3915
803.635	3911
803.777	3797
803.919	3911
804.061	4131
804.204	3937
804.346	3934
804.488	3941
804.63	4071
804.773	3964
804.915	4044
805.057	4116
805.199	4086
805.341	4124
805.483	4086
805.626	4124
805.768	4105
805.91	4219
806.052	4227
806.194	4230
806.336	4322
806.478	4177
806.62	4177
806.762	4223
806.904	4192
807.046	4363
807.188	4162
807.33	4200
807.472	4268
807.614	4169
807.756	4238
807.898	4234
808.04	4223
808.182	4268
808.324	4314
808.465	4344
808.607	4424
808.749	4447
808.891	4375
809.033	4459
809.174	4360
809.316	4223
809.458	4253
809.6	4143
809.741	4154
809.883	4196
810.025	4173
810.166	4200
810.308	4173
810.45	4200
810.591	4219
810.733	4223
810.875	4500
811.016	4831
811.158	5105
811.299	5220
811.441	5261
811.582	5048
811.724	4710
811.865	4508
812.007	4478
812.148	4394
812.29	4428
812.431	4398
812.573	4436
812.714	4352
812.855	4409
812.997	4421
813.138	4497
813.279	4379
813.421	4405
813.562	4356
813.703	4348
813.845	4379
813.986	4261
814.127	4200
814.268	4265
814.41	4299
814.551	4246
814.692	4318
814.833	4238
814.974	4337
815.115	4333
815.256	4234
815.397	4257
815.539	4223
815.68	4200
815.821	4192
815.962	4348
816.103	4276
816.244	4192
816.385	4234
816.526	4276
816.666	4204
816.807	4067
816.948	4169
817.089	4162
817.23	4074
817.371	4063
817.512	4055
817.653	4036
817.793	4013
817.934	4086
818.075	4055
818.216	4071
818.356	4082
818.497	3998
818.638	3941
818.778	3892
818.919	3876
819.06	3850
819.2	3899
819.341	3831
819.481	3785
819.622	3869
819.762	3953
819.903	3945
820.043	3865
820.184	3823
820.324	3785
820.465	3880
820.605	3835
820.746	3838
820.886	3781
821.026	3861
821.167	3892
821.307	3956
821.447	3953
821.588	3937
821.728	3930
821.868	3907
822.008	3880
822.149	3907
822.289	3899
822.429	3766
822.569	3789
822.709	3766
822.849	3701
822.99	3751
823.13	3732
823.27	3789
823.41	3682
823.55	3736
823.69	3717
823.83	3724
823.97	3637
824.11	3580
824.25	3603
824.389	3633
824.529	3671
824.669	3614
824.809	3724
824.949	3728
825.089	3732
825.228	3698
825.368	3572
825.508	3568
825.648	3542
825.787	3603
825.927	3648
826.067	3629
826.206	3663
826.346	3740
826.485	3781
826.625	3823
826.765	3945
826.904	3823
827.044	3629
827.183	3538
827.323	3405
827.462	3466
827.601	3447
827.741	3401
827.88	3462
828.02	3389
828.159	3439
828.298	3485
828.437	3523
828.577	3439
828.716	3587
828.855	3500
828.994	3382
829.134	3393
829.273	3393
829.412	3340
829.551	3321
829.69	3370
829.829	3435
829.968	3496
830.107	3447
830.246	3439
830.385	3393
830.524	3313
830.663	3313
830.802	3241
830.941	3176
831.08	3173
831.219	3291
831.357	3226
831.496	3389
831.635	3230
831.774	3211
831.913	3176
832.051	3112
832.19	3138
832.329	3226
832.467	3146
832.606	3104
832.744	3146
832.883	3199
833.022	3180
833.16	3241
833.299	3325
833.437	3348
833.576	3348
833.714	3416
833.852	3431
833.991	3458
834.129	3466
834.267	3450
834.406	3386
834.544	3374
834.682	3389
834.821	3420
834.959	3534
835.097	3409
835.235	3504
835.373	3443
835.511	3530
835.65	3443
835.788	3443
835.926	3397
836.064	3393
836.202	3435
836.34	3576
836.478	3584
836.615	3538
836.753	3568
836.891	3656
837.029	3564
837.167	3572
837.305	3549
837.443	3553
837.58	3477
837.718	3587
837.856	3557
837.993	3496
838.131	3549
838.269	3561
838.406	3603
838.544	3568
838.681	3504
838.819	3416
838.956	3405
839.094	3363
839.231	3443
839.369	3485
839.506	3701
839.643	3618
839.781	3511
839.918	3450
840.055	3519
840.193	3523
840.33	3504
840.467	3557
840.604	3576
840.742	3766
840.879	3523
841.016	3523
841.153	3568
841.29	3740
841.427	3724
841.564	3717
841.701	3755
841.838	3675
841.975	3648
842.112	3698
842.249	3629
842.385	3580
842.522	3804
842.659	3671
842.796	3648
842.933	3701
843.069	3705
843.206	3682
843.343	3838
843.479	3789
843.616	3812
843.752	3660
843.889	3656
844.025	3838
844.162	3713
844.298	3850
844.435	3766
844.571	3770
844.708	3899
844.844	3972
844.98	4036
845.117	3979
845.253	3911
845.389	3876
845.525	3918
845.661	3968
845.798	3934
845.934	3983
846.07	3998
846.206	4032
846.342	4105
846.478	4017
846.614	3998
846.75	3915
846.886	3918
847.022	4044
847.158	3968
847.294	4044
847.429	4036
847.565	3937
847.701	4280
847.837	3861
847.972	3857
848.108	3968
848.244	3979
848.379	3846
848.515	3812
848.65	3819
848.786	3797
848.921	3842
849.057	3888
849.192	3964
849.328	3857
849.463	3922
849.598	3896
849.734	3865
849.869	3781
850.004	3781
850.14	3800
850.275	3800
850.41	3709
850.545	3690
850.68	3789
850.815	3785
850.95	3789
851.085	3907
851.22	3827
851.355	3808
851.49	3774
851.625	3827
851.76	3797
851.895	3751
852.03	3728
852.165	3797
852.299	3861
852.434	3934
852.569	3812
852.703	3846
852.838	3907
852.973	4048
853.107	3960
853.242	3903
853.376	3857
853.511	3762
853.645	3819
853.78	3903
853.914	3861
854.048	3884
854.183	3869
854.317	3903
854.451	4032
854.585	3926
854.72	3941
854.854	4074
854.988	3915
855.122	3991
855.256	3899
855.39	4036
855.524	4120
855.658	4086
855.792	4109
855.926	4097
856.06	4109
856.194	4181
856.327	4120
856.461	4120
856.595	4147
856.729	4150
856.862	4242
856.996	4230
857.13	4284
857.263	4291
857.397	4348
857.53	4272
857.664	4344
857.797	4363
857.931	4405
858.064	4386
858.197	4485
858.331	4417
858.464	4344
858.597	4360
858.731	4402
858.864	4459
858.997	4466
859.13	4538
859.263	4519
859.396	4584
859.529	4512
859.662	4538
859.795	4493
859.928	4588
860.061	4691
860.194	4733
860.327	4641
860.46	4615
860.592	4740
860.725	4755
860.858	4759
860.99	4679
861.123	4649
861.256	4717
861.388	4771
861.521	5535
861.653	4706
861.786	4683
861.918	4755
862.05	4828
862.183	4850
862.315	4870
862.447	4942
862.58	4900
862.712	4778
862.844	4755
862.976	4820
863.108	4870
863.24	5189
863.372	4858
863.504	4904
863.636	4877
863.768	4908
863.9	4968
864.032	4915
864.164	4934
864.296	4976
864.428	5052
864.559	5064
864.691	5090
864.823	5140
864.954	5083
865.086	5124
865.217	5094
865.349	5132
865.48	5174
865.612	5147
865.743	5273
865.875	5147
866.006	5132
866.137	5185
866.269	5246
866.4	5288
866.531	5261
866.662	5181
866.793	5299
866.924	5280
867.055	5288
867.186	5296
867.317	5288
867.448	5303
867.579	5395
867.71	5395
867.841	5406
867.972	5493
868.103	5425
868.233	5459
868.364	5478
868.495	5493
868.625	5646
868.756	5802
868.886	5703
869.017	5726
869.147	5844
869.278	5840
869.408	5828
869.539	5805
869.669	5866
869.799	5859
869.929	5965
870.06	5996
870.19	6247
870.32	6201
870.45	6239
870.58	6319
870.71	6410
870.84	6448
870.97	6414
871.1	6414
871.23	6597
871.36	6692
871.489	6639
871.619	6734
871.749	6768
871.879	6878
872.008	6916
872.138	6909
872.267	7008
872.397	6962
872.526	7046
872.656	7084
872.785	7190
872.915	7384
873.044	7525
873.173	7514
873.303	7609
873.432	7750
873.561	7833
873.69	7967
873.819	7940
873.948	8195
874.077	8240
874.206	8336
874.335	8419
874.464	8686
874.593	8864
874.722	8952
874.851	9135
874.979	9211
875.108	9332
875.237	9348
875.365	9447
875.494	9679
875.623	9819
875.751	9869
875.88	9941
876.008	10166
876.136	10207
876.265	10474
876.393	10698
876.521	10679
876.65	10801
876.778	10892
876.906	10915
877.034	10980
877.162	11094
877.29	11170
877.418	11406
877.546	11372
877.674	11433
877.802	11372
877.93	11532
878.058	11486
878.185	11547
878.313	11653
878.441	11775
878.568	11630
878.696	11813
878.824	11859
878.951	11946
879.079	11969
879.206	12114
879.333	11996
879.461	11988
879.588	12083
879.715	11988
879.842	12163
879.97	12087
880.097	11863
880.224	11828
880.351	11847
880.478	11882
880.605	11813
880.732	11863
880.859	12003
880.986	11752
881.112	11821
881.239	11726
881.366	11653
881.493	11668
881.619	11520
881.746	11558
881.872	11520
881.999	11554
882.125	11455
882.252	11566
882.378	11478
882.505	11493
882.631	11406
882.757	11269
882.883	11322
883.01	11296
883.136	11208
883.262	11071
883.388	11006
883.514	11166
883.64	11090
883.766	11136
883.892	10991
884.018	10995
884.143	10980
884.269	11083
884.395	10824
884.52	10828
884.646	10843
884.772	10710
884.897	10637
885.023	10592
885.148	10710
885.274	10675
885.399	10774
885.524	10702
885.65	10542
885.775	10519
885.9	10664
886.025	10660
886.15	10558
886.275	10470
886.4	10367
886.525	10310
886.65	10382
886.775	10367
886.9	10428
887.025	10550
887.149	10261
887.274	10223
887.399	10177
887.523	10185
887.648	10154
887.773	10090
887.897	10166
888.021	10204
888.146	10120
888.27	10200
888.395	10185
888.519	10200
888.643	10215
888.767	10230
888.891	10036
889.015	10010
889.139	10013
889.263	9979
889.387	10017
889.511	10093
889.635	9987
889.759	9964
889.883	9903
890.006	9998
890.13	10090
890.254	9953
890.377	10029
890.501	9823
890.624	9865
890.748	9869
890.871	9766
890.995	9671
891.118	9747
891.241	9778
891.364	9842
891.488	9873
891.611	9675
891.734	9751
891.857	9766
891.98	9686
892.103	9755
892.226	9603
892.349	9667
892.471	9492
892.594	9534
892.717	9587
892.839	9530
892.962	9603
893.085	9660
893.207	9564
893.33	9557
893.452	9523
893.575	9572
893.697	9515
893.819	9549
893.941	9625
894.064	9538
894.186	9450
894.308	9397
894.43	9485
894.552	9572
894.674	9545
894.796	9317
894.918	9359
895.04	9374
895.161	9378
895.283	9256
895.405	9264
895.526	9317
895.648	9214
895.769	9203
895.891	9317
896.012	9321
896.134	9195
896.255	9184
896.376	9116
896.498	9089
896.619	9036
896.74	9009
896.861	9055
896.982	9298
897.103	9302
897.224	9154
897.345	9070
897.466	8967
897.587	8994
897.708	9077
897.828	9051
897.949	8849
898.07	8864
898.19	8857
898.311	8963
898.431	8899
898.552	8906
898.672	8982
898.792	8986
898.913	8914
899.033	8800
899.153	8769
899.273	8663
899.393	8777
899.513	8648
899.633	8686
899.753	8750
899.873	8678
899.993	8720
900.113	8731
900.232	8689
900.352	8625
900.472	8606
900.591	8549
900.711	8625
900.83	8518
900.95	8598
901.069	8640
901.189	8511
901.308	8393
901.427	8366
901.546	8404
901.665	8381
901.784	8465
901.904	8366
902.023	8298
902.141	8206
902.26	8237
902.379	8225
902.498	8210
902.617	8187
902.735	8282
902.854	8256
902.973	8237
903.091	8138
903.21	8001
903.328	8119
903.446	8111
903.565	8027
903.683	8103
903.801	8077
903.919	8088
904.038	8081
904.156	8043
904.274	8084
904.392	8077
904.51	8054
904.627	8005
904.745	8130
904.863	8069
904.981	7898
905.098	7849
905.216	7849
905.334	7849
905.451	7902
905.569	7894
905.686	7898
905.803	7887
905.921	7780
906.038	7833
906.155	7769
906.272	7704
906.389	7712
906.506	7594
906.623	7647
906.74	7575
906.857	7506
906.974	7533
907.091	7662
907.208	7651
907.324	7578
907.441	7502
907.557	7426
907.674	7411
907.79	7362
907.907	7445
908.023	7388
908.139	7411
908.256	7331
908.372	7297
908.488	7331
908.604	7282
908.72	7228
908.836	7255
908.952	7247
909.068	7221
909.184	7259
909.3	7259
909.415	7217
909.531	7285
909.647	7103
909.762	7099
909.878	7065
909.993	7114
910.108	7057
910.224	6985
910.339	7042
910.454	7046
910.57	7008
910.685	7008
910.8	7099
910.915	7076
911.03	7042
911.145	6932
911.259	6867
911.374	6840
911.489	6821
911.604	6821
911.718	6776
911.833	6749
911.947	6635
912.062	6582
912.176	6608
912.291	6703
912.405	6654
912.519	6768
912.633	6878
912.748	6715
912.862	6703
912.976	6601
913.09	6574
913.204	6578
913.318	6627
913.431	6696
913.545	6711
913.659	6745
913.772	6669
913.886	6585
914	6490
914.113	6662
914.226	6631
914.34	6608
914.453	6528
914.566	6631
914.68	6551
914.793	6448
914.906	6437
915.019	6422
915.132	6372
915.245	6441
915.358	6445
915.47	6410
915.583	6418
915.696	6506
915.809	6460
915.921	6509
916.034	6388
916.146	6407
916.259	6372
916.371	6410
916.483	6460
916.595	6410
916.708	6410
916.82	6376
916.932	6319
917.044	6433
917.156	6395
917.268	6292
917.38	6319
917.491	6235
917.603	6319
917.715	6365
917.826	6422
917.938	6388
918.049	6289
918.161	6353
918.272	6429
918.384	6410
918.495	6331
918.606	6228
918.717	6194
918.828	6281
918.939	6289
919.05	6194
919.161	6175
919.272	6102
919.383	6125
919.494	6262
919.604	6369
919.715	6258
919.826	6220
919.936	6292
920.047	6270
920.157	6228
920.267	6426
920.378	6319
920.488	6292
920.598	6479
920.708	6509
920.818	6418
920.928	6422
921.038	6585
921.148	6608
921.258	6357
921.368	6247
921.477	6175
921.587	6110
921.697	6060
921.806	6136
921.916	6079
922.025	5920
922.134	5916
922.244	5882
922.353	5950
922.462	5832
922.571	5813
922.68	5680
922.789	5688
922.898	5668
923.007	5570
923.116	5718
923.224	5710
923.333	5684
923.442	5649
923.55	5573
923.659	5543
923.767	5608
923.876	5528
923.984	5604
924.092	5455
924.201	5535
924.309	5539
924.417	5512
924.525	5459
924.633	5486
924.741	6224
924.849	5334
924.956	5471
925.064	5387
925.172	5307
925.279	5311
925.387	5326
925.494	5341
925.602	5402
925.709	5379
925.816	5288
925.924	5322
926.031	5349
926.138	5277
926.245	5322
926.352	5208
926.459	5315
926.566	5299
926.673	5162
926.779	5128
926.886	5060
926.993	5048
927.099	4972
927.206	5037
927.312	4881
927.419	4987
927.525	4957
927.631	5018
927.737	4900
927.843	4831
927.95	4729
928.056	4805
928.162	4790
928.267	4858
928.373	5284
928.479	4847
928.585	4672
928.69	4740
928.796	4733
928.901	4668
929.007	4599
929.112	4679
929.218	4634
929.323	4577
929.428	4588
929.533	4660
929.638	4485
929.743	4538
929.848	4523
929.953	4519
930.058	4413
930.163	4318
930.267	4341
930.372	4417
930.477	4257
930.581	4455
930.685	4337
930.79	4257
930.894	4246
930.998	4242
931.103	4360
931.207	4150
931.311	4040
931.415	4059
931.519	3899
931.623	3907
