Data from glass_V78500241_522.txt Node
Date: Wed Sep 01 19:18:07 CST 2021
User: usil
Spectrometer: V785-0024
Trigger mode: 0
Integration Time (sec): 4.000000E-1
Scans to average: 1
Nonlinearity correction enabled: false
Boxcar width: 0
Storing dark spectrum: false
XAxis mode: Wavelengths
Number of Pixels in Spectrum: 1024
>>>>>Begin Spectral Data<<<<<
801.071	3743
801.214	3774
801.356	3682
801.499	3781
801.641	3732
801.783	3800
801.926	3857
802.068	3838
802.211	3899
802.353	3941
802.496	3861
802.638	3865
802.78	3911
802.923	3945
803.065	3945
803.208	3892
803.35	3899
803.492	3869
803.635	3930
803.777	3888
803.919	3956
804.061	4150
804.204	3994
804.346	3926
804.488	3945
804.63	4044
804.773	3949
804.915	4055
805.057	4158
805.199	4055
805.341	4082
805.483	4196
805.626	4131
805.768	4162
805.91	4219
806.052	4249
806.194	4253
806.336	4363
806.478	4207
806.62	4150
806.762	4219
806.904	4276
807.046	4337
807.188	4215
807.33	4200
807.472	4253
807.614	4211
807.756	4329
807.898	4188
808.04	4230
808.182	4318
808.324	4371
808.465	4383
808.607	4440
808.749	4481
808.891	4500
809.033	4500
809.174	4367
809.316	4295
809.458	4295
809.6	4158
809.741	4154
809.883	4154
810.025	4234
810.166	4188
810.308	4242
810.45	4261
810.591	4268
810.733	4291
810.875	4512
811.016	4786
811.158	5132
811.299	5280
811.441	5322
811.582	5075
811.724	4698
811.865	4470
812.007	4466
812.148	4489
812.29	4447
812.431	4428
812.573	4405
812.714	4421
812.855	4417
812.997	4405
813.138	4508
813.279	4447
813.421	4405
813.562	4375
813.703	4325
813.845	4341
813.986	4215
814.127	4207
814.268	4287
814.41	4325
814.551	4253
814.692	4383
814.833	4280
814.974	4314
815.115	4386
815.256	4227
815.397	4246
815.539	4257
815.68	4227
815.821	4196
815.962	4287
816.103	4299
816.244	4227
816.385	4242
816.526	4280
816.666	4211
816.807	4116
816.948	4196
817.089	4211
817.23	4128
817.371	4105
817.512	4063
817.653	4082
817.793	4048
817.934	4051
818.075	4112
818.216	4131
818.356	4120
818.497	4006
818.638	3918
818.778	3911
818.919	3899
819.06	3915
819.2	3899
819.341	3812
819.481	3827
819.622	3903
819.762	4055
819.903	3941
820.043	3854
820.184	3808
820.324	3861
820.465	3930
820.605	3907
820.746	3888
820.886	3827
821.026	3987
821.167	3922
821.307	3907
821.447	4006
821.588	3972
821.728	3956
821.868	3964
822.008	3907
822.149	3907
822.289	3937
822.429	3819
822.569	3747
822.709	3804
822.849	3671
822.99	3736
823.13	3743
823.27	3797
823.41	3755
823.55	3743
823.69	3690
823.83	3755
823.97	3656
824.11	3633
824.25	3629
824.389	3622
824.529	3637
824.669	3671
824.809	3732
824.949	3774
825.089	3740
825.228	3698
825.368	3599
825.508	3564
825.648	3595
825.787	3633
825.927	3641
826.067	3629
826.206	3709
826.346	3781
826.485	3850
826.625	3884
826.765	3983
826.904	3869
827.044	3667
827.183	3523
827.323	3466
827.462	3492
827.601	3507
827.741	3458
827.88	3481
828.02	3370
828.159	3454
828.298	3473
828.437	3564
828.577	3492
828.716	3610
828.855	3488
828.994	3386
829.134	3370
829.273	3397
829.412	3378
829.551	3374
829.69	3370
829.829	3412
829.968	3530
830.107	3477
830.246	3500
830.385	3367
830.524	3367
830.663	3332
830.802	3268
830.941	3230
831.08	3188
831.219	3291
831.357	3291
831.496	3424
831.635	3256
831.774	3230
831.913	3192
832.051	3135
832.19	3161
832.329	3275
832.467	3157
832.606	3097
832.744	3169
832.883	3192
833.022	3207
833.16	3279
833.299	3306
833.437	3317
833.576	3389
833.714	3462
833.852	3428
833.991	3435
834.129	3466
834.267	3424
834.406	3401
834.544	3458
834.682	3401
834.821	3382
834.959	3603
835.097	3488
835.235	3606
835.373	3511
835.511	3492
835.65	3462
835.788	3511
835.926	3424
836.064	3382
836.202	3428
836.34	3545
836.478	3644
836.615	3584
836.753	3637
836.891	3675
837.029	3576
837.167	3603
837.305	3564
837.443	3545
837.58	3507
837.718	3576
837.856	3523
837.993	3576
838.131	3610
838.269	3603
838.406	3572
838.544	3622
838.681	3511
838.819	3496
838.956	3389
839.094	3409
839.231	3477
839.369	3481
839.506	3774
839.643	3656
839.781	3504
839.918	3481
840.055	3538
840.193	3538
840.33	3542
840.467	3618
840.604	3580
840.742	3861
840.879	3519
841.016	3587
841.153	3584
841.29	3713
841.427	3740
841.564	3770
841.701	3793
841.838	3720
841.975	3698
842.112	3732
842.249	3637
842.385	3584
842.522	3816
842.659	3686
842.796	3652
842.933	3740
843.069	3698
843.206	3679
843.343	3835
843.479	3804
843.616	3842
843.752	3660
843.889	3736
844.025	3876
844.162	3728
844.298	3892
844.435	3823
844.571	3785
844.708	3934
844.844	3998
844.98	4040
845.117	4013
845.253	3941
845.389	3934
845.525	3968
845.661	3987
845.798	3941
845.934	4032
846.07	3953
846.206	4021
846.342	4120
846.478	4063
846.614	3998
846.75	3960
846.886	3915
847.022	4071
847.158	3987
847.294	3998
847.429	4071
847.565	4044
847.701	4234
847.837	3949
847.972	3857
848.108	4013
848.244	3949
848.379	3869
848.515	3797
848.65	3812
848.786	3850
848.921	3876
849.057	3930
849.192	3979
849.328	3922
849.463	3949
849.598	3854
849.734	3884
849.869	3804
850.004	3835
850.14	3857
850.275	3816
850.41	3713
850.545	3781
850.68	3831
850.815	3770
850.95	3819
851.085	3918
851.22	3854
851.355	3816
851.49	3808
851.625	3774
851.76	3774
851.895	3732
852.03	3736
852.165	3831
852.299	3838
852.434	3899
852.569	3880
852.703	3869
852.838	3930
852.973	4021
853.107	4055
853.242	3922
853.376	3888
853.511	3762
853.645	3816
853.78	3964
853.914	3888
854.048	3911
854.183	3873
854.317	3991
854.451	4078
854.585	3941
854.72	4013
854.854	4063
854.988	3911
855.122	4029
855.256	3949
855.39	4036
855.524	4124
855.658	4112
855.792	4162
855.926	4181
856.06	4185
856.194	4230
856.327	4169
856.461	4135
856.595	4162
856.729	4177
856.862	4341
856.996	4261
857.13	4306
857.263	4306
857.397	4375
857.53	4246
857.664	4337
857.797	4409
857.931	4413
858.064	4386
858.197	4443
858.331	4360
858.464	4462
858.597	4333
858.731	4421
858.864	4447
858.997	4447
859.13	4500
859.263	4542
859.396	4607
859.529	4577
859.662	4573
859.795	4550
859.928	4622
860.061	4721
860.194	4752
860.327	4634
860.46	4660
860.592	4778
860.725	4767
860.858	4793
860.99	4717
861.123	4698
861.256	4675
861.388	4782
861.521	5520
861.653	4694
861.786	4706
861.918	4740
862.05	4805
862.183	4843
862.315	4873
862.447	4911
862.58	4900
862.712	4850
862.844	4767
862.976	4847
863.108	4877
863.24	5212
863.372	4873
863.504	4900
863.636	4930
863.768	4976
863.9	4984
864.032	4957
864.164	4961
864.296	5060
864.428	5109
864.559	5140
864.691	5162
864.823	5151
864.954	5128
865.086	5178
865.217	5117
865.349	5151
865.48	5239
865.612	5231
865.743	5239
865.875	5212
866.006	5166
866.137	5261
866.269	5235
866.4	5315
866.531	5242
866.662	5231
866.793	5277
866.924	5299
867.055	5330
867.186	5387
867.317	5341
867.448	5269
867.579	5440
867.71	5387
867.841	5417
867.972	5436
868.103	5535
868.233	5524
868.364	5509
868.495	5516
868.625	5661
868.756	5779
868.886	5642
869.017	5756
869.147	5866
869.278	5855
869.408	5832
869.539	5866
869.669	5904
869.799	5946
869.929	6007
870.06	5969
870.19	6182
870.32	6251
870.45	6300
870.58	6334
870.71	6506
870.84	6418
870.97	6509
871.1	6399
871.23	6658
871.36	6734
871.489	6692
871.619	6707
871.749	6802
871.879	6856
872.008	6966
872.138	6977
872.267	6993
872.397	6973
872.526	6981
872.656	7069
872.785	7183
872.915	7384
873.044	7556
873.173	7521
873.303	7647
873.432	7689
873.561	7887
873.69	7913
873.819	7970
873.948	8142
874.077	8282
874.206	8309
874.335	8400
874.464	8625
874.593	8918
874.722	8963
874.851	9157
874.979	9287
875.108	9317
875.237	9420
875.365	9530
875.494	9705
875.623	9857
875.751	9876
875.88	9975
876.008	10097
876.136	10344
876.265	10500
876.393	10660
876.521	10706
876.65	10828
876.778	10881
876.906	10972
877.034	10957
877.162	11045
877.29	11231
877.418	11242
877.546	11299
877.674	11387
877.802	11425
877.93	11497
878.058	11600
878.185	11581
878.313	11634
878.441	11760
878.568	11657
878.696	11836
878.824	11889
878.951	11961
879.079	12053
879.206	12209
879.333	12064
879.461	11999
879.588	12068
879.715	12053
879.842	12270
879.97	12083
880.097	11920
880.224	11840
880.351	11958
880.478	11980
880.605	11836
880.732	11893
880.859	11939
880.986	11828
881.112	11855
881.239	11775
881.366	11657
881.493	11608
881.619	11528
881.746	11585
881.872	11516
881.999	11539
882.125	11467
882.252	11562
882.378	11509
882.505	11482
882.631	11376
882.757	11345
882.883	11311
883.01	11288
883.136	11254
883.262	11105
883.388	11090
883.514	11185
883.64	11181
883.766	11067
883.892	10896
884.018	10953
884.143	10987
884.269	11121
884.395	10847
884.52	10755
884.646	10850
884.772	10649
884.897	10626
885.023	10675
885.148	10843
885.274	10778
885.399	10664
885.524	10523
885.65	10592
885.775	10573
885.9	10470
886.025	10664
886.15	10443
886.275	10493
886.4	10500
886.525	10451
886.65	10363
886.775	10295
886.9	10421
887.025	10516
887.149	10299
887.274	10204
887.399	10215
887.523	10158
887.648	10101
887.773	10124
887.897	10265
888.021	10196
888.146	10177
888.27	10238
888.395	10253
888.519	10219
888.643	10207
888.767	10169
888.891	10071
889.015	10051
889.139	10071
889.263	10044
889.387	10097
889.511	10097
889.635	10112
889.759	10017
889.883	10002
890.006	10029
890.13	10090
890.254	9994
890.377	10013
890.501	9934
890.624	9918
890.748	9960
890.871	9778
890.995	9781
891.118	9743
891.241	9747
891.364	9705
891.488	9816
891.611	9740
891.734	9690
891.857	9838
891.98	9686
892.103	9835
892.226	9823
892.349	9633
892.471	9641
892.594	9652
892.717	9622
892.839	9545
892.962	9606
893.085	9690
893.207	9564
893.33	9549
893.452	9492
893.575	9580
893.697	9534
893.819	9618
893.941	9591
894.064	9591
894.186	9496
894.308	9405
894.43	9526
894.552	9610
894.674	9564
894.796	9389
894.918	9500
895.04	9317
895.161	9458
895.283	9336
895.405	9275
895.526	9363
895.648	9222
895.769	9298
895.891	9241
896.012	9310
896.134	9321
896.255	9195
896.376	9077
896.498	9173
896.619	9119
896.74	9077
896.861	9116
896.982	9302
897.103	9340
897.224	9142
897.345	9085
897.466	9055
897.587	9066
897.708	9100
897.828	9039
897.949	8956
898.07	8864
898.19	8937
898.311	9058
898.431	8925
898.552	8925
898.672	8944
898.792	8998
898.913	8944
899.033	8857
899.153	8712
899.273	8674
899.393	8674
899.513	8731
899.633	8708
899.753	8705
899.873	8689
899.993	8800
900.113	8804
900.232	8800
900.352	8689
900.472	8613
900.591	8518
900.711	8587
900.83	8587
900.95	8689
901.069	8724
901.189	8610
901.308	8415
901.427	8381
901.546	8454
901.665	8461
901.784	8465
901.904	8400
902.023	8389
902.141	8248
902.26	8259
902.379	8286
902.498	8199
902.617	8240
902.735	8370
902.854	8256
902.973	8164
903.091	8073
903.21	8096
903.328	8145
903.446	8100
903.565	8043
903.683	8088
903.801	8065
903.919	8073
904.038	8103
904.156	8027
904.274	8092
904.392	8008
904.51	8050
904.627	8035
904.745	8043
904.863	8180
904.981	7906
905.098	7928
905.216	7925
905.334	7879
905.451	7833
905.569	7864
905.686	7894
905.803	7986
905.921	7807
906.038	7898
906.155	7803
906.272	7715
906.389	7727
906.506	7636
906.623	7655
906.74	7689
906.857	7556
906.974	7594
907.091	7647
907.208	7772
907.324	7643
907.441	7590
907.557	7438
907.674	7487
907.79	7381
907.907	7419
908.023	7434
908.139	7430
908.256	7381
908.372	7403
908.488	7354
908.604	7259
908.72	7228
908.836	7285
908.952	7289
909.068	7301
909.184	7358
909.3	7190
909.415	7270
909.531	7297
909.647	7122
909.762	7133
909.878	7179
909.993	7171
910.108	7065
910.224	7031
910.339	7084
910.454	7027
910.57	7069
910.685	6954
910.8	7156
910.915	7213
911.03	7027
911.145	6993
911.259	6894
911.374	6916
911.489	6840
911.604	6920
911.718	6711
911.833	6757
911.947	6677
912.062	6563
912.176	6684
912.291	6703
912.405	6779
912.519	6810
912.633	6787
912.748	6741
912.862	6741
912.976	6585
913.09	6563
913.204	6635
913.318	6574
913.431	6692
913.545	6711
913.659	6646
913.772	6684
913.886	6540
914	6601
914.113	6620
914.226	6658
914.34	6612
914.453	6528
914.566	6642
914.68	6528
914.793	6513
914.906	6448
915.019	6384
915.132	6429
915.245	6452
915.358	6509
915.47	6437
915.583	6498
915.696	6513
915.809	6547
915.921	6536
916.034	6433
916.146	6418
916.259	6407
916.371	6502
916.483	6441
916.595	6433
916.708	6410
916.82	6464
916.932	6365
917.044	6464
917.156	6422
917.268	6270
917.38	6346
917.491	6285
917.603	6338
917.715	6384
917.826	6437
917.938	6369
918.049	6205
918.161	6353
918.272	6490
918.384	6399
918.495	6311
918.606	6258
918.717	6247
918.828	6281
918.939	6319
919.05	6167
919.161	6239
919.272	6152
919.383	6167
919.494	6311
919.604	6388
919.715	6289
919.826	6197
919.936	6251
920.047	6273
920.157	6266
920.267	6395
920.378	6376
920.488	6224
920.598	6521
920.708	6563
920.818	6479
920.928	6448
921.038	6620
921.148	6593
921.258	6319
921.368	6296
921.477	6201
921.587	6171
921.697	6102
921.806	6186
921.916	6140
922.025	5942
922.134	5912
922.244	5870
922.353	5977
922.462	5828
922.571	5840
922.68	5710
922.789	5668
922.898	5733
923.007	5649
923.116	5718
923.224	5672
923.333	5691
923.442	5585
923.55	5551
923.659	5638
923.767	5627
923.876	5554
923.984	5608
924.092	5558
924.201	5509
924.309	5551
924.417	5596
924.525	5490
924.633	5497
924.741	6289
924.849	5379
924.956	5490
925.064	5360
925.172	5307
925.279	5284
925.387	5395
925.494	5341
925.602	5440
925.709	5402
925.816	5307
925.924	5311
926.031	5368
926.138	5307
926.245	5364
926.352	5258
926.459	5307
926.566	5311
926.673	5231
926.779	5124
926.886	5174
926.993	5079
927.099	4976
927.206	5045
927.312	4972
927.419	5048
927.525	4991
927.631	5071
927.737	4911
927.843	4831
927.95	4797
928.056	4824
928.162	4835
928.267	4843
928.373	5280
928.479	4877
928.585	4672
928.69	4774
928.796	4744
928.901	4691
929.007	4618
929.112	4649
929.218	4664
929.323	4592
929.428	4626
929.533	4683
929.638	4500
929.743	4527
929.848	4546
929.953	4577
930.058	4447
930.163	4348
930.267	4356
930.372	4413
930.477	4295
930.581	4531
930.685	4383
930.79	4272
930.894	4322
930.998	4246
931.103	4455
931.207	4131
931.311	4059
931.415	3983
931.519	3949
931.623	3994
