Data from glass_V78500241_1700.txt Node
Date: Wed Sep 01 19:26:17 CST 2021
User: usil
Spectrometer: V785-0024
Trigger mode: 0
Integration Time (sec): 4.000000E-1
Scans to average: 1
Nonlinearity correction enabled: false
Boxcar width: 0
Storing dark spectrum: false
XAxis mode: Wavelengths
Number of Pixels in Spectrum: 1024
>>>>>Begin Spectral Data<<<<<
801.071	3713
801.214	3736
801.356	3720
801.499	3724
801.641	3778
801.783	3800
801.926	3888
802.068	3819
802.211	3854
802.353	3892
802.496	3827
802.638	3937
802.78	3903
802.923	3915
803.065	3876
803.208	3873
803.35	3896
803.492	3922
803.635	3857
803.777	3816
803.919	3888
804.061	4139
804.204	3953
804.346	3953
804.488	3876
804.63	4090
804.773	3945
804.915	4010
805.057	4147
805.199	4013
805.341	4105
805.483	4177
805.626	4105
805.768	4143
805.91	4204
806.052	4219
806.194	4109
806.336	4356
806.478	4207
806.62	4135
806.762	4162
806.904	4234
807.046	4291
807.188	4200
807.33	4166
807.472	4257
807.614	4185
807.756	4291
807.898	4215
808.04	4230
808.182	4265
808.324	4306
808.465	4394
808.607	4455
808.749	4451
808.891	4459
809.033	4440
809.174	4413
809.316	4314
809.458	4219
809.6	4147
809.741	4154
809.883	4154
810.025	4219
810.166	4188
810.308	4207
810.45	4284
810.591	4204
810.733	4265
810.875	4512
811.016	4801
811.158	5113
811.299	5265
811.441	5269
811.582	5098
811.724	4675
811.865	4512
812.007	4447
812.148	4440
812.29	4428
812.431	4375
812.573	4413
812.714	4325
812.855	4421
812.997	4462
813.138	4516
813.279	4440
813.421	4394
813.562	4390
813.703	4337
813.845	4337
813.986	4207
814.127	4234
814.268	4257
814.41	4306
814.551	4215
814.692	4356
814.833	4238
814.974	4265
815.115	4329
815.256	4253
815.397	4261
815.539	4295
815.68	4185
815.821	4257
815.962	4329
816.103	4295
816.244	4223
816.385	4234
816.526	4337
816.666	4211
816.807	4116
816.948	4169
817.089	4200
817.23	4109
817.371	4048
817.512	4063
817.653	4021
817.793	4010
817.934	4040
818.075	4044
818.216	4078
818.356	4105
818.497	4013
818.638	3930
818.778	3884
818.919	3842
819.06	3869
819.2	3892
819.341	3884
819.481	3804
819.622	3945
819.762	4017
819.903	3949
820.043	3869
820.184	3797
820.324	3850
820.465	3857
820.605	3861
820.746	3857
820.886	3800
821.026	3964
821.167	3899
821.307	3983
821.447	3956
821.588	3918
821.728	3930
821.868	4006
822.008	3892
822.149	3922
822.289	3896
822.429	3785
822.569	3762
822.709	3816
822.849	3675
822.99	3751
823.13	3743
823.27	3751
823.41	3743
823.55	3743
823.69	3705
823.83	3724
823.97	3698
824.11	3633
824.25	3564
824.389	3603
824.529	3679
824.669	3667
824.809	3717
824.949	3740
825.089	3766
825.228	3701
825.368	3580
825.508	3545
825.648	3576
825.787	3644
825.927	3644
826.067	3629
826.206	3686
826.346	3751
826.485	3842
826.625	3865
826.765	3953
826.904	3831
827.044	3656
827.183	3538
827.323	3393
827.462	3473
827.601	3454
827.741	3367
827.88	3447
828.02	3370
828.159	3469
828.298	3469
828.437	3591
828.577	3500
828.716	3633
828.855	3488
828.994	3329
829.134	3355
829.273	3370
829.412	3351
829.551	3340
829.69	3363
829.829	3431
829.968	3504
830.107	3469
830.246	3450
830.385	3378
830.524	3393
830.663	3310
830.802	3260
830.941	3211
831.08	3211
831.219	3260
831.357	3268
831.496	3367
831.635	3256
831.774	3226
831.913	3203
832.051	3123
832.19	3157
832.329	3253
832.467	3116
832.606	3131
832.744	3211
832.883	3150
833.022	3165
833.16	3279
833.299	3332
833.437	3329
833.576	3351
833.714	3409
833.852	3428
833.991	3409
834.129	3500
834.267	3458
834.406	3424
834.544	3397
834.682	3386
834.821	3409
834.959	3557
835.097	3409
835.235	3507
835.373	3488
835.511	3519
835.65	3458
835.788	3492
835.926	3317
836.064	3348
836.202	3409
836.34	3549
836.478	3633
836.615	3523
836.753	3599
836.891	3641
837.029	3595
837.167	3557
837.305	3557
837.443	3564
837.58	3488
837.718	3610
837.856	3591
837.993	3542
838.131	3587
838.269	3591
838.406	3553
838.544	3542
838.681	3447
838.819	3496
838.956	3412
839.094	3370
839.231	3431
839.369	3511
839.506	3713
839.643	3644
839.781	3492
839.918	3435
840.055	3526
840.193	3534
840.33	3545
840.467	3545
840.604	3580
840.742	3808
840.879	3538
841.016	3553
841.153	3610
841.29	3762
841.427	3732
841.564	3740
841.701	3751
841.838	3656
841.975	3656
842.112	3724
842.249	3660
842.385	3618
842.522	3838
842.659	3694
842.796	3686
842.933	3701
843.069	3705
843.206	3660
843.343	3755
843.479	3747
843.616	3770
843.752	3694
843.889	3705
844.025	3865
844.162	3652
844.298	3892
844.435	3743
844.571	3812
844.708	3918
844.844	3964
844.98	4017
845.117	4021
845.253	3888
845.389	3903
845.525	3953
845.661	3937
845.798	3884
845.934	3998
846.07	3975
846.206	4006
846.342	4177
846.478	4055
846.614	3941
846.75	3930
846.886	3930
847.022	4063
847.158	3968
847.294	4036
847.429	4002
847.565	3998
847.701	4249
847.837	3827
847.972	3850
848.108	3998
848.244	3979
848.379	3888
848.515	3831
848.65	3823
848.786	3850
848.921	3823
849.057	3888
849.192	3987
849.328	3968
849.463	3949
849.598	3873
849.734	3869
849.869	3823
850.004	3755
850.14	3793
850.275	3808
850.41	3778
850.545	3720
850.68	3774
850.815	3797
850.95	3759
851.085	3899
851.22	3819
851.355	3854
851.49	3759
851.625	3781
851.76	3778
851.895	3717
852.03	3759
852.165	3778
852.299	3861
852.434	3945
852.569	3857
852.703	3884
852.838	3918
852.973	3972
853.107	3949
853.242	3892
853.376	3850
853.511	3804
853.645	3831
853.78	3960
853.914	3884
854.048	3873
854.183	3903
854.317	3953
854.451	4090
854.585	3953
854.72	3926
854.854	4044
854.988	3968
855.122	3987
855.256	3873
855.39	3979
855.524	4097
855.658	4105
855.792	4124
855.926	4131
856.06	4131
856.194	4223
856.327	4177
856.461	4139
856.595	4124
856.729	4147
856.862	4242
856.996	4253
857.13	4276
857.263	4310
857.397	4344
857.53	4291
857.664	4394
857.797	4421
857.931	4447
858.064	4417
858.197	4466
858.331	4405
858.464	4356
858.597	4352
858.731	4493
858.864	4481
858.997	4417
859.13	4493
859.263	4504
859.396	4565
859.529	4558
859.662	4550
859.795	4478
859.928	4615
860.061	4714
860.194	4744
860.327	4672
860.46	4649
860.592	4721
860.725	4759
860.858	4733
860.99	4702
861.123	4664
861.256	4740
861.388	4805
861.521	5463
861.653	4714
861.786	4717
861.918	4778
862.05	4824
862.183	4870
862.315	4942
862.447	4953
862.58	4885
862.712	4755
862.844	4774
862.976	4900
863.108	4881
863.24	5250
863.372	4870
863.504	4957
863.636	4873
863.768	4930
863.9	4934
864.032	4930
864.164	4889
864.296	5052
864.428	5075
864.559	5109
864.691	5140
864.823	5140
864.954	5162
865.086	5124
865.217	5136
865.349	5098
865.48	5166
865.612	5170
865.743	5337
865.875	5166
866.006	5201
866.137	5273
866.269	5277
866.4	5277
866.531	5246
866.662	5254
866.793	5212
866.924	5265
867.055	5326
867.186	5269
867.317	5341
867.448	5330
867.579	5334
867.71	5383
867.841	5379
867.972	5482
868.103	5501
868.233	5474
868.364	5486
868.495	5585
868.625	5630
868.756	5798
868.886	5699
869.017	5695
869.147	5828
869.278	5897
869.408	5851
869.539	5824
869.669	5954
869.799	5935
869.929	6030
870.06	5992
870.19	6163
870.32	6209
870.45	6251
870.58	6414
870.71	6403
870.84	6502
870.97	6422
871.1	6407
871.23	6650
871.36	6722
871.489	6715
871.619	6722
871.749	6833
871.879	6867
872.008	6943
872.138	6935
872.267	6977
872.397	7008
872.526	7042
872.656	7084
872.785	7240
872.915	7369
873.044	7533
873.173	7468
873.303	7639
873.432	7753
873.561	7902
873.69	7909
873.819	7963
873.948	8259
874.077	8240
874.206	8393
874.335	8454
874.464	8636
874.593	8864
874.722	8899
874.851	9184
874.979	9165
875.108	9325
875.237	9496
875.365	9458
875.494	9637
875.623	9876
875.751	9819
875.88	10013
876.008	10166
876.136	10318
876.265	10504
876.393	10714
876.521	10679
876.65	10858
876.778	10942
876.906	10896
877.034	10968
877.162	11056
877.29	11250
877.418	11269
877.546	11364
877.674	11455
877.802	11558
877.93	11501
878.058	11554
878.185	11566
878.313	11642
878.441	11691
878.568	11657
878.696	11863
878.824	11874
878.951	11980
879.079	11965
879.206	12041
879.333	12030
879.461	11916
879.588	12087
879.715	12038
879.842	12159
879.97	12117
880.097	11840
880.224	11855
880.351	11847
880.478	11885
880.605	11809
880.732	11786
880.859	11999
880.986	11809
881.112	11843
881.239	11722
881.366	11627
881.493	11627
881.619	11554
881.746	11592
881.872	11520
881.999	11608
882.125	11577
882.252	11543
882.378	11570
882.505	11554
882.631	11341
882.757	11360
882.883	11353
883.01	11292
883.136	11178
883.262	11143
883.388	11113
883.514	11242
883.64	11185
883.766	11090
883.892	10976
884.018	10999
884.143	11060
884.269	11159
884.395	10805
884.52	10694
884.646	10850
884.772	10698
884.897	10721
885.023	10710
885.148	10755
885.274	10831
885.399	10645
885.524	10607
885.65	10565
885.775	10584
885.9	10561
886.025	10588
886.15	10561
886.275	10466
886.4	10382
886.525	10459
886.65	10314
886.775	10268
886.9	10478
887.025	10523
887.149	10333
887.274	10150
887.399	10177
887.523	10181
887.648	10200
887.773	10147
887.897	10268
888.021	10181
888.146	10036
888.27	10306
888.395	10169
888.519	10169
888.643	10249
888.767	10143
888.891	10029
889.015	10017
889.139	10059
889.263	9934
889.387	10082
889.511	10215
889.635	9998
889.759	10002
889.883	10006
890.006	10051
890.13	10071
890.254	9964
890.377	10029
890.501	9755
890.624	9857
890.748	9831
890.871	9804
890.995	9698
891.118	9713
891.241	9838
891.364	9751
891.488	9770
891.611	9842
891.734	9736
891.857	9762
891.98	9667
892.103	9720
892.226	9701
892.349	9656
892.471	9523
892.594	9606
892.717	9686
892.839	9603
892.962	9637
893.085	9644
893.207	9587
893.33	9507
893.452	9545
893.575	9568
893.697	9435
893.819	9584
893.941	9652
894.064	9675
894.186	9443
894.308	9363
894.43	9580
894.552	9587
894.674	9435
894.796	9317
894.918	9359
895.04	9370
895.161	9306
895.283	9420
895.405	9260
895.526	9230
895.648	9214
895.769	9211
895.891	9233
896.012	9211
896.134	9241
896.255	9195
896.376	9104
896.498	9055
896.619	9119
896.74	9116
896.861	9131
896.982	9245
897.103	9291
897.224	9226
897.345	9154
897.466	8982
897.587	8982
897.708	9055
897.828	9055
897.949	8941
898.07	8853
898.19	8845
898.311	9043
898.431	8914
898.552	8857
898.672	8921
898.792	9001
898.913	8880
899.033	8880
899.153	8724
899.273	8636
899.393	8735
899.513	8689
899.633	8716
899.753	8754
899.873	8663
899.993	8807
900.113	8788
900.232	8735
900.352	8701
900.472	8678
900.591	8579
900.711	8556
900.83	8571
900.95	8651
901.069	8762
901.189	8587
901.308	8469
901.427	8377
901.546	8431
901.665	8518
901.784	8499
901.904	8404
902.023	8324
902.141	8267
902.26	8271
902.379	8290
902.498	8218
902.617	8282
902.735	8294
902.854	8351
902.973	8248
903.091	8153
903.21	8092
903.328	8168
903.446	8046
903.565	8111
903.683	8153
903.801	8115
903.919	8130
904.038	8103
904.156	8043
904.274	8081
904.392	8027
904.51	8035
904.627	8069
904.745	8153
904.863	8069
904.981	7970
905.098	7871
905.216	7890
905.334	7909
905.451	7890
905.569	7792
905.686	7909
905.803	7871
905.921	7788
906.038	7925
906.155	7818
906.272	7624
906.389	7738
906.506	7636
906.623	7681
906.74	7605
906.857	7483
906.974	7613
907.091	7689
907.208	7704
907.324	7670
907.441	7597
907.557	7430
907.674	7426
907.79	7384
907.907	7426
908.023	7468
908.139	7419
908.256	7407
908.372	7384
908.488	7430
908.604	7282
908.72	7228
908.836	7247
908.952	7247
909.068	7266
909.184	7354
909.3	7301
909.415	7297
909.531	7240
909.647	7057
909.762	7129
909.878	7114
909.993	7175
910.108	7129
910.224	7065
910.339	7095
910.454	7031
910.57	6985
910.685	6909
910.8	7129
910.915	7137
911.03	6966
911.145	6890
911.259	6924
911.374	6867
911.489	6875
911.604	6863
911.718	6719
911.833	6776
911.947	6681
912.062	6654
912.176	6677
912.291	6726
912.405	6753
912.519	6814
912.633	6821
912.748	6760
912.862	6722
912.976	6623
913.09	6551
913.204	6506
913.318	6578
913.431	6658
913.545	6669
913.659	6722
913.772	6696
913.886	6578
914	6551
914.113	6612
914.226	6604
914.34	6563
914.453	6547
914.566	6616
914.68	6547
914.793	6513
914.906	6437
915.019	6380
915.132	6334
915.245	6429
915.358	6471
915.47	6395
915.583	6471
915.696	6433
915.809	6525
915.921	6506
916.034	6410
916.146	6369
916.259	6361
916.371	6494
916.483	6456
916.595	6426
916.708	6448
916.82	6433
916.932	6361
917.044	6437
917.156	6361
917.268	6346
917.38	6304
917.491	6311
917.603	6292
917.715	6422
917.826	6391
917.938	6342
918.049	6220
918.161	6353
918.272	6369
918.384	6437
918.495	6315
918.606	6251
918.717	6182
918.828	6273
918.939	6289
919.05	6228
919.161	6270
919.272	6072
919.383	6152
919.494	6319
919.604	6448
919.715	6232
919.826	6194
919.936	6289
920.047	6323
920.157	6270
920.267	6441
920.378	6346
920.488	6239
920.598	6471
920.708	6547
920.818	6429
920.928	6479
921.038	6635
921.148	6547
921.258	6346
921.368	6270
921.477	6201
921.587	6159
921.697	6095
921.806	6190
921.916	6079
922.025	5916
922.134	5904
922.244	5927
922.353	5927
922.462	5840
922.571	5805
922.68	5653
922.789	5676
922.898	5668
923.007	5638
923.116	5672
923.224	5665
923.333	5653
923.442	5604
923.55	5577
923.659	5573
923.767	5661
923.876	5570
923.984	5573
924.092	5585
924.201	5532
924.309	5554
924.417	5562
924.525	5467
924.633	5505
924.741	6285
924.849	5383
924.956	5448
925.064	5402
925.172	5273
925.279	5379
925.387	5379
925.494	5307
925.602	5417
925.709	5410
925.816	5269
925.924	5326
926.031	5349
926.138	5258
926.245	5322
926.352	5231
926.459	5337
926.566	5292
926.673	5174
926.779	5174
926.886	5098
926.993	5045
927.099	4995
927.206	4942
927.312	4980
927.419	5029
927.525	4984
927.631	5018
927.737	4877
927.843	4839
927.95	4752
928.056	4828
928.162	4831
928.267	4790
928.373	5349
928.479	4858
928.585	4687
928.69	4771
928.796	4744
928.901	4634
929.007	4603
929.112	4683
929.218	4554
929.323	4603
929.428	4588
929.533	4649
929.638	4455
929.743	4527
929.848	4523
929.953	4558
930.058	4443
930.163	4272
930.267	4322
930.372	4451
930.477	4310
930.581	4497
930.685	4333
930.79	4280
930.894	4246
930.998	4219
931.103	4352
931.207	4158
931.311	4097
931.415	4029
931.519	3918
931.623	3968
