Data from glass_V78500241_2733.txt Node
Date: Wed Sep 01 19:33:26 CST 2021
User: usil
Spectrometer: V785-0024
Trigger mode: 0
Integration Time (sec): 4.000000E-1
Scans to average: 1
Nonlinearity correction enabled: false
Boxcar width: 0
Storing dark spectrum: false
XAxis mode: Wavelengths
Number of Pixels in Spectrum: 1024
>>>>>Begin Spectral Data<<<<<
801.071	3679
801.214	3724
801.356	3686
801.499	3705
801.641	3701
801.783	3766
801.926	3861
802.068	3781
802.211	3869
802.353	3861
802.496	3838
802.638	3846
802.78	3888
802.923	3934
803.065	3888
803.208	3827
803.35	3861
803.492	3884
803.635	3896
803.777	3778
803.919	3903
804.061	4139
804.204	3956
804.346	3911
804.488	3838
804.63	3991
804.773	3960
804.915	3991
805.057	4131
805.199	4082
805.341	4074
805.483	4150
805.626	4128
805.768	4109
805.91	4223
806.052	4223
806.194	4147
806.336	4325
806.478	4230
806.62	4143
806.762	4192
806.904	4272
807.046	4314
807.188	4192
807.33	4147
807.472	4234
807.614	4116
807.756	4253
807.898	4169
808.04	4181
808.182	4230
808.324	4314
808.465	4413
808.607	4489
808.749	4379
808.891	4489
809.033	4478
809.174	4390
809.316	4295
809.458	4234
809.6	4131
809.741	4154
809.883	4147
810.025	4169
810.166	4230
810.308	4181
810.45	4223
810.591	4200
810.733	4299
810.875	4500
811.016	4809
811.158	5083
811.299	5216
811.441	5277
811.582	5003
811.724	4717
811.865	4504
812.007	4443
812.148	4390
812.29	4443
812.431	4394
812.573	4375
812.714	4325
812.855	4341
812.997	4341
813.138	4497
813.279	4421
813.421	4383
813.562	4333
813.703	4318
813.845	4363
813.986	4265
814.127	4211
814.268	4227
814.41	4287
814.551	4223
814.692	4337
814.833	4268
814.974	4284
815.115	4333
815.256	4223
815.397	4211
815.539	4227
815.68	4200
815.821	4238
815.962	4272
816.103	4268
816.244	4234
816.385	4173
816.526	4272
816.666	4207
816.807	4112
816.948	4211
817.089	4188
817.23	4131
817.371	4040
817.512	4040
817.653	4029
817.793	3987
817.934	3987
818.075	4097
818.216	4086
818.356	4025
818.497	3991
818.638	3911
818.778	3911
818.919	3831
819.06	3896
819.2	3899
819.341	3835
819.481	3865
819.622	3907
819.762	4048
819.903	3911
820.043	3804
820.184	3800
820.324	3823
820.465	3842
820.605	3865
820.746	3854
820.886	3781
821.026	3922
821.167	3922
821.307	3934
821.447	3964
821.588	3964
821.728	3896
821.868	3934
822.008	3861
822.149	3888
822.289	3903
822.429	3766
822.569	3736
822.709	3751
822.849	3698
822.99	3713
823.13	3751
823.27	3759
823.41	3694
823.55	3679
823.69	3675
823.83	3686
823.97	3694
824.11	3603
824.25	3568
824.389	3622
824.529	3675
824.669	3637
824.809	3705
824.949	3743
825.089	3747
825.228	3713
825.368	3545
825.508	3511
825.648	3534
825.787	3545
825.927	3610
826.067	3606
826.206	3675
826.346	3732
826.485	3823
826.625	3812
826.765	3949
826.904	3774
827.044	3580
827.183	3523
827.323	3401
827.462	3477
827.601	3428
827.741	3409
827.88	3416
828.02	3325
828.159	3439
828.298	3439
828.437	3515
828.577	3412
828.716	3591
828.855	3488
828.994	3348
829.134	3351
829.273	3363
829.412	3306
829.551	3302
829.69	3329
829.829	3435
829.968	3511
830.107	3435
830.246	3435
830.385	3374
830.524	3367
830.663	3268
830.802	3241
830.941	3203
831.08	3173
831.219	3272
831.357	3230
831.496	3397
831.635	3233
831.774	3192
831.913	3165
832.051	3131
832.19	3154
832.329	3192
832.467	3104
832.606	3104
832.744	3165
832.883	3169
833.022	3214
833.16	3245
833.299	3287
833.437	3325
833.576	3344
833.714	3405
833.852	3416
833.991	3439
834.129	3435
834.267	3450
834.406	3370
834.544	3458
834.682	3405
834.821	3420
834.959	3576
835.097	3401
835.235	3526
835.373	3466
835.511	3469
835.65	3443
835.788	3454
835.926	3393
836.064	3397
836.202	3382
836.34	3534
836.478	3568
836.615	3507
836.753	3591
836.891	3641
837.029	3614
837.167	3564
837.305	3526
837.443	3523
837.58	3515
837.718	3599
837.856	3572
837.993	3545
838.131	3587
838.269	3545
838.406	3564
838.544	3561
838.681	3462
838.819	3443
838.956	3370
839.094	3363
839.231	3409
839.369	3507
839.506	3679
839.643	3625
839.781	3504
839.918	3424
840.055	3526
840.193	3542
840.33	3511
840.467	3549
840.604	3538
840.742	3781
840.879	3568
841.016	3576
841.153	3591
841.29	3717
841.427	3747
841.564	3701
841.701	3713
841.838	3667
841.975	3644
842.112	3701
842.249	3618
842.385	3572
842.522	3816
842.659	3663
842.796	3671
842.933	3724
843.069	3656
843.206	3675
843.343	3800
843.479	3728
843.616	3823
843.752	3679
843.889	3610
844.025	3797
844.162	3675
844.298	3819
844.435	3812
844.571	3751
844.708	3846
844.844	3937
844.98	3964
845.117	3987
845.253	3941
845.389	3876
845.525	3937
845.661	3956
845.798	3865
845.934	3987
846.07	3911
846.206	4048
846.342	4097
846.478	4032
846.614	3953
846.75	3907
846.886	3922
847.022	3994
847.158	3945
847.294	3975
847.429	4017
847.565	3930
847.701	4215
847.837	3857
847.972	3854
848.108	3964
848.244	3941
848.379	3842
848.515	3759
848.65	3781
848.786	3797
848.921	3842
849.057	3865
849.192	3937
849.328	3903
849.463	3930
849.598	3854
849.734	3846
849.869	3823
850.004	3793
850.14	3785
850.275	3774
850.41	3743
850.545	3724
850.68	3720
850.815	3797
850.95	3774
851.085	3903
851.22	3861
851.355	3778
851.49	3747
851.625	3762
851.76	3812
851.895	3751
852.03	3740
852.165	3808
852.299	3846
852.434	3934
852.569	3816
852.703	3873
852.838	3907
852.973	3994
853.107	3983
853.242	3911
853.376	3842
853.511	3762
853.645	3804
853.78	3983
853.914	3869
854.048	3865
854.183	3842
854.317	3896
854.451	4006
854.585	3934
854.72	3911
854.854	4013
854.988	3896
855.122	3983
855.256	3926
855.39	4036
855.524	4082
855.658	4036
855.792	4109
855.926	4071
856.06	4116
856.194	4219
856.327	4093
856.461	4124
856.595	4147
856.729	4128
856.862	4234
856.996	4215
857.13	4272
857.263	4337
857.397	4337
857.53	4215
857.664	4314
857.797	4367
857.931	4405
858.064	4371
858.197	4417
858.331	4379
858.464	4390
858.597	4325
858.731	4451
858.864	4390
858.997	4436
859.13	4474
859.263	4493
859.396	4588
859.529	4527
859.662	4512
859.795	4485
859.928	4607
860.061	4668
860.194	4710
860.327	4664
860.46	4622
860.592	4706
860.725	4752
860.858	4752
860.99	4710
861.123	4706
861.256	4714
861.388	4744
861.521	5246
861.653	4706
861.786	4717
861.918	4778
862.05	4828
862.183	4831
862.315	4904
862.447	4870
862.58	4866
862.712	4797
862.844	4755
862.976	4854
863.108	4824
863.24	5261
863.372	4828
863.504	4911
863.636	4885
863.768	4919
863.9	4934
864.032	4923
864.164	4873
864.296	5010
864.428	5086
864.559	5067
864.691	5170
864.823	5083
864.954	5117
865.086	5147
865.217	5102
865.349	5121
865.48	5143
865.612	5216
865.743	5231
865.875	5216
866.006	5189
866.137	5204
866.269	5235
866.4	5197
866.531	5212
866.662	5231
866.793	5261
866.924	5284
867.055	5303
867.186	5288
867.317	5311
867.448	5330
867.579	5322
867.71	5341
867.841	5337
867.972	5421
868.103	5448
868.233	5448
868.364	5459
868.495	5501
868.625	5608
868.756	5710
868.886	5733
869.017	5653
869.147	5836
869.278	5844
869.408	5809
869.539	5802
869.669	5916
869.799	5885
869.929	5984
870.06	6034
870.19	6163
870.32	6239
870.45	6289
870.58	6273
870.71	6448
870.84	6399
870.97	6407
871.1	6433
871.23	6563
871.36	6692
871.489	6658
871.619	6696
871.749	6779
871.879	6825
872.008	6966
872.138	6947
872.267	7008
872.397	6935
872.526	7012
872.656	7069
872.785	7187
872.915	7365
873.044	7499
873.173	7548
873.303	7567
873.432	7753
873.561	7852
873.69	7837
873.819	8035
873.948	8142
874.077	8225
874.206	8294
874.335	8427
874.464	8682
874.593	8807
874.722	8918
874.851	9028
874.979	9222
875.108	9340
875.237	9439
875.365	9454
875.494	9618
875.623	9793
875.751	9808
875.88	9956
876.008	10200
876.136	10284
876.265	10504
876.393	10714
876.521	10687
876.65	10797
876.778	10938
876.906	10881
877.034	10904
877.162	11147
877.29	11128
877.418	11231
877.546	11330
877.674	11410
877.802	11433
877.93	11459
878.058	11532
878.185	11520
878.313	11627
878.441	11752
878.568	11657
878.696	11794
878.824	11832
878.951	11885
879.079	12015
879.206	12083
879.333	12003
879.461	11958
879.588	12045
879.715	12038
879.842	12235
879.97	12030
880.097	11851
880.224	11851
880.351	11870
880.478	11855
880.605	11813
880.732	11786
880.859	11954
880.986	11764
881.112	11786
881.239	11760
881.366	11756
881.493	11653
881.619	11452
881.746	11558
881.872	11543
881.999	11493
882.125	11463
882.252	11539
882.378	11452
882.505	11512
882.631	11345
882.757	11239
882.883	11250
883.01	11288
883.136	11174
883.262	11113
883.388	11098
883.514	11151
883.64	11212
883.766	11121
883.892	10938
884.018	10965
884.143	11075
884.269	11079
884.395	10793
884.52	10812
884.646	10824
884.772	10702
884.897	10584
885.023	10759
885.148	10694
885.274	10721
885.399	10733
885.524	10618
885.65	10683
885.775	10577
885.9	10512
886.025	10554
886.15	10569
886.275	10409
886.4	10329
886.525	10386
886.65	10333
886.775	10287
886.9	10497
887.025	10409
887.149	10303
887.274	10166
887.399	10150
887.523	10181
887.648	10055
887.773	10120
887.897	10291
888.021	10169
888.146	10097
888.27	10223
888.395	10196
888.519	10120
888.643	10166
888.767	10169
888.891	9994
889.015	10013
889.139	10059
889.263	9930
889.387	10010
889.511	9994
889.635	10109
889.759	9876
889.883	10071
890.006	9949
890.13	10147
890.254	9899
890.377	9884
890.501	9797
890.624	9850
890.748	9838
890.871	9778
890.995	9778
891.118	9751
891.241	9789
891.364	9713
891.488	9835
891.611	9774
891.734	9732
891.857	9690
891.98	9675
892.103	9698
892.226	9720
892.349	9591
892.471	9549
892.594	9519
892.717	9618
892.839	9568
892.962	9549
893.085	9591
893.207	9606
893.33	9542
893.452	9462
893.575	9580
893.697	9526
893.819	9614
893.941	9584
894.064	9610
894.186	9428
894.308	9382
894.43	9614
894.552	9561
894.674	9416
894.796	9306
894.918	9363
895.04	9287
895.161	9367
895.283	9367
895.405	9188
895.526	9207
895.648	9173
895.769	9214
895.891	9203
896.012	9260
896.134	9211
896.255	9176
896.376	9051
896.498	9142
896.619	9116
896.74	9077
896.861	9135
896.982	9226
897.103	9294
897.224	9169
897.345	9005
897.466	8975
897.587	9005
897.708	9039
897.828	9043
897.949	8933
898.07	8826
898.19	8918
898.311	8982
898.431	8895
898.552	8933
898.672	8952
898.792	8918
898.913	8960
899.033	8804
899.153	8746
899.273	8621
899.393	8727
899.513	8670
899.633	8781
899.753	8651
899.873	8632
899.993	8682
900.113	8735
900.232	8743
900.352	8617
900.472	8552
900.591	8499
900.711	8549
900.83	8450
900.95	8625
901.069	8636
901.189	8590
901.308	8396
901.427	8408
901.546	8396
901.665	8423
901.784	8461
901.904	8374
902.023	8343
902.141	8172
902.26	8206
902.379	8256
902.498	8195
902.617	8271
902.735	8290
902.854	8275
902.973	8282
903.091	8119
903.21	8119
903.328	8164
903.446	8058
903.565	8062
903.683	8126
903.801	8069
903.919	8092
904.038	8088
904.156	8001
904.274	8046
904.392	7986
904.51	8039
904.627	8054
904.745	8046
904.863	8073
904.981	7871
905.098	7795
905.216	7788
905.334	7852
905.451	7875
905.569	7852
905.686	7932
905.803	7871
905.921	7772
906.038	7906
906.155	7761
906.272	7651
906.389	7708
906.506	7658
906.623	7544
906.74	7559
906.857	7563
906.974	7578
907.091	7616
907.208	7776
907.324	7636
907.441	7605
907.557	7480
907.674	7411
907.79	7400
907.907	7343
908.023	7449
908.139	7396
908.256	7392
908.372	7339
908.488	7331
908.604	7232
908.72	7251
908.836	7274
908.952	7206
909.068	7305
909.184	7259
909.3	7232
909.415	7293
909.531	7316
909.647	7137
909.762	7080
909.878	6977
909.993	7008
910.108	7065
910.224	7038
910.339	7072
910.454	7053
910.57	6901
910.685	6947
910.8	7152
910.915	7069
911.03	6977
911.145	6894
911.259	6871
911.374	6871
911.489	6829
911.604	6783
911.718	6722
911.833	6749
911.947	6673
912.062	6570
912.176	6669
912.291	6684
912.405	6665
912.519	6787
912.633	6840
912.748	6726
912.862	6658
912.976	6551
913.09	6471
913.204	6517
913.318	6544
913.431	6662
913.545	6692
913.659	6646
913.772	6612
913.886	6566
914	6570
914.113	6593
914.226	6620
914.34	6555
914.453	6502
914.566	6597
914.68	6521
914.793	6536
914.906	6414
915.019	6410
915.132	6315
915.245	6407
915.358	6479
915.47	6437
915.583	6407
915.696	6506
915.809	6498
915.921	6502
916.034	6407
916.146	6388
916.259	6372
916.371	6494
916.483	6399
916.595	6388
916.708	6376
916.82	6357
916.932	6353
917.044	6331
917.156	6384
917.268	6300
917.38	6319
917.491	6289
917.603	6327
917.715	6380
917.826	6372
917.938	6315
918.049	6247
918.161	6308
918.272	6372
918.384	6441
918.495	6365
918.606	6308
918.717	6216
918.828	6300
918.939	6292
919.05	6175
919.161	6220
919.272	6133
919.383	6159
919.494	6254
919.604	6403
919.715	6327
919.826	6220
919.936	6243
920.047	6327
920.157	6247
920.267	6429
920.378	6228
920.488	6285
920.598	6456
920.708	6566
920.818	6422
920.928	6479
921.038	6517
921.148	6551
921.258	6334
921.368	6273
921.477	6209
921.587	6155
921.697	6057
921.806	6155
921.916	6022
922.025	5882
922.134	5840
922.244	5817
922.353	5950
922.462	5824
922.571	5779
922.68	5722
922.789	5672
922.898	5699
923.007	5585
923.116	5699
923.224	5646
923.333	5665
923.442	5604
923.55	5570
923.659	5573
923.767	5611
923.876	5554
923.984	5589
924.092	5474
924.201	5589
924.309	5501
924.417	5554
924.525	5486
924.633	5520
924.741	6254
924.849	5410
924.956	5444
925.064	5387
925.172	5311
925.279	5334
925.387	5315
925.494	5284
925.602	5364
925.709	5341
925.816	5284
925.924	5299
926.031	5364
926.138	5246
926.245	5307
926.352	5189
926.459	5334
926.566	5284
926.673	5174
926.779	5113
926.886	5086
926.993	5045
927.099	4972
927.206	4953
927.312	5006
927.419	5029
927.525	4976
927.631	4968
927.737	4877
927.843	4839
927.95	4809
928.056	4801
928.162	4793
928.267	4858
928.373	5303
928.479	4793
928.585	4649
928.69	4748
928.796	4740
928.901	4691
929.007	4542
929.112	4637
929.218	4637
929.323	4622
929.428	4584
929.533	4679
929.638	4523
929.743	4531
929.848	4531
929.953	4558
930.058	4470
930.163	4306
930.267	4341
930.372	4398
930.477	4280
930.581	4440
930.685	4344
930.79	4211
930.894	4246
930.998	4227
931.103	4363
931.207	4093
931.311	4093
931.415	4044
931.519	3922
931.623	3945
