Data from glass_V78500241_972.txt Node
Date: Wed Sep 01 19:21:14 CST 2021
User: usil
Spectrometer: V785-0024
Trigger mode: 0
Integration Time (sec): 4.000000E-1
Scans to average: 1
Nonlinearity correction enabled: false
Boxcar width: 0
Storing dark spectrum: false
XAxis mode: Wavelengths
Number of Pixels in Spectrum: 1024
>>>>>Begin Spectral Data<<<<<
801.071	3747
801.214	3778
801.356	3701
801.499	3724
801.641	3728
801.783	3797
801.926	3873
802.068	3816
802.211	3869
802.353	3907
802.496	3896
802.638	3880
802.78	3911
802.923	3918
803.065	3907
803.208	3842
803.35	3846
803.492	3945
803.635	3896
803.777	3808
803.919	3934
804.061	4154
804.204	4006
804.346	3953
804.488	3975
804.63	4063
804.773	3968
804.915	4044
805.057	4154
805.199	4051
805.341	4082
805.483	4131
805.626	4124
805.768	4139
805.91	4188
806.052	4219
806.194	4215
806.336	4348
806.478	4200
806.62	4177
806.762	4185
806.904	4268
807.046	4375
807.188	4211
807.33	4200
807.472	4246
807.614	4234
807.756	4268
807.898	4249
808.04	4242
808.182	4268
808.324	4310
808.465	4367
808.607	4493
808.749	4428
808.891	4485
809.033	4527
809.174	4440
809.316	4329
809.458	4265
809.6	4215
809.741	4158
809.883	4154
810.025	4230
810.166	4249
810.308	4268
810.45	4265
810.591	4230
810.733	4310
810.875	4504
811.016	4778
811.158	5178
811.299	5231
811.441	5311
811.582	5067
811.724	4717
811.865	4485
812.007	4489
812.148	4455
812.29	4375
812.431	4459
812.573	4409
812.714	4424
812.855	4417
812.997	4383
813.138	4432
813.279	4443
813.421	4413
813.562	4405
813.703	4348
813.845	4371
813.986	4261
814.127	4268
814.268	4246
814.41	4287
814.551	4276
814.692	4322
814.833	4280
814.974	4318
815.115	4379
815.256	4246
815.397	4276
815.539	4291
815.68	4227
815.821	4230
815.962	4276
816.103	4314
816.244	4261
816.385	4238
816.526	4306
816.666	4181
816.807	4097
816.948	4242
817.089	4181
817.23	4112
817.371	4017
817.512	3998
817.653	4090
817.793	4063
817.934	4063
818.075	4116
818.216	4074
818.356	4071
818.497	3968
818.638	3926
818.778	3934
818.919	3884
819.06	3884
819.2	3911
819.341	3880
819.481	3838
819.622	3903
819.762	4021
819.903	3934
820.043	3865
820.184	3838
820.324	3827
820.465	3915
820.605	3850
820.746	3880
820.886	3831
821.026	3949
821.167	3899
821.307	4006
821.447	4006
821.588	3968
821.728	3968
821.868	3941
822.008	3861
822.149	3888
822.289	3892
822.429	3793
822.569	3732
822.709	3842
822.849	3720
822.99	3740
823.13	3774
823.27	3789
823.41	3755
823.55	3728
823.69	3724
823.83	3770
823.97	3705
824.11	3603
824.25	3591
824.389	3663
824.529	3656
824.669	3660
824.809	3682
824.949	3781
825.089	3732
825.228	3682
825.368	3610
825.508	3572
825.648	3576
825.787	3610
825.927	3641
826.067	3644
826.206	3701
826.346	3804
826.485	3854
826.625	3857
826.765	3972
826.904	3869
827.044	3614
827.183	3553
827.323	3428
827.462	3515
827.601	3428
827.741	3473
827.88	3439
828.02	3389
828.159	3450
828.298	3485
828.437	3534
828.577	3523
828.716	3584
828.855	3481
828.994	3397
829.134	3412
829.273	3420
829.412	3374
829.551	3329
829.69	3355
829.829	3420
829.968	3496
830.107	3435
830.246	3454
830.385	3363
830.524	3386
830.663	3287
830.802	3253
830.941	3192
831.08	3188
831.219	3291
831.357	3256
831.496	3397
831.635	3222
831.774	3211
831.913	3199
832.051	3150
832.19	3176
832.329	3218
832.467	3142
832.606	3104
832.744	3157
832.883	3211
833.022	3180
833.16	3298
833.299	3283
833.437	3397
833.576	3389
833.714	3389
833.852	3428
833.991	3416
834.129	3488
834.267	3409
834.406	3431
834.544	3393
834.682	3473
834.821	3450
834.959	3580
835.097	3424
835.235	3515
835.373	3534
835.511	3488
835.65	3462
835.788	3492
835.926	3405
836.064	3405
836.202	3439
836.34	3595
836.478	3614
836.615	3534
836.753	3576
836.891	3637
837.029	3614
837.167	3557
837.305	3564
837.443	3530
837.58	3485
837.718	3641
837.856	3580
837.993	3538
838.131	3599
838.269	3580
838.406	3576
838.544	3557
838.681	3507
838.819	3496
838.956	3374
839.094	3393
839.231	3462
839.369	3545
839.506	3759
839.643	3644
839.781	3492
839.918	3458
840.055	3553
840.193	3587
840.33	3553
840.467	3553
840.604	3572
840.742	3804
840.879	3538
841.016	3606
841.153	3614
841.29	3766
841.427	3709
841.564	3720
841.701	3751
841.838	3694
841.975	3656
842.112	3740
842.249	3701
842.385	3660
842.522	3850
842.659	3679
842.796	3667
842.933	3686
843.069	3698
843.206	3713
843.343	3804
843.479	3816
843.616	3850
843.752	3641
843.889	3675
844.025	3854
844.162	3724
844.298	3861
844.435	3759
844.571	3797
844.708	3945
844.844	3964
844.98	4048
845.117	4059
845.253	3949
845.389	3934
845.525	3998
845.661	4006
845.798	3972
845.934	3960
846.07	4010
846.206	4032
846.342	4120
846.478	4093
846.614	3953
846.75	3972
846.886	3964
847.022	4025
847.158	3994
847.294	4025
847.429	4017
847.565	3998
847.701	4253
847.837	3892
847.972	3846
848.108	3975
848.244	3983
848.379	3876
848.515	3838
848.65	3812
848.786	3903
848.921	3911
849.057	3926
849.192	3937
849.328	3899
849.463	3922
849.598	3930
849.734	3873
849.869	3842
850.004	3778
850.14	3823
850.275	3778
850.41	3740
850.545	3804
850.68	3785
850.815	3778
850.95	3781
851.085	3937
851.22	3876
851.355	3869
851.49	3793
851.625	3747
851.76	3880
851.895	3701
852.03	3743
852.165	3831
852.299	3831
852.434	3934
852.569	3865
852.703	3892
852.838	3922
852.973	4021
853.107	4010
853.242	3888
853.376	3869
853.511	3781
853.645	3838
853.78	3983
853.914	3888
854.048	3911
854.183	3918
854.317	4002
854.451	4044
854.585	3960
854.72	3918
854.854	4082
854.988	3987
855.122	3949
855.256	3918
855.39	4044
855.524	4135
855.658	4086
855.792	4112
855.926	4196
856.06	4188
856.194	4188
856.327	4177
856.461	4120
856.595	4169
856.729	4181
856.862	4291
856.996	4242
857.13	4287
857.263	4363
857.397	4352
857.53	4322
857.664	4325
857.797	4390
857.931	4436
858.064	4398
858.197	4474
858.331	4432
858.464	4375
858.597	4371
858.731	4481
858.864	4436
858.997	4478
859.13	4538
859.263	4546
859.396	4588
859.529	4493
859.662	4554
859.795	4554
859.928	4634
860.061	4691
860.194	4771
860.327	4683
860.46	4694
860.592	4721
860.725	4778
860.858	4797
860.99	4691
861.123	4698
861.256	4721
861.388	4767
861.521	5535
861.653	4767
861.786	4721
861.918	4748
862.05	4782
862.183	4889
862.315	4843
862.447	4953
862.58	4885
862.712	4820
862.844	4828
862.976	4885
863.108	4942
863.24	5242
863.372	4782
863.504	4892
863.636	4957
863.768	4968
863.9	5003
864.032	4938
864.164	4934
864.296	5045
864.428	5151
864.559	5098
864.691	5155
864.823	5117
864.954	5151
865.086	5136
865.217	5166
865.349	5098
865.48	5189
865.612	5178
865.743	5311
865.875	5193
866.006	5212
866.137	5204
866.269	5193
866.4	5235
866.531	5292
866.662	5197
866.793	5250
866.924	5299
867.055	5345
867.186	5337
867.317	5330
867.448	5326
867.579	5429
867.71	5372
867.841	5364
867.972	5482
868.103	5501
868.233	5520
868.364	5505
868.495	5589
868.625	5668
868.756	5783
868.886	5688
869.017	5745
869.147	5840
869.278	5874
869.408	5817
869.539	5859
869.669	5874
869.799	5874
869.929	6019
870.06	6011
870.19	6247
870.32	6133
870.45	6285
870.58	6334
870.71	6479
870.84	6441
870.97	6384
871.1	6483
871.23	6627
871.36	6749
871.489	6707
871.619	6783
871.749	6878
871.879	6932
872.008	6977
872.138	7019
872.267	7012
872.397	6985
872.526	7061
872.656	7084
872.785	7240
872.915	7396
873.044	7441
873.173	7578
873.303	7666
873.432	7795
873.561	7830
873.69	7936
873.819	8035
873.948	8145
874.077	8259
874.206	8347
874.335	8488
874.464	8625
874.593	8880
874.722	8906
874.851	9138
874.979	9275
875.108	9332
875.237	9431
875.365	9466
875.494	9584
875.623	9808
875.751	9873
875.88	10059
876.008	10188
876.136	10295
876.265	10500
876.393	10653
876.521	10683
876.65	10847
876.778	10866
876.906	10930
877.034	10972
877.162	11102
877.29	11162
877.418	11315
877.546	11410
877.674	11554
877.802	11474
877.93	11551
878.058	11554
878.185	11611
878.313	11752
878.441	11737
878.568	11680
878.696	11813
878.824	11893
878.951	11984
879.079	12072
879.206	12121
879.333	12106
879.461	12034
879.588	12110
879.715	12201
879.842	12224
879.97	12011
880.097	11897
880.224	11904
880.351	11885
880.478	11946
880.605	11923
880.732	11817
880.859	11996
880.986	11851
881.112	11908
881.239	11775
881.366	11676
881.493	11676
881.619	11535
881.746	11570
881.872	11634
881.999	11551
882.125	11535
882.252	11512
882.378	11532
882.505	11524
882.631	11486
882.757	11261
882.883	11231
883.01	11261
883.136	11235
883.262	11159
883.388	11159
883.514	11269
883.64	11231
883.766	11128
883.892	10953
884.018	11033
884.143	11064
884.269	11067
884.395	10831
884.52	10736
884.646	10687
884.772	10710
884.897	10698
885.023	10675
885.148	10767
885.274	10847
885.399	10717
885.524	10634
885.65	10630
885.775	10622
885.9	10569
886.025	10615
886.15	10611
886.275	10481
886.4	10398
886.525	10443
886.65	10455
886.775	10360
886.9	10558
887.025	10580
887.149	10356
887.274	10223
887.399	10139
887.523	10147
887.648	10143
887.773	10082
887.897	10333
888.021	10192
888.146	10169
888.27	10333
888.395	10238
888.519	10253
888.643	10185
888.767	10185
888.891	10105
889.015	9994
889.139	10071
889.263	9987
889.387	10173
889.511	10200
889.635	10040
889.759	10002
889.883	9964
890.006	9998
890.13	10105
890.254	9945
890.377	10029
890.501	9804
890.624	9945
890.748	9903
890.871	9846
890.995	9789
891.118	9747
891.241	9770
891.364	9808
891.488	9884
891.611	9770
891.734	9740
891.857	9770
891.98	9759
892.103	9732
892.226	9759
892.349	9667
892.471	9587
892.594	9614
892.717	9656
892.839	9568
892.962	9614
893.085	9724
893.207	9557
893.33	9545
893.452	9511
893.575	9572
893.697	9561
893.819	9682
893.941	9656
894.064	9637
894.186	9416
894.308	9363
894.43	9443
894.552	9629
894.674	9515
894.796	9355
894.918	9466
895.04	9370
895.161	9435
895.283	9321
895.405	9313
895.526	9275
895.648	9214
895.769	9268
895.891	9283
896.012	9279
896.134	9207
896.255	9173
896.376	9142
896.498	9123
896.619	9104
896.74	9123
896.861	9077
896.982	9237
897.103	9329
897.224	9184
897.345	9123
897.466	9047
897.587	9070
897.708	9142
897.828	9066
897.949	8929
898.07	8815
898.19	8971
898.311	9047
898.431	8910
898.552	8864
898.672	8979
898.792	8872
898.913	8853
899.033	8819
899.153	8792
899.273	8670
899.393	8644
899.513	8705
899.633	8766
899.753	8762
899.873	8705
899.993	8769
900.113	8701
900.232	8754
900.352	8617
900.472	8636
900.591	8556
900.711	8571
900.83	8579
900.95	8746
901.069	8743
901.189	8606
901.308	8427
901.427	8408
901.546	8389
901.665	8530
901.784	8492
901.904	8396
902.023	8301
902.141	8332
902.26	8199
902.379	8282
902.498	8191
902.617	8218
902.735	8305
902.854	8290
902.973	8252
903.091	8183
903.21	8107
903.328	8214
903.446	8142
903.565	8020
903.683	8149
903.801	7970
903.919	8119
904.038	8103
904.156	8024
904.274	8043
904.392	8005
904.51	8073
904.627	8027
904.745	8065
904.863	8050
904.981	7864
905.098	7909
905.216	7875
905.334	7898
905.451	7909
905.569	7849
905.686	7925
905.803	7932
905.921	7811
906.038	7887
906.155	7860
906.272	7753
906.389	7704
906.506	7639
906.623	7586
906.74	7571
906.857	7548
906.974	7567
907.091	7685
907.208	7704
907.324	7655
907.441	7571
907.557	7464
907.674	7483
907.79	7434
907.907	7419
908.023	7445
908.139	7491
908.256	7365
908.372	7392
908.488	7308
908.604	7301
908.72	7274
908.836	7259
908.952	7202
909.068	7293
909.184	7316
909.3	7255
909.415	7255
909.531	7308
909.647	7118
909.762	7084
909.878	7061
909.993	7137
910.108	7095
910.224	7050
910.339	7095
910.454	7057
910.57	6996
910.685	6996
910.8	7171
910.915	7133
911.03	7053
911.145	6981
911.259	6844
911.374	6878
911.489	6886
911.604	6844
911.718	6753
911.833	6760
911.947	6688
912.062	6585
912.176	6757
912.291	6806
912.405	6707
912.519	6867
912.633	6814
912.748	6818
912.862	6722
912.976	6623
913.09	6521
913.204	6608
913.318	6646
913.431	6719
913.545	6711
913.659	6696
913.772	6673
913.886	6620
914	6585
914.113	6608
914.226	6692
914.34	6608
914.453	6532
914.566	6551
914.68	6547
914.793	6513
914.906	6433
915.019	6441
915.132	6410
915.245	6467
915.358	6494
915.47	6483
915.583	6445
915.696	6464
915.809	6483
915.921	6506
916.034	6445
916.146	6384
916.259	6414
916.371	6509
916.483	6426
916.595	6437
916.708	6433
916.82	6441
916.932	6452
917.044	6410
917.156	6388
917.268	6273
917.38	6323
917.491	6346
917.603	6323
917.715	6395
917.826	6407
917.938	6365
918.049	6281
918.161	6327
918.272	6433
918.384	6403
918.495	6300
918.606	6273
918.717	6281
918.828	6232
918.939	6266
919.05	6197
919.161	6296
919.272	6148
919.383	6239
919.494	6315
919.604	6426
919.715	6304
919.826	6258
919.936	6273
920.047	6369
920.157	6296
920.267	6452
920.378	6395
920.488	6273
920.598	6521
920.708	6597
920.818	6433
920.928	6445
921.038	6639
921.148	6635
921.258	6369
921.368	6346
921.477	6194
921.587	6190
921.697	6114
921.806	6220
921.916	6060
922.025	5973
922.134	5901
922.244	5866
922.353	6019
922.462	5805
922.571	5840
922.68	5642
922.789	5722
922.898	5680
923.007	5653
923.116	5733
923.224	5665
923.333	5707
923.442	5638
923.55	5566
923.659	5608
923.767	5596
923.876	5573
923.984	5608
924.092	5566
924.201	5581
924.309	5592
924.417	5558
924.525	5474
924.633	5478
924.741	6114
924.849	5341
924.956	5474
925.064	5372
925.172	5311
925.279	5341
925.387	5387
925.494	5368
925.602	5425
925.709	5414
925.816	5254
925.924	5395
926.031	5360
926.138	5288
926.245	5326
926.352	5273
926.459	5318
926.566	5376
926.673	5242
926.779	5159
926.886	5189
926.993	5014
927.099	4984
927.206	4961
927.312	4972
927.419	5006
927.525	5014
927.631	4995
927.737	4870
927.843	4854
927.95	4793
928.056	4820
928.162	4816
928.267	4835
928.373	5349
928.479	4877
928.585	4740
928.69	4771
928.796	4767
928.901	4687
929.007	4641
929.112	4675
929.218	4615
929.323	4649
929.428	4622
929.533	4668
929.638	4489
929.743	4550
929.848	4561
929.953	4489
930.058	4436
930.163	4360
930.267	4379
930.372	4455
930.477	4352
930.581	4512
930.685	4371
930.79	4303
930.894	4238
930.998	4249
931.103	4424
931.207	4128
931.311	4078
931.415	4048
931.519	3899
931.623	3915
