Data from glass_V78500241_1271.txt Node
Date: Wed Sep 01 19:23:18 CST 2021
User: usil
Spectrometer: V785-0024
Trigger mode: 0
Integration Time (sec): 4.000000E-1
Scans to average: 1
Nonlinearity correction enabled: false
Boxcar width: 0
Storing dark spectrum: false
XAxis mode: Wavelengths
Number of Pixels in Spectrum: 1024
>>>>>Begin Spectral Data<<<<<
801.071	3720
801.214	3762
801.356	3705
801.499	3755
801.641	3736
801.783	3762
801.926	3854
802.068	3808
802.211	3915
802.353	3911
802.496	3857
802.638	3869
802.78	3873
802.923	3941
803.065	3918
803.208	3884
803.35	3884
803.492	3899
803.635	3941
803.777	3789
803.919	3911
804.061	4166
804.204	4002
804.346	3960
804.488	3926
804.63	4013
804.773	3987
804.915	4006
805.057	4188
805.199	4082
805.341	4120
805.483	4131
805.626	4143
805.768	4154
805.91	4200
806.052	4207
806.194	4196
806.336	4341
806.478	4204
806.62	4204
806.762	4227
806.904	4253
807.046	4322
807.188	4257
807.33	4219
807.472	4265
807.614	4219
807.756	4261
807.898	4227
808.04	4234
808.182	4310
808.324	4303
808.465	4394
808.607	4436
808.749	4413
808.891	4443
809.033	4550
809.174	4421
809.316	4284
809.458	4238
809.6	4181
809.741	4135
809.883	4166
810.025	4238
810.166	4215
810.308	4238
810.45	4303
810.591	4253
810.733	4303
810.875	4523
811.016	4839
811.158	5113
811.299	5296
811.441	5303
811.582	5067
811.724	4729
811.865	4489
812.007	4432
812.148	4436
812.29	4402
812.431	4394
812.573	4424
812.714	4417
812.855	4443
812.997	4421
813.138	4508
813.279	4451
813.421	4440
813.562	4386
813.703	4371
813.845	4314
813.986	4227
814.127	4234
814.268	4253
814.41	4295
814.551	4257
814.692	4333
814.833	4287
814.974	4337
815.115	4383
815.256	4280
815.397	4246
815.539	4234
815.68	4188
815.821	4246
815.962	4341
816.103	4280
816.244	4234
816.385	4230
816.526	4295
816.666	4185
816.807	4135
816.948	4185
817.089	4192
817.23	4131
817.371	4051
817.512	4071
817.653	4090
817.793	4017
817.934	4048
818.075	4124
818.216	4097
818.356	4090
818.497	4013
818.638	3911
818.778	3892
818.919	3888
819.06	3873
819.2	3926
819.341	3880
819.481	3865
819.622	3892
819.762	3998
819.903	3998
820.043	3831
820.184	3781
820.324	3842
820.465	3896
820.605	3816
820.746	3884
820.886	3816
821.026	3953
821.167	3911
821.307	3994
821.447	3983
821.588	3964
821.728	3937
821.868	3930
822.008	3861
822.149	3907
822.289	3930
822.429	3766
822.569	3762
822.709	3854
822.849	3728
822.99	3755
823.13	3781
823.27	3785
823.41	3686
823.55	3751
823.69	3740
823.83	3759
823.97	3675
824.11	3595
824.25	3599
824.389	3629
824.529	3694
824.669	3599
824.809	3686
824.949	3781
825.089	3724
825.228	3709
825.368	3584
825.508	3576
825.648	3549
825.787	3580
825.927	3629
826.067	3660
826.206	3671
826.346	3762
826.485	3819
826.625	3846
826.765	3956
826.904	3838
827.044	3625
827.183	3515
827.323	3393
827.462	3492
827.601	3443
827.741	3405
827.88	3496
828.02	3397
828.159	3454
828.298	3485
828.437	3515
828.577	3473
828.716	3614
828.855	3519
828.994	3374
829.134	3359
829.273	3367
829.412	3340
829.551	3370
829.69	3378
829.829	3447
829.968	3526
830.107	3447
830.246	3450
830.385	3393
830.524	3340
830.663	3291
830.802	3253
830.941	3203
831.08	3199
831.219	3268
831.357	3256
831.496	3409
831.635	3256
831.774	3173
831.913	3195
832.051	3135
832.19	3142
832.329	3218
832.467	3150
832.606	3138
832.744	3157
832.883	3169
833.022	3180
833.16	3264
833.299	3321
833.437	3359
833.576	3355
833.714	3439
833.852	3439
833.991	3439
834.129	3492
834.267	3439
834.406	3416
834.544	3439
834.682	3450
834.821	3439
834.959	3545
835.097	3405
835.235	3553
835.373	3462
835.511	3534
835.65	3473
835.788	3492
835.926	3439
836.064	3401
836.202	3439
836.34	3564
836.478	3652
836.615	3572
836.753	3606
836.891	3644
837.029	3614
837.167	3591
837.305	3557
837.443	3511
837.58	3507
837.718	3633
837.856	3622
837.993	3564
838.131	3618
838.269	3606
838.406	3564
838.544	3572
838.681	3500
838.819	3443
838.956	3367
839.094	3382
839.231	3473
839.369	3507
839.506	3732
839.643	3663
839.781	3507
839.918	3466
840.055	3534
840.193	3557
840.33	3561
840.467	3587
840.604	3591
840.742	3793
840.879	3553
841.016	3557
841.153	3599
841.29	3766
841.427	3705
841.564	3732
841.701	3759
841.838	3717
841.975	3690
842.112	3732
842.249	3671
842.385	3644
842.522	3854
842.659	3709
842.796	3660
842.933	3728
843.069	3698
843.206	3705
843.343	3804
843.479	3823
843.616	3846
843.752	3690
843.889	3656
844.025	3865
844.162	3728
844.298	3884
844.435	3797
844.571	3804
844.708	3903
844.844	3968
844.98	4032
845.117	4006
845.253	3918
845.389	3911
845.525	3983
845.661	3979
845.798	3937
845.934	3991
846.07	3968
846.206	4090
846.342	4109
846.478	4055
846.614	3994
846.75	3972
846.886	3922
847.022	4036
847.158	4002
847.294	3987
847.429	4013
847.565	4002
847.701	4280
847.837	3922
847.972	3884
848.108	4021
848.244	3968
848.379	3842
848.515	3850
848.65	3869
848.786	3835
848.921	3865
849.057	3956
849.192	3915
849.328	3934
849.463	3903
849.598	3846
849.734	3869
849.869	3816
850.004	3781
850.14	3873
850.275	3823
850.41	3781
850.545	3781
850.68	3740
850.815	3774
850.95	3857
851.085	3964
851.22	3857
851.355	3850
851.49	3759
851.625	3823
851.76	3838
851.895	3736
852.03	3743
852.165	3816
852.299	3842
852.434	3888
852.569	3876
852.703	3884
852.838	3922
852.973	4017
853.107	3987
853.242	3884
853.376	3842
853.511	3804
853.645	3846
853.78	3998
853.914	3934
854.048	3918
854.183	3899
854.317	3968
854.451	4105
854.585	3956
854.72	3979
854.854	4059
854.988	3907
855.122	4090
855.256	3953
855.39	4013
855.524	4093
855.658	4044
855.792	4135
855.926	4177
856.06	4200
856.194	4219
856.327	4139
856.461	4128
856.595	4150
856.729	4196
856.862	4284
856.996	4204
857.13	4310
857.263	4390
857.397	4363
857.53	4287
857.664	4348
857.797	4409
857.931	4383
858.064	4402
858.197	4470
858.331	4398
858.464	4436
858.597	4341
858.731	4424
858.864	4470
858.997	4440
859.13	4500
859.263	4523
859.396	4588
859.529	4474
859.662	4527
859.795	4519
859.928	4592
860.061	4725
860.194	4729
860.327	4710
860.46	4672
860.592	4755
860.725	4763
860.858	4778
860.99	4649
861.123	4653
861.256	4706
861.388	4740
861.521	5440
861.653	4744
861.786	4748
861.918	4755
862.05	4736
862.183	4809
862.315	4927
862.447	4953
862.58	4923
862.712	4790
862.844	4820
862.976	4858
863.108	4870
863.24	5174
863.372	4889
863.504	4885
863.636	4896
863.768	5003
863.9	4908
864.032	4980
864.164	4930
864.296	5056
864.428	5105
864.559	5098
864.691	5102
864.823	5113
864.954	5140
865.086	5189
865.217	5166
865.349	5105
865.48	5159
865.612	5235
865.743	5330
865.875	5204
866.006	5208
866.137	5201
866.269	5239
866.4	5235
866.531	5216
866.662	5284
866.793	5307
866.924	5292
867.055	5311
867.186	5318
867.317	5334
867.448	5311
867.579	5337
867.71	5425
867.841	5360
867.972	5478
868.103	5512
868.233	5551
868.364	5547
868.495	5570
868.625	5691
868.756	5783
868.886	5608
869.017	5733
869.147	5901
869.278	5935
869.408	5824
869.539	5817
869.669	5980
869.799	5916
869.929	5992
870.06	6022
870.19	6140
870.32	6213
870.45	6292
870.58	6323
870.71	6479
870.84	6467
870.97	6467
871.1	6460
871.23	6623
871.36	6673
871.489	6642
871.619	6760
871.749	6821
871.879	6810
872.008	7027
872.138	7004
872.267	7019
872.397	7027
872.526	7023
872.656	7061
872.785	7206
872.915	7396
873.044	7518
873.173	7533
873.303	7647
873.432	7833
873.561	7890
873.69	7909
873.819	8069
873.948	8176
874.077	8256
874.206	8317
874.335	8514
874.464	8693
874.593	8899
874.722	8883
874.851	9135
874.979	9218
875.108	9382
875.237	9454
875.365	9511
875.494	9603
875.623	9873
875.751	9850
875.88	10010
876.008	10101
876.136	10207
876.265	10512
876.393	10714
876.521	10767
876.65	10782
876.778	10873
876.906	10839
877.034	10862
877.162	11083
877.29	11170
877.418	11235
877.546	11376
877.674	11440
877.802	11478
877.93	11493
878.058	11558
878.185	11554
878.313	11676
878.441	11767
878.568	11634
878.696	11843
878.824	11821
878.951	11965
879.079	12026
879.206	12155
879.333	12049
879.461	11984
879.588	12129
879.715	12079
879.842	12270
879.97	12091
880.097	11916
880.224	11870
880.351	11950
880.478	11885
880.605	11832
880.732	11817
880.859	12049
880.986	11859
881.112	11882
881.239	11786
881.366	11680
881.493	11554
881.619	11471
881.746	11562
881.872	11543
881.999	11627
882.125	11452
882.252	11592
882.378	11619
882.505	11554
882.631	11353
882.757	11235
882.883	11307
883.01	11231
883.136	11166
883.262	11090
883.388	11060
883.514	11273
883.64	11235
883.766	11086
883.892	11029
884.018	10972
884.143	11075
884.269	11060
884.395	10896
884.52	10839
884.646	10812
884.772	10759
884.897	10653
885.023	10782
885.148	10736
885.274	10736
885.399	10683
885.524	10607
885.65	10615
885.775	10577
885.9	10573
886.025	10584
886.15	10497
886.275	10382
886.4	10352
886.525	10386
886.65	10394
886.775	10314
886.9	10481
887.025	10554
887.149	10402
887.274	10253
887.399	10261
887.523	10223
887.648	10147
887.773	10112
887.897	10196
888.021	10253
888.146	10192
888.27	10230
888.395	10253
888.519	10139
888.643	10169
888.767	10154
888.891	10105
889.015	10051
889.139	10029
889.263	9998
889.387	10048
889.511	10063
889.635	10093
889.759	9987
889.883	9994
890.006	9941
890.13	10128
890.254	10013
890.377	9960
890.501	9816
890.624	9854
890.748	9911
890.871	9732
890.995	9804
891.118	9766
891.241	9789
891.364	9766
891.488	9797
891.611	9774
891.734	9781
891.857	9774
891.98	9682
892.103	9686
892.226	9835
892.349	9705
892.471	9557
892.594	9679
892.717	9595
892.839	9538
892.962	9629
893.085	9698
893.207	9599
893.33	9507
893.452	9564
893.575	9595
893.697	9500
893.819	9576
893.941	9606
894.064	9614
894.186	9462
894.308	9458
894.43	9515
894.552	9614
894.674	9591
894.796	9443
894.918	9439
895.04	9359
895.161	9382
895.283	9332
895.405	9199
895.526	9291
895.648	9264
895.769	9302
895.891	9249
896.012	9336
896.134	9237
896.255	9203
896.376	9169
896.498	9176
896.619	9192
896.74	9062
896.861	9142
896.982	9287
897.103	9272
897.224	9157
897.345	9093
897.466	9036
897.587	9017
897.708	9131
897.828	8979
897.949	8979
898.07	8883
898.19	8910
898.311	9058
898.431	8906
898.552	8899
898.672	8971
898.792	8956
898.913	8982
899.033	8746
899.153	8716
899.273	8720
899.393	8743
899.513	8750
899.633	8686
899.753	8686
899.873	8724
899.993	8727
900.113	8621
900.232	8766
900.352	8632
900.472	8575
900.591	8545
900.711	8613
900.83	8552
900.95	8575
901.069	8663
901.189	8571
901.308	8495
901.427	8343
901.546	8461
901.665	8492
901.784	8480
901.904	8332
902.023	8351
902.141	8218
902.26	8199
902.379	8271
902.498	8218
902.617	8248
902.735	8256
902.854	8240
902.973	8225
903.091	8062
903.21	8183
903.328	8202
903.446	8107
903.565	8123
903.683	8149
903.801	8096
903.919	8142
904.038	8130
904.156	8100
904.274	8176
904.392	7986
904.51	8039
904.627	8077
904.745	8081
904.863	8096
904.981	7879
905.098	7871
905.216	7864
905.334	7860
905.451	7868
905.569	7883
905.686	7898
905.803	7955
905.921	7814
906.038	7849
906.155	7837
906.272	7761
906.389	7753
906.506	7651
906.623	7670
906.74	7605
906.857	7540
906.974	7540
907.091	7712
907.208	7769
907.324	7639
907.441	7582
907.557	7430
907.674	7499
907.79	7369
907.907	7518
908.023	7487
908.139	7377
908.256	7354
908.372	7381
908.488	7365
908.604	7236
908.72	7274
908.836	7316
908.952	7217
909.068	7278
909.184	7335
909.3	7301
909.415	7305
909.531	7305
909.647	7156
909.762	7194
909.878	7053
909.993	7114
910.108	7107
910.224	7069
910.339	7091
910.454	7046
910.57	7061
910.685	6939
910.8	7168
910.915	7027
911.03	7088
911.145	6871
911.259	6844
911.374	6928
911.489	6890
911.604	6795
911.718	6722
911.833	6760
911.947	6665
912.062	6608
912.176	6669
912.291	6783
912.405	6711
912.519	6776
912.633	6844
912.748	6783
912.862	6684
912.976	6642
913.09	6555
913.204	6593
913.318	6612
913.431	6646
913.545	6719
913.659	6707
913.772	6646
913.886	6627
914	6544
914.113	6601
914.226	6700
914.34	6589
914.453	6464
914.566	6623
914.68	6525
914.793	6525
914.906	6365
915.019	6384
915.132	6388
915.245	6388
915.358	6384
915.47	6490
915.583	6464
915.696	6528
915.809	6494
915.921	6506
916.034	6479
916.146	6403
916.259	6418
916.371	6448
916.483	6456
916.595	6460
916.708	6384
916.82	6361
916.932	6414
917.044	6441
917.156	6475
917.268	6292
917.38	6376
917.491	6281
917.603	6338
917.715	6410
917.826	6414
917.938	6331
918.049	6247
918.161	6304
918.272	6365
918.384	6441
918.495	6365
918.606	6247
918.717	6197
918.828	6254
918.939	6292
919.05	6216
919.161	6216
919.272	6133
919.383	6152
919.494	6300
919.604	6475
919.715	6296
919.826	6232
919.936	6266
920.047	6327
920.157	6311
920.267	6445
920.378	6285
920.488	6292
920.598	6418
920.708	6574
920.818	6525
920.928	6498
921.038	6608
921.148	6525
921.258	6353
921.368	6266
921.477	6186
921.587	6186
921.697	6072
921.806	6190
921.916	6091
922.025	5992
922.134	5923
922.244	5847
922.353	5920
922.462	5866
922.571	5767
922.68	5684
922.789	5737
922.898	5714
923.007	5661
923.116	5729
923.224	5630
923.333	5642
923.442	5638
923.55	5547
923.659	5646
923.767	5573
923.876	5554
923.984	5608
924.092	5493
924.201	5558
924.309	5562
924.417	5535
924.525	5467
924.633	5520
924.741	6319
924.849	5334
924.956	5478
925.064	5353
925.172	5349
925.279	5296
925.387	5414
925.494	5341
925.602	5421
925.709	5345
925.816	5269
925.924	5337
926.031	5353
926.138	5318
926.245	5337
926.352	5239
926.459	5296
926.566	5330
926.673	5208
926.779	5147
926.886	5132
926.993	4980
927.099	5048
927.206	5022
927.312	4957
927.419	4999
927.525	4965
927.631	4991
927.737	4961
927.843	4870
927.95	4820
928.056	4828
928.162	4854
928.267	4873
928.373	5330
928.479	4843
928.585	4691
928.69	4790
928.796	4767
928.901	4694
929.007	4611
929.112	4641
929.218	4599
929.323	4607
929.428	4618
929.533	4729
929.638	4516
929.743	4580
929.848	4599
929.953	4527
930.058	4394
930.163	4303
930.267	4348
930.372	4424
930.477	4341
930.581	4436
930.685	4352
930.79	4272
930.894	4287
930.998	4230
931.103	4356
931.207	4128
931.311	4059
931.415	4071
931.519	3941
931.623	3949
