Data from glass_V78500241_1840.txt Node
Date: Wed Sep 01 19:27:15 CST 2021
User: usil
Spectrometer: V785-0024
Trigger mode: 0
Integration Time (sec): 4.000000E-1
Scans to average: 1
Nonlinearity correction enabled: false
Boxcar width: 0
Storing dark spectrum: false
XAxis mode: Wavelengths
Number of Pixels in Spectrum: 1024
>>>>>Begin Spectral Data<<<<<
801.071	3736
801.214	3740
801.356	3671
801.499	3774
801.641	3679
801.783	3785
801.926	3873
802.068	3854
802.211	3850
802.353	3884
802.496	3865
802.638	3911
802.78	3911
802.923	3922
803.065	3873
803.208	3842
803.35	3876
803.492	3918
803.635	3899
803.777	3816
803.919	3911
804.061	4139
804.204	3941
804.346	3972
804.488	3907
804.63	4006
804.773	3979
804.915	4025
805.057	4158
805.199	4048
805.341	4059
805.483	4101
805.626	4124
805.768	4135
805.91	4211
806.052	4207
806.194	4219
806.336	4379
806.478	4185
806.62	4177
806.762	4188
806.904	4253
807.046	4287
807.188	4177
807.33	4135
807.472	4215
807.614	4192
807.756	4261
807.898	4204
808.04	4227
808.182	4306
808.324	4333
808.465	4367
808.607	4489
808.749	4451
808.891	4478
809.033	4497
809.174	4409
809.316	4253
809.458	4268
809.6	4147
809.741	4116
809.883	4120
810.025	4204
810.166	4219
810.308	4207
810.45	4265
810.591	4219
810.733	4318
810.875	4512
811.016	4782
811.158	5121
811.299	5292
811.441	5242
811.582	5117
811.724	4694
811.865	4504
812.007	4440
812.148	4424
812.29	4413
812.431	4367
812.573	4436
812.714	4390
812.855	4409
812.997	4432
813.138	4470
813.279	4394
813.421	4371
813.562	4356
813.703	4363
813.845	4306
813.986	4257
814.127	4238
814.268	4280
814.41	4303
814.551	4257
814.692	4337
814.833	4272
814.974	4265
815.115	4276
815.256	4242
815.397	4230
815.539	4287
815.68	4207
815.821	4211
815.962	4322
816.103	4276
816.244	4242
816.385	4230
816.526	4272
816.666	4207
816.807	4116
816.948	4181
817.089	4162
817.23	4150
817.371	4059
817.512	4078
817.653	4059
817.793	4059
817.934	4010
818.075	4162
818.216	4078
818.356	4120
818.497	3987
818.638	3937
818.778	3911
818.919	3850
819.06	3846
819.2	3937
819.341	3854
819.481	3812
819.622	3911
819.762	3994
819.903	3892
820.043	3854
820.184	3846
820.324	3816
820.465	3869
820.605	3831
820.746	3880
820.886	3785
821.026	3953
821.167	3937
821.307	3983
821.447	3953
821.588	3941
821.728	3937
821.868	3968
822.008	3884
822.149	3926
822.289	3956
822.429	3762
822.569	3743
822.709	3774
822.849	3690
822.99	3679
823.13	3736
823.27	3774
823.41	3701
823.55	3743
823.69	3736
823.83	3682
823.97	3641
824.11	3603
824.25	3580
824.389	3629
824.529	3629
824.669	3625
824.809	3720
824.949	3743
825.089	3736
825.228	3660
825.368	3606
825.508	3557
825.648	3576
825.787	3595
825.927	3652
826.067	3595
826.206	3629
826.346	3785
826.485	3846
826.625	3884
826.765	3922
826.904	3842
827.044	3618
827.183	3496
827.323	3405
827.462	3488
827.601	3389
827.741	3424
827.88	3416
828.02	3386
828.159	3462
828.298	3500
828.437	3580
828.577	3481
828.716	3584
828.855	3492
828.994	3374
829.134	3386
829.273	3382
829.412	3359
829.551	3363
829.69	3336
829.829	3378
829.968	3542
830.107	3393
830.246	3462
830.385	3397
830.524	3367
830.663	3264
830.802	3226
830.941	3195
831.08	3180
831.219	3264
831.357	3272
831.496	3389
831.635	3241
831.774	3275
831.913	3214
832.051	3127
832.19	3138
832.329	3211
832.467	3135
832.606	3108
832.744	3161
832.883	3230
833.022	3180
833.16	3279
833.299	3287
833.437	3321
833.576	3393
833.714	3393
833.852	3420
833.991	3439
834.129	3488
834.267	3424
834.406	3416
834.544	3397
834.682	3439
834.821	3412
834.959	3530
835.097	3374
835.235	3530
835.373	3488
835.511	3485
835.65	3462
835.788	3450
835.926	3389
836.064	3389
836.202	3378
836.34	3591
836.478	3625
836.615	3526
836.753	3610
836.891	3648
837.029	3591
837.167	3595
837.305	3542
837.443	3523
837.58	3458
837.718	3610
837.856	3545
837.993	3526
838.131	3599
838.269	3606
838.406	3572
838.544	3622
838.681	3466
838.819	3435
838.956	3374
839.094	3374
839.231	3428
839.369	3500
839.506	3751
839.643	3637
839.781	3549
839.918	3462
840.055	3545
840.193	3545
840.33	3511
840.467	3564
840.604	3603
840.742	3819
840.879	3542
841.016	3530
841.153	3606
841.29	3743
841.427	3747
841.564	3724
841.701	3762
841.838	3720
841.975	3671
842.112	3717
842.249	3652
842.385	3618
842.522	3842
842.659	3694
842.796	3641
842.933	3740
843.069	3694
843.206	3724
843.343	3819
843.479	3785
843.616	3888
843.752	3667
843.889	3663
844.025	3854
844.162	3743
844.298	3827
844.435	3743
844.571	3762
844.708	3907
844.844	3975
844.98	4006
845.117	4006
845.253	3968
845.389	3930
845.525	3922
845.661	4002
845.798	3922
845.934	4006
846.07	4002
846.206	4017
846.342	4082
846.478	4063
846.614	3937
846.75	3896
846.886	3876
847.022	4051
847.158	3937
847.294	4025
847.429	4044
847.565	3972
847.701	4249
847.837	3884
847.972	3857
848.108	3945
848.244	3968
848.379	3857
848.515	3789
848.65	3797
848.786	3793
848.921	3884
849.057	3960
849.192	3922
849.328	3888
849.463	3918
849.598	3842
849.734	3869
849.869	3816
850.004	3759
850.14	3800
850.275	3808
850.41	3751
850.545	3751
850.68	3778
850.815	3812
850.95	3808
851.085	3949
851.22	3873
851.355	3823
851.49	3789
851.625	3812
851.76	3766
851.895	3740
852.03	3736
852.165	3800
852.299	3846
852.434	3945
852.569	3842
852.703	3880
852.838	3964
852.973	3941
853.107	4013
853.242	3903
853.376	3876
853.511	3770
853.645	3838
853.78	3956
853.914	3854
854.048	3888
854.183	3831
854.317	4013
854.451	4059
854.585	3983
854.72	3960
854.854	4051
854.988	3941
855.122	4029
855.256	3937
855.39	4063
855.524	4109
855.658	4059
855.792	4097
855.926	4093
856.06	4147
856.194	4188
856.327	4162
856.461	4143
856.595	4154
856.729	4215
856.862	4272
856.996	4219
857.13	4322
857.263	4295
857.397	4360
857.53	4257
857.664	4356
857.797	4329
857.931	4402
858.064	4394
858.197	4470
858.331	4405
858.464	4386
858.597	4367
858.731	4424
858.864	4451
858.997	4402
859.13	4535
859.263	4542
859.396	4603
859.529	4508
859.662	4592
859.795	4519
859.928	4653
860.061	4698
860.194	4790
860.327	4645
860.46	4588
860.592	4774
860.725	4710
860.858	4748
860.99	4687
861.123	4630
861.256	4668
861.388	4729
861.521	5364
861.653	4721
861.786	4694
861.918	4714
862.05	4797
862.183	4847
862.315	4866
862.447	4930
862.58	4885
862.712	4782
862.844	4774
862.976	4858
863.108	4900
863.24	5235
863.372	4797
863.504	4930
863.636	4900
863.768	4938
863.9	4942
864.032	4908
864.164	4972
864.296	5048
864.428	5094
864.559	5113
864.691	5090
864.823	5124
864.954	5105
865.086	5121
865.217	5147
865.349	5124
865.48	5174
865.612	5201
865.743	5284
865.875	5227
866.006	5189
866.137	5250
866.269	5261
866.4	5223
866.531	5326
866.662	5246
866.793	5258
866.924	5265
867.055	5326
867.186	5307
867.317	5334
867.448	5303
867.579	5417
867.71	5277
867.841	5368
867.972	5471
868.103	5512
868.233	5417
868.364	5467
868.495	5524
868.625	5611
868.756	5764
868.886	5608
869.017	5714
869.147	5908
869.278	5923
869.408	5771
869.539	5851
869.669	5889
869.799	5980
869.929	5977
870.06	6045
870.19	6136
870.32	6220
870.45	6235
870.58	6384
870.71	6452
870.84	6475
870.97	6395
871.1	6433
871.23	6646
871.36	6639
871.489	6658
871.619	6745
871.749	6844
871.879	6806
872.008	7023
872.138	6977
872.267	6981
872.397	6993
872.526	7008
872.656	7156
872.785	7171
872.915	7388
873.044	7464
873.173	7525
873.303	7632
873.432	7776
873.561	7883
873.69	7871
873.819	8001
873.948	8153
874.077	8282
874.206	8279
874.335	8446
874.464	8606
874.593	8804
874.722	8887
874.851	9112
874.979	9218
875.108	9412
875.237	9466
875.365	9500
875.494	9618
875.623	9819
875.751	9781
875.88	9991
876.008	10139
876.136	10295
876.265	10493
876.393	10763
876.521	10717
876.65	10824
876.778	10782
876.906	10949
877.034	10968
877.162	11136
877.29	11162
877.418	11376
877.546	11273
877.674	11436
877.802	11551
877.93	11543
878.058	11501
878.185	11604
878.313	11714
878.441	11760
878.568	11680
878.696	11847
878.824	11851
878.951	11885
879.079	12098
879.206	12068
879.333	12053
879.461	11950
879.588	12060
879.715	12038
879.842	12148
879.97	12072
880.097	11832
880.224	11950
880.351	11832
880.478	11870
880.605	11866
880.732	11843
880.859	12049
880.986	11855
881.112	11874
881.239	11710
881.366	11680
881.493	11627
881.619	11547
881.746	11596
881.872	11501
881.999	11554
882.125	11520
882.252	11592
882.378	11532
882.505	11615
882.631	11463
882.757	11307
882.883	11341
883.01	11273
883.136	11132
883.262	11105
883.388	11079
883.514	11162
883.64	11216
883.766	11159
883.892	11060
884.018	10934
884.143	11022
884.269	11113
884.395	10828
884.52	10797
884.646	10759
884.772	10717
884.897	10630
885.023	10622
885.148	10755
885.274	10755
885.399	10675
885.524	10546
885.65	10504
885.775	10637
885.9	10546
886.025	10580
886.15	10554
886.275	10466
886.4	10421
886.525	10333
886.65	10348
886.775	10284
886.9	10481
887.025	10474
887.149	10432
887.274	10227
887.399	10207
887.523	10166
887.648	10147
887.773	10124
887.897	10227
888.021	10234
888.146	10166
888.27	10246
888.395	10242
888.519	10200
888.643	10234
888.767	10166
888.891	10032
889.015	9994
889.139	10025
889.263	9953
889.387	10128
889.511	10101
889.635	10025
889.759	9998
889.883	10017
890.006	9960
890.13	10109
890.254	9956
890.377	9953
890.501	9838
890.624	9854
890.748	9884
890.871	9873
890.995	9770
891.118	9732
891.241	9732
891.364	9728
891.488	9816
891.611	9709
891.734	9743
891.857	9785
891.98	9728
892.103	9762
892.226	9660
892.349	9705
892.471	9538
892.594	9526
892.717	9656
892.839	9675
892.962	9648
893.085	9606
893.207	9610
893.33	9511
893.452	9587
893.575	9561
893.697	9488
893.819	9557
893.941	9686
894.064	9656
894.186	9466
894.308	9378
894.43	9447
894.552	9603
894.674	9564
894.796	9408
894.918	9428
895.04	9294
895.161	9321
895.283	9279
895.405	9256
895.526	9192
895.648	9264
895.769	9272
895.891	9272
896.012	9310
896.134	9237
896.255	9142
896.376	9085
896.498	9165
896.619	9157
896.74	9055
896.861	9093
896.982	9218
897.103	9294
897.224	9237
897.345	9127
897.466	8986
897.587	8986
897.708	9081
897.828	9009
897.949	8986
898.07	8876
898.19	8868
898.311	9009
898.431	8914
898.552	8956
898.672	8963
898.792	8948
898.913	8899
899.033	8887
899.153	8819
899.273	8670
899.393	8720
899.513	8727
899.633	8705
899.753	8815
899.873	8705
899.993	8705
900.113	8754
900.232	8697
900.352	8663
900.472	8640
900.591	8564
900.711	8613
900.83	8507
900.95	8621
901.069	8724
901.189	8594
901.308	8381
901.427	8393
901.546	8362
901.665	8469
901.784	8480
901.904	8389
902.023	8404
902.141	8279
902.26	8210
902.379	8252
902.498	8225
902.617	8252
902.735	8252
902.854	8259
902.973	8225
903.091	8077
903.21	8172
903.328	8214
903.446	8077
903.565	8046
903.683	8134
903.801	8001
903.919	8195
904.038	8077
904.156	8058
904.274	8035
904.392	8046
904.51	8046
904.627	8035
904.745	8096
904.863	8054
904.981	7955
905.098	7841
905.216	7917
905.334	7913
905.451	7906
905.569	7807
905.686	7868
905.803	7959
905.921	7719
906.038	7871
906.155	7757
906.272	7742
906.389	7670
906.506	7620
906.623	7639
906.74	7601
906.857	7426
906.974	7571
907.091	7689
907.208	7620
907.324	7620
907.441	7559
907.557	7445
907.674	7445
907.79	7354
907.907	7400
908.023	7453
908.139	7438
908.256	7392
908.372	7438
908.488	7320
908.604	7244
908.72	7236
908.836	7324
908.952	7282
909.068	7213
909.184	7263
909.3	7285
909.415	7320
909.531	7301
909.647	7171
909.762	7069
909.878	7057
909.993	7145
910.108	7145
910.224	7034
910.339	7114
910.454	7050
910.57	6981
910.685	6935
910.8	7145
910.915	7084
911.03	6981
911.145	6913
911.259	6878
911.374	6973
911.489	6875
911.604	6814
911.718	6688
911.833	6730
911.947	6585
912.062	6623
912.176	6753
912.291	6745
912.405	6757
912.519	6844
912.633	6837
912.748	6719
912.862	6684
912.976	6608
913.09	6582
913.204	6555
913.318	6582
913.431	6635
913.545	6646
913.659	6760
913.772	6688
913.886	6528
914	6551
914.113	6623
914.226	6589
914.34	6620
914.453	6528
914.566	6608
914.68	6456
914.793	6532
914.906	6372
915.019	6407
915.132	6384
915.245	6410
915.358	6441
915.47	6464
915.583	6483
915.696	6509
915.809	6509
915.921	6570
916.034	6490
916.146	6384
916.259	6441
916.371	6452
916.483	6418
916.595	6346
916.708	6418
916.82	6365
916.932	6365
917.044	6384
917.156	6346
917.268	6384
917.38	6285
917.491	6327
917.603	6350
917.715	6334
917.826	6433
917.938	6353
918.049	6239
918.161	6372
918.272	6429
918.384	6456
918.495	6319
918.606	6266
918.717	6235
918.828	6258
918.939	6247
919.05	6167
919.161	6182
919.272	6152
919.383	6076
919.494	6273
919.604	6399
919.715	6273
919.826	6186
919.936	6281
920.047	6350
920.157	6254
920.267	6475
920.378	6281
920.488	6327
920.598	6391
920.708	6570
920.818	6475
920.928	6479
921.038	6623
921.148	6620
921.258	6300
921.368	6262
921.477	6232
921.587	6117
921.697	6083
921.806	6163
921.916	6041
922.025	5954
922.134	5893
922.244	5897
922.353	5961
922.462	5885
922.571	5786
922.68	5729
922.789	5688
922.898	5745
923.007	5615
923.116	5707
923.224	5726
923.333	5634
923.442	5611
923.55	5585
923.659	5551
923.767	5665
923.876	5512
923.984	5634
924.092	5490
924.201	5512
924.309	5528
924.417	5551
924.525	5520
924.633	5543
924.741	6273
924.849	5379
924.956	5455
925.064	5341
925.172	5357
925.279	5292
925.387	5318
925.494	5307
925.602	5406
925.709	5410
925.816	5284
925.924	5322
926.031	5311
926.138	5322
926.245	5303
926.352	5235
926.459	5337
926.566	5307
926.673	5216
926.779	5143
926.886	5094
926.993	5045
927.099	5037
927.206	4980
927.312	4942
927.419	5006
927.525	4991
927.631	4999
927.737	4873
927.843	4850
927.95	4801
928.056	4831
928.162	4812
928.267	4858
928.373	5231
928.479	4866
928.585	4691
928.69	4717
928.796	4778
928.901	4679
929.007	4573
929.112	4641
929.218	4618
929.323	4558
929.428	4527
929.533	4679
929.638	4478
929.743	4535
929.848	4607
929.953	4531
930.058	4474
930.163	4333
930.267	4367
930.372	4447
930.477	4333
930.581	4402
930.685	4363
930.79	4253
930.894	4249
930.998	4249
931.103	4394
931.207	4086
931.311	4032
931.415	4044
931.519	3892
931.623	3979
