Data from glass_V78500241_2573.txt Node
Date: Wed Sep 01 19:32:20 CST 2021
User: usil
Spectrometer: V785-0024
Trigger mode: 0
Integration Time (sec): 4.000000E-1
Scans to average: 1
Nonlinearity correction enabled: false
Boxcar width: 0
Storing dark spectrum: false
XAxis mode: Wavelengths
Number of Pixels in Spectrum: 1024
>>>>>Begin Spectral Data<<<<<
801.071	3720
801.214	3759
801.356	3709
801.499	3713
801.641	3690
801.783	3785
801.926	3827
802.068	3785
802.211	3884
802.353	3884
802.496	3850
802.638	3827
802.78	3899
802.923	3896
803.065	3838
803.208	3869
803.35	3880
803.492	3869
803.635	3880
803.777	3770
803.919	3892
804.061	4131
804.204	3964
804.346	3911
804.488	3896
804.63	4036
804.773	3964
804.915	3991
805.057	4128
805.199	4044
805.341	4063
805.483	4154
805.626	4086
805.768	4120
805.91	4246
806.052	4207
806.194	4204
806.336	4318
806.478	4177
806.62	4147
806.762	4185
806.904	4234
807.046	4337
807.188	4219
807.33	4177
807.472	4196
807.614	4150
807.756	4265
807.898	4169
808.04	4185
808.182	4253
808.324	4318
808.465	4371
808.607	4447
808.749	4455
808.891	4451
809.033	4504
809.174	4386
809.316	4261
809.458	4207
809.6	4116
809.741	4135
809.883	4128
810.025	4204
810.166	4204
810.308	4173
810.45	4242
810.591	4173
810.733	4261
810.875	4493
811.016	4854
811.158	5094
811.299	5258
811.441	5303
811.582	5041
811.724	4691
811.865	4470
812.007	4424
812.148	4409
812.29	4455
812.431	4402
812.573	4375
812.714	4371
812.855	4405
812.997	4367
813.138	4462
813.279	4413
813.421	4341
813.562	4417
813.703	4306
813.845	4329
813.986	4276
814.127	4173
814.268	4246
814.41	4261
814.551	4227
814.692	4303
814.833	4219
814.974	4318
815.115	4348
815.256	4242
815.397	4227
815.539	4284
815.68	4185
815.821	4230
815.962	4306
816.103	4261
816.244	4253
816.385	4207
816.526	4261
816.666	4147
816.807	4082
816.948	4188
817.089	4173
817.23	4071
817.371	4090
817.512	4067
817.653	4093
817.793	4017
817.934	3998
818.075	4124
818.216	4101
818.356	4051
818.497	3964
818.638	3884
818.778	3884
818.919	3831
819.06	3846
819.2	3941
819.341	3846
819.481	3823
819.622	3865
819.762	3998
819.903	4002
820.043	3873
820.184	3800
820.324	3838
820.465	3869
820.605	3854
820.746	3888
820.886	3816
821.026	3926
821.167	3934
821.307	3941
821.447	3922
821.588	3922
821.728	3896
821.868	3926
822.008	3884
822.149	3880
822.289	3888
822.429	3762
822.569	3766
822.709	3838
822.849	3698
822.99	3686
823.13	3770
823.27	3789
823.41	3705
823.55	3778
823.69	3709
823.83	3698
823.97	3720
824.11	3614
824.25	3603
824.389	3656
824.529	3633
824.669	3629
824.809	3686
824.949	3770
825.089	3728
825.228	3690
825.368	3587
825.508	3538
825.648	3538
825.787	3599
825.927	3663
826.067	3576
826.206	3698
826.346	3759
826.485	3819
826.625	3857
826.765	3926
826.904	3819
827.044	3603
827.183	3542
827.323	3401
827.462	3496
827.601	3428
827.741	3431
827.88	3405
828.02	3378
828.159	3374
828.298	3431
828.437	3511
828.577	3458
828.716	3625
828.855	3462
828.994	3412
829.134	3374
829.273	3359
829.412	3313
829.551	3332
829.69	3393
829.829	3428
829.968	3504
830.107	3428
830.246	3393
830.385	3382
830.524	3344
830.663	3279
830.802	3264
830.941	3199
831.08	3173
831.219	3264
831.357	3279
831.496	3424
831.635	3188
831.774	3138
831.913	3176
832.051	3119
832.19	3165
832.329	3188
832.467	3150
832.606	3074
832.744	3154
832.883	3169
833.022	3188
833.16	3230
833.299	3272
833.437	3313
833.576	3370
833.714	3401
833.852	3428
833.991	3435
834.129	3431
834.267	3488
834.406	3405
834.544	3405
834.682	3431
834.821	3405
834.959	3538
835.097	3443
835.235	3511
835.373	3481
835.511	3492
835.65	3431
835.788	3507
835.926	3386
836.064	3348
836.202	3374
836.34	3568
836.478	3595
836.615	3542
836.753	3622
836.891	3656
837.029	3599
837.167	3568
837.305	3534
837.443	3504
837.58	3469
837.718	3587
837.856	3572
837.993	3523
838.131	3599
838.269	3561
838.406	3568
838.544	3572
838.681	3450
838.819	3469
838.956	3374
839.094	3355
839.231	3431
839.369	3549
839.506	3709
839.643	3595
839.781	3507
839.918	3469
840.055	3511
840.193	3496
840.33	3469
840.467	3519
840.604	3568
840.742	3774
840.879	3538
841.016	3545
841.153	3587
841.29	3766
841.427	3740
841.564	3728
841.701	3717
841.838	3690
841.975	3629
842.112	3743
842.249	3610
842.385	3599
842.522	3793
842.659	3679
842.796	3648
842.933	3709
843.069	3686
843.206	3686
843.343	3778
843.479	3778
843.616	3823
843.752	3622
843.889	3686
844.025	3835
844.162	3743
844.298	3854
844.435	3759
844.571	3785
844.708	3915
844.844	3998
844.98	4044
845.117	4021
845.253	3876
845.389	3880
845.525	3907
845.661	3934
845.798	3922
845.934	3949
846.07	3926
846.206	4071
846.342	4120
846.478	4055
846.614	3953
846.75	3945
846.886	3876
847.022	4025
847.158	3934
847.294	3968
847.429	4025
847.565	3979
847.701	4249
847.837	3865
847.972	3873
848.108	3983
848.244	3975
848.379	3835
848.515	3781
848.65	3774
848.786	3854
848.921	3842
849.057	3884
849.192	3972
849.328	3899
849.463	3922
849.598	3865
849.734	3850
849.869	3831
850.004	3797
850.14	3789
850.275	3778
850.41	3793
850.545	3770
850.68	3747
850.815	3793
850.95	3797
851.085	3930
851.22	3808
851.355	3800
851.49	3797
851.625	3816
851.76	3766
851.895	3766
852.03	3755
852.165	3831
852.299	3823
852.434	3869
852.569	3873
852.703	3808
852.838	3918
852.973	3994
853.107	4010
853.242	3857
853.376	3838
853.511	3781
853.645	3808
853.78	3937
853.914	3888
854.048	3880
854.183	3865
854.317	3915
854.451	4029
854.585	3956
854.72	3934
854.854	4013
854.988	3937
855.122	4010
855.256	3934
855.39	4021
855.524	4093
855.658	4109
855.792	4112
855.926	4124
856.06	4192
856.194	4230
856.327	4147
856.461	4105
856.595	4139
856.729	4204
856.862	4227
856.996	4215
857.13	4280
857.263	4303
857.397	4341
857.53	4276
857.664	4299
857.797	4371
857.931	4424
858.064	4383
858.197	4413
858.331	4306
858.464	4379
858.597	4360
858.731	4390
858.864	4493
858.997	4405
859.13	4474
859.263	4569
859.396	4558
859.529	4546
859.662	4508
859.795	4478
859.928	4645
860.061	4752
860.194	4698
860.327	4641
860.46	4592
860.592	4733
860.725	4759
860.858	4755
860.99	4687
861.123	4675
861.256	4664
861.388	4767
861.521	5436
861.653	4717
861.786	4721
861.918	4752
862.05	4778
862.183	4858
862.315	4892
862.447	4896
862.58	4877
862.712	4820
862.844	4774
862.976	4858
863.108	4885
863.24	5151
863.372	4820
863.504	4866
863.636	4862
863.768	4927
863.9	4938
864.032	4904
864.164	5014
864.296	5025
864.428	5067
864.559	5094
864.691	5132
864.823	5090
864.954	5117
865.086	5147
865.217	5117
865.349	5124
865.48	5136
865.612	5193
865.743	5265
865.875	5178
866.006	5170
866.137	5201
866.269	5227
866.4	5273
866.531	5223
866.662	5273
866.793	5246
866.924	5307
867.055	5299
867.186	5299
867.317	5296
867.448	5322
867.579	5349
867.71	5391
867.841	5376
867.972	5474
868.103	5482
868.233	5463
868.364	5452
868.495	5505
868.625	5585
868.756	5775
868.886	5661
869.017	5707
869.147	5840
869.278	5847
869.408	5752
869.539	5817
869.669	5889
869.799	5889
869.929	5996
870.06	6022
870.19	6171
870.32	6186
870.45	6273
870.58	6334
870.71	6407
870.84	6475
870.97	6369
871.1	6467
871.23	6623
871.36	6654
871.489	6669
871.619	6772
871.749	6768
871.879	6897
872.008	6890
872.138	7008
872.267	6985
872.397	6935
872.526	7004
872.656	7046
872.785	7206
872.915	7365
873.044	7521
873.173	7529
873.303	7624
873.432	7696
873.561	7852
873.69	7879
873.819	8001
873.948	8126
874.077	8244
874.206	8351
874.335	8469
874.464	8667
874.593	8849
874.722	8914
874.851	9020
874.979	9279
875.108	9321
875.237	9428
875.365	9507
875.494	9637
875.623	9835
875.751	9865
875.88	9983
876.008	10154
876.136	10238
876.265	10481
876.393	10626
876.521	10679
876.65	10820
876.778	10828
876.906	10812
877.034	10961
877.162	11090
877.29	11174
877.418	11265
877.546	11341
877.674	11493
877.802	11520
877.93	11505
878.058	11501
878.185	11627
878.313	11657
878.441	11718
878.568	11710
878.696	11828
878.824	11961
878.951	11912
879.079	12030
879.206	12155
879.333	12076
879.461	11908
879.588	12015
879.715	12068
879.842	12201
879.97	12110
880.097	11847
880.224	11885
880.351	11805
880.478	11885
880.605	11813
880.732	11870
880.859	11931
880.986	11836
881.112	11813
881.239	11688
881.366	11661
881.493	11611
881.619	11512
881.746	11562
881.872	11482
881.999	11433
882.125	11501
882.252	11596
882.378	11501
882.505	11539
882.631	11292
882.757	11288
882.883	11284
883.01	11269
883.136	11227
883.262	11147
883.388	11060
883.514	11235
883.64	11162
883.766	11124
883.892	10987
884.018	10984
884.143	11086
884.269	11094
884.395	10831
884.52	10790
884.646	10786
884.772	10706
884.897	10611
885.023	10683
885.148	10691
885.274	10721
885.399	10653
885.524	10607
885.65	10607
885.775	10618
885.9	10580
886.025	10554
886.15	10573
886.275	10481
886.4	10394
886.525	10440
886.65	10287
886.775	10402
886.9	10459
887.025	10546
887.149	10295
887.274	10196
887.399	10185
887.523	10147
887.648	10116
887.773	10086
887.897	10223
888.021	10268
888.146	10109
888.27	10242
888.395	10154
888.519	10158
888.643	10154
888.767	10188
888.891	10116
889.015	9987
889.139	10048
889.263	9937
889.387	9956
889.511	10124
889.635	10025
889.759	9941
889.883	10002
890.006	10006
890.13	10074
890.254	9911
890.377	9934
890.501	9865
890.624	9819
890.748	9876
890.871	9808
890.995	9724
891.118	9740
891.241	9778
891.364	9713
891.488	9808
891.611	9713
891.734	9751
891.857	9816
891.98	9698
892.103	9812
892.226	9679
892.349	9671
892.471	9515
892.594	9587
892.717	9622
892.839	9572
892.962	9595
893.085	9663
893.207	9534
893.33	9485
893.452	9534
893.575	9553
893.697	9507
893.819	9595
893.941	9682
894.064	9580
894.186	9401
894.308	9408
894.43	9545
894.552	9603
894.674	9564
894.796	9359
894.918	9344
895.04	9367
895.161	9363
895.283	9367
895.405	9253
895.526	9203
895.648	9275
895.769	9150
895.891	9222
896.012	9306
896.134	9211
896.255	9150
896.376	9097
896.498	9142
896.619	9165
896.74	9074
896.861	9058
896.982	9294
897.103	9233
897.224	9165
897.345	9009
897.466	8986
897.587	8986
897.708	9100
897.828	8990
897.949	8872
898.07	8899
898.19	8902
898.311	8994
898.431	8902
898.552	8868
898.672	8925
898.792	8899
898.913	8918
899.033	8773
899.153	8743
899.273	8708
899.393	8697
899.513	8716
899.633	8689
899.753	8781
899.873	8659
899.993	8758
900.113	8674
900.232	8693
900.352	8644
900.472	8648
900.591	8571
900.711	8610
900.83	8579
900.95	8670
901.069	8686
901.189	8610
901.308	8446
901.427	8324
901.546	8442
901.665	8476
901.784	8514
901.904	8385
902.023	8290
902.141	8279
902.26	8237
902.379	8366
902.498	8123
902.617	8229
902.735	8267
902.854	8309
902.973	8210
903.091	8084
903.21	8084
903.328	8126
903.446	8069
903.565	8096
903.683	8046
903.801	8115
903.919	8123
904.038	8088
904.156	7978
904.274	8096
904.392	8031
904.51	8001
904.627	8027
904.745	8054
904.863	8115
904.981	7894
905.098	7841
905.216	7890
905.334	7875
905.451	7936
905.569	7849
905.686	7883
905.803	7967
905.921	7731
906.038	7871
906.155	7753
906.272	7719
906.389	7715
906.506	7719
906.623	7643
906.74	7533
906.857	7609
906.974	7552
907.091	7643
907.208	7712
907.324	7662
907.441	7533
907.557	7487
907.674	7411
907.79	7400
907.907	7422
908.023	7422
908.139	7388
908.256	7365
908.372	7346
908.488	7308
908.604	7206
908.72	7225
908.836	7285
908.952	7240
909.068	7202
909.184	7301
909.3	7217
909.415	7285
909.531	7285
909.647	7145
909.762	7080
909.878	7065
909.993	7072
910.108	7080
910.224	7065
910.339	7027
910.454	7050
910.57	7034
910.685	7023
910.8	7152
910.915	7110
911.03	6996
911.145	6863
911.259	6825
911.374	6954
911.489	6818
911.604	6791
911.718	6703
911.833	6730
911.947	6639
912.062	6532
912.176	6673
912.291	6650
912.405	6631
912.519	6783
912.633	6825
912.748	6677
912.862	6703
912.976	6601
913.09	6585
913.204	6563
913.318	6593
913.431	6623
913.545	6673
913.659	6711
913.772	6612
913.886	6521
914	6521
914.113	6601
914.226	6639
914.34	6563
914.453	6506
914.566	6593
914.68	6452
914.793	6479
914.906	6429
915.019	6346
915.132	6338
915.245	6403
915.358	6429
915.47	6422
915.583	6456
915.696	6475
915.809	6532
915.921	6483
916.034	6376
916.146	6391
916.259	6338
916.371	6391
916.483	6426
916.595	6346
916.708	6395
916.82	6357
916.932	6384
917.044	6399
917.156	6391
917.268	6327
917.38	6365
917.491	6254
917.603	6350
917.715	6372
917.826	6407
917.938	6350
918.049	6258
918.161	6334
918.272	6361
918.384	6422
918.495	6319
918.606	6270
918.717	6190
918.828	6254
918.939	6270
919.05	6239
919.161	6262
919.272	6148
919.383	6121
919.494	6258
919.604	6410
919.715	6228
919.826	6228
919.936	6224
920.047	6331
920.157	6235
920.267	6395
920.378	6308
920.488	6266
920.598	6407
920.708	6490
920.818	6445
920.928	6422
921.038	6578
921.148	6597
921.258	6388
921.368	6266
921.477	6232
921.587	6163
921.697	6091
921.806	6175
921.916	6019
922.025	5863
922.134	5901
922.244	5805
922.353	5942
922.462	5882
922.571	5729
922.68	5699
922.789	5691
922.898	5722
923.007	5611
923.116	5699
923.224	5661
923.333	5684
923.442	5573
923.55	5547
923.659	5558
923.767	5585
923.876	5547
923.984	5627
924.092	5520
924.201	5581
924.309	5543
924.417	5532
924.525	5440
924.633	5421
924.741	6277
924.849	5368
924.956	5440
925.064	5341
925.172	5337
925.279	5307
925.387	5311
925.494	5330
925.602	5436
925.709	5391
925.816	5292
925.924	5303
926.031	5303
926.138	5265
926.245	5307
926.352	5227
926.459	5296
926.566	5284
926.673	5197
926.779	5117
926.886	5140
926.993	4999
927.099	5006
927.206	4984
927.312	4942
927.419	5025
927.525	5006
927.631	5003
927.737	4892
927.843	4843
927.95	4782
928.056	4820
928.162	4809
928.267	4858
928.373	5258
928.479	4847
928.585	4641
928.69	4744
928.796	4752
928.901	4653
929.007	4607
929.112	4687
929.218	4634
929.323	4569
929.428	4508
929.533	4637
929.638	4504
929.743	4489
929.848	4523
929.953	4527
930.058	4440
930.163	4306
930.267	4348
930.372	4424
930.477	4276
930.581	4462
930.685	4352
930.79	4253
930.894	4268
930.998	4276
931.103	4375
931.207	4154
931.311	4040
931.415	4036
931.519	3972
931.623	3926
