Data from glass_V78500241_2823.txt Node
Date: Wed Sep 01 19:34:04 CST 2021
User: usil
Spectrometer: V785-0024
Trigger mode: 0
Integration Time (sec): 4.000000E-1
Scans to average: 1
Nonlinearity correction enabled: false
Boxcar width: 0
Storing dark spectrum: false
XAxis mode: Wavelengths
Number of Pixels in Spectrum: 1024
>>>>>Begin Spectral Data<<<<<
801.071	3709
801.214	3717
801.356	3671
801.499	3759
801.641	3705
801.783	3743
801.926	3819
802.068	3808
802.211	3812
802.353	3854
802.496	3835
802.638	3884
802.78	3846
802.923	3915
803.065	3880
803.208	3850
803.35	3854
803.492	3876
803.635	3876
803.777	3857
803.919	3888
804.061	4097
804.204	3956
804.346	3899
804.488	3930
804.63	4032
804.773	3960
804.915	4002
805.057	4086
805.199	4006
805.341	4036
805.483	4162
805.626	4124
805.768	4097
805.91	4143
806.052	4207
806.194	4188
806.336	4322
806.478	4169
806.62	4150
806.762	4181
806.904	4238
807.046	4314
807.188	4188
807.33	4162
807.472	4173
807.614	4181
807.756	4268
807.898	4181
808.04	4162
808.182	4257
808.324	4341
808.465	4352
808.607	4440
808.749	4455
808.891	4436
809.033	4462
809.174	4390
809.316	4268
809.458	4242
809.6	4120
809.741	4120
809.883	4131
810.025	4230
810.166	4158
810.308	4147
810.45	4192
810.591	4207
810.733	4261
810.875	4478
811.016	4778
811.158	5102
811.299	5258
811.441	5223
811.582	5045
811.724	4706
811.865	4405
812.007	4440
812.148	4383
812.29	4413
812.431	4405
812.573	4421
812.714	4413
812.855	4386
812.997	4360
813.138	4451
813.279	4428
813.421	4386
813.562	4405
813.703	4280
813.845	4348
813.986	4257
814.127	4219
814.268	4242
814.41	4291
814.551	4211
814.692	4261
814.833	4230
814.974	4272
815.115	4310
815.256	4207
815.397	4219
815.539	4261
815.68	4177
815.821	4215
815.962	4276
816.103	4268
816.244	4227
816.385	4204
816.526	4287
816.666	4162
816.807	4090
816.948	4154
817.089	4143
817.23	4124
817.371	4055
817.512	4017
817.653	4074
817.793	3998
817.934	4025
818.075	4116
818.216	4071
818.356	4029
818.497	4010
818.638	3903
818.778	3888
818.919	3884
819.06	3842
819.2	3915
819.341	3892
819.481	3831
819.622	3896
819.762	3994
819.903	3926
820.043	3850
820.184	3789
820.324	3766
820.465	3869
820.605	3861
820.746	3888
820.886	3793
821.026	3888
821.167	3899
821.307	3964
821.447	3934
821.588	3911
821.728	3918
821.868	3922
822.008	3884
822.149	3880
822.289	3896
822.429	3819
822.569	3800
822.709	3816
822.849	3694
822.99	3713
823.13	3755
823.27	3785
823.41	3682
823.55	3743
823.69	3694
823.83	3709
823.97	3660
824.11	3549
824.25	3595
824.389	3625
824.529	3663
824.669	3622
824.809	3671
824.949	3736
825.089	3717
825.228	3713
825.368	3584
825.508	3534
825.648	3553
825.787	3580
825.927	3618
826.067	3606
826.206	3652
826.346	3736
826.485	3774
826.625	3876
826.765	3899
826.904	3842
827.044	3633
827.183	3538
827.323	3412
827.462	3515
827.601	3424
827.741	3401
827.88	3431
828.02	3351
828.159	3431
828.298	3454
828.437	3504
828.577	3458
828.716	3584
828.855	3519
828.994	3382
829.134	3325
829.273	3382
829.412	3310
829.551	3325
829.69	3374
829.829	3397
829.968	3485
830.107	3397
830.246	3431
830.385	3325
830.524	3348
830.663	3272
830.802	3249
830.941	3169
831.08	3165
831.219	3214
831.357	3226
831.496	3382
831.635	3222
831.774	3165
831.913	3180
832.051	3165
832.19	3123
832.329	3184
832.467	3100
832.606	3077
832.744	3165
832.883	3173
833.022	3161
833.16	3275
833.299	3279
833.437	3359
833.576	3367
833.714	3367
833.852	3431
833.991	3458
834.129	3454
834.267	3428
834.406	3409
834.544	3462
834.682	3431
834.821	3393
834.959	3564
835.097	3424
835.235	3485
835.373	3485
835.511	3450
835.65	3447
835.788	3466
835.926	3370
836.064	3374
836.202	3458
836.34	3534
836.478	3603
836.615	3561
836.753	3587
836.891	3599
837.029	3610
837.167	3564
837.305	3481
837.443	3485
837.58	3511
837.718	3534
837.856	3568
837.993	3538
838.131	3587
838.269	3572
838.406	3545
838.544	3534
838.681	3454
838.819	3401
838.956	3351
839.094	3386
839.231	3416
839.369	3466
839.506	3690
839.643	3580
839.781	3473
839.918	3466
840.055	3534
840.193	3507
840.33	3534
840.467	3545
840.604	3557
840.742	3774
840.879	3530
841.016	3538
841.153	3572
841.29	3770
841.427	3686
841.564	3652
841.701	3747
841.838	3671
841.975	3679
842.112	3656
842.249	3606
842.385	3606
842.522	3804
842.659	3633
842.796	3629
842.933	3717
843.069	3720
843.206	3671
843.343	3812
843.479	3816
843.616	3808
843.752	3682
843.889	3679
844.025	3827
844.162	3671
844.298	3827
844.435	3781
844.571	3797
844.708	3899
844.844	3964
844.98	3998
845.117	3994
845.253	3892
845.389	3865
845.525	3964
845.661	3964
845.798	3884
845.934	3956
846.07	3922
846.206	4063
846.342	4105
846.478	4017
846.614	4013
846.75	3903
846.886	3915
847.022	4021
847.158	3979
847.294	3991
847.429	3994
847.565	3968
847.701	4238
847.837	3903
847.972	3880
848.108	3953
848.244	3937
848.379	3823
848.515	3850
848.65	3785
848.786	3846
848.921	3823
849.057	3918
849.192	3907
849.328	3873
849.463	3846
849.598	3876
849.734	3831
849.869	3800
850.004	3747
850.14	3804
850.275	3770
850.41	3679
850.545	3747
850.68	3770
850.815	3778
850.95	3766
851.085	3918
851.22	3835
851.355	3816
851.49	3740
851.625	3762
851.76	3781
851.895	3717
852.03	3728
852.165	3762
852.299	3781
852.434	3926
852.569	3884
852.703	3918
852.838	3934
852.973	4002
853.107	3994
853.242	3892
853.376	3850
853.511	3774
853.645	3842
853.78	3972
853.914	3880
854.048	3876
854.183	3896
854.317	3926
854.451	4025
854.585	3960
854.72	3918
854.854	4006
854.988	3903
855.122	3964
855.256	3903
855.39	3994
855.524	4090
855.658	4101
855.792	4086
855.926	4147
856.06	4139
856.194	4230
856.327	4154
856.461	4101
856.595	4112
856.729	4109
856.862	4299
856.996	4196
857.13	4238
857.263	4261
857.397	4348
857.53	4276
857.664	4303
857.797	4383
857.931	4402
858.064	4383
858.197	4440
858.331	4363
858.464	4363
858.597	4348
858.731	4424
858.864	4436
858.997	4459
859.13	4478
859.263	4504
859.396	4538
859.529	4508
859.662	4512
859.795	4470
859.928	4565
860.061	4653
860.194	4706
860.327	4630
860.46	4645
860.592	4736
860.725	4645
860.858	4786
860.99	4660
861.123	4656
861.256	4649
861.388	4767
861.521	5246
861.653	4721
861.786	4656
861.918	4744
862.05	4694
862.183	4866
862.315	4858
862.447	4896
862.58	4911
862.712	4801
862.844	4748
862.976	4850
863.108	4847
863.24	5201
863.372	4809
863.504	4900
863.636	4866
863.768	4938
863.9	4980
864.032	4915
864.164	4911
864.296	4999
864.428	5041
864.559	5121
864.691	5086
864.823	5113
864.954	5128
865.086	5102
865.217	5075
865.349	5079
865.48	5159
865.612	5193
865.743	5288
865.875	5204
866.006	5197
866.137	5216
866.269	5216
866.4	5258
866.531	5258
866.662	5227
866.793	5277
866.924	5242
867.055	5296
867.186	5273
867.317	5292
867.448	5307
867.579	5372
867.71	5330
867.841	5379
867.972	5452
868.103	5440
868.233	5455
868.364	5474
868.495	5505
868.625	5592
868.756	5847
868.886	5589
869.017	5680
869.147	5809
869.278	5893
869.408	5737
869.539	5805
869.669	5847
869.799	5821
869.929	5958
870.06	5965
870.19	6144
870.32	6144
870.45	6243
870.58	6361
870.71	6452
870.84	6395
870.97	6350
871.1	6429
871.23	6639
871.36	6681
871.489	6612
871.619	6719
871.749	6798
871.879	6859
872.008	6935
872.138	6905
872.267	6958
872.397	6989
872.526	6985
872.656	7072
872.785	7164
872.915	7365
873.044	7415
873.173	7540
873.303	7647
873.432	7757
873.561	7837
873.69	7879
873.819	8054
873.948	8107
874.077	8221
874.206	8237
874.335	8461
874.464	8648
874.593	8834
874.722	8880
874.851	9161
874.979	9127
875.108	9348
875.237	9397
875.365	9431
875.494	9641
875.623	9861
875.751	9766
875.88	9987
876.008	10131
876.136	10268
876.265	10489
876.393	10672
876.521	10736
876.65	10748
876.778	10881
876.906	10919
877.034	10930
877.162	11067
877.29	11155
877.418	11299
877.546	11292
877.674	11425
877.802	11600
877.93	11554
878.058	11596
878.185	11547
878.313	11585
878.441	11726
878.568	11665
878.696	11821
878.824	11847
878.951	11904
879.079	11950
879.206	12152
879.333	12072
879.461	12007
879.588	12038
879.715	11999
879.842	12228
879.97	12026
880.097	11904
880.224	11813
880.351	11859
880.478	11866
880.605	11916
880.732	11813
880.859	12057
880.986	11714
881.112	11813
881.239	11676
881.366	11638
881.493	11649
881.619	11539
881.746	11608
881.872	11532
881.999	11493
882.125	11512
882.252	11543
882.378	11509
882.505	11573
882.631	11417
882.757	11223
882.883	11383
883.01	11212
883.136	11124
883.262	11102
883.388	11079
883.514	11197
883.64	11064
883.766	11098
883.892	10892
884.018	10961
884.143	11090
884.269	11052
884.395	10793
884.52	10809
884.646	10725
884.772	10675
884.897	10634
885.023	10679
885.148	10740
885.274	10668
885.399	10698
885.524	10626
885.65	10656
885.775	10466
885.9	10561
886.025	10577
886.15	10649
886.275	10546
886.4	10276
886.525	10413
886.65	10318
886.775	10295
886.9	10413
887.025	10462
887.149	10360
887.274	10246
887.399	10143
887.523	10200
887.648	10093
887.773	10074
887.897	10261
888.021	10124
888.146	10093
888.27	10207
888.395	10219
888.519	10192
888.643	10272
888.767	10181
888.891	10021
889.015	9949
889.139	10013
889.263	9945
889.387	9983
889.511	10086
889.635	10013
889.759	9972
889.883	9983
890.006	9945
890.13	10021
890.254	9979
890.377	9968
890.501	9838
890.624	9846
890.748	9838
890.871	9785
890.995	9679
891.118	9785
891.241	9705
891.364	9759
891.488	9869
891.611	9717
891.734	9682
891.857	9781
891.98	9705
892.103	9743
892.226	9663
892.349	9656
892.471	9504
892.594	9568
892.717	9633
892.839	9576
892.962	9618
893.085	9667
893.207	9561
893.33	9526
893.452	9515
893.575	9637
893.697	9473
893.819	9641
893.941	9599
894.064	9526
894.186	9424
894.308	9386
894.43	9545
894.552	9561
894.674	9439
894.796	9386
894.918	9401
895.04	9393
895.161	9283
895.283	9389
895.405	9157
895.526	9256
895.648	9146
895.769	9192
895.891	9260
896.012	9321
896.134	9161
896.255	9131
896.376	9165
896.498	9154
896.619	9154
896.74	9123
896.861	9085
896.982	9195
897.103	9321
897.224	9089
897.345	9020
897.466	9028
897.587	8937
897.708	9055
897.828	8990
897.949	8933
898.07	8815
898.19	8838
898.311	9005
898.431	8845
898.552	8895
898.672	8963
898.792	8861
898.913	8887
899.033	8823
899.153	8716
899.273	8629
899.393	8727
899.513	8686
899.633	8720
899.753	8735
899.873	8602
899.993	8739
900.113	8743
900.232	8644
900.352	8575
900.472	8632
900.591	8541
900.711	8507
900.83	8545
900.95	8697
901.069	8629
901.189	8549
901.308	8366
901.427	8396
901.546	8404
901.665	8419
901.784	8469
901.904	8343
902.023	8267
902.141	8176
902.26	8187
902.379	8237
902.498	8229
902.617	8183
902.735	8301
902.854	8195
902.973	8248
903.091	8081
903.21	8126
903.328	8107
903.446	8115
903.565	8062
903.683	8138
903.801	8039
903.919	8119
904.038	8092
904.156	8008
904.274	8039
904.392	8031
904.51	8035
904.627	8050
904.745	8054
904.863	8046
904.981	7871
905.098	7833
905.216	7837
905.334	7875
905.451	7936
905.569	7845
905.686	7921
905.803	7902
905.921	7776
906.038	7833
906.155	7875
906.272	7674
906.389	7712
906.506	7624
906.623	7605
906.74	7624
906.857	7544
906.974	7563
907.091	7605
907.208	7719
907.324	7677
907.441	7586
907.557	7468
907.674	7403
907.79	7324
907.907	7388
908.023	7472
908.139	7460
908.256	7343
908.372	7335
908.488	7358
908.604	7206
908.72	7187
908.836	7202
908.952	7171
909.068	7175
909.184	7285
909.3	7217
909.415	7285
909.531	7263
909.647	7050
909.762	7050
909.878	7076
909.993	7046
910.108	7099
910.224	7126
910.339	7095
910.454	7061
910.57	7023
910.685	7023
910.8	7118
910.915	7057
911.03	6977
911.145	6901
911.259	6844
911.374	6829
911.489	6825
911.604	6749
911.718	6722
911.833	6760
911.947	6681
912.062	6563
912.176	6722
912.291	6665
912.405	6681
912.519	6818
912.633	6745
912.748	6665
912.862	6677
912.976	6616
913.09	6517
913.204	6551
913.318	6589
913.431	6658
913.545	6722
913.659	6753
913.772	6669
913.886	6559
914	6563
914.113	6627
914.226	6673
914.34	6532
914.453	6528
914.566	6563
914.68	6479
914.793	6479
914.906	6448
915.019	6410
915.132	6384
915.245	6407
915.358	6475
915.47	6437
915.583	6452
915.696	6422
915.809	6506
915.921	6460
916.034	6395
916.146	6384
916.259	6361
916.371	6486
916.483	6448
916.595	6403
916.708	6437
916.82	6395
916.932	6372
917.044	6414
917.156	6327
917.268	6262
917.38	6391
917.491	6304
917.603	6369
917.715	6399
917.826	6376
917.938	6315
918.049	6216
918.161	6365
918.272	6414
918.384	6361
918.495	6296
918.606	6243
918.717	6194
918.828	6258
918.939	6232
919.05	6178
919.161	6228
919.272	6140
919.383	6102
919.494	6315
919.604	6380
919.715	6273
919.826	6266
919.936	6194
920.047	6338
920.157	6235
920.267	6433
920.378	6273
920.488	6258
920.598	6418
920.708	6528
920.818	6494
920.928	6407
921.038	6528
921.148	6536
921.258	6334
921.368	6258
921.477	6205
921.587	6216
921.697	6068
921.806	6163
921.916	6091
922.025	5961
922.134	5874
922.244	5935
922.353	5893
922.462	5870
922.571	5813
922.68	5661
922.789	5619
922.898	5695
923.007	5577
923.116	5695
923.224	5630
923.333	5680
923.442	5646
923.55	5589
923.659	5543
923.767	5638
923.876	5467
923.984	5596
924.092	5551
924.201	5524
924.309	5501
924.417	5532
924.525	5459
924.633	5493
924.741	6224
924.849	5360
924.956	5486
925.064	5383
925.172	5284
925.279	5284
925.387	5379
925.494	5311
925.602	5376
925.709	5448
925.816	5258
925.924	5265
926.031	5349
926.138	5280
926.245	5299
926.352	5151
926.459	5265
926.566	5288
926.673	5208
926.779	5075
926.886	5132
926.993	5025
927.099	4972
927.206	4938
927.312	4942
927.419	5006
927.525	4930
927.631	4934
927.737	4889
927.843	4843
927.95	4714
928.056	4828
928.162	4812
928.267	4793
928.373	5261
928.479	4828
928.585	4656
928.69	4748
928.796	4767
928.901	4687
929.007	4588
929.112	4641
929.218	4603
929.323	4603
929.428	4535
929.533	4607
929.638	4500
929.743	4542
929.848	4535
929.953	4466
930.058	4409
930.163	4341
930.267	4352
930.372	4413
930.477	4284
930.581	4455
930.685	4314
930.79	4230
930.894	4272
930.998	4230
931.103	4333
931.207	4131
931.311	4051
931.415	4055
931.519	3918
931.623	3930
