Data from glass_V78500241_1086.txt Node
Date: Wed Sep 01 19:22:01 CST 2021
User: usil
Spectrometer: V785-0024
Trigger mode: 0
Integration Time (sec): 4.000000E-1
Scans to average: 1
Nonlinearity correction enabled: false
Boxcar width: 0
Storing dark spectrum: false
XAxis mode: Wavelengths
Number of Pixels in Spectrum: 1024
>>>>>Begin Spectral Data<<<<<
801.071	3755
801.214	3747
801.356	3720
801.499	3770
801.641	3724
801.783	3816
801.926	3876
802.068	3827
802.211	3827
802.353	3903
802.496	3865
802.638	3907
802.78	3934
802.923	3983
803.065	3880
803.208	3854
803.35	3857
803.492	3934
803.635	3960
803.777	3812
803.919	3934
804.061	4147
804.204	3964
804.346	3979
804.488	3930
804.63	4040
804.773	3998
804.915	4029
805.057	4143
805.199	4010
805.341	4109
805.483	4169
805.626	4154
805.768	4154
805.91	4219
806.052	4242
806.194	4257
806.336	4371
806.478	4204
806.62	4188
806.762	4200
806.904	4318
807.046	4337
807.188	4246
807.33	4196
807.472	4230
807.614	4230
807.756	4333
807.898	4242
808.04	4207
808.182	4344
808.324	4363
808.465	4398
808.607	4478
808.749	4459
808.891	4489
809.033	4527
809.174	4413
809.316	4238
809.458	4280
809.6	4158
809.741	4143
809.883	4181
810.025	4181
810.166	4238
810.308	4242
810.45	4291
810.591	4276
810.733	4268
810.875	4527
811.016	4831
811.158	5151
811.299	5265
811.441	5254
811.582	5041
811.724	4714
811.865	4474
812.007	4466
812.148	4413
812.29	4497
812.431	4424
812.573	4386
812.714	4386
812.855	4447
812.997	4405
813.138	4489
813.279	4443
813.421	4413
813.562	4371
813.703	4356
813.845	4318
813.986	4329
814.127	4211
814.268	4299
814.41	4284
814.551	4234
814.692	4341
814.833	4249
814.974	4295
815.115	4363
815.256	4291
815.397	4238
815.539	4253
815.68	4219
815.821	4246
815.962	4310
816.103	4253
816.244	4272
816.385	4257
816.526	4261
816.666	4204
816.807	4120
816.948	4154
817.089	4207
817.23	4120
817.371	4074
817.512	4109
817.653	4086
817.793	4017
817.934	4013
818.075	4105
818.216	4074
818.356	4051
818.497	4017
818.638	3918
818.778	3911
818.919	3903
819.06	3869
819.2	3915
819.341	3850
819.481	3838
819.622	3915
819.762	4013
819.903	3941
820.043	3915
820.184	3854
820.324	3876
820.465	3888
820.605	3896
820.746	3907
820.886	3823
821.026	3930
821.167	3930
821.307	4006
821.447	3956
821.588	3953
821.728	3994
821.868	3956
822.008	3911
822.149	3922
822.289	3960
822.429	3793
822.569	3774
822.709	3865
822.849	3762
822.99	3705
823.13	3755
823.27	3804
823.41	3724
823.55	3751
823.69	3720
823.83	3770
823.97	3644
824.11	3625
824.25	3618
824.389	3656
824.529	3656
824.669	3671
824.809	3770
824.949	3755
825.089	3724
825.228	3770
825.368	3633
825.508	3572
825.648	3599
825.787	3591
825.927	3644
826.067	3637
826.206	3686
826.346	3808
826.485	3838
826.625	3865
826.765	3987
826.904	3823
827.044	3591
827.183	3568
827.323	3435
827.462	3488
827.601	3431
827.741	3420
827.88	3450
828.02	3374
828.159	3450
828.298	3481
828.437	3576
828.577	3485
828.716	3644
828.855	3466
828.994	3401
829.134	3355
829.273	3420
829.412	3370
829.551	3382
829.69	3386
829.829	3412
829.968	3519
830.107	3462
830.246	3443
830.385	3401
830.524	3336
830.663	3321
830.802	3245
830.941	3211
831.08	3211
831.219	3241
831.357	3283
831.496	3409
831.635	3260
831.774	3184
831.913	3237
832.051	3154
832.19	3184
832.329	3260
832.467	3157
832.606	3108
832.744	3214
832.883	3184
833.022	3180
833.16	3279
833.299	3306
833.437	3348
833.576	3397
833.714	3367
833.852	3488
833.991	3462
834.129	3458
834.267	3458
834.406	3405
834.544	3409
834.682	3405
834.821	3420
834.959	3561
835.097	3431
835.235	3534
835.373	3511
835.511	3511
835.65	3469
835.788	3492
835.926	3420
836.064	3428
836.202	3393
836.34	3549
836.478	3572
836.615	3561
836.753	3603
836.891	3679
837.029	3663
837.167	3561
837.305	3599
837.443	3549
837.58	3454
837.718	3568
837.856	3545
837.993	3549
838.131	3584
838.269	3572
838.406	3618
838.544	3557
838.681	3462
838.819	3420
838.956	3412
839.094	3397
839.231	3473
839.369	3530
839.506	3728
839.643	3629
839.781	3496
839.918	3462
840.055	3515
840.193	3542
840.33	3534
840.467	3557
840.604	3641
840.742	3827
840.879	3542
841.016	3591
841.153	3614
841.29	3785
841.427	3724
841.564	3728
841.701	3740
841.838	3728
841.975	3682
842.112	3747
842.249	3648
842.385	3610
842.522	3861
842.659	3682
842.796	3671
842.933	3732
843.069	3740
843.206	3747
843.343	3831
843.479	3785
843.616	3865
843.752	3701
843.889	3644
844.025	3873
844.162	3755
844.298	3873
844.435	3819
844.571	3781
844.708	3903
844.844	3949
844.98	4013
845.117	4006
845.253	3903
845.389	3964
845.525	3922
845.661	4002
845.798	3865
845.934	4025
846.07	3983
846.206	4017
846.342	4162
846.478	4124
846.614	3953
846.75	3930
846.886	3926
847.022	4063
847.158	3998
847.294	4025
847.429	4036
847.565	4013
847.701	4223
847.837	3892
847.972	3892
848.108	3998
848.244	4010
848.379	3846
848.515	3808
848.65	3854
848.786	3861
848.921	3873
849.057	3892
849.192	3945
849.328	3918
849.463	3915
849.598	3884
849.734	3911
849.869	3846
850.004	3804
850.14	3835
850.275	3808
850.41	3751
850.545	3747
850.68	3789
850.815	3816
850.95	3800
851.085	3987
851.22	3846
851.355	3808
851.49	3812
851.625	3831
851.76	3819
851.895	3728
852.03	3759
852.165	3797
852.299	3812
852.434	3949
852.569	3854
852.703	3945
852.838	4006
852.973	4006
853.107	3953
853.242	3930
853.376	3869
853.511	3781
853.645	3892
853.78	3968
853.914	3922
854.048	3880
854.183	3937
854.317	3983
854.451	4101
854.585	3972
854.72	3975
854.854	4051
854.988	3918
855.122	4025
855.256	3960
855.39	4017
855.524	4082
855.658	4116
855.792	4154
855.926	4150
856.06	4192
856.194	4265
856.327	4169
856.461	4135
856.595	4124
856.729	4192
856.862	4295
856.996	4219
857.13	4322
857.263	4348
857.397	4424
857.53	4299
857.664	4352
857.797	4436
857.931	4481
858.064	4451
858.197	4489
858.331	4405
858.464	4394
858.597	4322
858.731	4443
858.864	4493
858.997	4447
859.13	4535
859.263	4577
859.396	4603
859.529	4535
859.662	4500
859.795	4558
859.928	4630
860.061	4702
860.194	4714
860.327	4668
860.46	4626
860.592	4729
860.725	4725
860.858	4782
860.99	4744
861.123	4755
861.256	4694
861.388	4694
861.521	5429
861.653	4755
861.786	4740
861.918	4729
862.05	4793
862.183	4843
862.315	4866
862.447	4972
862.58	4881
862.712	4824
862.844	4805
862.976	4866
863.108	4915
863.24	5231
863.372	4873
863.504	4885
863.636	4892
863.768	4965
863.9	4995
864.032	4900
864.164	4980
864.296	5022
864.428	5143
864.559	5064
864.691	5086
864.823	5064
864.954	5162
865.086	5136
865.217	5113
865.349	5124
865.48	5181
865.612	5254
865.743	5296
865.875	5220
866.006	5239
866.137	5231
866.269	5227
866.4	5231
866.531	5204
866.662	5239
866.793	5269
866.924	5299
867.055	5379
867.186	5360
867.317	5311
867.448	5269
867.579	5398
867.71	5417
867.841	5402
867.972	5493
868.103	5478
868.233	5543
868.364	5516
868.495	5543
868.625	5718
868.756	5805
868.886	5634
869.017	5764
869.147	5893
869.278	5893
869.408	5813
869.539	5863
869.669	5950
869.799	5916
869.929	5999
870.06	6011
870.19	6205
870.32	6228
870.45	6209
870.58	6403
870.71	6448
870.84	6433
870.97	6422
871.1	6502
871.23	6635
871.36	6768
871.489	6684
871.619	6810
871.749	6779
871.879	6848
872.008	7050
872.138	6981
872.267	6981
872.397	6985
872.526	7042
872.656	7057
872.785	7198
872.915	7403
873.044	7533
873.173	7559
873.303	7628
873.432	7723
873.561	7879
873.69	7944
873.819	8024
873.948	8157
874.077	8225
874.206	8294
874.335	8427
874.464	8659
874.593	8902
874.722	8986
874.851	9146
874.979	9302
875.108	9325
875.237	9485
875.365	9458
875.494	9663
875.623	9846
875.751	9778
875.88	9994
876.008	10196
876.136	10291
876.265	10519
876.393	10691
876.521	10694
876.65	10752
876.778	10942
876.906	10869
877.034	11098
877.162	11151
877.29	11155
877.418	11265
877.546	11330
877.674	11402
877.802	11509
877.93	11532
878.058	11589
878.185	11589
878.313	11649
878.441	11809
878.568	11714
878.696	11824
878.824	11893
878.951	11931
879.079	11996
879.206	12209
879.333	12125
879.461	11999
879.588	12003
879.715	12098
879.842	12220
879.97	12083
880.097	11840
880.224	11885
880.351	11882
880.478	11908
880.605	11908
880.732	11840
880.859	12041
880.986	11809
881.112	11882
881.239	11794
881.366	11611
881.493	11642
881.619	11562
881.746	11528
881.872	11589
881.999	11551
882.125	11528
882.252	11455
882.378	11547
882.505	11615
882.631	11372
882.757	11303
882.883	11406
883.01	11326
883.136	11223
883.262	11109
883.388	11162
883.514	11246
883.64	11220
883.766	11029
883.892	11006
884.018	11045
884.143	11045
884.269	11124
884.395	10858
884.52	10793
884.646	10748
884.772	10725
884.897	10599
885.023	10672
885.148	10691
885.274	10763
885.399	10679
885.524	10599
885.65	10538
885.775	10622
885.9	10516
886.025	10637
886.15	10588
886.275	10424
886.4	10428
886.525	10356
886.65	10356
886.775	10318
886.9	10470
887.025	10523
887.149	10394
887.274	10246
887.399	10211
887.523	10215
887.648	10169
887.773	10154
887.897	10276
888.021	10318
888.146	10154
888.27	10261
888.395	10257
888.519	10200
888.643	10135
888.767	10181
888.891	10097
889.015	10040
889.139	10017
889.263	10002
889.387	10071
889.511	10188
889.635	10059
889.759	9934
889.883	10013
890.006	9968
890.13	10078
890.254	10006
890.377	9964
890.501	9880
890.624	9838
890.748	9972
890.871	9911
890.995	9747
891.118	9663
891.241	9774
891.364	9808
891.488	9876
891.611	9690
891.734	9781
891.857	9785
891.98	9717
892.103	9793
892.226	9759
892.349	9705
892.471	9526
892.594	9629
892.717	9625
892.839	9553
892.962	9637
893.085	9629
893.207	9591
893.33	9580
893.452	9431
893.575	9545
893.697	9511
893.819	9610
893.941	9637
894.064	9591
894.186	9439
894.308	9386
894.43	9538
894.552	9542
894.674	9485
894.796	9378
894.918	9408
895.04	9389
895.161	9367
895.283	9294
895.405	9237
895.526	9294
895.648	9260
895.769	9207
895.891	9291
896.012	9378
896.134	9222
896.255	9218
896.376	9207
896.498	9184
896.619	9142
896.74	9020
896.861	9108
896.982	9253
897.103	9325
897.224	9157
897.345	9039
897.466	9051
897.587	9013
897.708	9070
897.828	9070
897.949	8975
898.07	8929
898.19	8918
898.311	9024
898.431	8937
898.552	8864
898.672	8944
898.792	8990
898.913	8910
899.033	8773
899.153	8754
899.273	8682
899.393	8648
899.513	8773
899.633	8670
899.753	8769
899.873	8754
899.993	8743
900.113	8667
900.232	8758
900.352	8625
900.472	8606
900.591	8556
900.711	8655
900.83	8583
900.95	8670
901.069	8670
901.189	8617
901.308	8412
901.427	8434
901.546	8408
901.665	8415
901.784	8484
901.904	8442
902.023	8305
902.141	8210
902.26	8271
902.379	8282
902.498	8301
902.617	8256
902.735	8324
902.854	8320
902.973	8195
903.091	8202
903.21	8138
903.328	8153
903.446	8111
903.565	8084
903.683	8100
903.801	8012
903.919	8153
904.038	8138
904.156	8088
904.274	8103
904.392	8046
904.51	8069
904.627	8012
904.745	8130
904.863	8134
904.981	7940
905.098	7868
905.216	7894
905.334	7871
905.451	7944
905.569	7852
905.686	7947
905.803	7883
905.921	7792
906.038	7875
906.155	7803
906.272	7708
906.389	7753
906.506	7674
906.623	7658
906.74	7590
906.857	7502
906.974	7563
907.091	7681
907.208	7738
907.324	7662
907.441	7647
907.557	7457
907.674	7453
907.79	7384
907.907	7426
908.023	7392
908.139	7434
908.256	7457
908.372	7403
908.488	7316
908.604	7301
908.72	7263
908.836	7228
908.952	7263
909.068	7297
909.184	7339
909.3	7225
909.415	7232
909.531	7285
909.647	7141
909.762	7152
909.878	7061
909.993	7137
910.108	7091
910.224	7133
910.339	7118
910.454	7015
910.57	7023
910.685	6989
910.8	7164
910.915	7122
911.03	7057
911.145	6916
911.259	6913
911.374	6916
911.489	6856
911.604	6833
911.718	6715
911.833	6692
911.947	6688
912.062	6642
912.176	6734
912.291	6684
912.405	6696
912.519	6833
912.633	6840
912.748	6741
912.862	6684
912.976	6665
913.09	6521
913.204	6593
913.318	6570
913.431	6677
913.545	6669
913.659	6688
913.772	6654
913.886	6547
914	6540
914.113	6639
914.226	6673
914.34	6684
914.453	6536
914.566	6604
914.68	6502
914.793	6490
914.906	6460
915.019	6380
915.132	6475
915.245	6334
915.358	6448
915.47	6456
915.583	6498
915.696	6452
915.809	6509
915.921	6494
916.034	6399
916.146	6361
916.259	6456
916.371	6525
916.483	6490
916.595	6399
916.708	6433
916.82	6403
916.932	6357
917.044	6388
917.156	6414
917.268	6342
917.38	6403
917.491	6289
917.603	6365
917.715	6452
917.826	6357
917.938	6262
918.049	6281
918.161	6315
918.272	6410
918.384	6452
918.495	6441
918.606	6300
918.717	6243
918.828	6228
918.939	6331
919.05	6201
919.161	6273
919.272	6129
919.383	6106
919.494	6308
919.604	6361
919.715	6289
919.826	6239
919.936	6262
920.047	6384
920.157	6262
920.267	6433
920.378	6296
920.488	6311
920.598	6429
920.708	6589
920.818	6528
920.928	6437
921.038	6665
921.148	6528
921.258	6376
921.368	6311
921.477	6235
921.587	6186
921.697	6110
921.806	6171
921.916	6125
922.025	5946
922.134	5901
922.244	5901
922.353	5954
922.462	5897
922.571	5802
922.68	5745
922.789	5684
922.898	5699
923.007	5684
923.116	5691
923.224	5718
923.333	5619
923.442	5585
923.55	5604
923.659	5604
923.767	5657
923.876	5558
923.984	5634
924.092	5539
924.201	5532
924.309	5551
924.417	5539
924.525	5452
924.633	5539
924.741	6251
924.849	5383
924.956	5467
925.064	5368
925.172	5303
925.279	5330
925.387	5379
925.494	5349
925.602	5433
925.709	5349
925.816	5288
925.924	5334
926.031	5376
926.138	5334
926.245	5311
926.352	5223
926.459	5292
926.566	5326
926.673	5265
926.779	5109
926.886	5124
926.993	5010
927.099	5022
927.206	5010
927.312	4942
927.419	5037
927.525	5010
927.631	5029
927.737	4934
927.843	4885
927.95	4801
928.056	4881
928.162	4881
928.267	4812
928.373	5357
928.479	4858
928.585	4675
928.69	4755
928.796	4774
928.901	4668
929.007	4565
929.112	4706
929.218	4653
929.323	4565
929.428	4577
929.533	4675
929.638	4558
929.743	4622
929.848	4527
929.953	4470
930.058	4436
930.163	4318
930.267	4314
930.372	4470
930.477	4329
930.581	4466
930.685	4356
930.79	4223
930.894	4287
930.998	4268
931.103	4421
931.207	4135
931.311	4109
931.415	4051
931.519	3941
931.623	3964
