Data from glass_V78500241_1959.txt Node
Date: Wed Sep 01 19:28:04 CST 2021
User: usil
Spectrometer: V785-0024
Trigger mode: 0
Integration Time (sec): 4.000000E-1
Scans to average: 1
Nonlinearity correction enabled: false
Boxcar width: 0
Storing dark spectrum: false
XAxis mode: Wavelengths
Number of Pixels in Spectrum: 1024
>>>>>Begin Spectral Data<<<<<
801.071	3690
801.214	3743
801.356	3694
801.499	3713
801.641	3751
801.783	3778
801.926	3884
802.068	3778
802.211	3873
802.353	3865
802.496	3812
802.638	3876
802.78	3876
802.923	3907
803.065	3892
803.208	3827
803.35	3854
803.492	3915
803.635	3892
803.777	3797
803.919	3880
804.061	4090
804.204	3987
804.346	3945
804.488	3896
804.63	4013
804.773	3979
804.915	4017
805.057	4139
805.199	3991
805.341	4017
805.483	4116
805.626	4112
805.768	4063
805.91	4227
806.052	4257
806.194	4215
806.336	4333
806.478	4169
806.62	4188
806.762	4154
806.904	4207
807.046	4352
807.188	4253
807.33	4150
807.472	4188
807.614	4215
807.756	4287
807.898	4177
808.04	4215
808.182	4265
808.324	4303
808.465	4352
808.607	4443
808.749	4421
808.891	4462
809.033	4451
809.174	4367
809.316	4268
809.458	4284
809.6	4169
809.741	4131
809.883	4143
810.025	4238
810.166	4207
810.308	4188
810.45	4242
810.591	4227
810.733	4287
810.875	4508
811.016	4866
811.158	5048
811.299	5261
811.441	5273
811.582	5014
811.724	4603
811.865	4489
812.007	4489
812.148	4428
812.29	4383
812.431	4398
812.573	4421
812.714	4356
812.855	4402
812.997	4356
813.138	4459
813.279	4417
813.421	4383
813.562	4402
813.703	4379
813.845	4303
813.986	4268
814.127	4204
814.268	4265
814.41	4242
814.551	4276
814.692	4344
814.833	4291
814.974	4284
815.115	4303
815.256	4280
815.397	4246
815.539	4272
815.68	4173
815.821	4185
815.962	4310
816.103	4276
816.244	4188
816.385	4257
816.526	4246
816.666	4215
816.807	4044
816.948	4211
817.089	4139
817.23	4158
817.371	4078
817.512	4040
817.653	4059
817.793	4021
817.934	4036
818.075	4082
818.216	4093
818.356	4071
818.497	3972
818.638	3876
818.778	3922
818.919	3903
819.06	3884
819.2	3899
819.341	3846
819.481	3838
819.622	3888
819.762	4029
819.903	3945
820.043	3842
820.184	3812
820.324	3785
820.465	3896
820.605	3838
820.746	3873
820.886	3789
821.026	3911
821.167	3888
821.307	3975
821.447	3979
821.588	3956
821.728	3953
821.868	3907
822.008	3857
822.149	3937
822.289	3922
822.429	3762
822.569	3751
822.709	3759
822.849	3682
822.99	3755
823.13	3762
823.27	3789
823.41	3717
823.55	3682
823.69	3698
823.83	3732
823.97	3682
824.11	3557
824.25	3557
824.389	3622
824.529	3682
824.669	3606
824.809	3720
824.949	3690
825.089	3717
825.228	3690
825.368	3591
825.508	3553
825.648	3561
825.787	3580
825.927	3610
826.067	3587
826.206	3629
826.346	3778
826.485	3827
826.625	3861
826.765	3926
826.904	3819
827.044	3606
827.183	3542
827.323	3458
827.462	3462
827.601	3431
827.741	3409
827.88	3454
828.02	3351
828.159	3412
828.298	3473
828.437	3538
828.577	3466
828.716	3568
828.855	3469
828.994	3439
829.134	3340
829.273	3370
829.412	3355
829.551	3321
829.69	3363
829.829	3424
829.968	3504
830.107	3462
830.246	3443
830.385	3389
830.524	3336
830.663	3317
830.802	3256
830.941	3176
831.08	3192
831.219	3256
831.357	3294
831.496	3439
831.635	3203
831.774	3214
831.913	3211
832.051	3116
832.19	3127
832.329	3192
832.467	3100
832.606	3112
832.744	3138
832.883	3173
833.022	3173
833.16	3256
833.299	3279
833.437	3313
833.576	3378
833.714	3386
833.852	3439
833.991	3439
834.129	3485
834.267	3450
834.406	3348
834.544	3450
834.682	3431
834.821	3378
834.959	3534
835.097	3420
835.235	3545
835.373	3485
835.511	3500
835.65	3454
835.788	3523
835.926	3409
836.064	3431
836.202	3397
836.34	3587
836.478	3587
836.615	3545
836.753	3572
836.891	3644
837.029	3587
837.167	3606
837.305	3584
837.443	3553
837.58	3485
837.718	3622
837.856	3545
837.993	3557
838.131	3564
838.269	3587
838.406	3545
838.544	3584
838.681	3458
838.819	3462
838.956	3393
839.094	3359
839.231	3458
839.369	3519
839.506	3720
839.643	3614
839.781	3500
839.918	3466
840.055	3504
840.193	3534
840.33	3507
840.467	3564
840.604	3606
840.742	3800
840.879	3561
841.016	3526
841.153	3614
841.29	3736
841.427	3762
841.564	3709
841.701	3755
841.838	3667
841.975	3690
842.112	3694
842.249	3606
842.385	3629
842.522	3812
842.659	3656
842.796	3663
842.933	3686
843.069	3671
843.206	3717
843.343	3804
843.479	3789
843.616	3778
843.752	3667
843.889	3656
844.025	3846
844.162	3679
844.298	3842
844.435	3789
844.571	3819
844.708	3896
844.844	3983
844.98	4044
845.117	3991
845.253	3956
845.389	3888
845.525	3953
845.661	3983
845.798	3892
845.934	3998
846.07	3968
846.206	4071
846.342	4116
846.478	4071
846.614	3918
846.75	3934
846.886	3922
847.022	4013
847.158	3934
847.294	4010
847.429	4017
847.565	3979
847.701	4207
847.837	3922
847.972	3865
848.108	3964
848.244	3953
848.379	3888
848.515	3808
848.65	3831
848.786	3838
848.921	3835
849.057	3888
849.192	3926
849.328	3896
849.463	3884
849.598	3873
849.734	3907
849.869	3842
850.004	3755
850.14	3808
850.275	3778
850.41	3717
850.545	3759
850.68	3816
850.815	3793
850.95	3755
851.085	3945
851.22	3835
851.355	3842
851.49	3724
851.625	3774
851.76	3755
851.895	3778
852.03	3698
852.165	3804
852.299	3827
852.434	3907
852.569	3819
852.703	3880
852.838	3930
852.973	4013
853.107	3972
853.242	3880
853.376	3827
853.511	3762
853.645	3835
853.78	3968
853.914	3854
854.048	3869
854.183	3854
854.317	3998
854.451	4093
854.585	3968
854.72	3975
854.854	4029
854.988	3903
855.122	3975
855.256	3907
855.39	4044
855.524	4120
855.658	4051
855.792	4105
855.926	4120
856.06	4169
856.194	4166
856.327	4162
856.461	4097
856.595	4162
856.729	4166
856.862	4257
856.996	4238
857.13	4325
857.263	4341
857.397	4303
857.53	4299
857.664	4337
857.797	4413
857.931	4417
858.064	4424
858.197	4417
858.331	4436
858.464	4394
858.597	4348
858.731	4417
858.864	4432
858.997	4424
859.13	4554
859.263	4516
859.396	4637
859.529	4561
859.662	4504
859.795	4516
859.928	4599
860.061	4721
860.194	4725
860.327	4656
860.46	4626
860.592	4717
860.725	4736
860.858	4748
860.99	4664
861.123	4656
861.256	4687
861.388	4763
861.521	5421
861.653	4729
861.786	4721
861.918	4736
862.05	4809
862.183	4862
862.315	4927
862.447	4927
862.58	4930
862.712	4752
862.844	4790
862.976	4889
863.108	4877
863.24	5178
863.372	4820
863.504	4866
863.636	4873
863.768	4995
863.9	4965
864.032	4957
864.164	4923
864.296	5025
864.428	5083
864.559	5067
864.691	5102
864.823	5098
864.954	5090
865.086	5147
865.217	5128
865.349	5105
865.48	5132
865.612	5204
865.743	5341
865.875	5242
866.006	5185
866.137	5299
866.269	5258
866.4	5242
866.531	5193
866.662	5223
866.793	5288
866.924	5254
867.055	5311
867.186	5391
867.317	5315
867.448	5261
867.579	5444
867.71	5353
867.841	5395
867.972	5440
868.103	5444
868.233	5474
868.364	5490
868.495	5505
868.625	5638
868.756	5737
868.886	5665
869.017	5714
869.147	5832
869.278	5916
869.408	5813
869.539	5794
869.669	5931
869.799	5821
869.929	6030
870.06	6026
870.19	6190
870.32	6155
870.45	6277
870.58	6380
870.71	6437
870.84	6475
870.97	6475
871.1	6437
871.23	6612
871.36	6673
871.489	6639
871.619	6768
871.749	6829
871.879	6798
872.008	6928
872.138	6996
872.267	7008
872.397	6966
872.526	7023
872.656	6993
872.785	7247
872.915	7278
873.044	7537
873.173	7559
873.303	7609
873.432	7772
873.561	7833
873.69	7898
873.819	7951
873.948	8134
874.077	8210
874.206	8400
874.335	8469
874.464	8636
874.593	8883
874.722	8982
874.851	9131
874.979	9218
875.108	9355
875.237	9428
875.365	9557
875.494	9606
875.623	9800
875.751	9907
875.88	10013
876.008	10097
876.136	10306
876.265	10512
876.393	10706
876.521	10694
876.65	10755
876.778	10797
876.906	10908
877.034	10995
877.162	10961
877.29	11189
877.418	11353
877.546	11376
877.674	11421
877.802	11440
877.93	11592
878.058	11463
878.185	11547
878.313	11668
878.441	11733
878.568	11657
878.696	11699
878.824	11794
878.951	11942
879.079	11923
879.206	12087
879.333	11961
879.461	11988
879.588	12087
879.715	12064
879.842	12216
879.97	11969
880.097	11897
880.224	11870
880.351	11851
880.478	11939
880.605	11866
880.732	11741
880.859	11946
880.986	11855
881.112	11851
881.239	11699
881.366	11653
881.493	11653
881.619	11501
881.746	11474
881.872	11512
881.999	11482
882.125	11528
882.252	11623
882.378	11524
882.505	11520
882.631	11395
882.757	11376
882.883	11277
883.01	11269
883.136	11185
883.262	11159
883.388	11037
883.514	11178
883.64	11155
883.766	11102
883.892	10900
884.018	10911
884.143	11041
884.269	11132
884.395	10809
884.52	10771
884.646	10767
884.772	10664
884.897	10694
885.023	10683
885.148	10759
885.274	10763
885.399	10714
885.524	10653
885.65	10603
885.775	10603
885.9	10527
886.025	10615
886.15	10603
886.275	10405
886.4	10413
886.525	10459
886.65	10322
886.775	10348
886.9	10512
887.025	10577
887.149	10348
887.274	10211
887.399	10215
887.523	10219
887.648	10112
887.773	10059
887.897	10272
888.021	10242
888.146	10158
888.27	10257
888.395	10268
888.519	10162
888.643	10169
888.767	10181
888.891	10082
889.015	10048
889.139	10013
889.263	9956
889.387	10093
889.511	10093
889.635	10078
889.759	9975
889.883	9918
890.006	9983
890.13	10067
890.254	9918
890.377	9922
890.501	9823
890.624	9861
890.748	9888
890.871	9717
890.995	9823
891.118	9660
891.241	9808
891.364	9835
891.488	9770
891.611	9648
891.734	9743
891.857	9823
891.98	9728
892.103	9736
892.226	9705
892.349	9644
892.471	9507
892.594	9591
892.717	9625
892.839	9534
892.962	9652
893.085	9633
893.207	9492
893.33	9538
893.452	9500
893.575	9580
893.697	9469
893.819	9637
893.941	9637
894.064	9595
894.186	9397
894.308	9397
894.43	9466
894.552	9545
894.674	9481
894.796	9397
894.918	9397
895.04	9340
895.161	9367
895.283	9279
895.405	9256
895.526	9298
895.648	9226
895.769	9237
895.891	9256
896.012	9298
896.134	9214
896.255	9127
896.376	9070
896.498	9074
896.619	9085
896.74	9123
896.861	9112
896.982	9245
897.103	9329
897.224	9173
897.345	9055
897.466	8986
897.587	9039
897.708	9043
897.828	9047
897.949	8952
898.07	8891
898.19	8891
898.311	9013
898.431	8826
898.552	8842
898.672	8952
898.792	8906
898.913	8933
899.033	8906
899.153	8746
899.273	8617
899.393	8746
899.513	8682
899.633	8743
899.753	8712
899.873	8678
899.993	8766
900.113	8701
900.232	8773
900.352	8655
900.472	8663
900.591	8533
900.711	8575
900.83	8587
900.95	8712
901.069	8689
901.189	8522
901.308	8427
901.427	8415
901.546	8465
901.665	8492
901.784	8514
901.904	8408
902.023	8305
902.141	8206
902.26	8153
902.379	8343
902.498	8164
902.617	8237
902.735	8267
902.854	8294
902.973	8214
903.091	8092
903.21	8138
903.328	8145
903.446	8142
903.565	8020
903.683	8115
903.801	8043
903.919	8157
904.038	8119
904.156	8058
904.274	8005
904.392	7970
904.51	8046
904.627	8012
904.745	8081
904.863	8123
904.981	7894
905.098	7841
905.216	7898
905.334	7913
905.451	7894
905.569	7814
905.686	7932
905.803	7852
905.921	7769
906.038	7871
906.155	7757
906.272	7738
906.389	7636
906.506	7605
906.623	7620
906.74	7651
906.857	7609
906.974	7540
907.091	7674
907.208	7712
907.324	7616
907.441	7529
907.557	7438
907.674	7396
907.79	7373
907.907	7369
908.023	7445
908.139	7400
908.256	7388
908.372	7320
908.488	7369
908.604	7263
908.72	7198
908.836	7297
908.952	7251
909.068	7228
909.184	7289
909.3	7270
909.415	7270
909.531	7270
909.647	7057
909.762	7129
909.878	7114
909.993	7118
910.108	7038
910.224	7126
910.339	7168
910.454	7034
910.57	7004
910.685	6932
910.8	7164
910.915	7042
911.03	7023
911.145	6913
911.259	6935
911.374	6894
911.489	6776
911.604	6802
911.718	6677
911.833	6741
911.947	6654
912.062	6570
912.176	6722
912.291	6738
912.405	6692
912.519	6814
912.633	6844
912.748	6757
912.862	6692
912.976	6566
913.09	6525
913.204	6589
913.318	6555
913.431	6639
913.545	6665
913.659	6662
913.772	6532
913.886	6559
914	6486
914.113	6574
914.226	6601
914.34	6597
914.453	6502
914.566	6612
914.68	6555
914.793	6601
914.906	6418
915.019	6357
915.132	6399
915.245	6395
915.358	6464
915.47	6456
915.583	6452
915.696	6486
915.809	6513
915.921	6540
916.034	6437
916.146	6437
916.259	6346
916.371	6479
916.483	6467
916.595	6407
916.708	6452
916.82	6414
916.932	6376
917.044	6380
917.156	6361
917.268	6273
917.38	6296
917.491	6304
917.603	6388
917.715	6369
917.826	6418
917.938	6311
918.049	6197
918.161	6327
918.272	6365
918.384	6414
918.495	6346
918.606	6296
918.717	6262
918.828	6273
918.939	6266
919.05	6190
919.161	6228
919.272	6117
919.383	6182
919.494	6292
919.604	6376
919.715	6258
919.826	6175
919.936	6281
920.047	6353
920.157	6258
920.267	6471
920.378	6308
920.488	6289
920.598	6422
920.708	6547
920.818	6475
920.928	6490
921.038	6608
921.148	6563
921.258	6391
921.368	6251
921.477	6190
921.587	6190
921.697	6087
921.806	6159
921.916	6106
922.025	5942
922.134	5851
922.244	5897
922.353	5897
922.462	5840
922.571	5805
922.68	5718
922.789	5665
922.898	5695
923.007	5668
923.116	5745
923.224	5627
923.333	5672
923.442	5566
923.55	5608
923.659	5558
923.767	5608
923.876	5497
923.984	5615
924.092	5486
924.201	5596
924.309	5535
924.417	5558
924.525	5429
924.633	5455
924.741	6232
924.849	5330
924.956	5452
925.064	5379
925.172	5273
925.279	5296
925.387	5376
925.494	5311
925.602	5395
925.709	5402
925.816	5349
925.924	5337
926.031	5353
926.138	5250
926.245	5345
926.352	5235
926.459	5288
926.566	5334
926.673	5250
926.779	5132
926.886	5105
926.993	4984
927.099	5064
927.206	4957
927.312	4942
927.419	4987
927.525	4961
927.631	5064
927.737	4809
927.843	4850
927.95	4744
928.056	4824
928.162	4797
928.267	4805
928.373	5337
928.479	4873
928.585	4679
928.69	4812
928.796	4759
928.901	4664
929.007	4561
929.112	4687
929.218	4615
929.323	4599
929.428	4542
929.533	4687
929.638	4508
929.743	4504
929.848	4561
929.953	4481
930.058	4432
930.163	4360
930.267	4356
930.372	4409
930.477	4253
930.581	4455
930.685	4299
930.79	4223
930.894	4291
930.998	4242
931.103	4344
931.207	4124
931.311	4055
931.415	4040
931.519	3949
931.623	3934
