Data from glass_V78500241_119.txt Node
Date: Wed Sep 01 19:15:19 CST 2021
User: usil
Spectrometer: V785-0024
Trigger mode: 0
Integration Time (sec): 4.000000E-1
Scans to average: 1
Nonlinearity correction enabled: false
Boxcar width: 0
Storing dark spectrum: false
XAxis mode: Wavelengths
Number of Pixels in Spectrum: 1024
>>>>>Begin Spectral Data<<<<<
801.071	3755
801.214	3755
801.356	3701
801.499	3762
801.641	3785
801.783	3804
801.926	3857
802.068	3869
802.211	3854
802.353	3930
802.496	3876
802.638	3911
802.78	3915
802.923	3941
803.065	3876
803.208	3850
803.35	3880
803.492	3922
803.635	3934
803.777	3812
803.919	3915
804.061	4162
804.204	3964
804.346	3930
804.488	3930
804.63	4021
804.773	3983
804.915	4071
805.057	4169
805.199	4071
805.341	4116
805.483	4150
805.626	4150
805.768	4128
805.91	4215
806.052	4238
806.194	4192
806.336	4390
806.478	4257
806.62	4173
806.762	4215
806.904	4299
807.046	4371
807.188	4249
807.33	4162
807.472	4196
807.614	4192
807.756	4265
807.898	4200
808.04	4227
808.182	4303
808.324	4280
808.465	4421
808.607	4462
808.749	4451
808.891	4519
809.033	4493
809.174	4402
809.316	4306
809.458	4268
809.6	4162
809.741	4219
809.883	4105
810.025	4177
810.166	4211
810.308	4253
810.45	4204
810.591	4249
810.733	4314
810.875	4519
811.016	4877
811.158	5204
811.299	5258
811.441	5299
811.582	5067
811.724	4740
811.865	4459
812.007	4474
812.148	4455
812.29	4409
812.431	4405
812.573	4405
812.714	4417
812.855	4413
812.997	4462
813.138	4466
813.279	4432
813.421	4424
813.562	4386
813.703	4390
813.845	4341
813.986	4295
814.127	4234
814.268	4276
814.41	4322
814.551	4295
814.692	4379
814.833	4284
814.974	4322
815.115	4299
815.256	4246
815.397	4249
815.539	4272
815.68	4219
815.821	4238
815.962	4295
816.103	4310
816.244	4257
816.385	4261
816.526	4310
816.666	4215
816.807	4086
816.948	4211
817.089	4188
817.23	4128
817.371	4074
817.512	4082
817.653	4082
817.793	4044
817.934	4044
818.075	4139
818.216	4090
818.356	4067
818.497	4067
818.638	3964
818.778	3918
818.919	3926
819.06	3876
819.2	3930
819.341	3854
819.481	3823
819.622	3922
819.762	4036
819.903	3964
820.043	3880
820.184	3850
820.324	3846
820.465	3888
820.605	3884
820.746	3911
820.886	3804
821.026	3930
821.167	3941
821.307	3975
821.447	4048
821.588	3945
821.728	3930
821.868	3972
822.008	3892
822.149	3876
822.289	3934
822.429	3762
822.569	3789
822.709	3823
822.849	3724
822.99	3774
823.13	3797
823.27	3823
823.41	3781
823.55	3774
823.69	3766
823.83	3751
823.97	3698
824.11	3629
824.25	3614
824.389	3686
824.529	3709
824.669	3671
824.809	3728
824.949	3785
825.089	3774
825.228	3724
825.368	3606
825.508	3591
825.648	3648
825.787	3587
825.927	3652
826.067	3675
826.206	3679
826.346	3827
826.485	3869
826.625	3861
826.765	3968
826.904	3842
827.044	3622
827.183	3523
827.323	3431
827.462	3507
827.601	3428
827.741	3450
827.88	3454
828.02	3363
828.159	3443
828.298	3492
828.437	3557
828.577	3496
828.716	3603
828.855	3500
828.994	3370
829.134	3382
829.273	3428
829.412	3344
829.551	3401
829.69	3386
829.829	3447
829.968	3504
830.107	3454
830.246	3412
830.385	3386
830.524	3378
830.663	3302
830.802	3279
830.941	3192
831.08	3226
831.219	3256
831.357	3306
831.496	3393
831.635	3260
831.774	3245
831.913	3245
832.051	3157
832.19	3142
832.329	3218
832.467	3180
832.606	3146
832.744	3146
832.883	3203
833.022	3249
833.16	3287
833.299	3294
833.437	3313
833.576	3363
833.714	3424
833.852	3386
833.991	3431
834.129	3469
834.267	3439
834.406	3397
834.544	3443
834.682	3462
834.821	3428
834.959	3584
835.097	3428
835.235	3519
835.373	3515
835.511	3534
835.65	3488
835.788	3504
835.926	3382
836.064	3416
836.202	3416
836.34	3572
836.478	3629
836.615	3572
836.753	3584
836.891	3648
837.029	3652
837.167	3610
837.305	3603
837.443	3561
837.58	3542
837.718	3637
837.856	3576
837.993	3564
838.131	3606
838.269	3625
838.406	3580
838.544	3603
838.681	3477
838.819	3458
838.956	3397
839.094	3386
839.231	3428
839.369	3542
839.506	3728
839.643	3625
839.781	3549
839.918	3507
840.055	3614
840.193	3549
840.33	3526
840.467	3584
840.604	3614
840.742	3797
840.879	3545
841.016	3557
841.153	3614
841.29	3774
841.427	3724
841.564	3705
841.701	3793
841.838	3743
841.975	3728
842.112	3732
842.249	3652
842.385	3652
842.522	3838
842.659	3720
842.796	3698
842.933	3728
843.069	3728
843.206	3774
843.343	3827
843.479	3766
843.616	3861
843.752	3690
843.889	3713
844.025	3892
844.162	3759
844.298	3857
844.435	3747
844.571	3808
844.708	3907
844.844	3972
844.98	4032
845.117	4036
845.253	3968
845.389	3915
845.525	3953
845.661	3987
845.798	3972
845.934	4025
846.07	3937
846.206	4078
846.342	4162
846.478	4105
846.614	3956
846.75	3960
846.886	3937
847.022	4051
847.158	3983
847.294	3975
847.429	4040
847.565	3991
847.701	4234
847.837	3926
847.972	3850
848.108	3994
848.244	4017
848.379	3861
848.515	3873
848.65	3808
848.786	3846
848.921	3873
849.057	3926
849.192	3937
849.328	3869
849.463	3876
849.598	3899
849.734	3865
849.869	3861
850.004	3759
850.14	3835
850.275	3800
850.41	3747
850.545	3778
850.68	3766
850.815	3793
850.95	3838
851.085	3964
851.22	3880
851.355	3861
851.49	3804
851.625	3816
851.76	3831
851.895	3808
852.03	3720
852.165	3838
852.299	3876
852.434	3953
852.569	3934
852.703	3915
852.838	3918
852.973	3998
853.107	4029
853.242	3930
853.376	3854
853.511	3800
853.645	3838
853.78	3915
853.914	3930
854.048	3907
854.183	3934
854.317	3937
854.451	4105
854.585	3983
854.72	3960
854.854	4029
854.988	3983
855.122	4036
855.256	3956
855.39	4010
855.524	4120
855.658	4093
855.792	4090
855.926	4135
856.06	4211
856.194	4215
856.327	4173
856.461	4105
856.595	4169
856.729	4181
856.862	4257
856.996	4272
857.13	4295
857.263	4386
857.397	4344
857.53	4325
857.664	4348
857.797	4394
857.931	4421
858.064	4424
858.197	4519
858.331	4417
858.464	4421
858.597	4367
858.731	4485
858.864	4424
858.997	4459
859.13	4542
859.263	4527
859.396	4630
859.529	4546
859.662	4542
859.795	4512
859.928	4615
860.061	4736
860.194	4767
860.327	4687
860.46	4672
860.592	4759
860.725	4774
860.858	4831
860.99	4691
861.123	4702
861.256	4710
861.388	4748
861.521	5543
861.653	4752
861.786	4702
861.918	4759
862.05	4820
862.183	4892
862.315	4961
862.447	4930
862.58	4946
862.712	4774
862.844	4797
862.976	4908
863.108	4877
863.24	5277
863.372	4885
863.504	4923
863.636	4911
863.768	4991
863.9	4999
864.032	4938
864.164	4980
864.296	5067
864.428	5098
864.559	5143
864.691	5155
864.823	5105
864.954	5071
865.086	5216
865.217	5170
865.349	5178
865.48	5208
865.612	5239
865.743	5254
865.875	5273
866.006	5201
866.137	5250
866.269	5246
866.4	5254
866.531	5261
866.662	5250
866.793	5265
866.924	5307
867.055	5353
867.186	5334
867.317	5296
867.448	5368
867.579	5402
867.71	5360
867.841	5326
867.972	5467
868.103	5482
868.233	5505
868.364	5520
868.495	5543
868.625	5737
868.756	5786
868.886	5714
869.017	5767
869.147	5954
869.278	5901
869.408	5802
869.539	5836
869.669	5954
869.799	5904
869.929	6060
870.06	6064
870.19	6152
870.32	6205
870.45	6262
870.58	6407
870.71	6448
870.84	6521
870.97	6414
871.1	6467
871.23	6627
871.36	6688
871.489	6722
871.619	6757
871.749	6768
871.879	6882
872.008	6947
872.138	7065
872.267	7034
872.397	6993
872.526	7034
872.656	7091
872.785	7190
872.915	7343
873.044	7556
873.173	7559
873.303	7674
873.432	7750
873.561	7917
873.69	7951
873.819	8088
873.948	8115
874.077	8206
874.206	8313
874.335	8415
874.464	8663
874.593	8868
874.722	8933
874.851	9192
874.979	9207
875.108	9336
875.237	9386
875.365	9488
875.494	9648
875.623	9835
875.751	9827
875.88	9994
876.008	10071
876.136	10310
876.265	10523
876.393	10729
876.521	10603
876.65	10763
876.778	10877
876.906	10972
877.034	11018
877.162	11113
877.29	11193
877.418	11231
877.546	11345
877.674	11444
877.802	11463
877.93	11516
878.058	11516
878.185	11634
878.313	11665
878.441	11760
878.568	11676
878.696	11790
878.824	11840
878.951	11988
879.079	12057
879.206	12239
879.333	12068
879.461	12026
879.588	12091
879.715	12083
879.842	12262
879.97	12117
880.097	11897
880.224	12011
880.351	11859
880.478	11916
880.605	11851
880.732	11866
880.859	11973
880.986	11817
881.112	11836
881.239	11771
881.366	11665
881.493	11596
881.619	11592
881.746	11543
881.872	11535
881.999	11486
882.125	11452
882.252	11646
882.378	11520
882.505	11604
882.631	11315
882.757	11288
882.883	11353
883.01	11299
883.136	11155
883.262	11147
883.388	11048
883.514	11147
883.64	11254
883.766	11098
883.892	10919
884.018	11083
884.143	11075
884.269	11136
884.395	10877
884.52	10740
884.646	10771
884.772	10725
884.897	10645
885.023	10683
885.148	10706
885.274	10797
885.399	10687
885.524	10550
885.65	10626
885.775	10599
885.9	10558
886.025	10630
886.15	10630
886.275	10424
886.4	10421
886.525	10409
886.65	10382
886.775	10398
886.9	10519
887.025	10508
887.149	10341
887.274	10177
887.399	10257
887.523	10200
887.648	10242
887.773	10200
887.897	10219
888.021	10276
888.146	10086
888.27	10272
888.395	10196
888.519	10185
888.643	10177
888.767	10162
888.891	10139
889.015	10036
889.139	10051
889.263	10036
889.387	10086
889.511	10116
889.635	10090
889.759	9945
889.883	9941
890.006	10036
890.13	10131
890.254	10010
890.377	9968
890.501	9838
890.624	9823
890.748	9884
890.871	9800
890.995	9778
891.118	9747
891.241	9766
891.364	9808
891.488	9850
891.611	9751
891.734	9690
891.857	9819
891.98	9774
892.103	9785
892.226	9759
892.349	9724
892.471	9530
892.594	9641
892.717	9724
892.839	9595
892.962	9648
893.085	9625
893.207	9656
893.33	9587
893.452	9545
893.575	9595
893.697	9462
893.819	9606
893.941	9663
894.064	9610
894.186	9424
894.308	9435
894.43	9443
894.552	9572
894.674	9549
894.796	9393
894.918	9412
895.04	9412
895.161	9428
895.283	9363
895.405	9245
895.526	9272
895.648	9272
895.769	9298
895.891	9302
896.012	9291
896.134	9226
896.255	9192
896.376	9146
896.498	9207
896.619	9119
896.74	9055
896.861	9070
896.982	9321
897.103	9230
897.224	9116
897.345	9116
897.466	9005
897.587	9005
897.708	9157
897.828	9024
897.949	8925
898.07	8811
898.19	8956
898.311	8998
898.431	8864
898.552	8944
898.672	8982
898.792	8960
898.913	8933
899.033	8804
899.153	8750
899.273	8674
899.393	8720
899.513	8792
899.633	8739
899.753	8845
899.873	8716
899.993	8758
900.113	8674
900.232	8746
900.352	8712
900.472	8571
900.591	8507
900.711	8602
900.83	8499
900.95	8613
901.069	8686
901.189	8587
901.308	8415
901.427	8393
901.546	8427
901.665	8454
901.784	8560
901.904	8336
902.023	8362
902.141	8271
902.26	8248
902.379	8347
902.498	8225
902.617	8282
902.735	8324
902.854	8332
902.973	8271
903.091	8142
903.21	8237
903.328	8237
903.446	8176
903.565	8084
903.683	8138
903.801	8073
903.919	8103
904.038	8161
904.156	8069
904.274	8126
904.392	8092
904.51	8058
904.627	7989
904.745	8142
904.863	8126
904.981	7989
905.098	7871
905.216	7936
905.334	7959
905.451	7970
905.569	7871
905.686	7898
905.803	7947
905.921	7761
906.038	7944
906.155	7879
906.272	7727
906.389	7704
906.506	7636
906.623	7605
906.74	7632
906.857	7521
906.974	7582
907.091	7632
907.208	7715
907.324	7628
907.441	7590
907.557	7480
907.674	7426
907.79	7392
907.907	7407
908.023	7480
908.139	7419
908.256	7354
908.372	7377
908.488	7388
908.604	7358
908.72	7213
908.836	7266
908.952	7236
909.068	7247
909.184	7350
909.3	7305
909.415	7419
909.531	7236
909.647	7164
909.762	7110
909.878	7110
909.993	7141
910.108	7088
910.224	7088
910.339	7179
910.454	7076
910.57	6954
910.685	6977
910.8	7198
910.915	7168
911.03	7050
911.145	6897
911.259	6890
911.374	6935
911.489	6852
911.604	6795
911.718	6711
911.833	6730
911.947	6719
912.062	6566
912.176	6802
912.291	6734
912.405	6741
912.519	6829
912.633	6863
912.748	6749
912.862	6662
912.976	6658
913.09	6547
913.204	6658
913.318	6635
913.431	6673
913.545	6715
913.659	6760
913.772	6642
913.886	6574
914	6585
914.113	6555
914.226	6673
914.34	6604
914.453	6490
914.566	6604
914.68	6528
914.793	6559
914.906	6441
915.019	6429
915.132	6403
915.245	6471
915.358	6479
915.47	6448
915.583	6445
915.696	6498
915.809	6559
915.921	6559
916.034	6437
916.146	6422
916.259	6380
916.371	6456
916.483	6486
916.595	6395
916.708	6437
916.82	6395
916.932	6448
917.044	6471
917.156	6403
917.268	6361
917.38	6361
917.491	6311
917.603	6308
917.715	6403
917.826	6467
917.938	6365
918.049	6281
918.161	6319
918.272	6422
918.384	6471
918.495	6357
918.606	6266
918.717	6201
918.828	6285
918.939	6251
919.05	6239
919.161	6270
919.272	6178
919.383	6228
919.494	6285
919.604	6391
919.715	6331
919.826	6171
919.936	6304
920.047	6334
920.157	6315
920.267	6483
920.378	6296
920.488	6308
920.598	6418
920.708	6601
920.818	6475
920.928	6498
921.038	6559
921.148	6604
921.258	6315
921.368	6292
921.477	6224
921.587	6232
921.697	6155
921.806	6186
921.916	6133
922.025	5996
922.134	5931
922.244	5836
922.353	5996
922.462	5893
922.571	5817
922.68	5752
922.789	5726
922.898	5684
923.007	5672
923.116	5695
923.224	5710
923.333	5615
923.442	5623
923.55	5532
923.659	5638
923.767	5657
923.876	5623
923.984	5581
924.092	5486
924.201	5512
924.309	5551
924.417	5547
924.525	5509
924.633	5539
924.741	6175
924.849	5417
924.956	5493
925.064	5341
925.172	5299
925.279	5357
925.387	5395
925.494	5345
925.602	5444
925.709	5410
925.816	5337
925.924	5273
926.031	5402
926.138	5322
926.245	5379
926.352	5212
926.459	5322
926.566	5357
926.673	5292
926.779	5151
926.886	5132
926.993	5064
927.099	5056
927.206	5025
927.312	4934
927.419	5071
927.525	4957
927.631	5048
927.737	4942
927.843	4870
927.95	4774
928.056	4809
928.162	4870
928.267	4904
928.373	5360
928.479	4812
928.585	4687
928.69	4801
928.796	4725
928.901	4710
929.007	4592
929.112	4664
929.218	4679
929.323	4653
929.428	4554
929.533	4706
929.638	4550
929.743	4592
929.848	4592
929.953	4523
930.058	4447
930.163	4367
930.267	4398
930.372	4432
930.477	4299
930.581	4519
930.685	4383
930.79	4333
930.894	4280
930.998	4268
931.103	4432
931.207	4116
931.311	4090
931.415	4029
931.519	3956
931.623	3987
