Data from glass_V78500241_1240.txt Node
Date: Wed Sep 01 19:23:05 CST 2021
User: usil
Spectrometer: V785-0024
Trigger mode: 0
Integration Time (sec): 4.000000E-1
Scans to average: 1
Nonlinearity correction enabled: false
Boxcar width: 0
Storing dark spectrum: false
XAxis mode: Wavelengths
Number of Pixels in Spectrum: 1024
>>>>>Begin Spectral Data<<<<<
801.071	3755
801.214	3755
801.356	3686
801.499	3747
801.641	3717
801.783	3770
801.926	3888
802.068	3850
802.211	3873
802.353	3896
802.496	3850
802.638	3907
802.78	3884
802.923	3934
803.065	3937
803.208	3873
803.35	3884
803.492	3922
803.635	3915
803.777	3857
803.919	3892
804.061	4154
804.204	3991
804.346	3998
804.488	3926
804.63	4044
804.773	4013
804.915	4044
805.057	4143
805.199	4071
805.341	4116
805.483	4166
805.626	4124
805.768	4128
805.91	4227
806.052	4242
806.194	4219
806.336	4337
806.478	4230
806.62	4188
806.762	4169
806.904	4265
807.046	4344
807.188	4238
807.33	4177
807.472	4253
807.614	4181
807.756	4261
807.898	4261
808.04	4284
808.182	4291
808.324	4257
808.465	4383
808.607	4466
808.749	4417
808.891	4493
809.033	4512
809.174	4417
809.316	4230
809.458	4253
809.6	4147
809.741	4143
809.883	4143
810.025	4166
810.166	4227
810.308	4223
810.45	4284
810.591	4242
810.733	4295
810.875	4493
811.016	4816
811.158	5174
811.299	5239
811.441	5258
811.582	5090
811.724	4717
811.865	4481
812.007	4462
812.148	4466
812.29	4440
812.431	4402
812.573	4417
812.714	4379
812.855	4379
812.997	4417
813.138	4527
813.279	4417
813.421	4390
813.562	4402
813.703	4341
813.845	4329
813.986	4291
814.127	4200
814.268	4253
814.41	4287
814.551	4272
814.692	4337
814.833	4295
814.974	4329
815.115	4363
815.256	4253
815.397	4299
815.539	4261
815.68	4192
815.821	4207
815.962	4299
816.103	4276
816.244	4207
816.385	4227
816.526	4261
816.666	4299
816.807	4093
816.948	4135
817.089	4230
817.23	4131
817.371	4021
817.512	4059
817.653	4074
817.793	4051
817.934	4071
818.075	4040
818.216	4067
818.356	4078
818.497	4040
818.638	3949
818.778	3987
818.919	3907
819.06	3873
819.2	3907
819.341	3876
819.481	3835
819.622	3888
819.762	4048
819.903	3937
820.043	3869
820.184	3835
820.324	3793
820.465	3903
820.605	3861
820.746	3888
820.886	3778
821.026	3975
821.167	3941
821.307	3998
821.447	3987
821.588	3979
821.728	3953
821.868	3941
822.008	3884
822.149	3911
822.289	3956
822.429	3762
822.569	3762
822.709	3816
822.849	3698
822.99	3724
823.13	3770
823.27	3823
823.41	3717
823.55	3747
823.69	3724
823.83	3747
823.97	3705
824.11	3599
824.25	3576
824.389	3648
824.529	3644
824.669	3629
824.809	3690
824.949	3778
825.089	3732
825.228	3701
825.368	3610
825.508	3534
825.648	3538
825.787	3629
825.927	3652
826.067	3595
826.206	3701
826.346	3789
826.485	3854
826.625	3842
826.765	3922
826.904	3854
827.044	3633
827.183	3515
827.323	3439
827.462	3462
827.601	3435
827.741	3435
827.88	3412
828.02	3359
828.159	3462
828.298	3481
828.437	3564
828.577	3469
828.716	3641
828.855	3500
828.994	3397
829.134	3348
829.273	3386
829.412	3329
829.551	3325
829.69	3340
829.829	3382
829.968	3519
830.107	3450
830.246	3488
830.385	3409
830.524	3340
830.663	3272
830.802	3283
830.941	3214
831.08	3188
831.219	3249
831.357	3287
831.496	3409
831.635	3268
831.774	3203
831.913	3192
832.051	3089
832.19	3192
832.329	3249
832.467	3154
832.606	3142
832.744	3157
832.883	3173
833.022	3203
833.16	3253
833.299	3298
833.437	3351
833.576	3348
833.714	3386
833.852	3424
833.991	3443
834.129	3488
834.267	3450
834.406	3420
834.544	3447
834.682	3450
834.821	3431
834.959	3553
835.097	3431
835.235	3542
835.373	3526
835.511	3481
835.65	3466
835.788	3534
835.926	3359
836.064	3363
836.202	3443
836.34	3591
836.478	3625
836.615	3595
836.753	3625
836.891	3625
837.029	3625
837.167	3587
837.305	3568
837.443	3576
837.58	3496
837.718	3641
837.856	3614
837.993	3530
838.131	3606
838.269	3591
838.406	3542
838.544	3580
838.681	3481
838.819	3439
838.956	3397
839.094	3374
839.231	3443
839.369	3488
839.506	3713
839.643	3644
839.781	3507
839.918	3458
840.055	3553
840.193	3507
840.33	3526
840.467	3549
840.604	3576
840.742	3842
840.879	3534
841.016	3580
841.153	3564
841.29	3728
841.427	3755
841.564	3705
841.701	3732
841.838	3732
841.975	3648
842.112	3759
842.249	3629
842.385	3644
842.522	3789
842.659	3732
842.796	3701
842.933	3705
843.069	3743
843.206	3698
843.343	3800
843.479	3781
843.616	3804
843.752	3709
843.889	3720
844.025	3865
844.162	3705
844.298	3888
844.435	3827
844.571	3812
844.708	3968
844.844	3994
844.98	4051
845.117	4036
845.253	3934
845.389	3960
845.525	3979
845.661	3979
845.798	3991
845.934	4074
846.07	3972
846.206	4025
846.342	4158
846.478	4116
846.614	3987
846.75	3907
846.886	3937
847.022	4017
847.158	3998
847.294	4010
847.429	4002
847.565	3991
847.701	4215
847.837	3896
847.972	3835
848.108	3972
848.244	3987
848.379	3888
848.515	3827
848.65	3842
848.786	3865
848.921	3888
849.057	3907
849.192	3937
849.328	3903
849.463	3876
849.598	3937
849.734	3880
849.869	3823
850.004	3819
850.14	3800
850.275	3850
850.41	3736
850.545	3770
850.68	3812
850.815	3808
850.95	3781
851.085	3926
851.22	3880
851.355	3842
851.49	3808
851.625	3785
851.76	3800
851.895	3724
852.03	3747
852.165	3793
852.299	3854
852.434	3896
852.569	3911
852.703	3876
852.838	3964
852.973	4029
853.107	3987
853.242	3880
853.376	3865
853.511	3747
853.645	3835
853.78	4002
853.914	3907
854.048	3876
854.183	3907
854.317	3975
854.451	4059
854.585	3998
854.72	3930
854.854	4040
854.988	3918
855.122	4025
855.256	3884
855.39	3979
855.524	4120
855.658	4082
855.792	4093
855.926	4097
856.06	4158
856.194	4177
856.327	4227
856.461	4139
856.595	4158
856.729	4147
856.862	4291
856.996	4242
857.13	4276
857.263	4314
857.397	4363
857.53	4299
857.664	4341
857.797	4421
857.931	4493
858.064	4421
858.197	4432
858.331	4436
858.464	4432
858.597	4348
858.731	4436
858.864	4478
858.997	4436
859.13	4493
859.263	4588
859.396	4584
859.529	4538
859.662	4523
859.795	4542
859.928	4603
860.061	4752
860.194	4748
860.327	4660
860.46	4622
860.592	4744
860.725	4767
860.858	4805
860.99	4710
861.123	4679
861.256	4725
861.388	4774
861.521	5322
861.653	4733
861.786	4706
861.918	4771
862.05	4782
862.183	4828
862.315	4858
862.447	4953
862.58	4892
862.712	4801
862.844	4847
862.976	4854
863.108	4934
863.24	5220
863.372	4835
863.504	4885
863.636	4881
863.768	4968
863.9	4961
864.032	4923
864.164	4984
864.296	5037
864.428	5124
864.559	5140
864.691	5128
864.823	5128
864.954	5064
865.086	5117
865.217	5098
865.349	5098
865.48	5170
865.612	5201
865.743	5292
865.875	5227
866.006	5212
866.137	5258
866.269	5273
866.4	5269
866.531	5223
866.662	5265
866.793	5296
866.924	5315
867.055	5318
867.186	5288
867.317	5334
867.448	5353
867.579	5330
867.71	5433
867.841	5414
867.972	5482
868.103	5436
868.233	5463
868.364	5524
868.495	5551
868.625	5627
868.756	5809
868.886	5695
869.017	5695
869.147	5855
869.278	5874
869.408	5855
869.539	5840
869.669	5954
869.799	5984
869.929	5977
870.06	6015
870.19	6182
870.32	6197
870.45	6273
870.58	6338
870.71	6445
870.84	6433
870.97	6407
871.1	6437
871.23	6703
871.36	6662
871.489	6646
871.619	6692
871.749	6791
871.879	6844
872.008	6943
872.138	7046
872.267	7069
872.397	7008
872.526	7015
872.656	7065
872.785	7198
872.915	7373
873.044	7544
873.173	7616
873.303	7681
873.432	7761
873.561	7894
873.69	7906
873.819	8005
873.948	8210
874.077	8301
874.206	8343
874.335	8473
874.464	8659
874.593	8834
874.722	8960
874.851	9142
874.979	9199
875.108	9329
875.237	9466
875.365	9530
875.494	9679
875.623	9892
875.751	9846
875.88	9949
876.008	10200
876.136	10325
876.265	10603
876.393	10740
876.521	10687
876.65	10854
876.778	10877
876.906	10873
877.034	11052
877.162	11086
877.29	11242
877.418	11360
877.546	11402
877.674	11493
877.802	11524
877.93	11444
878.058	11524
878.185	11581
878.313	11630
878.441	11840
878.568	11699
878.696	11863
878.824	11874
878.951	11939
879.079	12022
879.206	12038
879.333	12144
879.461	12003
879.588	12076
879.715	12144
879.842	12254
879.97	11969
880.097	11878
880.224	11878
880.351	11946
880.478	11901
880.605	11847
880.732	11809
880.859	11973
880.986	11859
881.112	11805
881.239	11665
881.366	11630
881.493	11585
881.619	11600
881.746	11688
881.872	11539
881.999	11493
882.125	11459
882.252	11562
882.378	11497
882.505	11566
882.631	11448
882.757	11269
882.883	11315
883.01	11341
883.136	11201
883.262	11166
883.388	11174
883.514	11204
883.64	11147
883.766	11105
883.892	11025
884.018	10972
884.143	11121
884.269	11003
884.395	10831
884.52	10809
884.646	10790
884.772	10736
884.897	10698
885.023	10683
885.148	10793
885.274	10748
885.399	10740
885.524	10691
885.65	10550
885.775	10588
885.9	10550
886.025	10611
886.15	10508
886.275	10485
886.4	10398
886.525	10421
886.65	10333
886.775	10432
886.9	10535
887.025	10519
887.149	10276
887.274	10253
887.399	10227
887.523	10150
887.648	10158
887.773	10169
887.897	10325
888.021	10211
888.146	10112
888.27	10223
888.395	10223
888.519	10192
888.643	10268
888.767	10234
888.891	10105
889.015	9972
889.139	10055
889.263	10105
889.387	10196
889.511	10120
889.635	10044
889.759	9926
889.883	9991
890.006	10048
890.13	10017
890.254	9926
890.377	9964
890.501	9838
890.624	9895
890.748	9915
890.871	9812
890.995	9728
891.118	9709
891.241	9728
891.364	9728
891.488	9823
891.611	9698
891.734	9751
891.857	9793
891.98	9724
892.103	9785
892.226	9648
892.349	9698
892.471	9553
892.594	9587
892.717	9564
892.839	9644
892.962	9549
893.085	9629
893.207	9572
893.33	9439
893.452	9534
893.575	9545
893.697	9500
893.819	9580
893.941	9618
894.064	9671
894.186	9466
894.308	9473
894.43	9553
894.552	9622
894.674	9511
894.796	9405
894.918	9287
895.04	9336
895.161	9428
895.283	9310
895.405	9260
895.526	9237
895.648	9291
895.769	9184
895.891	9302
896.012	9283
896.134	9253
896.255	9169
896.376	9116
896.498	9150
896.619	9135
896.74	9119
896.861	9100
896.982	9214
897.103	9268
897.224	9157
897.345	9085
897.466	8963
897.587	8944
897.708	9142
897.828	9020
897.949	9005
898.07	8838
898.19	8914
898.311	9005
898.431	8842
898.552	8967
898.672	9009
898.792	9005
898.913	8902
899.033	8842
899.153	8731
899.273	8674
899.393	8758
899.513	8746
899.633	8678
899.753	8792
899.873	8712
899.993	8712
900.113	8659
900.232	8708
900.352	8640
900.472	8644
900.591	8583
900.711	8629
900.83	8606
900.95	8697
901.069	8773
901.189	8541
901.308	8381
901.427	8339
901.546	8412
901.665	8454
901.784	8476
901.904	8427
902.023	8324
902.141	8252
902.26	8229
902.379	8244
902.498	8187
902.617	8145
902.735	8328
902.854	8320
902.973	8248
903.091	8145
903.21	8172
903.328	8187
903.446	8153
903.565	8119
903.683	8103
903.801	8088
903.919	8134
904.038	8168
904.156	8027
904.274	8153
904.392	8050
904.51	8035
904.627	8077
904.745	8153
904.863	8069
904.981	7959
905.098	7921
905.216	7906
905.334	7982
905.451	7982
905.569	7898
905.686	7940
905.803	7849
905.921	7795
906.038	7868
906.155	7814
906.272	7719
906.389	7772
906.506	7643
906.623	7662
906.74	7624
906.857	7544
906.974	7594
907.091	7715
907.208	7742
907.324	7639
907.441	7609
907.557	7415
907.674	7411
907.79	7426
907.907	7449
908.023	7434
908.139	7438
908.256	7327
908.372	7407
908.488	7384
908.604	7266
908.72	7202
908.836	7236
908.952	7179
909.068	7247
909.184	7266
909.3	7259
909.415	7301
909.531	7327
909.647	7107
909.762	7107
909.878	7107
909.993	7137
910.108	7114
910.224	7107
910.339	7114
910.454	7065
910.57	6996
910.685	6920
910.8	7198
910.915	7091
911.03	7046
911.145	6882
911.259	6875
911.374	6882
911.489	6840
911.604	6821
911.718	6760
911.833	6753
911.947	6620
912.062	6669
912.176	6734
912.291	6707
912.405	6738
912.519	6821
912.633	6802
912.748	6707
912.862	6711
912.976	6597
913.09	6521
913.204	6601
913.318	6646
913.431	6722
913.545	6654
913.659	6684
913.772	6608
913.886	6578
914	6513
914.113	6639
914.226	6620
914.34	6593
914.453	6429
914.566	6612
914.68	6498
914.793	6547
914.906	6479
915.019	6372
915.132	6388
915.245	6429
915.358	6429
915.47	6441
915.583	6414
915.696	6490
915.809	6578
915.921	6574
916.034	6460
916.146	6429
916.259	6403
916.371	6429
916.483	6464
916.595	6369
916.708	6395
916.82	6399
916.932	6350
917.044	6365
917.156	6346
917.268	6384
917.38	6350
917.491	6315
917.603	6338
917.715	6395
917.826	6426
917.938	6311
918.049	6243
918.161	6323
918.272	6433
918.384	6437
918.495	6372
918.606	6247
918.717	6220
918.828	6247
918.939	6254
919.05	6201
919.161	6277
919.272	6155
919.383	6186
919.494	6304
919.604	6475
919.715	6308
919.826	6243
919.936	6243
920.047	6346
920.157	6311
920.267	6448
920.378	6369
920.488	6319
920.598	6486
920.708	6604
920.818	6517
920.928	6460
921.038	6608
921.148	6620
921.258	6334
921.368	6258
921.477	6197
921.587	6178
921.697	6136
921.806	6232
921.916	6117
922.025	5973
922.134	6003
922.244	5885
922.353	5961
922.462	5840
922.571	5813
922.68	5737
922.789	5688
922.898	5703
923.007	5653
923.116	5691
923.224	5665
923.333	5615
923.442	5577
923.55	5596
923.659	5547
923.767	5691
923.876	5532
923.984	5551
924.092	5554
924.201	5554
924.309	5535
924.417	5623
924.525	5463
924.633	5554
924.741	6254
924.849	5376
924.956	5493
925.064	5353
925.172	5315
925.279	5311
925.387	5353
925.494	5368
925.602	5425
925.709	5364
925.816	5296
925.924	5303
926.031	5345
926.138	5261
926.245	5303
926.352	5254
926.459	5322
926.566	5315
926.673	5204
926.779	5178
926.886	5143
926.993	5037
927.099	5022
927.206	5018
927.312	4968
927.419	5018
927.525	4942
927.631	5029
927.737	4847
927.843	4877
927.95	4740
928.056	4778
928.162	4816
928.267	4866
928.373	5406
928.479	4870
928.585	4679
928.69	4744
928.796	4793
928.901	4691
929.007	4577
929.112	4683
929.218	4660
929.323	4664
929.428	4550
929.533	4653
929.638	4527
929.743	4523
929.848	4546
929.953	4512
930.058	4478
930.163	4344
930.267	4337
930.372	4459
930.477	4322
930.581	4538
930.685	4344
930.79	4265
930.894	4287
930.998	4272
931.103	4344
931.207	4139
931.311	4063
931.415	4032
931.519	3915
931.623	3918
