Data from glass_V78500241_2141.txt Node
Date: Wed Sep 01 19:29:20 CST 2021
User: usil
Spectrometer: V785-0024
Trigger mode: 0
Integration Time (sec): 4.000000E-1
Scans to average: 1
Nonlinearity correction enabled: false
Boxcar width: 0
Storing dark spectrum: false
XAxis mode: Wavelengths
Number of Pixels in Spectrum: 1024
>>>>>Begin Spectral Data<<<<<
801.071	3671
801.214	3766
801.356	3705
801.499	3736
801.641	3717
801.783	3743
801.926	3861
802.068	3819
802.211	3869
802.353	3888
802.496	3838
802.638	3819
802.78	3892
802.923	3968
803.065	3873
803.208	3842
803.35	3857
803.492	3892
803.635	3865
803.777	3835
803.919	3854
804.061	4135
804.204	3964
804.346	3941
804.488	3918
804.63	4025
804.773	4025
804.915	3998
805.057	4131
805.199	4044
805.341	4071
805.483	4150
805.626	4105
805.768	4101
805.91	4207
806.052	4204
806.194	4230
806.336	4348
806.478	4242
806.62	4173
806.762	4147
806.904	4249
807.046	4337
807.188	4211
807.33	4177
807.472	4215
807.614	4169
807.756	4242
807.898	4154
808.04	4207
808.182	4234
808.324	4310
808.465	4394
808.607	4504
808.749	4383
808.891	4447
809.033	4466
809.174	4371
809.316	4246
809.458	4257
809.6	4143
809.741	4112
809.883	4112
810.025	4196
810.166	4188
810.308	4211
810.45	4227
810.591	4234
810.733	4265
810.875	4535
811.016	4824
811.158	5128
811.299	5292
811.441	5261
811.582	5014
811.724	4675
811.865	4466
812.007	4459
812.148	4432
812.29	4440
812.431	4390
812.573	4421
812.714	4394
812.855	4417
812.997	4390
813.138	4493
813.279	4402
813.421	4363
813.562	4405
813.703	4356
813.845	4363
813.986	4272
814.127	4230
814.268	4268
814.41	4299
814.551	4257
814.692	4329
814.833	4272
814.974	4325
815.115	4295
815.256	4253
815.397	4253
815.539	4227
815.68	4207
815.821	4211
815.962	4287
816.103	4280
816.244	4287
816.385	4261
816.526	4238
816.666	4181
816.807	4059
816.948	4188
817.089	4196
817.23	4097
817.371	4040
817.512	4090
817.653	4101
817.793	4025
817.934	4013
818.075	4097
818.216	4067
818.356	4093
818.497	4017
818.638	3926
818.778	3930
818.919	3865
819.06	3861
819.2	3892
819.341	3873
819.481	3827
819.622	3937
819.762	4006
819.903	3968
820.043	3846
820.184	3785
820.324	3831
820.465	3838
820.605	3892
820.746	3842
820.886	3766
821.026	3918
821.167	3907
821.307	3960
821.447	3972
821.588	3953
821.728	3945
821.868	3930
822.008	3884
822.149	3899
822.289	3903
822.429	3755
822.569	3816
822.709	3819
822.849	3701
822.99	3682
823.13	3732
823.27	3751
823.41	3644
823.55	3720
823.69	3720
823.83	3709
823.97	3682
824.11	3614
824.25	3587
824.389	3629
824.529	3656
824.669	3690
824.809	3682
824.949	3740
825.089	3724
825.228	3694
825.368	3606
825.508	3568
825.648	3568
825.787	3549
825.927	3606
826.067	3637
826.206	3656
826.346	3747
826.485	3842
826.625	3827
826.765	3865
826.904	3781
827.044	3618
827.183	3507
827.323	3412
827.462	3462
827.601	3447
827.741	3412
827.88	3458
828.02	3382
828.159	3431
828.298	3458
828.437	3557
828.577	3462
828.716	3564
828.855	3507
828.994	3367
829.134	3370
829.273	3382
829.412	3336
829.551	3329
829.69	3359
829.829	3424
829.968	3515
830.107	3435
830.246	3401
830.385	3374
830.524	3283
830.663	3275
830.802	3233
830.941	3176
831.08	3184
831.219	3241
831.357	3233
831.496	3409
831.635	3230
831.774	3192
831.913	3222
832.051	3142
832.19	3138
832.329	3203
832.467	3093
832.606	3097
832.744	3184
832.883	3184
833.022	3169
833.16	3260
833.299	3313
833.437	3355
833.576	3389
833.714	3397
833.852	3435
833.991	3397
834.129	3485
834.267	3462
834.406	3374
834.544	3424
834.682	3382
834.821	3397
834.959	3572
835.097	3401
835.235	3500
835.373	3469
835.511	3515
835.65	3450
835.788	3447
835.926	3359
836.064	3393
836.202	3458
836.34	3557
836.478	3580
836.615	3564
836.753	3587
836.891	3641
837.029	3572
837.167	3595
837.305	3557
837.443	3526
837.58	3511
837.718	3572
837.856	3564
837.993	3519
838.131	3561
838.269	3595
838.406	3572
838.544	3622
838.681	3450
838.819	3485
838.956	3367
839.094	3416
839.231	3450
839.369	3485
839.506	3732
839.643	3595
839.781	3477
839.918	3488
840.055	3511
840.193	3519
840.33	3530
840.467	3511
840.604	3568
840.742	3793
840.879	3511
841.016	3515
841.153	3549
841.29	3740
841.427	3713
841.564	3751
841.701	3736
841.838	3648
841.975	3682
842.112	3701
842.249	3625
842.385	3641
842.522	3827
842.659	3701
842.796	3629
842.933	3671
843.069	3724
843.206	3694
843.343	3766
843.479	3785
843.616	3797
843.752	3686
843.889	3701
844.025	3861
844.162	3686
844.298	3850
844.435	3759
844.571	3800
844.708	3903
844.844	3972
844.98	4036
845.117	3983
845.253	3884
845.389	3911
845.525	3979
845.661	3949
845.798	3896
845.934	4032
846.07	3934
846.206	4048
846.342	4097
846.478	4029
846.614	3960
846.75	3911
846.886	3896
847.022	4040
847.158	4010
847.294	4006
847.429	4013
847.565	3987
847.701	4173
847.837	3861
847.972	3854
848.108	3956
848.244	3983
848.379	3888
848.515	3816
848.65	3770
848.786	3838
848.921	3857
849.057	3907
849.192	3960
849.328	3934
849.463	3903
849.598	3930
849.734	3888
849.869	3778
850.004	3800
850.14	3812
850.275	3724
850.41	3717
850.545	3747
850.68	3762
850.815	3816
850.95	3793
851.085	3899
851.22	3873
851.355	3793
851.49	3781
851.625	3755
851.76	3823
851.895	3720
852.03	3732
852.165	3793
852.299	3838
852.434	3911
852.569	3876
852.703	3884
852.838	3956
852.973	4002
853.107	3975
853.242	3861
853.376	3785
853.511	3762
853.645	3812
853.78	4010
853.914	3903
854.048	3888
854.183	3842
854.317	3926
854.451	4048
854.585	3972
854.72	3953
854.854	3994
854.988	3941
855.122	3991
855.256	3934
855.39	4021
855.524	4120
855.658	4097
855.792	4090
855.926	4112
856.06	4207
856.194	4192
856.327	4185
856.461	4131
856.595	4143
856.729	4158
856.862	4246
856.996	4246
857.13	4306
857.263	4314
857.397	4348
857.53	4284
857.664	4318
857.797	4386
857.931	4398
858.064	4325
858.197	4432
858.331	4386
858.464	4402
858.597	4360
858.731	4455
858.864	4527
858.997	4443
859.13	4512
859.263	4535
859.396	4565
859.529	4478
859.662	4519
859.795	4508
859.928	4611
860.061	4691
860.194	4767
860.327	4668
860.46	4687
860.592	4763
860.725	4702
860.858	4729
860.99	4714
861.123	4660
861.256	4668
861.388	4740
861.521	5410
861.653	4664
861.786	4687
861.918	4759
862.05	4771
862.183	4835
862.315	4900
862.447	4911
862.58	4873
862.712	4793
862.844	4736
862.976	4839
863.108	4858
863.24	5162
863.372	4850
863.504	4862
863.636	4900
863.768	4942
863.9	4938
864.032	4968
864.164	4946
864.296	5033
864.428	5075
864.559	5052
864.691	5098
864.823	5109
864.954	5056
865.086	5079
865.217	5124
865.349	5102
865.48	5132
865.612	5204
865.743	5284
865.875	5174
866.006	5159
866.137	5208
866.269	5170
866.4	5212
866.531	5227
866.662	5174
866.793	5277
866.924	5288
867.055	5299
867.186	5318
867.317	5357
867.448	5334
867.579	5395
867.71	5387
867.841	5410
867.972	5478
868.103	5478
868.233	5490
868.364	5512
868.495	5505
868.625	5691
868.756	5798
868.886	5638
869.017	5786
869.147	5863
869.278	5866
869.408	5764
869.539	5836
869.669	5961
869.799	5912
869.929	5965
870.06	5965
870.19	6175
870.32	6220
870.45	6216
870.58	6353
870.71	6418
870.84	6494
870.97	6452
871.1	6388
871.23	6627
871.36	6707
871.489	6715
871.619	6787
871.749	6776
871.879	6882
872.008	6985
872.138	6993
872.267	6951
872.397	7004
872.526	7000
872.656	7118
872.785	7236
872.915	7324
873.044	7499
873.173	7506
873.303	7647
873.432	7693
873.561	7852
873.69	7906
873.819	8065
873.948	8145
874.077	8286
874.206	8301
874.335	8419
874.464	8678
874.593	8800
874.722	8914
874.851	9112
874.979	9245
875.108	9359
875.237	9401
875.365	9485
875.494	9614
875.623	9781
875.751	9812
875.88	10010
876.008	10097
876.136	10215
876.265	10523
876.393	10637
876.521	10672
876.65	10797
876.778	10866
876.906	10854
877.034	10961
877.162	11162
877.29	11113
877.418	11284
877.546	11330
877.674	11452
877.802	11482
877.93	11608
878.058	11562
878.185	11638
878.313	11676
878.441	11680
878.568	11710
878.696	11809
878.824	11843
878.951	11927
879.079	11996
879.206	12171
879.333	12083
879.461	12083
879.588	12060
879.715	12087
879.842	12232
879.97	12125
880.097	11817
880.224	11897
880.351	11954
880.478	11821
880.605	11885
880.732	11824
880.859	12003
880.986	11764
881.112	11809
881.239	11653
881.366	11748
881.493	11570
881.619	11577
881.746	11524
881.872	11520
881.999	11547
882.125	11448
882.252	11539
882.378	11501
882.505	11646
882.631	11372
882.757	11349
882.883	11258
883.01	11143
883.136	11121
883.262	11014
883.388	11041
883.514	11102
883.64	11121
883.766	11124
883.892	11006
884.018	11003
884.143	10999
884.269	11071
884.395	10869
884.52	10774
884.646	10786
884.772	10736
884.897	10687
885.023	10714
885.148	10740
885.274	10752
885.399	10694
885.524	10577
885.65	10626
885.775	10538
885.9	10519
886.025	10634
886.15	10599
886.275	10447
886.4	10371
886.525	10405
886.65	10344
886.775	10447
886.9	10466
887.025	10542
887.149	10379
887.274	10207
887.399	10204
887.523	10207
887.648	10135
887.773	10158
887.897	10306
888.021	10215
888.146	10074
888.27	10204
888.395	10242
888.519	10185
888.643	10169
888.767	10131
888.891	10044
889.015	9998
889.139	10063
889.263	10029
889.387	10059
889.511	10082
889.635	10105
889.759	9941
889.883	9991
890.006	9979
890.13	10112
890.254	9941
890.377	10029
890.501	9770
890.624	9907
890.748	9895
890.871	9816
890.995	9720
891.118	9660
891.241	9740
891.364	9720
891.488	9816
891.611	9728
891.734	9728
891.857	9762
891.98	9713
892.103	9743
892.226	9694
892.349	9622
892.471	9458
892.594	9633
892.717	9610
892.839	9629
892.962	9610
893.085	9648
893.207	9629
893.33	9511
893.452	9500
893.575	9538
893.697	9458
893.819	9564
893.941	9610
894.064	9629
894.186	9408
894.308	9336
894.43	9500
894.552	9599
894.674	9496
894.796	9367
894.918	9313
895.04	9317
895.161	9393
895.283	9351
895.405	9226
895.526	9272
895.648	9260
895.769	9218
895.891	9222
896.012	9279
896.134	9214
896.255	9173
896.376	9188
896.498	9161
896.619	9127
896.74	9051
896.861	9058
896.982	9211
897.103	9260
897.224	9165
897.345	8986
897.466	8986
897.587	9024
897.708	9150
897.828	9032
897.949	8899
898.07	8857
898.19	8929
898.311	9062
898.431	8944
898.552	8895
898.672	8994
898.792	8887
898.913	8868
899.033	8777
899.153	8766
899.273	8678
899.393	8678
899.513	8766
899.633	8716
899.753	8701
899.873	8773
899.993	8720
900.113	8640
900.232	8743
900.352	8629
900.472	8545
900.591	8568
900.711	8629
900.83	8545
900.95	8697
901.069	8659
901.189	8606
901.308	8461
901.427	8393
901.546	8415
901.665	8469
901.784	8526
901.904	8362
902.023	8282
902.141	8221
902.26	8210
902.379	8305
902.498	8229
902.617	8248
902.735	8221
902.854	8286
902.973	8221
903.091	8103
903.21	8153
903.328	8111
903.446	8161
903.565	8103
903.683	8107
903.801	8039
903.919	8145
904.038	8153
904.156	7974
904.274	8088
904.392	7955
904.51	8039
904.627	8050
904.745	8065
904.863	8134
904.981	7921
905.098	7875
905.216	7890
905.334	7917
905.451	7902
905.569	7887
905.686	7925
905.803	7928
905.921	7803
906.038	7826
906.155	7738
906.272	7677
906.389	7677
906.506	7662
906.623	7609
906.74	7567
906.857	7559
906.974	7525
907.091	7677
907.208	7738
907.324	7655
907.441	7586
907.557	7480
907.674	7373
907.79	7430
907.907	7384
908.023	7460
908.139	7453
908.256	7331
908.372	7358
908.488	7350
908.604	7232
908.72	7255
908.836	7206
908.952	7209
909.068	7251
909.184	7266
909.3	7232
909.415	7251
909.531	7308
909.647	7126
909.762	7088
909.878	7042
909.993	7088
910.108	7042
910.224	7118
910.339	7061
910.454	7053
910.57	7019
910.685	6996
910.8	7171
910.915	7091
911.03	6954
911.145	6905
911.259	6901
911.374	6958
911.489	6795
911.604	6829
911.718	6673
911.833	6760
911.947	6639
912.062	6604
912.176	6707
912.291	6745
912.405	6658
912.519	6848
912.633	6837
912.748	6760
912.862	6696
912.976	6623
913.09	6547
913.204	6608
913.318	6570
913.431	6635
913.545	6688
913.659	6681
913.772	6623
913.886	6589
914	6574
914.113	6604
914.226	6673
914.34	6601
914.453	6403
914.566	6620
914.68	6498
914.793	6555
914.906	6395
915.019	6346
915.132	6346
915.245	6365
915.358	6426
915.47	6422
915.583	6422
915.696	6471
915.809	6525
915.921	6566
916.034	6376
916.146	6372
916.259	6357
916.371	6410
916.483	6407
916.595	6418
916.708	6399
916.82	6376
916.932	6395
917.044	6376
917.156	6422
917.268	6308
917.38	6365
917.491	6327
917.603	6323
917.715	6331
917.826	6395
917.938	6331
918.049	6224
918.161	6323
918.272	6407
918.384	6448
918.495	6323
918.606	6304
918.717	6235
918.828	6239
918.939	6300
919.05	6213
919.161	6213
919.272	6102
919.383	6121
919.494	6285
919.604	6441
919.715	6281
919.826	6186
919.936	6197
920.047	6281
920.157	6258
920.267	6479
920.378	6289
920.488	6266
920.598	6464
920.708	6532
920.818	6445
920.928	6407
921.038	6570
921.148	6589
921.258	6296
921.368	6300
921.477	6209
921.587	6209
921.697	6083
921.806	6171
921.916	6072
922.025	5927
922.134	5920
922.244	5828
922.353	5874
922.462	5866
922.571	5764
922.68	5726
922.789	5623
922.898	5714
923.007	5642
923.116	5748
923.224	5672
923.333	5649
923.442	5581
923.55	5573
923.659	5600
923.767	5661
923.876	5532
923.984	5532
924.092	5551
924.201	5570
924.309	5528
924.417	5524
924.525	5501
924.633	5512
924.741	6247
924.849	5410
924.956	5516
925.064	5402
925.172	5322
925.279	5311
925.387	5334
925.494	5330
925.602	5429
925.709	5372
925.816	5223
925.924	5334
926.031	5345
926.138	5311
926.245	5246
926.352	5220
926.459	5330
926.566	5303
926.673	5216
926.779	5151
926.886	5143
926.993	5045
927.099	5010
927.206	4957
927.312	4980
927.419	4991
927.525	4900
927.631	4980
927.737	4889
927.843	4854
927.95	4721
928.056	4828
928.162	4858
928.267	4885
928.373	5357
928.479	4850
928.585	4672
928.69	4793
928.796	4748
928.901	4664
929.007	4588
929.112	4596
929.218	4622
929.323	4615
929.428	4580
929.533	4596
929.638	4550
929.743	4550
929.848	4546
929.953	4519
930.058	4432
930.163	4352
930.267	4371
930.372	4424
930.477	4268
930.581	4466
930.685	4310
930.79	4219
930.894	4344
930.998	4207
931.103	4390
931.207	4116
931.311	4097
931.415	4002
931.519	3953
931.623	3937
