Data from glass_V78500241_2593.txt Node
Date: Wed Sep 01 19:32:28 CST 2021
User: usil
Spectrometer: V785-0024
Trigger mode: 0
Integration Time (sec): 4.000000E-1
Scans to average: 1
Nonlinearity correction enabled: false
Boxcar width: 0
Storing dark spectrum: false
XAxis mode: Wavelengths
Number of Pixels in Spectrum: 1024
>>>>>Begin Spectral Data<<<<<
801.071	3740
801.214	3736
801.356	3694
801.499	3736
801.641	3743
801.783	3747
801.926	3869
802.068	3785
802.211	3835
802.353	3888
802.496	3835
802.638	3861
802.78	3911
802.923	3918
803.065	3922
803.208	3884
803.35	3854
803.492	3873
803.635	3861
803.777	3819
803.919	3827
804.061	4154
804.204	3915
804.346	3911
804.488	3876
804.63	3975
804.773	3987
804.915	3998
805.057	4112
805.199	4051
805.341	4063
805.483	4086
805.626	4124
805.768	4131
805.91	4192
806.052	4215
806.194	4200
806.336	4306
806.478	4166
806.62	4207
806.762	4196
806.904	4223
807.046	4276
807.188	4177
807.33	4162
807.472	4207
807.614	4173
807.756	4272
807.898	4196
808.04	4204
808.182	4230
808.324	4303
808.465	4348
808.607	4459
808.749	4436
808.891	4481
809.033	4512
809.174	4390
809.316	4238
809.458	4238
809.6	4101
809.741	4166
809.883	4128
810.025	4230
810.166	4238
810.308	4196
810.45	4242
810.591	4211
810.733	4299
810.875	4504
811.016	4885
811.158	5098
811.299	5254
811.441	5242
811.582	5006
811.724	4691
811.865	4428
812.007	4451
812.148	4424
812.29	4371
812.431	4417
812.573	4363
812.714	4348
812.855	4386
812.997	4375
813.138	4470
813.279	4386
813.421	4375
813.562	4352
813.703	4314
813.845	4295
813.986	4253
814.127	4223
814.268	4322
814.41	4310
814.551	4257
814.692	4329
814.833	4257
814.974	4284
815.115	4337
815.256	4238
815.397	4230
815.539	4261
815.68	4185
815.821	4200
815.962	4325
816.103	4219
816.244	4223
816.385	4242
816.526	4265
816.666	4219
816.807	4097
816.948	4204
817.089	4169
817.23	4048
817.371	4067
817.512	4013
817.653	4051
817.793	4002
817.934	4071
818.075	4093
818.216	4063
818.356	4109
818.497	3956
818.638	3922
818.778	3922
818.919	3892
819.06	3846
819.2	3945
819.341	3846
819.481	3838
819.622	3915
819.762	4036
819.903	3934
820.043	3812
820.184	3785
820.324	3785
820.465	3846
820.605	3846
820.746	3812
820.886	3785
821.026	3915
821.167	3884
821.307	3949
821.447	3983
821.588	3911
821.728	3922
821.868	3934
822.008	3835
822.149	3892
822.289	3896
822.429	3781
822.569	3743
822.709	3819
822.849	3720
822.99	3698
823.13	3747
823.27	3812
823.41	3694
823.55	3720
823.69	3698
823.83	3774
823.97	3660
824.11	3591
824.25	3599
824.389	3637
824.529	3618
824.669	3606
824.809	3667
824.949	3709
825.089	3679
825.228	3679
825.368	3568
825.508	3584
825.648	3553
825.787	3633
825.927	3561
826.067	3610
826.206	3644
826.346	3774
826.485	3793
826.625	3854
826.765	3896
826.904	3816
827.044	3610
827.183	3500
827.323	3450
827.462	3507
827.601	3412
827.741	3389
827.88	3458
828.02	3389
828.159	3397
828.298	3428
828.437	3519
828.577	3462
828.716	3591
828.855	3481
828.994	3374
829.134	3397
829.273	3393
829.412	3325
829.551	3348
829.69	3348
829.829	3401
829.968	3504
830.107	3401
830.246	3412
830.385	3386
830.524	3317
830.663	3317
830.802	3275
830.941	3233
831.08	3211
831.219	3245
831.357	3279
831.496	3393
831.635	3184
831.774	3184
831.913	3192
832.051	3127
832.19	3135
832.329	3211
832.467	3176
832.606	3119
832.744	3184
832.883	3199
833.022	3230
833.16	3253
833.299	3306
833.437	3321
833.576	3370
833.714	3397
833.852	3454
833.991	3473
834.129	3473
834.267	3447
834.406	3416
834.544	3401
834.682	3435
834.821	3416
834.959	3580
835.097	3458
835.235	3534
835.373	3458
835.511	3485
835.65	3443
835.788	3488
835.926	3370
836.064	3351
836.202	3359
836.34	3523
836.478	3603
836.615	3553
836.753	3622
836.891	3618
837.029	3587
837.167	3542
837.305	3584
837.443	3534
837.58	3504
837.718	3572
837.856	3557
837.993	3545
838.131	3591
838.269	3526
838.406	3595
838.544	3599
838.681	3462
838.819	3450
838.956	3351
839.094	3393
839.231	3439
839.369	3485
839.506	3717
839.643	3618
839.781	3477
839.918	3458
840.055	3549
840.193	3507
840.33	3534
840.467	3553
840.604	3576
840.742	3770
840.879	3561
841.016	3553
841.153	3587
841.29	3743
841.427	3709
841.564	3713
841.701	3720
841.838	3709
841.975	3671
842.112	3694
842.249	3641
842.385	3584
842.522	3804
842.659	3656
842.796	3652
842.933	3690
843.069	3682
843.206	3713
843.343	3812
843.479	3751
843.616	3774
843.752	3641
843.889	3709
844.025	3823
844.162	3713
844.298	3873
844.435	3747
844.571	3762
844.708	3888
844.844	3968
844.98	4006
845.117	3994
845.253	3926
845.389	3892
845.525	3972
845.661	3937
845.798	3922
845.934	4010
846.07	3991
846.206	4017
846.342	4116
846.478	4067
846.614	3964
846.75	3945
846.886	3903
847.022	4071
847.158	3949
847.294	3998
847.429	3991
847.565	3994
847.701	4230
847.837	3899
847.972	3857
848.108	3979
848.244	3994
848.379	3915
848.515	3854
848.65	3793
848.786	3831
848.921	3835
849.057	3926
849.192	3903
849.328	3918
849.463	3949
849.598	3850
849.734	3876
849.869	3819
850.004	3778
850.14	3774
850.275	3759
850.41	3747
850.545	3713
850.68	3747
850.815	3823
850.95	3808
851.085	3937
851.22	3831
851.355	3835
851.49	3762
851.625	3770
851.76	3797
851.895	3709
852.03	3724
852.165	3759
852.299	3816
852.434	3922
852.569	3876
852.703	3857
852.838	3930
852.973	3983
853.107	3983
853.242	3857
853.376	3797
853.511	3759
853.645	3823
853.78	3983
853.914	3884
854.048	3899
854.183	3884
854.317	3911
854.451	4006
854.585	3941
854.72	3991
854.854	4059
854.988	3926
855.122	3979
855.256	3918
855.39	3964
855.524	4090
855.658	4082
855.792	4105
855.926	4135
856.06	4147
856.194	4188
856.327	4097
856.461	4071
856.595	4124
856.729	4188
856.862	4249
856.996	4234
857.13	4280
857.263	4299
857.397	4394
857.53	4303
857.664	4287
857.797	4375
857.931	4390
858.064	4329
858.197	4394
858.331	4417
858.464	4409
858.597	4306
858.731	4462
858.864	4459
858.997	4462
859.13	4497
859.263	4481
859.396	4535
859.529	4531
859.662	4535
859.795	4531
859.928	4580
860.061	4660
860.194	4721
860.327	4637
860.46	4637
860.592	4668
860.725	4786
860.858	4710
860.99	4649
861.123	4672
861.256	4679
861.388	4774
861.521	5299
861.653	4721
861.786	4672
861.918	4752
862.05	4831
862.183	4801
862.315	4873
862.447	4934
862.58	4877
862.712	4809
862.844	4778
862.976	4885
863.108	4885
863.24	5159
863.372	4767
863.504	4900
863.636	4873
863.768	4980
863.9	4927
864.032	4885
864.164	4991
864.296	5003
864.428	5045
864.559	5029
864.691	5086
864.823	5105
864.954	5071
865.086	5140
865.217	5071
865.349	5124
865.48	5159
865.612	5178
865.743	5261
865.875	5128
866.006	5246
866.137	5269
866.269	5239
866.4	5212
866.531	5204
866.662	5258
866.793	5254
866.924	5277
867.055	5345
867.186	5337
867.317	5303
867.448	5341
867.579	5414
867.71	5345
867.841	5391
867.972	5474
868.103	5463
868.233	5486
868.364	5493
868.495	5543
868.625	5638
868.756	5752
868.886	5699
869.017	5699
869.147	5874
869.278	5878
869.408	5863
869.539	5836
869.669	5893
869.799	5901
869.929	5946
870.06	5954
870.19	6117
870.32	6190
870.45	6243
870.58	6334
870.71	6456
870.84	6437
870.97	6399
871.1	6429
871.23	6654
871.36	6593
871.489	6684
871.619	6722
871.749	6738
871.879	6825
872.008	7004
872.138	6981
872.267	6981
872.397	6928
872.526	7065
872.656	7107
872.785	7270
872.915	7392
873.044	7510
873.173	7552
873.303	7582
873.432	7788
873.561	7792
873.69	7963
873.819	7967
873.948	8187
874.077	8157
874.206	8317
874.335	8412
874.464	8655
874.593	8853
874.722	8933
874.851	9119
874.979	9207
875.108	9405
875.237	9454
875.365	9507
875.494	9637
875.623	9835
875.751	9785
875.88	9918
876.008	10017
876.136	10333
876.265	10516
876.393	10752
876.521	10717
876.65	10774
876.778	10812
876.906	10812
877.034	10984
877.162	11102
877.29	11155
877.418	11254
877.546	11303
877.674	11398
877.802	11482
877.93	11436
878.058	11497
878.185	11562
878.313	11707
878.441	11748
878.568	11619
878.696	11870
878.824	11832
878.951	12022
879.079	11965
879.206	12091
879.333	12136
879.461	12003
879.588	12060
879.715	12155
879.842	12098
879.97	11977
880.097	11851
880.224	11885
880.351	11874
880.478	11889
880.605	11855
880.732	11805
880.859	11999
880.986	11790
881.112	11824
881.239	11741
881.366	11611
881.493	11684
881.619	11509
881.746	11543
881.872	11474
881.999	11562
882.125	11497
882.252	11455
882.378	11490
882.505	11524
882.631	11360
882.757	11307
882.883	11349
883.01	11166
883.136	11174
883.262	11132
883.388	11121
883.514	11170
883.64	11136
883.766	11128
883.892	10987
884.018	11010
884.143	11025
884.269	11006
884.395	10904
884.52	10793
884.646	10736
884.772	10752
884.897	10763
885.023	10687
885.148	10736
885.274	10797
885.399	10679
885.524	10660
885.65	10561
885.775	10527
885.9	10512
886.025	10615
886.15	10523
886.275	10428
886.4	10276
886.525	10375
886.65	10325
886.775	10310
886.9	10481
887.025	10565
887.149	10390
887.274	10158
887.399	10249
887.523	10112
887.648	10124
887.773	10078
887.897	10322
888.021	10227
888.146	10093
888.27	10207
888.395	10223
888.519	10177
888.643	10120
888.767	10147
888.891	10055
889.015	9968
889.139	10124
889.263	9975
889.387	10101
889.511	10032
889.635	10097
889.759	9918
889.883	9949
890.006	9987
890.13	10002
890.254	9937
890.377	10013
890.501	9899
890.624	9861
890.748	9838
890.871	9800
890.995	9831
891.118	9743
891.241	9762
891.364	9751
891.488	9812
891.611	9724
891.734	9686
891.857	9812
891.98	9641
892.103	9663
892.226	9671
892.349	9595
892.471	9534
892.594	9553
892.717	9637
892.839	9633
892.962	9564
893.085	9622
893.207	9500
893.33	9485
893.452	9534
893.575	9557
893.697	9526
893.819	9576
893.941	9652
894.064	9576
894.186	9389
894.308	9416
894.43	9542
894.552	9572
894.674	9450
894.796	9386
894.918	9382
895.04	9317
895.161	9363
895.283	9386
895.405	9226
895.526	9302
895.648	9203
895.769	9264
895.891	9195
896.012	9264
896.134	9207
896.255	9173
896.376	9062
896.498	9085
896.619	9119
896.74	9100
896.861	9108
896.982	9233
897.103	9302
897.224	9138
897.345	9070
897.466	9066
897.587	8967
897.708	9138
897.828	9043
897.949	9005
898.07	8834
898.19	8883
898.311	9036
898.431	8842
898.552	8925
898.672	8944
898.792	8921
898.913	8921
899.033	8800
899.153	8720
899.273	8697
899.393	8716
899.513	8720
899.633	8727
899.753	8804
899.873	8686
899.993	8727
900.113	8693
900.232	8727
900.352	8682
900.472	8530
900.591	8571
900.711	8629
900.83	8541
900.95	8617
901.069	8701
901.189	8621
901.308	8427
901.427	8362
901.546	8404
901.665	8450
901.784	8499
901.904	8320
902.023	8351
902.141	8237
902.26	8172
902.379	8309
902.498	8214
902.617	8176
902.735	8275
902.854	8271
902.973	8298
903.091	8100
903.21	8123
903.328	8206
903.446	8100
903.565	8062
903.683	8081
903.801	8039
903.919	7986
904.038	8088
904.156	8008
904.274	8115
904.392	8054
904.51	8005
904.627	8039
904.745	7993
904.863	8103
904.981	7921
905.098	7826
905.216	7906
905.334	7959
905.451	7909
905.569	7814
905.686	7940
905.803	7955
905.921	7776
906.038	7799
906.155	7852
906.272	7689
906.389	7704
906.506	7624
906.623	7639
906.74	7578
906.857	7502
906.974	7628
907.091	7624
907.208	7662
907.324	7643
907.441	7495
907.557	7411
907.674	7434
907.79	7400
907.907	7453
908.023	7434
908.139	7438
908.256	7343
908.372	7354
908.488	7308
908.604	7297
908.72	7202
908.836	7285
908.952	7213
909.068	7293
909.184	7266
909.3	7236
909.415	7285
909.531	7327
909.647	7069
909.762	7088
909.878	7080
909.993	7065
910.108	7061
910.224	7053
910.339	7095
910.454	7004
910.57	7019
910.685	6943
910.8	7168
910.915	7118
911.03	6977
911.145	6886
911.259	6859
911.374	6871
911.489	6840
911.604	6848
911.718	6707
911.833	6741
911.947	6650
912.062	6574
912.176	6726
912.291	6677
912.405	6730
912.519	6856
912.633	6783
912.748	6760
912.862	6646
912.976	6570
913.09	6532
913.204	6593
913.318	6616
913.431	6646
913.545	6700
913.659	6692
913.772	6696
913.886	6540
914	6578
914.113	6601
914.226	6593
914.34	6563
914.453	6536
914.566	6623
914.68	6536
914.793	6513
914.906	6426
915.019	6399
915.132	6346
915.245	6384
915.358	6426
915.47	6445
915.583	6471
915.696	6475
915.809	6498
915.921	6479
916.034	6486
916.146	6384
916.259	6384
916.371	6532
916.483	6467
916.595	6342
916.708	6384
916.82	6388
916.932	6376
917.044	6414
917.156	6399
917.268	6300
917.38	6331
917.491	6281
917.603	6319
917.715	6464
917.826	6445
917.938	6353
918.049	6304
918.161	6285
918.272	6388
918.384	6433
918.495	6327
918.606	6209
918.717	6209
918.828	6289
918.939	6220
919.05	6209
919.161	6224
919.272	6091
919.383	6129
919.494	6243
919.604	6395
919.715	6289
919.826	6232
919.936	6270
920.047	6292
920.157	6251
920.267	6429
920.378	6350
920.488	6266
920.598	6433
920.708	6521
920.818	6483
920.928	6460
921.038	6650
921.148	6536
921.258	6319
921.368	6289
921.477	6213
921.587	6209
921.697	6068
921.806	6140
921.916	6060
922.025	5969
922.134	5859
922.244	5878
922.353	5916
922.462	5836
922.571	5821
922.68	5707
922.789	5688
922.898	5615
923.007	5668
923.116	5707
923.224	5668
923.333	5642
923.442	5649
923.55	5596
923.659	5592
923.767	5592
923.876	5524
923.984	5585
924.092	5524
924.201	5509
924.309	5558
924.417	5520
924.525	5493
924.633	5493
924.741	6277
924.849	5303
924.956	5493
925.064	5391
925.172	5284
925.279	5315
925.387	5360
925.494	5280
925.602	5395
925.709	5402
925.816	5265
925.924	5280
926.031	5334
926.138	5311
926.245	5292
926.352	5181
926.459	5334
926.566	5330
926.673	5197
926.779	5132
926.886	5083
926.993	5048
927.099	5041
927.206	4930
927.312	4965
927.419	5014
927.525	4953
927.631	4984
927.737	4896
927.843	4850
927.95	4771
928.056	4801
928.162	4835
928.267	4870
928.373	5277
928.479	4809
928.585	4694
928.69	4771
928.796	4733
928.901	4706
929.007	4588
929.112	4668
929.218	4641
929.323	4554
929.428	4588
929.533	4630
929.638	4504
929.743	4554
929.848	4550
929.953	4516
930.058	4417
930.163	4341
930.267	4291
930.372	4459
930.477	4306
930.581	4447
930.685	4306
930.79	4265
930.894	4272
930.998	4234
931.103	4344
931.207	4116
931.311	4067
931.415	4021
931.519	3865
931.623	3934
