Data from glass_V78500241_1519.txt Node
Date: Wed Sep 01 19:25:01 CST 2021
User: usil
Spectrometer: V785-0024
Trigger mode: 0
Integration Time (sec): 4.000000E-1
Scans to average: 1
Nonlinearity correction enabled: false
Boxcar width: 0
Storing dark spectrum: false
XAxis mode: Wavelengths
Number of Pixels in Spectrum: 1024
>>>>>Begin Spectral Data<<<<<
801.071	3732
801.214	3759
801.356	3766
801.499	3698
801.641	3747
801.783	3800
801.926	3869
802.068	3827
802.211	3903
802.353	3892
802.496	3876
802.638	3861
802.78	3888
802.923	3945
803.065	3926
803.208	3861
803.35	3888
803.492	3892
803.635	3960
803.777	3823
803.919	3896
804.061	4116
804.204	3956
804.346	3937
804.488	3918
804.63	4040
804.773	3983
804.915	4025
805.057	4116
805.199	4032
805.341	4067
805.483	4196
805.626	4162
805.768	4139
805.91	4219
806.052	4223
806.194	4181
806.336	4356
806.478	4196
806.62	4173
806.762	4200
806.904	4261
807.046	4329
807.188	4196
807.33	4204
807.472	4238
807.614	4173
807.756	4280
807.898	4227
808.04	4249
808.182	4329
808.324	4310
808.465	4394
808.607	4470
808.749	4432
808.891	4470
809.033	4497
809.174	4421
809.316	4276
809.458	4234
809.6	4124
809.741	4135
809.883	4109
810.025	4246
810.166	4211
810.308	4299
810.45	4238
810.591	4291
810.733	4276
810.875	4535
811.016	4843
811.158	5162
811.299	5299
811.441	5246
811.582	5079
811.724	4702
811.865	4474
812.007	4474
812.148	4432
812.29	4402
812.431	4417
812.573	4405
812.714	4329
812.855	4413
812.997	4371
813.138	4466
813.279	4428
813.421	4409
813.562	4333
813.703	4363
813.845	4325
813.986	4238
814.127	4242
814.268	4291
814.41	4246
814.551	4276
814.692	4337
814.833	4272
814.974	4303
815.115	4344
815.256	4204
815.397	4227
815.539	4265
815.68	4177
815.821	4219
815.962	4329
816.103	4310
816.244	4196
816.385	4230
816.526	4265
816.666	4223
816.807	4112
816.948	4173
817.089	4166
817.23	4128
817.371	4051
817.512	4059
817.653	4078
817.793	4055
817.934	4059
818.075	4078
818.216	4090
818.356	4067
818.497	4025
818.638	3937
818.778	3915
818.919	3896
819.06	3876
819.2	3915
819.341	3854
819.481	3823
819.622	3884
819.762	4025
819.903	3945
820.043	3876
820.184	3812
820.324	3842
820.465	3857
820.605	3884
820.746	3838
820.886	3808
821.026	3960
821.167	3907
821.307	4029
821.447	3987
821.588	3949
821.728	3930
821.868	3949
822.008	3884
822.149	3922
822.289	3903
822.429	3781
822.569	3789
822.709	3823
822.849	3679
822.99	3720
823.13	3770
823.27	3770
823.41	3694
823.55	3740
823.69	3709
823.83	3701
823.97	3698
824.11	3591
824.25	3606
824.389	3652
824.529	3682
824.669	3629
824.809	3717
824.949	3732
825.089	3732
825.228	3705
825.368	3648
825.508	3534
825.648	3549
825.787	3591
825.927	3625
826.067	3622
826.206	3641
826.346	3827
826.485	3835
826.625	3873
826.765	3983
826.904	3873
827.044	3595
827.183	3507
827.323	3439
827.462	3507
827.601	3431
827.741	3447
827.88	3454
828.02	3378
828.159	3412
828.298	3500
828.437	3500
828.577	3481
828.716	3557
828.855	3481
828.994	3393
829.134	3374
829.273	3386
829.412	3348
829.551	3306
829.69	3378
829.829	3439
829.968	3481
830.107	3450
830.246	3473
830.385	3389
830.524	3294
830.663	3321
830.802	3283
830.941	3173
831.08	3173
831.219	3272
831.357	3275
831.496	3397
831.635	3230
831.774	3184
831.913	3222
832.051	3104
832.19	3142
832.329	3192
832.467	3135
832.606	3097
832.744	3161
832.883	3173
833.022	3165
833.16	3268
833.299	3298
833.437	3344
833.576	3370
833.714	3370
833.852	3447
833.991	3473
834.129	3439
834.267	3416
834.406	3367
834.544	3416
834.682	3409
834.821	3454
834.959	3595
835.097	3431
835.235	3530
835.373	3488
835.511	3515
835.65	3469
835.788	3507
835.926	3378
836.064	3351
836.202	3405
836.34	3564
836.478	3576
836.615	3553
836.753	3580
836.891	3618
837.029	3644
837.167	3564
837.305	3553
837.443	3564
837.58	3530
837.718	3561
837.856	3572
837.993	3507
838.131	3538
838.269	3572
838.406	3545
838.544	3557
838.681	3458
838.819	3469
838.956	3363
839.094	3393
839.231	3454
839.369	3496
839.506	3759
839.643	3606
839.781	3496
839.918	3481
840.055	3492
840.193	3526
840.33	3511
840.467	3625
840.604	3606
840.742	3812
840.879	3504
841.016	3519
841.153	3637
841.29	3728
841.427	3743
841.564	3679
841.701	3743
841.838	3717
841.975	3675
842.112	3728
842.249	3637
842.385	3633
842.522	3823
842.659	3709
842.796	3701
842.933	3679
843.069	3675
843.206	3675
843.343	3831
843.479	3797
843.616	3850
843.752	3675
843.889	3690
844.025	3884
844.162	3713
844.298	3842
844.435	3793
844.571	3797
844.708	3918
844.844	3922
844.98	4002
845.117	4055
845.253	3926
845.389	3941
845.525	3975
845.661	3979
845.798	3922
845.934	4017
846.07	3998
846.206	4055
846.342	4128
846.478	4071
846.614	3979
846.75	3972
846.886	3934
847.022	4051
847.158	3983
847.294	3983
847.429	4002
847.565	4021
847.701	4204
847.837	3907
847.972	3892
848.108	4006
848.244	3987
848.379	3861
848.515	3797
848.65	3800
848.786	3823
848.921	3896
849.057	3892
849.192	3960
849.328	3915
849.463	3926
849.598	3892
849.734	3812
849.869	3842
850.004	3819
850.14	3831
850.275	3759
850.41	3732
850.545	3747
850.68	3800
850.815	3797
850.95	3800
851.085	3945
851.22	3865
851.355	3861
851.49	3781
851.625	3816
851.76	3770
851.895	3751
852.03	3724
852.165	3819
852.299	3816
852.434	3915
852.569	3861
852.703	3819
852.838	3956
852.973	4006
853.107	4002
853.242	3892
853.376	3873
853.511	3770
853.645	3850
853.78	3987
853.914	3869
854.048	3892
854.183	3896
854.317	3972
854.451	4131
854.585	3949
854.72	3960
854.854	4048
854.988	3941
855.122	4025
855.256	3937
855.39	4006
855.524	4105
855.658	4097
855.792	4116
855.926	4128
856.06	4177
856.194	4166
856.327	4150
856.461	4124
856.595	4135
856.729	4185
856.862	4268
856.996	4223
857.13	4303
857.263	4303
857.397	4363
857.53	4261
857.664	4363
857.797	4386
857.931	4398
858.064	4341
858.197	4466
858.331	4386
858.464	4436
858.597	4341
858.731	4436
858.864	4478
858.997	4413
859.13	4497
859.263	4550
859.396	4569
859.529	4504
859.662	4535
859.795	4459
859.928	4607
860.061	4733
860.194	4721
860.327	4641
860.46	4653
860.592	4725
860.725	4729
860.858	4759
860.99	4729
861.123	4675
861.256	4683
861.388	4797
861.521	5589
861.653	4740
861.786	4702
861.918	4714
862.05	4744
862.183	4835
862.315	4850
862.447	4919
862.58	4877
862.712	4763
862.844	4721
862.976	4847
863.108	4862
863.24	5254
863.372	4850
863.504	4858
863.636	4885
863.768	4980
863.9	4961
864.032	4919
864.164	4942
864.296	5041
864.428	5090
864.559	5105
864.691	5117
864.823	5140
864.954	5086
865.086	5140
865.217	5162
865.349	5128
865.48	5155
865.612	5212
865.743	5265
865.875	5197
866.006	5204
866.137	5201
866.269	5216
866.4	5239
866.531	5223
866.662	5227
866.793	5299
866.924	5277
867.055	5360
867.186	5334
867.317	5284
867.448	5318
867.579	5357
867.71	5379
867.841	5414
867.972	5433
868.103	5497
868.233	5436
868.364	5497
868.495	5570
868.625	5657
868.756	5771
868.886	5695
869.017	5695
869.147	5859
869.278	5866
869.408	5752
869.539	5855
869.669	5942
869.799	5950
869.929	5942
870.06	6026
870.19	6190
870.32	6247
870.45	6331
870.58	6384
870.71	6437
870.84	6471
870.97	6407
871.1	6445
871.23	6597
871.36	6639
871.489	6646
871.619	6764
871.749	6806
871.879	6894
872.008	6970
872.138	6977
872.267	7050
872.397	6981
872.526	7015
872.656	7095
872.785	7194
872.915	7403
873.044	7556
873.173	7582
873.303	7613
873.432	7738
873.561	7856
873.69	7944
873.819	8062
873.948	8149
874.077	8187
874.206	8328
874.335	8446
874.464	8625
874.593	8853
874.722	8925
874.851	9135
874.979	9237
875.108	9363
875.237	9454
875.365	9553
875.494	9648
875.623	9797
875.751	9888
875.88	10063
876.008	10181
876.136	10249
876.265	10527
876.393	10641
876.521	10714
876.65	10793
876.778	10900
876.906	10889
877.034	10968
877.162	11052
877.29	11170
877.418	11337
877.546	11315
877.674	11497
877.802	11505
877.93	11493
878.058	11532
878.185	11600
878.313	11688
878.441	11714
878.568	11592
878.696	11733
878.824	11893
878.951	11927
879.079	12034
879.206	12095
879.333	12011
879.461	12091
879.588	12053
879.715	12060
879.842	12209
879.97	12064
880.097	11859
880.224	11939
880.351	11885
880.478	11863
880.605	11874
880.732	11817
880.859	11958
880.986	11836
881.112	11775
881.239	11764
881.366	11577
881.493	11608
881.619	11558
881.746	11619
881.872	11577
881.999	11520
882.125	11482
882.252	11577
882.378	11516
882.505	11520
882.631	11372
882.757	11307
882.883	11326
883.01	11292
883.136	11193
883.262	11064
883.388	11166
883.514	11162
883.64	11178
883.766	11105
883.892	11022
884.018	10942
884.143	11162
884.269	11155
884.395	10831
884.52	10725
884.646	10752
884.772	10717
884.897	10626
885.023	10725
885.148	10759
885.274	10774
885.399	10561
885.524	10702
885.65	10637
885.775	10611
885.9	10554
886.025	10618
886.15	10542
886.275	10481
886.4	10371
886.525	10462
886.65	10382
886.775	10344
886.9	10493
887.025	10561
887.149	10382
887.274	10234
887.399	10204
887.523	10223
887.648	10139
887.773	10158
887.897	10238
888.021	10162
888.146	10109
888.27	10223
888.395	10181
888.519	10169
888.643	10188
888.767	10192
888.891	10055
889.015	10029
889.139	9975
889.263	10010
889.387	10086
889.511	10105
889.635	10021
889.759	9949
889.883	10013
890.006	10013
890.13	10063
890.254	9987
890.377	9968
890.501	9842
890.624	9766
890.748	9884
890.871	9838
890.995	9797
891.118	9701
891.241	9766
891.364	9728
891.488	9838
891.611	9724
891.734	9857
891.857	9808
891.98	9755
892.103	9747
892.226	9736
892.349	9694
892.471	9622
892.594	9618
892.717	9618
892.839	9549
892.962	9637
893.085	9633
893.207	9545
893.33	9557
893.452	9542
893.575	9587
893.697	9473
893.819	9663
893.941	9599
894.064	9545
894.186	9454
894.308	9485
894.43	9614
894.552	9523
894.674	9553
894.796	9340
894.918	9401
895.04	9310
895.161	9401
895.283	9313
895.405	9256
895.526	9321
895.648	9237
895.769	9233
895.891	9275
896.012	9291
896.134	9230
896.255	9154
896.376	9154
896.498	9146
896.619	9176
896.74	9089
896.861	9207
896.982	9272
897.103	9348
897.224	9180
897.345	9058
897.466	9020
897.587	9036
897.708	9077
897.828	9024
897.949	9005
898.07	8929
898.19	8921
898.311	9066
898.431	8944
898.552	8914
898.672	8952
898.792	8952
898.913	8853
899.033	8800
899.153	8777
899.273	8602
899.393	8655
899.513	8796
899.633	8689
899.753	8670
899.873	8712
899.993	8731
900.113	8693
900.232	8735
900.352	8701
900.472	8644
900.591	8488
900.711	8598
900.83	8518
900.95	8724
901.069	8720
901.189	8610
901.308	8469
901.427	8415
901.546	8412
901.665	8438
901.784	8476
901.904	8423
902.023	8362
902.141	8183
902.26	8130
902.379	8267
902.498	8180
902.617	8210
902.735	8309
902.854	8309
902.973	8317
903.091	8126
903.21	8172
903.328	8176
903.446	8054
903.565	8062
903.683	8046
903.801	8046
903.919	8096
904.038	8065
904.156	8050
904.274	8062
904.392	8020
904.51	8016
904.627	8081
904.745	8027
904.863	8111
904.981	7947
905.098	7837
905.216	7879
905.334	7913
905.451	7921
905.569	7860
905.686	7913
905.803	7902
905.921	7811
906.038	7860
906.155	7856
906.272	7719
906.389	7677
906.506	7685
906.623	7567
906.74	7609
906.857	7578
906.974	7571
907.091	7689
907.208	7712
907.324	7670
907.441	7521
907.557	7419
907.674	7464
907.79	7441
907.907	7411
908.023	7457
908.139	7388
908.256	7377
908.372	7335
908.488	7362
908.604	7320
908.72	7274
908.836	7301
908.952	7221
909.068	7274
909.184	7316
909.3	7236
909.415	7305
909.531	7282
909.647	7099
909.762	7065
909.878	7088
909.993	7168
910.108	7099
910.224	7084
910.339	7129
910.454	7057
910.57	7012
910.685	6962
910.8	7141
910.915	7038
911.03	7042
911.145	6878
911.259	6878
911.374	6954
911.489	6875
911.604	6791
911.718	6726
911.833	6688
911.947	6677
912.062	6601
912.176	6753
912.291	6719
912.405	6711
912.519	6848
912.633	6829
912.748	6692
912.862	6703
912.976	6566
913.09	6528
913.204	6547
913.318	6650
913.431	6692
913.545	6703
913.659	6703
913.772	6662
913.886	6608
914	6604
914.113	6658
914.226	6658
914.34	6582
914.453	6540
914.566	6620
914.68	6502
914.793	6502
914.906	6403
915.019	6331
915.132	6369
915.245	6426
915.358	6441
915.47	6513
915.583	6498
915.696	6407
915.809	6502
915.921	6551
916.034	6422
916.146	6441
916.259	6342
916.371	6464
916.483	6494
916.595	6471
916.708	6422
916.82	6395
916.932	6407
917.044	6418
917.156	6429
917.268	6270
917.38	6346
917.491	6311
917.603	6327
917.715	6365
917.826	6437
917.938	6327
918.049	6262
918.161	6323
918.272	6380
918.384	6441
918.495	6353
918.606	6251
918.717	6281
918.828	6266
918.939	6262
919.05	6209
919.161	6281
919.272	6175
919.383	6125
919.494	6391
919.604	6448
919.715	6254
919.826	6194
919.936	6281
920.047	6304
920.157	6247
920.267	6399
920.378	6334
920.488	6308
920.598	6429
920.708	6604
920.818	6460
920.928	6437
921.038	6604
921.148	6547
921.258	6308
921.368	6334
921.477	6163
921.587	6232
921.697	6106
921.806	6190
921.916	6076
922.025	5935
922.134	6015
922.244	5901
922.353	5946
922.462	5821
922.571	5802
922.68	5691
922.789	5691
922.898	5718
923.007	5638
923.116	5714
923.224	5653
923.333	5634
923.442	5646
923.55	5589
923.659	5562
923.767	5665
923.876	5558
923.984	5604
924.092	5509
924.201	5524
924.309	5562
924.417	5558
924.525	5535
924.633	5478
924.741	6098
924.849	5417
924.956	5551
925.064	5360
925.172	5307
925.279	5330
925.387	5383
925.494	5296
925.602	5372
925.709	5421
925.816	5296
925.924	5311
926.031	5357
926.138	5315
926.245	5315
926.352	5216
926.459	5318
926.566	5372
926.673	5227
926.779	5155
926.886	5102
926.993	5014
927.099	5010
927.206	4980
927.312	4957
927.419	5003
927.525	4938
927.631	5022
927.737	4889
927.843	4850
927.95	4767
928.056	4816
928.162	4812
928.267	4843
928.373	5265
928.479	4862
928.585	4694
928.69	4767
928.796	4778
928.901	4725
929.007	4649
929.112	4637
929.218	4649
929.323	4584
929.428	4607
929.533	4649
929.638	4474
929.743	4500
929.848	4523
929.953	4527
930.058	4436
930.163	4379
930.267	4337
930.372	4443
930.477	4367
930.581	4489
930.685	4383
930.79	4227
930.894	4310
930.998	4242
931.103	4402
931.207	4109
931.311	4109
931.415	4048
931.519	3937
931.623	3949
