Data from glass_V78500241_871.txt Node
Date: Wed Sep 01 19:20:32 CST 2021
User: usil
Spectrometer: V785-0024
Trigger mode: 0
Integration Time (sec): 4.000000E-1
Scans to average: 1
Nonlinearity correction enabled: false
Boxcar width: 0
Storing dark spectrum: false
XAxis mode: Wavelengths
Number of Pixels in Spectrum: 1024
>>>>>Begin Spectral Data<<<<<
801.071	3774
801.214	3785
801.356	3694
801.499	3774
801.641	3713
801.783	3759
801.926	3884
802.068	3823
802.211	3884
802.353	3899
802.496	3823
802.638	3903
802.78	3907
802.923	3930
803.065	3911
803.208	3869
803.35	3896
803.492	3934
803.635	3876
803.777	3785
803.919	3888
804.061	4177
804.204	3949
804.346	3975
804.488	3903
804.63	3998
804.773	3983
804.915	4029
805.057	4116
805.199	4040
805.341	4109
805.483	4120
805.626	4131
805.768	4097
805.91	4257
806.052	4196
806.194	4257
806.336	4398
806.478	4211
806.62	4196
806.762	4185
806.904	4276
807.046	4360
807.188	4204
807.33	4135
807.472	4280
807.614	4173
807.756	4253
807.898	4238
808.04	4192
808.182	4261
808.324	4329
808.465	4344
808.607	4447
808.749	4428
808.891	4462
809.033	4519
809.174	4390
809.316	4291
809.458	4306
809.6	4177
809.741	4086
809.883	4147
810.025	4192
810.166	4230
810.308	4253
810.45	4249
810.591	4204
810.733	4314
810.875	4527
811.016	4801
811.158	5174
811.299	5223
811.441	5322
811.582	5075
811.724	4683
811.865	4493
812.007	4512
812.148	4432
812.29	4379
812.431	4440
812.573	4470
812.714	4379
812.855	4409
812.997	4405
813.138	4512
813.279	4402
813.421	4424
813.562	4386
813.703	4348
813.845	4333
813.986	4276
814.127	4291
814.268	4272
814.41	4344
814.551	4253
814.692	4322
814.833	4306
814.974	4249
815.115	4360
815.256	4280
815.397	4276
815.539	4249
815.68	4238
815.821	4207
815.962	4314
816.103	4261
816.244	4230
816.385	4238
816.526	4272
816.666	4246
816.807	4124
816.948	4131
817.089	4158
817.23	4128
817.371	4040
817.512	4093
817.653	4086
817.793	4040
817.934	4032
818.075	4124
818.216	4090
818.356	4093
818.497	4006
818.638	3918
818.778	3918
818.919	3896
819.06	3892
819.2	3926
819.341	3899
819.481	3838
819.622	3941
819.762	4017
819.903	3968
820.043	3888
820.184	3869
820.324	3850
820.465	3899
820.605	3873
820.746	3880
820.886	3804
821.026	3922
821.167	3926
821.307	3983
821.447	3994
821.588	3994
821.728	3960
821.868	3937
822.008	3896
822.149	3903
822.289	3926
822.429	3823
822.569	3808
822.709	3781
822.849	3690
822.99	3720
823.13	3766
823.27	3812
823.41	3740
823.55	3747
823.69	3743
823.83	3751
823.97	3671
824.11	3648
824.25	3603
824.389	3633
824.529	3656
824.669	3637
824.809	3728
824.949	3785
825.089	3732
825.228	3713
825.368	3599
825.508	3595
825.648	3542
825.787	3614
825.927	3633
826.067	3667
826.206	3717
826.346	3827
826.485	3880
826.625	3869
826.765	3983
826.904	3808
827.044	3606
827.183	3538
827.323	3507
827.462	3481
827.601	3428
827.741	3466
827.88	3477
828.02	3386
828.159	3466
828.298	3477
828.437	3542
828.577	3469
828.716	3606
828.855	3511
828.994	3401
829.134	3416
829.273	3401
829.412	3367
829.551	3344
829.69	3355
829.829	3462
829.968	3519
830.107	3458
830.246	3454
830.385	3382
830.524	3363
830.663	3306
830.802	3253
830.941	3222
831.08	3222
831.219	3302
831.357	3306
831.496	3393
831.635	3203
831.774	3184
831.913	3230
832.051	3169
832.19	3157
832.329	3233
832.467	3154
832.606	3150
832.744	3195
832.883	3214
833.022	3222
833.16	3260
833.299	3294
833.437	3336
833.576	3393
833.714	3454
833.852	3454
833.991	3496
834.129	3511
834.267	3447
834.406	3405
834.544	3389
834.682	3443
834.821	3431
834.959	3549
835.097	3416
835.235	3553
835.373	3477
835.511	3511
835.65	3466
835.788	3496
835.926	3382
836.064	3389
836.202	3435
836.34	3564
836.478	3637
836.615	3557
836.753	3633
836.891	3633
837.029	3614
837.167	3629
837.305	3610
837.443	3587
837.58	3511
837.718	3603
837.856	3561
837.993	3568
838.131	3591
838.269	3580
838.406	3591
838.544	3614
838.681	3519
838.819	3477
838.956	3405
839.094	3420
839.231	3500
839.369	3504
839.506	3736
839.643	3660
839.781	3511
839.918	3458
840.055	3561
840.193	3557
840.33	3542
840.467	3568
840.604	3637
840.742	3838
840.879	3542
841.016	3519
841.153	3595
841.29	3751
841.427	3724
841.564	3682
841.701	3720
841.838	3713
841.975	3679
842.112	3713
842.249	3622
842.385	3644
842.522	3854
842.659	3701
842.796	3648
842.933	3720
843.069	3728
843.206	3682
843.343	3819
843.479	3770
843.616	3827
843.752	3656
843.889	3682
844.025	3934
844.162	3717
844.298	3873
844.435	3846
844.571	3797
844.708	3892
844.844	3987
844.98	4078
845.117	4036
845.253	3941
845.389	3892
845.525	3983
845.661	4002
845.798	3930
845.934	4002
846.07	3991
846.206	4055
846.342	4082
846.478	4051
846.614	3987
846.75	3941
846.886	3922
847.022	4040
847.158	4025
847.294	3975
847.429	4010
847.565	4002
847.701	4204
847.837	3888
847.972	3857
848.108	4059
848.244	4006
848.379	3873
848.515	3838
848.65	3850
848.786	3865
848.921	3846
849.057	3915
849.192	3934
849.328	3880
849.463	3930
849.598	3888
849.734	3899
849.869	3804
850.004	3823
850.14	3812
850.275	3827
850.41	3793
850.545	3762
850.68	3827
850.815	3797
850.95	3793
851.085	3934
851.22	3896
851.355	3850
851.49	3774
851.625	3808
851.76	3800
851.895	3747
852.03	3736
852.165	3778
852.299	3812
852.434	3892
852.569	3865
852.703	3896
852.838	3941
852.973	3994
853.107	4002
853.242	3907
853.376	3880
853.511	3747
853.645	3835
853.78	3953
853.914	3915
854.048	3888
854.183	3888
854.317	3960
854.451	4086
854.585	3998
854.72	3972
854.854	4067
854.988	3956
855.122	4006
855.256	3926
855.39	4006
855.524	4135
855.658	4131
855.792	4109
855.926	4128
856.06	4162
856.194	4147
856.327	4166
856.461	4147
856.595	4116
856.729	4196
856.862	4318
856.996	4268
857.13	4261
857.263	4329
857.397	4398
857.53	4337
857.664	4375
857.797	4421
857.931	4443
858.064	4432
858.197	4462
858.331	4394
858.464	4424
858.597	4383
858.731	4440
858.864	4455
858.997	4443
859.13	4489
859.263	4577
859.396	4558
859.529	4538
859.662	4554
859.795	4542
859.928	4645
860.061	4702
860.194	4702
860.327	4622
860.46	4702
860.592	4706
860.725	4721
860.858	4797
860.99	4706
861.123	4660
861.256	4733
861.388	4801
861.521	5444
861.653	4717
861.786	4706
861.918	4763
862.05	4809
862.183	4866
862.315	4896
862.447	4953
862.58	4900
862.712	4835
862.844	4790
862.976	4896
863.108	4885
863.24	5227
863.372	4854
863.504	4873
863.636	4911
863.768	4968
863.9	4968
864.032	4908
864.164	4995
864.296	5025
864.428	5151
864.559	5151
864.691	5136
864.823	5162
864.954	5155
865.086	5124
865.217	5155
865.349	5117
865.48	5178
865.612	5189
865.743	5341
865.875	5197
866.006	5185
866.137	5235
866.269	5201
866.4	5258
866.531	5250
866.662	5223
866.793	5261
866.924	5288
867.055	5357
867.186	5357
867.317	5315
867.448	5307
867.579	5391
867.71	5391
867.841	5353
867.972	5490
868.103	5478
868.233	5512
868.364	5516
868.495	5524
868.625	5661
868.756	5779
868.886	5680
869.017	5794
869.147	5832
869.278	5908
869.408	5783
869.539	5828
869.669	5904
869.799	5935
869.929	5961
870.06	6038
870.19	6243
870.32	6178
870.45	6270
870.58	6311
870.71	6448
870.84	6483
870.97	6452
871.1	6498
871.23	6597
871.36	6665
871.489	6673
871.619	6802
871.749	6810
871.879	6901
872.008	7027
872.138	6977
872.267	7004
872.397	6985
872.526	7057
872.656	7122
872.785	7247
872.915	7384
873.044	7590
873.173	7510
873.303	7658
873.432	7753
873.561	7833
873.69	7917
873.819	7959
873.948	8157
874.077	8210
874.206	8320
874.335	8442
874.464	8674
874.593	8861
874.722	8948
874.851	9195
874.979	9268
875.108	9477
875.237	9450
875.365	9485
875.494	9622
875.623	9789
875.751	9774
875.88	9979
876.008	10147
876.136	10261
876.265	10618
876.393	10740
876.521	10740
876.65	10847
876.778	10831
876.906	10927
877.034	10938
877.162	11105
877.29	11147
877.418	11311
877.546	11322
877.674	11436
877.802	11429
877.93	11516
878.058	11532
878.185	11592
878.313	11649
878.441	11722
878.568	11695
878.696	11794
878.824	11904
878.951	11961
879.079	11931
879.206	12091
879.333	12049
879.461	12098
879.588	12087
879.715	12022
879.842	12232
879.97	12038
880.097	11988
880.224	11859
880.351	11851
880.478	11954
880.605	11821
880.732	11733
880.859	11984
880.986	11756
881.112	11847
881.239	11771
881.366	11684
881.493	11562
881.619	11589
881.746	11539
881.872	11566
881.999	11566
882.125	11471
882.252	11554
882.378	11505
882.505	11532
882.631	11383
882.757	11311
882.883	11292
883.01	11273
883.136	11296
883.262	11083
883.388	11109
883.514	11159
883.64	11102
883.766	11136
883.892	10995
884.018	11071
884.143	11140
884.269	11189
884.395	10835
884.52	10752
884.646	10767
884.772	10717
884.897	10679
885.023	10736
885.148	10668
885.274	10755
885.399	10660
885.524	10778
885.65	10611
885.775	10664
885.9	10519
886.025	10664
886.15	10531
886.275	10493
886.4	10352
886.525	10436
886.65	10386
886.775	10306
886.9	10523
887.025	10558
887.149	10409
887.274	10238
887.399	10219
887.523	10173
887.648	10169
887.773	10173
887.897	10265
888.021	10242
888.146	10120
888.27	10257
888.395	10227
888.519	10200
888.643	10173
888.767	10223
888.891	10082
889.015	10017
889.139	10090
889.263	9979
889.387	10025
889.511	10116
889.635	10040
889.759	9956
889.883	9987
890.006	10074
890.13	10078
890.254	10002
890.377	9907
890.501	9895
890.624	9850
890.748	9869
890.871	9800
890.995	9823
891.118	9701
891.241	9747
891.364	9759
891.488	9907
891.611	9743
891.734	9766
891.857	9701
891.98	9698
892.103	9740
892.226	9804
892.349	9724
892.471	9500
892.594	9660
892.717	9694
892.839	9629
892.962	9606
893.085	9663
893.207	9599
893.33	9545
893.452	9549
893.575	9526
893.697	9511
893.819	9603
893.941	9641
894.064	9580
894.186	9462
894.308	9454
894.43	9542
894.552	9542
894.674	9466
894.796	9405
894.918	9424
895.04	9317
895.161	9367
895.283	9363
895.405	9218
895.526	9332
895.648	9241
895.769	9218
895.891	9268
896.012	9218
896.134	9233
896.255	9123
896.376	9036
896.498	9142
896.619	9127
896.74	9100
896.861	9157
896.982	9218
897.103	9313
897.224	9154
897.345	9070
897.466	9043
897.587	9028
897.708	9123
897.828	9047
897.949	8971
898.07	8868
898.19	8891
898.311	9013
898.431	8845
898.552	8921
898.672	8944
898.792	8941
898.913	8918
899.033	8823
899.153	8769
899.273	8674
899.393	8689
899.513	8872
899.633	8758
899.753	8743
899.873	8689
899.993	8750
900.113	8701
900.232	8743
900.352	8678
900.472	8613
900.591	8541
900.711	8606
900.83	8552
900.95	8701
901.069	8663
901.189	8568
901.308	8511
901.427	8412
901.546	8533
901.665	8408
901.784	8495
901.904	8381
902.023	8385
902.141	8210
902.26	8282
902.379	8244
902.498	8138
902.617	8263
902.735	8301
902.854	8237
902.973	8252
903.091	8088
903.21	8088
903.328	8172
903.446	8088
903.565	8069
903.683	8065
903.801	8012
903.919	8172
904.038	8107
904.156	8035
904.274	8119
904.392	8069
904.51	7997
904.627	8088
904.745	8096
904.863	8100
904.981	7894
905.098	7894
905.216	7890
905.334	7913
905.451	7887
905.569	7887
905.686	7989
905.803	7951
905.921	7803
906.038	7841
906.155	7852
906.272	7727
906.389	7799
906.506	7658
906.623	7643
906.74	7586
906.857	7563
906.974	7601
907.091	7628
907.208	7666
907.324	7636
907.441	7586
907.557	7457
907.674	7407
907.79	7426
907.907	7365
908.023	7441
908.139	7434
908.256	7308
908.372	7407
908.488	7324
908.604	7297
908.72	7244
908.836	7285
908.952	7244
909.068	7305
909.184	7373
909.3	7270
909.415	7236
909.531	7327
909.647	7118
909.762	7107
909.878	7118
909.993	7110
910.108	7129
910.224	7118
910.339	7126
910.454	7152
910.57	7019
910.685	6924
910.8	7221
910.915	7122
911.03	7057
911.145	6958
911.259	6840
911.374	6932
911.489	6818
911.604	6787
911.718	6757
911.833	6810
911.947	6662
912.062	6612
912.176	6669
912.291	6768
912.405	6688
912.519	6863
912.633	6852
912.748	6719
912.862	6715
912.976	6639
913.09	6528
913.204	6616
913.318	6604
913.431	6696
913.545	6681
913.659	6753
913.772	6665
913.886	6574
914	6570
914.113	6616
914.226	6650
914.34	6574
914.453	6559
914.566	6589
914.68	6566
914.793	6502
914.906	6410
915.019	6376
915.132	6403
915.245	6452
915.358	6422
915.47	6467
915.583	6464
915.696	6517
915.809	6544
915.921	6566
916.034	6403
916.146	6426
916.259	6414
916.371	6509
916.483	6426
916.595	6414
916.708	6460
916.82	6441
916.932	6376
917.044	6391
917.156	6388
917.268	6266
917.38	6308
917.491	6376
917.603	6342
917.715	6395
917.826	6426
917.938	6342
918.049	6247
918.161	6384
918.272	6414
918.384	6532
918.495	6414
918.606	6247
918.717	6235
918.828	6235
918.939	6258
919.05	6247
919.161	6220
919.272	6098
919.383	6163
919.494	6296
919.604	6486
919.715	6357
919.826	6186
919.936	6300
920.047	6357
920.157	6346
920.267	6456
920.378	6323
920.488	6338
920.598	6464
920.708	6551
920.818	6486
920.928	6456
921.038	6639
921.148	6635
921.258	6422
921.368	6308
921.477	6262
921.587	6182
921.697	6140
921.806	6205
921.916	6102
922.025	5935
922.134	5897
922.244	5916
922.353	5961
922.462	5813
922.571	5767
922.68	5756
922.789	5707
922.898	5764
923.007	5691
923.116	5745
923.224	5642
923.333	5695
923.442	5611
923.55	5577
923.659	5528
923.767	5630
923.876	5520
923.984	5570
924.092	5493
924.201	5566
924.309	5581
924.417	5562
924.525	5520
924.633	5516
924.741	6136
924.849	5406
924.956	5524
925.064	5379
925.172	5307
925.279	5334
925.387	5387
925.494	5334
925.602	5421
925.709	5433
925.816	5273
925.924	5296
926.031	5353
926.138	5326
926.245	5379
926.352	5231
926.459	5341
926.566	5349
926.673	5288
926.779	5102
926.886	5216
926.993	5075
927.099	4968
927.206	4972
927.312	4930
927.419	5033
927.525	4972
927.631	4980
927.737	4889
927.843	4949
927.95	4778
928.056	4835
928.162	4816
928.267	4885
928.373	5398
928.479	4866
928.585	4717
928.69	4797
928.796	4824
928.901	4721
929.007	4618
929.112	4660
929.218	4664
929.323	4599
929.428	4615
929.533	4672
929.638	4527
929.743	4561
929.848	4580
929.953	4538
930.058	4413
930.163	4322
930.267	4303
930.372	4443
930.477	4268
930.581	4519
930.685	4405
930.79	4280
930.894	4306
930.998	4295
931.103	4436
931.207	4120
931.311	4086
931.415	4017
931.519	3922
931.623	3922
