Data from glass_V78500241_2075.txt Node
Date: Wed Sep 01 19:28:53 CST 2021
User: usil
Spectrometer: V785-0024
Trigger mode: 0
Integration Time (sec): 4.000000E-1
Scans to average: 1
Nonlinearity correction enabled: false
Boxcar width: 0
Storing dark spectrum: false
XAxis mode: Wavelengths
Number of Pixels in Spectrum: 1024
>>>>>Begin Spectral Data<<<<<
801.071	3743
801.214	3740
801.356	3671
801.499	3740
801.641	3705
801.783	3785
801.926	3831
802.068	3850
802.211	3850
802.353	3831
802.496	3835
802.638	3880
802.78	3880
802.923	3915
803.065	3854
803.208	3804
803.35	3842
803.492	3857
803.635	3911
803.777	3804
803.919	3869
804.061	4147
804.204	3964
804.346	3949
804.488	3953
804.63	4029
804.773	3934
804.915	3998
805.057	4116
805.199	4010
805.341	4093
805.483	4128
805.626	4109
805.768	4131
805.91	4219
806.052	4276
806.194	4169
806.336	4341
806.478	4219
806.62	4169
806.762	4166
806.904	4272
807.046	4352
807.188	4223
807.33	4169
807.472	4219
807.614	4173
807.756	4238
807.898	4227
808.04	4215
808.182	4284
808.324	4341
808.465	4379
808.607	4478
808.749	4481
808.891	4504
809.033	4470
809.174	4409
809.316	4249
809.458	4196
809.6	4128
809.741	4162
809.883	4109
810.025	4207
810.166	4265
810.308	4253
810.45	4276
810.591	4200
810.733	4310
810.875	4558
811.016	4809
811.158	5102
811.299	5258
811.441	5273
811.582	5037
811.724	4717
811.865	4474
812.007	4459
812.148	4390
812.29	4432
812.431	4390
812.573	4409
812.714	4443
812.855	4375
812.997	4394
813.138	4538
813.279	4360
813.421	4375
813.562	4356
813.703	4348
813.845	4337
813.986	4207
814.127	4246
814.268	4268
814.41	4329
814.551	4249
814.692	4299
814.833	4249
814.974	4344
815.115	4363
815.256	4272
815.397	4238
815.539	4238
815.68	4177
815.821	4169
815.962	4337
816.103	4287
816.244	4246
816.385	4253
816.526	4265
816.666	4173
816.807	4105
816.948	4185
817.089	4177
817.23	4109
817.371	4055
817.512	4044
817.653	4074
817.793	4055
817.934	4044
818.075	4093
818.216	4063
818.356	4090
818.497	3994
818.638	3930
818.778	3930
818.919	3838
819.06	3876
819.2	3907
819.341	3880
819.481	3842
819.622	3899
819.762	4013
819.903	3922
820.043	3846
820.184	3827
820.324	3785
820.465	3873
820.605	3880
820.746	3861
820.886	3770
821.026	3930
821.167	3915
821.307	3960
821.447	3949
821.588	3926
821.728	3926
821.868	3899
822.008	3854
822.149	3869
822.289	3945
822.429	3781
822.569	3732
822.709	3804
822.849	3667
822.99	3728
823.13	3709
823.27	3755
823.41	3701
823.55	3759
823.69	3720
823.83	3762
823.97	3701
824.11	3614
824.25	3561
824.389	3663
824.529	3660
824.669	3610
824.809	3747
824.949	3732
825.089	3736
825.228	3705
825.368	3572
825.508	3580
825.648	3591
825.787	3576
825.927	3549
826.067	3644
826.206	3641
826.346	3781
826.485	3812
826.625	3838
826.765	3922
826.904	3804
827.044	3633
827.183	3545
827.323	3439
827.462	3412
827.601	3416
827.741	3447
827.88	3462
828.02	3363
828.159	3420
828.298	3454
828.437	3469
828.577	3431
828.716	3591
828.855	3515
828.994	3374
829.134	3363
829.273	3386
829.412	3367
829.551	3344
829.69	3386
829.829	3435
829.968	3496
830.107	3397
830.246	3420
830.385	3348
830.524	3370
830.663	3264
830.802	3249
830.941	3176
831.08	3195
831.219	3275
831.357	3268
831.496	3386
831.635	3222
831.774	3207
831.913	3165
832.051	3135
832.19	3154
832.329	3222
832.467	3154
832.606	3135
832.744	3195
832.883	3184
833.022	3195
833.16	3233
833.299	3291
833.437	3279
833.576	3336
833.714	3431
833.852	3431
833.991	3454
834.129	3454
834.267	3412
834.406	3420
834.544	3370
834.682	3454
834.821	3443
834.959	3599
835.097	3447
835.235	3481
835.373	3462
835.511	3481
835.65	3443
835.788	3492
835.926	3393
836.064	3389
836.202	3409
836.34	3584
836.478	3599
836.615	3545
836.753	3584
836.891	3637
837.029	3587
837.167	3595
837.305	3561
837.443	3530
837.58	3477
837.718	3610
837.856	3534
837.993	3519
838.131	3595
838.269	3584
838.406	3576
838.544	3538
838.681	3477
838.819	3496
838.956	3325
839.094	3389
839.231	3439
839.369	3504
839.506	3747
839.643	3648
839.781	3500
839.918	3420
840.055	3507
840.193	3557
840.33	3515
840.467	3564
840.604	3572
840.742	3797
840.879	3526
841.016	3511
841.153	3568
841.29	3751
841.427	3705
841.564	3720
841.701	3732
841.838	3614
841.975	3660
842.112	3717
842.249	3637
842.385	3660
842.522	3865
842.659	3679
842.796	3679
842.933	3709
843.069	3675
843.206	3705
843.343	3755
843.479	3816
843.616	3812
843.752	3660
843.889	3663
844.025	3816
844.162	3686
844.298	3846
844.435	3793
844.571	3785
844.708	3884
844.844	3949
844.98	4032
845.117	3998
845.253	3896
845.389	3873
845.525	3968
845.661	3922
845.798	3869
845.934	4017
846.07	3937
846.206	4059
846.342	4116
846.478	4048
846.614	3949
846.75	3975
846.886	3930
847.022	4017
847.158	3975
847.294	3994
847.429	4017
847.565	3987
847.701	4230
847.837	3873
847.972	3861
848.108	3968
848.244	3941
848.379	3861
848.515	3816
848.65	3797
848.786	3873
848.921	3823
849.057	3960
849.192	3903
849.328	3838
849.463	3884
849.598	3876
849.734	3865
849.869	3819
850.004	3717
850.14	3800
850.275	3751
850.41	3732
850.545	3724
850.68	3781
850.815	3797
850.95	3812
851.085	3956
851.22	3873
851.355	3816
851.49	3762
851.625	3835
851.76	3835
851.895	3694
852.03	3740
852.165	3808
852.299	3842
852.434	3907
852.569	3808
852.703	3861
852.838	3945
852.973	3972
853.107	4010
853.242	3899
853.376	3861
853.511	3774
853.645	3819
853.78	3911
853.914	3892
854.048	3842
854.183	3915
854.317	3934
854.451	4040
854.585	3941
854.72	3964
854.854	4048
854.988	3892
855.122	3998
855.256	3922
855.39	3987
855.524	4139
855.658	4120
855.792	4059
855.926	4124
856.06	4169
856.194	4192
856.327	4109
856.461	4078
856.595	4169
856.729	4166
856.862	4253
856.996	4234
857.13	4265
857.263	4329
857.397	4325
857.53	4257
857.664	4306
857.797	4371
857.931	4402
858.064	4383
858.197	4451
858.331	4390
858.464	4386
858.597	4322
858.731	4443
858.864	4466
858.997	4432
859.13	4508
859.263	4596
859.396	4599
859.529	4493
859.662	4561
859.795	4561
859.928	4577
860.061	4683
860.194	4706
860.327	4664
860.46	4649
860.592	4759
860.725	4755
860.858	4752
860.99	4664
861.123	4714
861.256	4641
861.388	4767
861.521	5326
861.653	4702
861.786	4744
861.918	4733
862.05	4790
862.183	4854
862.315	4881
862.447	4885
862.58	4858
862.712	4816
862.844	4744
862.976	4862
863.108	4839
863.24	5121
863.372	4797
863.504	4900
863.636	4908
863.768	4995
863.9	4968
864.032	4892
864.164	4984
864.296	5003
864.428	5109
864.559	5143
864.691	5079
864.823	5117
864.954	5052
865.086	5162
865.217	5140
865.349	5109
865.48	5155
865.612	5178
865.743	5288
865.875	5204
866.006	5185
866.137	5223
866.269	5246
866.4	5223
866.531	5231
866.662	5246
866.793	5269
866.924	5258
867.055	5357
867.186	5326
867.317	5360
867.448	5364
867.579	5349
867.71	5387
867.841	5459
867.972	5474
868.103	5471
868.233	5497
868.364	5493
868.495	5551
868.625	5657
868.756	5790
868.886	5714
869.017	5726
869.147	5794
869.278	5821
869.408	5824
869.539	5809
869.669	5897
869.799	5923
869.929	5977
870.06	6064
870.19	6186
870.32	6216
870.45	6209
870.58	6331
870.71	6403
870.84	6407
870.97	6369
871.1	6464
871.23	6665
871.36	6650
871.489	6696
871.619	6722
871.749	6821
871.879	6837
872.008	6985
872.138	6973
872.267	7034
872.397	6989
872.526	7042
872.656	7129
872.785	7232
872.915	7396
873.044	7491
873.173	7502
873.303	7662
873.432	7712
873.561	7818
873.69	7955
873.819	7993
873.948	8142
874.077	8191
874.206	8305
874.335	8465
874.464	8625
874.593	8819
874.722	8933
874.851	9142
874.979	9245
875.108	9344
875.237	9431
875.365	9424
875.494	9644
875.623	9759
875.751	9816
875.88	10025
876.008	10147
876.136	10299
876.265	10508
876.393	10714
876.521	10641
876.65	10847
876.778	10809
876.906	10862
877.034	11010
877.162	11147
877.29	11223
877.418	11337
877.546	11326
877.674	11467
877.802	11433
877.93	11570
878.058	11577
878.185	11516
878.313	11600
878.441	11688
878.568	11672
878.696	11824
878.824	11843
878.951	11950
879.079	11916
879.206	12136
879.333	11999
879.461	11988
879.588	12060
879.715	12045
879.842	12171
879.97	12106
880.097	11889
880.224	11847
880.351	11893
880.478	11882
880.605	11802
880.732	11885
880.859	12045
880.986	11817
881.112	11828
881.239	11695
881.366	11634
881.493	11562
881.619	11600
881.746	11505
881.872	11493
881.999	11577
882.125	11516
882.252	11573
882.378	11482
882.505	11596
882.631	11292
882.757	11258
882.883	11341
883.01	11280
883.136	11132
883.262	11151
883.388	11090
883.514	11098
883.64	11201
883.766	11136
883.892	10934
884.018	10965
884.143	11029
884.269	11109
884.395	10759
884.52	10858
884.646	10790
884.772	10698
884.897	10694
885.023	10622
885.148	10725
885.274	10774
885.399	10721
885.524	10603
885.65	10721
885.775	10573
885.9	10508
886.025	10637
886.15	10558
886.275	10447
886.4	10310
886.525	10436
886.65	10344
886.775	10356
886.9	10474
887.025	10531
887.149	10344
887.274	10272
887.399	10227
887.523	10097
887.648	10147
887.773	10090
887.897	10211
888.021	10169
888.146	10169
888.27	10158
888.395	10188
888.519	10177
888.643	10139
888.767	10219
888.891	10116
889.015	9918
889.139	10067
889.263	9926
889.387	10055
889.511	10032
889.635	10044
889.759	9979
889.883	9945
890.006	10021
890.13	10101
890.254	9922
890.377	9937
890.501	9911
890.624	9816
890.748	9907
890.871	9808
890.995	9774
891.118	9747
891.241	9747
891.364	9675
891.488	9854
891.611	9808
891.734	9751
891.857	9854
891.98	9701
892.103	9720
892.226	9709
892.349	9610
892.471	9496
892.594	9644
892.717	9507
892.839	9587
892.962	9568
893.085	9694
893.207	9561
893.33	9466
893.452	9515
893.575	9599
893.697	9412
893.819	9542
893.941	9610
894.064	9618
894.186	9450
894.308	9405
894.43	9530
894.552	9511
894.674	9500
894.796	9336
894.918	9450
895.04	9302
895.161	9363
895.283	9340
895.405	9275
895.526	9268
895.648	9237
895.769	9226
895.891	9298
896.012	9207
896.134	9222
896.255	9173
896.376	9112
896.498	9097
896.619	9081
896.74	9074
896.861	9146
896.982	9260
897.103	9268
897.224	9093
897.345	9001
897.466	9020
897.587	8998
897.708	9062
897.828	9032
897.949	8952
898.07	8838
898.19	8952
898.311	9039
898.431	8834
898.552	8933
898.672	8937
898.792	8941
898.913	8921
899.033	8796
899.153	8716
899.273	8594
899.393	8629
899.513	8750
899.633	8800
899.753	8655
899.873	8651
899.993	8769
900.113	8750
900.232	8796
900.352	8613
900.472	8613
900.591	8518
900.711	8560
900.83	8541
900.95	8693
901.069	8663
901.189	8613
901.308	8457
901.427	8408
901.546	8442
901.665	8427
901.784	8488
901.904	8374
902.023	8370
902.141	8275
902.26	8164
902.379	8294
902.498	8168
902.617	8195
902.735	8309
902.854	8309
902.973	8259
903.091	8130
903.21	8142
903.328	8119
903.446	8168
903.565	8050
903.683	8142
903.801	8054
903.919	8103
904.038	8199
904.156	8008
904.274	8077
904.392	8027
904.51	8043
904.627	8039
904.745	8103
904.863	8115
904.981	7890
905.098	7818
905.216	7868
905.334	7871
905.451	7883
905.569	7868
905.686	7936
905.803	7936
905.921	7803
906.038	7830
906.155	7761
906.272	7708
906.389	7742
906.506	7658
906.623	7552
906.74	7632
906.857	7544
906.974	7563
907.091	7696
907.208	7662
907.324	7620
907.441	7563
907.557	7476
907.674	7388
907.79	7362
907.907	7377
908.023	7438
908.139	7381
908.256	7426
908.372	7346
908.488	7346
908.604	7278
908.72	7225
908.836	7308
908.952	7255
909.068	7183
909.184	7289
909.3	7209
909.415	7232
909.531	7274
909.647	7095
909.762	7141
909.878	7088
909.993	7160
910.108	7038
910.224	7038
910.339	7046
910.454	7004
910.57	7008
910.685	6962
910.8	7206
910.915	7107
911.03	7065
911.145	6905
911.259	6795
911.374	6840
911.489	6814
911.604	6818
911.718	6677
911.833	6696
911.947	6589
912.062	6612
912.176	6715
912.291	6757
912.405	6722
912.519	6810
912.633	6772
912.748	6696
912.862	6715
912.976	6574
913.09	6597
913.204	6559
913.318	6540
913.431	6677
913.545	6665
913.659	6688
913.772	6608
913.886	6536
914	6547
914.113	6585
914.226	6639
914.34	6650
914.453	6528
914.566	6574
914.68	6486
914.793	6460
914.906	6399
915.019	6403
915.132	6331
915.245	6353
915.358	6460
915.47	6399
915.583	6460
915.696	6509
915.809	6479
915.921	6528
916.034	6410
916.146	6399
916.259	6384
916.371	6429
916.483	6437
916.595	6346
916.708	6384
916.82	6429
916.932	6376
917.044	6342
917.156	6388
917.268	6334
917.38	6380
917.491	6292
917.603	6300
917.715	6391
917.826	6418
917.938	6289
918.049	6232
918.161	6327
918.272	6410
918.384	6403
918.495	6350
918.606	6289
918.717	6239
918.828	6289
918.939	6243
919.05	6209
919.161	6213
919.272	6129
919.383	6144
919.494	6292
919.604	6376
919.715	6304
919.826	6213
919.936	6232
920.047	6323
920.157	6273
920.267	6464
920.378	6361
920.488	6254
920.598	6441
920.708	6525
920.818	6471
920.928	6502
921.038	6601
921.148	6551
921.258	6353
921.368	6300
921.477	6213
921.587	6163
921.697	6079
921.806	6140
921.916	6026
922.025	5920
922.134	5939
922.244	5870
922.353	5878
922.462	5775
922.571	5828
922.68	5695
922.789	5691
922.898	5710
923.007	5657
923.116	5665
923.224	5676
923.333	5604
923.442	5566
923.55	5551
923.659	5581
923.767	5611
923.876	5543
923.984	5585
924.092	5467
924.201	5509
924.309	5551
924.417	5608
924.525	5467
924.633	5482
924.741	6289
924.849	5345
924.956	5478
925.064	5379
925.172	5315
925.279	5330
925.387	5387
925.494	5349
925.602	5444
925.709	5357
925.816	5231
925.924	5303
926.031	5353
926.138	5258
926.245	5334
926.352	5212
926.459	5296
926.566	5273
926.673	5242
926.779	5140
926.886	5094
926.993	5014
927.099	5006
927.206	4972
927.312	4961
927.419	4984
927.525	4991
927.631	4991
927.737	4934
927.843	4824
927.95	4771
928.056	4820
928.162	4843
928.267	4900
928.373	5239
928.479	4847
928.585	4683
928.69	4763
928.796	4759
928.901	4672
929.007	4596
929.112	4687
929.218	4637
929.323	4618
929.428	4535
929.533	4710
929.638	4497
929.743	4516
929.848	4558
929.953	4504
930.058	4447
930.163	4299
930.267	4322
930.372	4459
930.477	4333
930.581	4440
930.685	4341
930.79	4253
930.894	4246
930.998	4238
931.103	4360
931.207	4139
931.311	4055
931.415	4029
931.519	3922
931.623	3926
