Data from glass_V78500241_2789.txt Node
Date: Wed Sep 01 19:33:50 CST 2021
User: usil
Spectrometer: V785-0024
Trigger mode: 0
Integration Time (sec): 4.000000E-1
Scans to average: 1
Nonlinearity correction enabled: false
Boxcar width: 0
Storing dark spectrum: false
XAxis mode: Wavelengths
Number of Pixels in Spectrum: 1024
>>>>>Begin Spectral Data<<<<<
801.071	3755
801.214	3770
801.356	3698
801.499	3720
801.641	3705
801.783	3774
801.926	3880
802.068	3793
802.211	3831
802.353	3873
802.496	3823
802.638	3831
802.78	3876
802.923	3941
803.065	3899
803.208	3827
803.35	3857
803.492	3873
803.635	3865
803.777	3774
803.919	3861
804.061	4124
804.204	4002
804.346	3926
804.488	3888
804.63	3987
804.773	3953
804.915	3953
805.057	4158
805.199	4017
805.341	4090
805.483	4139
805.626	4124
805.768	4105
805.91	4181
806.052	4211
806.194	4185
806.336	4287
806.478	4131
806.62	4162
806.762	4181
806.904	4207
807.046	4322
807.188	4204
807.33	4158
807.472	4207
807.614	4131
807.756	4219
807.898	4188
808.04	4177
808.182	4257
808.324	4356
808.465	4367
808.607	4489
808.749	4424
808.891	4440
809.033	4485
809.174	4375
809.316	4188
809.458	4207
809.6	4166
809.741	4109
809.883	4101
810.025	4268
810.166	4207
810.308	4215
810.45	4253
810.591	4196
810.733	4291
810.875	4508
811.016	4782
811.158	5083
811.299	5216
811.441	5280
811.582	4991
811.724	4675
811.865	4470
812.007	4481
812.148	4383
812.29	4409
812.431	4417
812.573	4424
812.714	4322
812.855	4417
812.997	4409
813.138	4485
813.279	4436
813.421	4352
813.562	4428
813.703	4344
813.845	4322
813.986	4234
814.127	4211
814.268	4261
814.41	4276
814.551	4219
814.692	4329
814.833	4261
814.974	4295
815.115	4314
815.256	4223
815.397	4204
815.539	4295
815.68	4173
815.821	4207
815.962	4276
816.103	4280
816.244	4230
816.385	4227
816.526	4249
816.666	4192
816.807	4093
816.948	4139
817.089	4135
817.23	4071
817.371	4029
817.512	4036
817.653	4074
817.793	3998
817.934	4044
818.075	4105
818.216	4044
818.356	4109
818.497	3998
818.638	3888
818.778	3899
818.919	3854
819.06	3850
819.2	3899
819.341	3884
819.481	3835
819.622	3930
819.762	3994
819.903	3960
820.043	3888
820.184	3827
820.324	3812
820.465	3892
820.605	3827
820.746	3842
820.886	3785
821.026	3922
821.167	3880
821.307	3937
821.447	3934
821.588	3907
821.728	3945
821.868	3941
822.008	3873
822.149	3899
822.289	3876
822.429	3800
822.569	3724
822.709	3759
822.849	3690
822.99	3728
823.13	3759
823.27	3759
823.41	3743
823.55	3740
823.69	3686
823.83	3690
823.97	3660
824.11	3599
824.25	3576
824.389	3614
824.529	3641
824.669	3618
824.809	3682
824.949	3755
825.089	3766
825.228	3705
825.368	3564
825.508	3545
825.648	3587
825.787	3606
825.927	3637
826.067	3595
826.206	3679
826.346	3728
826.485	3793
826.625	3842
826.765	3903
826.904	3800
827.044	3603
827.183	3519
827.323	3409
827.462	3488
827.601	3386
827.741	3428
827.88	3420
828.02	3393
828.159	3439
828.298	3447
828.437	3519
828.577	3492
828.716	3595
828.855	3469
828.994	3370
829.134	3359
829.273	3344
829.412	3317
829.551	3329
829.69	3313
829.829	3386
829.968	3496
830.107	3469
830.246	3409
830.385	3359
830.524	3310
830.663	3317
830.802	3268
830.941	3146
831.08	3195
831.219	3241
831.357	3272
831.496	3363
831.635	3207
831.774	3173
831.913	3176
832.051	3116
832.19	3150
832.329	3176
832.467	3112
832.606	3119
832.744	3146
832.883	3150
833.022	3211
833.16	3230
833.299	3245
833.437	3310
833.576	3367
833.714	3378
833.852	3401
833.991	3450
834.129	3462
834.267	3420
834.406	3370
834.544	3389
834.682	3416
834.821	3412
834.959	3561
835.097	3386
835.235	3530
835.373	3485
835.511	3416
835.65	3447
835.788	3443
835.926	3332
836.064	3363
836.202	3409
836.34	3622
836.478	3603
836.615	3515
836.753	3587
836.891	3633
837.029	3625
837.167	3610
837.305	3515
837.443	3545
837.58	3504
837.718	3603
837.856	3549
837.993	3496
838.131	3538
838.269	3542
838.406	3568
838.544	3507
838.681	3466
838.819	3420
838.956	3363
839.094	3389
839.231	3397
839.369	3485
839.506	3747
839.643	3633
839.781	3462
839.918	3435
840.055	3542
840.193	3511
840.33	3507
840.467	3534
840.604	3591
840.742	3736
840.879	3526
841.016	3526
841.153	3568
841.29	3732
841.427	3701
841.564	3663
841.701	3709
841.838	3698
841.975	3637
842.112	3709
842.249	3568
842.385	3614
842.522	3804
842.659	3698
842.796	3652
842.933	3694
843.069	3694
843.206	3679
843.343	3770
843.479	3740
843.616	3812
843.752	3682
843.889	3667
844.025	3857
844.162	3720
844.298	3819
844.435	3732
844.571	3747
844.708	3876
844.844	3983
844.98	3972
845.117	3968
845.253	3934
845.389	3922
845.525	3915
845.661	3960
845.798	3899
845.934	3960
846.07	3934
846.206	4078
846.342	4150
846.478	4063
846.614	3934
846.75	3945
846.886	3899
847.022	4017
847.158	3937
847.294	3975
847.429	4025
847.565	3968
847.701	4162
847.837	3846
847.972	3808
848.108	4010
848.244	3926
848.379	3816
848.515	3759
848.65	3755
848.786	3819
848.921	3846
849.057	3896
849.192	3907
849.328	3892
849.463	3899
849.598	3823
849.734	3888
849.869	3850
850.004	3747
850.14	3842
850.275	3762
850.41	3740
850.545	3724
850.68	3759
850.815	3778
850.95	3800
851.085	3934
851.22	3876
851.355	3838
851.49	3751
851.625	3747
851.76	3785
851.895	3698
852.03	3694
852.165	3732
852.299	3831
852.434	3911
852.569	3842
852.703	3838
852.838	3888
852.973	3972
853.107	3930
853.242	3896
853.376	3838
853.511	3740
853.645	3846
853.78	3926
853.914	3918
854.048	3865
854.183	3926
854.317	3876
854.451	4029
854.585	3972
854.72	3892
854.854	4029
854.988	3896
855.122	4002
855.256	3911
855.39	4006
855.524	4124
855.658	4048
855.792	4074
855.926	4067
856.06	4143
856.194	4166
856.327	4112
856.461	4082
856.595	4139
856.729	4196
856.862	4261
856.996	4242
857.13	4299
857.263	4348
857.397	4280
857.53	4310
857.664	4280
857.797	4421
857.931	4383
858.064	4379
858.197	4413
858.331	4394
858.464	4325
858.597	4280
858.731	4440
858.864	4405
858.997	4436
859.13	4489
859.263	4504
859.396	4550
859.529	4485
859.662	4504
859.795	4512
859.928	4622
860.061	4710
860.194	4717
860.327	4569
860.46	4603
860.592	4733
860.725	4755
860.858	4778
860.99	4725
861.123	4672
861.256	4660
861.388	4706
861.521	5235
861.653	4714
861.786	4653
861.918	4702
862.05	4793
862.183	4816
862.315	4828
862.447	4835
862.58	4870
862.712	4797
862.844	4767
862.976	4854
863.108	4854
863.24	5147
863.372	4828
863.504	4866
863.636	4877
863.768	4904
863.9	4942
864.032	4911
864.164	4930
864.296	4972
864.428	5056
864.559	5094
864.691	5113
864.823	5098
864.954	5113
865.086	5162
865.217	5121
865.349	5083
865.48	5143
865.612	5124
865.743	5292
865.875	5170
866.006	5174
866.137	5216
866.269	5223
866.4	5208
866.531	5250
866.662	5208
866.793	5322
866.924	5265
867.055	5322
867.186	5330
867.317	5246
867.448	5277
867.579	5372
867.71	5353
867.841	5337
867.972	5467
868.103	5421
868.233	5455
868.364	5509
868.495	5516
868.625	5684
868.756	5786
868.886	5691
869.017	5703
869.147	5874
869.278	5893
869.408	5859
869.539	5798
869.669	5893
869.799	5912
869.929	5977
870.06	6041
870.19	6159
870.32	6224
870.45	6235
870.58	6361
870.71	6384
870.84	6494
870.97	6445
871.1	6365
871.23	6673
871.36	6650
871.489	6642
871.619	6726
871.749	6779
871.879	6856
872.008	6920
872.138	6913
872.267	6989
872.397	6993
872.526	7034
872.656	7091
872.785	7194
872.915	7362
873.044	7544
873.173	7518
873.303	7609
873.432	7814
873.561	7887
873.69	7925
873.819	8065
873.948	8130
874.077	8164
874.206	8309
874.335	8396
874.464	8651
874.593	8861
874.722	8887
874.851	9131
874.979	9188
875.108	9302
875.237	9370
875.365	9428
875.494	9591
875.623	9793
875.751	9854
875.88	9991
876.008	10112
876.136	10295
876.265	10538
876.393	10641
876.521	10622
876.65	10782
876.778	10843
876.906	10824
877.034	10946
877.162	11083
877.29	11147
877.418	11288
877.546	11368
877.674	11402
877.802	11391
877.93	11505
878.058	11528
878.185	11532
878.313	11520
878.441	11764
878.568	11604
878.696	11760
878.824	11836
878.951	11874
879.079	12034
879.206	12110
879.333	12019
879.461	11942
879.588	12034
879.715	12106
879.842	12266
879.97	12121
880.097	11840
880.224	11916
880.351	11775
880.478	11878
880.605	11805
880.732	11893
880.859	11988
880.986	11859
881.112	11805
881.239	11737
881.366	11619
881.493	11619
881.619	11516
881.746	11653
881.872	11478
881.999	11471
882.125	11573
882.252	11551
882.378	11581
882.505	11558
882.631	11410
882.757	11296
882.883	11315
883.01	11273
883.136	11124
883.262	11105
883.388	11071
883.514	11193
883.64	11193
883.766	11113
883.892	10858
884.018	11033
884.143	11121
884.269	11067
884.395	10824
884.52	10740
884.646	10854
884.772	10706
884.897	10630
885.023	10679
885.148	10656
885.274	10717
885.399	10729
885.524	10603
885.65	10561
885.775	10599
885.9	10599
886.025	10622
886.15	10447
886.275	10409
886.4	10394
886.525	10337
886.65	10386
886.775	10314
886.9	10462
887.025	10493
887.149	10310
887.274	10192
887.399	10105
887.523	10147
887.648	10090
887.773	10139
887.897	10246
888.021	10253
888.146	10097
888.27	10173
888.395	10280
888.519	10162
888.643	10166
888.767	10200
888.891	10025
889.015	10010
889.139	10048
889.263	9998
889.387	9960
889.511	10006
889.635	10010
889.759	10025
889.883	9956
890.006	9945
890.13	10002
890.254	9945
890.377	9941
890.501	9831
890.624	9800
890.748	9876
890.871	9736
890.995	9728
891.118	9595
891.241	9781
891.364	9751
891.488	9781
891.611	9686
891.734	9762
891.857	9732
891.98	9740
892.103	9743
892.226	9766
892.349	9633
892.471	9568
892.594	9610
892.717	9610
892.839	9625
892.962	9682
893.085	9641
893.207	9496
893.33	9576
893.452	9469
893.575	9622
893.697	9462
893.819	9477
893.941	9679
894.064	9523
894.186	9386
894.308	9325
894.43	9549
894.552	9595
894.674	9526
894.796	9287
894.918	9370
895.04	9306
895.161	9336
895.283	9264
895.405	9211
895.526	9245
895.648	9268
895.769	9287
895.891	9233
896.012	9340
896.134	9298
896.255	9157
896.376	9127
896.498	9127
896.619	9051
896.74	9081
896.861	9036
896.982	9157
897.103	9298
897.224	9070
897.345	9001
897.466	8986
897.587	8998
897.708	9070
897.828	9001
897.949	8956
898.07	8906
898.19	8872
898.311	9001
898.431	8807
898.552	8933
898.672	8941
898.792	8921
898.913	8914
899.033	8826
899.153	8754
899.273	8686
899.393	8720
899.513	8785
899.633	8743
899.753	8762
899.873	8705
899.993	8712
900.113	8708
900.232	8731
900.352	8644
900.472	8590
900.591	8499
900.711	8454
900.83	8514
900.95	8731
901.069	8716
901.189	8568
901.308	8381
901.427	8355
901.546	8351
901.665	8492
901.784	8503
901.904	8476
902.023	8317
902.141	8218
902.26	8233
902.379	8229
902.498	8218
902.617	8221
902.735	8286
902.854	8320
902.973	8233
903.091	8115
903.21	8142
903.328	8134
903.446	8107
903.565	8069
903.683	8058
903.801	8027
903.919	8145
904.038	8138
904.156	8054
904.274	8100
904.392	8001
904.51	8058
904.627	8031
904.745	8081
904.863	8138
904.981	7913
905.098	7898
905.216	7814
905.334	7837
905.451	7841
905.569	7849
905.686	7932
905.803	7860
905.921	7750
906.038	7875
906.155	7704
906.272	7636
906.389	7753
906.506	7696
906.623	7540
906.74	7636
906.857	7518
906.974	7559
907.091	7616
907.208	7670
907.324	7639
907.441	7594
907.557	7426
907.674	7453
907.79	7419
907.907	7358
908.023	7453
908.139	7434
908.256	7358
908.372	7403
908.488	7327
908.604	7228
908.72	7160
908.836	7285
908.952	7213
909.068	7206
909.184	7285
909.3	7251
909.415	7274
909.531	7206
909.647	7107
909.762	7152
909.878	7099
909.993	7031
910.108	7118
910.224	7031
910.339	7061
910.454	6989
910.57	7065
910.685	6966
910.8	7137
910.915	7091
911.03	7019
911.145	6924
911.259	6901
911.374	6920
911.489	6806
911.604	6802
911.718	6726
911.833	6707
911.947	6665
912.062	6555
912.176	6684
912.291	6745
912.405	6692
912.519	6795
912.633	6802
912.748	6776
912.862	6692
912.976	6616
913.09	6544
913.204	6597
913.318	6585
913.431	6620
913.545	6665
913.659	6741
913.772	6665
913.886	6566
914	6498
914.113	6616
914.226	6654
914.34	6604
914.453	6441
914.566	6578
914.68	6502
914.793	6547
914.906	6388
915.019	6418
915.132	6380
915.245	6399
915.358	6384
915.47	6414
915.583	6429
915.696	6429
915.809	6494
915.921	6528
916.034	6403
916.146	6399
916.259	6308
916.371	6475
916.483	6452
916.595	6384
916.708	6418
916.82	6418
916.932	6292
917.044	6372
917.156	6308
917.268	6315
917.38	6273
917.491	6258
917.603	6311
917.715	6403
917.826	6414
917.938	6365
918.049	6251
918.161	6350
918.272	6372
918.384	6395
918.495	6270
918.606	6213
918.717	6194
918.828	6239
918.939	6281
919.05	6175
919.161	6247
919.272	6148
919.383	6114
919.494	6327
919.604	6315
919.715	6304
919.826	6205
919.936	6273
920.047	6323
920.157	6243
920.267	6464
920.378	6311
920.488	6258
920.598	6460
920.708	6547
920.818	6403
920.928	6445
921.038	6604
921.148	6566
921.258	6327
921.368	6289
921.477	6163
921.587	6159
921.697	6087
921.806	6140
921.916	6068
922.025	5931
922.134	5878
922.244	5859
922.353	5946
922.462	5836
922.571	5733
922.68	5695
922.789	5630
922.898	5714
923.007	5611
923.116	5703
923.224	5657
923.333	5657
923.442	5627
923.55	5547
923.659	5642
923.767	5638
923.876	5535
923.984	5554
924.092	5505
924.201	5581
924.309	5600
924.417	5512
924.525	5474
924.633	5474
924.741	6285
924.849	5372
924.956	5490
925.064	5280
925.172	5315
925.279	5269
925.387	5311
925.494	5326
925.602	5383
925.709	5383
925.816	5227
925.924	5303
926.031	5368
926.138	5284
926.245	5311
926.352	5166
926.459	5330
926.566	5288
926.673	5242
926.779	5117
926.886	5079
926.993	5045
927.099	4930
927.206	5018
927.312	4942
927.419	5037
927.525	4915
927.631	4942
927.737	4839
927.843	4801
927.95	4782
928.056	4801
928.162	4793
928.267	4850
928.373	5296
928.479	4835
928.585	4687
928.69	4752
928.796	4755
928.901	4630
929.007	4588
929.112	4721
929.218	4649
929.323	4569
929.428	4573
929.533	4637
929.638	4497
929.743	4516
929.848	4550
929.953	4497
930.058	4394
930.163	4333
930.267	4371
930.372	4428
930.477	4253
930.581	4409
930.685	4394
930.79	4253
930.894	4314
930.998	4215
931.103	4405
931.207	4116
931.311	4086
931.415	4006
931.519	3880
931.623	3896
