Data from glass_V78500241_1767.txt Node
Date: Wed Sep 01 19:26:44 CST 2021
User: usil
Spectrometer: V785-0024
Trigger mode: 0
Integration Time (sec): 4.000000E-1
Scans to average: 1
Nonlinearity correction enabled: false
Boxcar width: 0
Storing dark spectrum: false
XAxis mode: Wavelengths
Number of Pixels in Spectrum: 1024
>>>>>Begin Spectral Data<<<<<
801.071	3747
801.214	3747
801.356	3694
801.499	3759
801.641	3686
801.783	3800
801.926	3873
802.068	3819
802.211	3812
802.353	3873
802.496	3835
802.638	3888
802.78	3896
802.923	3930
803.065	3861
803.208	3873
803.35	3865
803.492	3899
803.635	3941
803.777	3800
803.919	3865
804.061	4154
804.204	3945
804.346	3983
804.488	3869
804.63	4044
804.773	3983
804.915	3998
805.057	4181
805.199	4048
805.341	4109
805.483	4143
805.626	4116
805.768	4150
805.91	4215
806.052	4234
806.194	4200
806.336	4291
806.478	4223
806.62	4192
806.762	4207
806.904	4276
807.046	4303
807.188	4185
807.33	4147
807.472	4268
807.614	4166
807.756	4268
807.898	4196
808.04	4200
808.182	4287
808.324	4337
808.465	4371
808.607	4432
808.749	4455
808.891	4497
809.033	4519
809.174	4379
809.316	4238
809.458	4238
809.6	4143
809.741	4177
809.883	4158
810.025	4185
810.166	4215
810.308	4204
810.45	4219
810.591	4261
810.733	4295
810.875	4508
811.016	4801
811.158	5159
811.299	5265
811.441	5242
811.582	5075
811.724	4714
811.865	4432
812.007	4474
812.148	4440
812.29	4390
812.431	4344
812.573	4379
812.714	4341
812.855	4447
812.997	4470
813.138	4432
813.279	4398
813.421	4375
813.562	4371
813.703	4314
813.845	4344
813.986	4207
814.127	4257
814.268	4276
814.41	4276
814.551	4295
814.692	4310
814.833	4284
814.974	4295
815.115	4318
815.256	4242
815.397	4242
815.539	4291
815.68	4227
815.821	4207
815.962	4318
816.103	4287
816.244	4230
816.385	4246
816.526	4242
816.666	4223
816.807	4116
816.948	4143
817.089	4131
817.23	4074
817.371	4074
817.512	4040
817.653	4032
817.793	4017
817.934	4002
818.075	4124
818.216	4086
818.356	4082
818.497	3972
818.638	3903
818.778	3915
818.919	3896
819.06	3892
819.2	3930
819.341	3865
819.481	3827
819.622	3915
819.762	4013
819.903	3945
820.043	3861
820.184	3850
820.324	3816
820.465	3888
820.605	3831
820.746	3934
820.886	3785
821.026	3922
821.167	3888
821.307	3991
821.447	4025
821.588	3956
821.728	3915
821.868	3884
822.008	3861
822.149	3892
822.289	3937
822.429	3770
822.569	3736
822.709	3797
822.849	3698
822.99	3717
823.13	3759
823.27	3781
823.41	3698
823.55	3743
823.69	3679
823.83	3720
823.97	3686
824.11	3580
824.25	3622
824.389	3663
824.529	3709
824.669	3656
824.809	3709
824.949	3743
825.089	3694
825.228	3713
825.368	3599
825.508	3564
825.648	3572
825.787	3584
825.927	3584
826.067	3641
826.206	3663
826.346	3759
826.485	3861
826.625	3812
826.765	3937
826.904	3831
827.044	3603
827.183	3580
827.323	3435
827.462	3473
827.601	3458
827.741	3416
827.88	3477
828.02	3336
828.159	3412
828.298	3469
828.437	3526
828.577	3473
828.716	3603
828.855	3492
828.994	3374
829.134	3363
829.273	3424
829.412	3359
829.551	3355
829.69	3370
829.829	3431
829.968	3549
830.107	3450
830.246	3443
830.385	3382
830.524	3359
830.663	3306
830.802	3249
830.941	3192
831.08	3207
831.219	3268
831.357	3272
831.496	3363
831.635	3241
831.774	3211
831.913	3180
832.051	3112
832.19	3157
832.329	3214
832.467	3135
832.606	3123
832.744	3157
832.883	3207
833.022	3188
833.16	3279
833.299	3310
833.437	3329
833.576	3336
833.714	3412
833.852	3409
833.991	3435
834.129	3447
834.267	3428
834.406	3386
834.544	3443
834.682	3393
834.821	3431
834.959	3557
835.097	3428
835.235	3492
835.373	3519
835.511	3507
835.65	3462
835.788	3447
835.926	3420
836.064	3389
836.202	3393
836.34	3572
836.478	3633
836.615	3515
836.753	3584
836.891	3614
837.029	3587
837.167	3561
837.305	3538
837.443	3561
837.58	3519
837.718	3618
837.856	3576
837.993	3538
838.131	3603
838.269	3595
838.406	3557
838.544	3572
838.681	3515
838.819	3439
838.956	3397
839.094	3370
839.231	3439
839.369	3530
839.506	3732
839.643	3629
839.781	3488
839.918	3466
840.055	3580
840.193	3534
840.33	3515
840.467	3557
840.604	3587
840.742	3800
840.879	3564
841.016	3553
841.153	3572
841.29	3720
841.427	3720
841.564	3698
841.701	3751
841.838	3679
841.975	3709
842.112	3751
842.249	3641
842.385	3660
842.522	3861
842.659	3701
842.796	3698
842.933	3686
843.069	3675
843.206	3690
843.343	3873
843.479	3778
843.616	3838
843.752	3671
843.889	3682
844.025	3831
844.162	3732
844.298	3789
844.435	3808
844.571	3785
844.708	3873
844.844	3964
844.98	4048
845.117	3998
845.253	3926
845.389	3926
845.525	3987
845.661	3949
845.798	3930
845.934	4013
846.07	3953
846.206	4048
846.342	4112
846.478	4078
846.614	3987
846.75	3949
846.886	3873
847.022	4010
847.158	4029
847.294	4002
847.429	4017
847.565	3979
847.701	4246
847.837	3873
847.972	3842
848.108	3960
848.244	4006
848.379	3873
848.515	3850
848.65	3800
848.786	3789
848.921	3876
849.057	3884
849.192	3915
849.328	3896
849.463	3892
849.598	3903
849.734	3915
849.869	3850
850.004	3781
850.14	3793
850.275	3781
850.41	3747
850.545	3671
850.68	3743
850.815	3831
850.95	3831
851.085	3945
851.22	3827
851.355	3823
851.49	3797
851.625	3812
851.76	3778
851.895	3751
852.03	3778
852.165	3819
852.299	3819
852.434	3896
852.569	3857
852.703	3857
852.838	3968
852.973	4021
853.107	3983
853.242	3892
853.376	3892
853.511	3789
853.645	3827
853.78	3964
853.914	3861
854.048	3907
854.183	3873
854.317	3956
854.451	4044
854.585	3949
854.72	3930
854.854	4013
854.988	3972
855.122	4010
855.256	3903
855.39	4059
855.524	4082
855.658	4101
855.792	4101
855.926	4192
856.06	4181
856.194	4200
856.327	4128
856.461	4116
856.595	4169
856.729	4188
856.862	4234
856.996	4242
857.13	4325
857.263	4310
857.397	4356
857.53	4268
857.664	4325
857.797	4402
857.931	4440
858.064	4329
858.197	4432
858.331	4383
858.464	4398
858.597	4390
858.731	4451
858.864	4428
858.997	4455
859.13	4519
859.263	4500
859.396	4558
859.529	4546
859.662	4523
859.795	4565
859.928	4546
860.061	4706
860.194	4763
860.327	4637
860.46	4668
860.592	4679
860.725	4790
860.858	4710
860.99	4694
861.123	4736
861.256	4714
861.388	4733
861.521	5387
861.653	4759
861.786	4710
861.918	4733
862.05	4805
862.183	4862
862.315	4881
862.447	4972
862.58	4896
862.712	4786
862.844	4778
862.976	4896
863.108	4904
863.24	5269
863.372	4831
863.504	4870
863.636	4900
863.768	4927
863.9	4968
864.032	4923
864.164	4946
864.296	5010
864.428	5014
864.559	5098
864.691	5090
864.823	5083
864.954	5132
865.086	5197
865.217	5113
865.349	5117
865.48	5181
865.612	5121
865.743	5258
865.875	5147
866.006	5159
866.137	5216
866.269	5246
866.4	5246
866.531	5250
866.662	5212
866.793	5201
866.924	5311
867.055	5353
867.186	5296
867.317	5334
867.448	5334
867.579	5364
867.71	5391
867.841	5467
867.972	5493
868.103	5444
868.233	5505
868.364	5440
868.495	5539
868.625	5638
868.756	5786
868.886	5642
869.017	5733
869.147	5855
869.278	5889
869.408	5832
869.539	5821
869.669	5904
869.799	5946
869.929	5942
870.06	6053
870.19	6175
870.32	6220
870.45	6285
870.58	6311
870.71	6490
870.84	6471
870.97	6490
871.1	6407
871.23	6677
871.36	6688
871.489	6642
871.619	6741
871.749	6810
871.879	6894
872.008	7000
872.138	6993
872.267	7019
872.397	6939
872.526	7015
872.656	7137
872.785	7209
872.915	7407
873.044	7506
873.173	7502
873.303	7563
873.432	7746
873.561	7849
873.69	7917
873.819	7955
873.948	8164
874.077	8233
874.206	8305
874.335	8446
874.464	8556
874.593	8834
874.722	8918
874.851	9104
874.979	9260
875.108	9389
875.237	9370
875.365	9454
875.494	9660
875.623	9759
875.751	9785
875.88	10017
876.008	10169
876.136	10287
876.265	10489
876.393	10698
876.521	10679
876.65	10831
876.778	10816
876.906	10885
877.034	11048
877.162	11071
877.29	11170
877.418	11337
877.546	11330
877.674	11452
877.802	11448
877.93	11497
878.058	11512
878.185	11535
878.313	11741
878.441	11828
878.568	11623
878.696	11863
878.824	11878
878.951	11999
879.079	12026
879.206	12087
879.333	12068
879.461	11923
879.588	12076
879.715	12098
879.842	12232
879.97	12072
880.097	11836
880.224	11847
880.351	11821
880.478	11870
880.605	11840
880.732	11885
880.859	11980
880.986	11805
881.112	11828
881.239	11634
881.366	11619
881.493	11589
881.619	11532
881.746	11642
881.872	11604
881.999	11467
882.125	11535
882.252	11570
882.378	11471
882.505	11558
882.631	11398
882.757	11299
882.883	11360
883.01	11250
883.136	11288
883.262	11136
883.388	11109
883.514	11231
883.64	11178
883.766	11166
883.892	10999
884.018	11037
884.143	11079
884.269	11113
884.395	10881
884.52	10759
884.646	10702
884.772	10759
884.897	10691
885.023	10634
885.148	10740
885.274	10778
885.399	10702
885.524	10634
885.65	10630
885.775	10630
885.9	10577
886.025	10607
886.15	10550
886.275	10478
886.4	10344
886.525	10417
886.65	10409
886.775	10440
886.9	10443
887.025	10580
887.149	10306
887.274	10230
887.399	10207
887.523	10188
887.648	10150
887.773	10177
887.897	10230
888.021	10242
888.146	10097
888.27	10234
888.395	10261
888.519	10230
888.643	10177
888.767	10234
888.891	10029
889.015	9998
889.139	10090
889.263	9975
889.387	10097
889.511	10150
889.635	10048
889.759	9953
889.883	9956
890.006	10006
890.13	10143
890.254	9964
890.377	10002
890.501	9876
890.624	9846
890.748	9808
890.871	9717
890.995	9751
891.118	9759
891.241	9823
891.364	9720
891.488	9808
891.611	9717
891.734	9736
891.857	9789
891.98	9679
892.103	9785
892.226	9747
892.349	9652
892.471	9603
892.594	9644
892.717	9622
892.839	9618
892.962	9595
893.085	9648
893.207	9603
893.33	9515
893.452	9523
893.575	9591
893.697	9496
893.819	9610
893.941	9576
894.064	9614
894.186	9439
894.308	9355
894.43	9538
894.552	9557
894.674	9564
894.796	9317
894.918	9351
895.04	9370
895.161	9378
895.283	9340
895.405	9230
895.526	9302
895.648	9249
895.769	9287
895.891	9241
896.012	9230
896.134	9226
896.255	9226
896.376	9112
896.498	9154
896.619	9112
896.74	9085
896.861	9066
896.982	9283
897.103	9336
897.224	9169
897.345	9058
897.466	8994
897.587	9051
897.708	9142
897.828	9039
897.949	8982
898.07	8815
898.19	8929
898.311	8941
898.431	8948
898.552	8941
898.672	8918
898.792	8956
898.913	8880
899.033	8785
899.153	8746
899.273	8651
899.393	8701
899.513	8739
899.633	8766
899.753	8697
899.873	8727
899.993	8746
900.113	8651
900.232	8750
900.352	8705
900.472	8568
900.591	8568
900.711	8560
900.83	8545
900.95	8716
901.069	8659
901.189	8613
901.308	8450
901.427	8450
901.546	8423
901.665	8514
901.784	8503
901.904	8343
902.023	8377
902.141	8275
902.26	8267
902.379	8279
902.498	8225
902.617	8218
902.735	8305
902.854	8256
902.973	8275
903.091	8149
903.21	8103
903.328	8153
903.446	8157
903.565	8084
903.683	8077
903.801	8054
903.919	8096
904.038	8142
904.156	8054
904.274	8062
904.392	8100
904.51	8058
904.627	8005
904.745	8039
904.863	8077
904.981	7963
905.098	7887
905.216	7875
905.334	7883
905.451	7936
905.569	7875
905.686	7921
905.803	7928
905.921	7750
906.038	7868
906.155	7814
906.272	7693
906.389	7685
906.506	7616
906.623	7632
906.74	7636
906.857	7540
906.974	7499
907.091	7674
907.208	7624
907.324	7670
907.441	7552
907.557	7483
907.674	7430
907.79	7422
907.907	7457
908.023	7457
908.139	7369
908.256	7434
908.372	7369
908.488	7350
908.604	7293
908.72	7232
908.836	7289
908.952	7194
909.068	7236
909.184	7289
909.3	7293
909.415	7350
909.531	7320
909.647	7088
909.762	7076
909.878	7065
909.993	7099
910.108	7137
910.224	7076
910.339	7088
910.454	7069
910.57	7015
910.685	6996
910.8	7156
910.915	7027
911.03	7012
911.145	6901
911.259	6875
911.374	6935
911.489	6825
911.604	6829
911.718	6715
911.833	6760
911.947	6650
912.062	6555
912.176	6688
912.291	6741
912.405	6734
912.519	6821
912.633	6783
912.748	6764
912.862	6700
912.976	6665
913.09	6490
913.204	6612
913.318	6585
913.431	6654
913.545	6665
913.659	6673
913.772	6627
913.886	6578
914	6513
914.113	6532
914.226	6597
914.34	6673
914.453	6475
914.566	6604
914.68	6521
914.793	6460
914.906	6422
915.019	6403
915.132	6391
915.245	6407
915.358	6490
915.47	6433
915.583	6426
915.696	6509
915.809	6506
915.921	6551
916.034	6445
916.146	6422
916.259	6391
916.371	6475
916.483	6437
916.595	6403
916.708	6395
916.82	6361
916.932	6399
917.044	6445
917.156	6338
917.268	6304
917.38	6296
917.491	6365
917.603	6334
917.715	6422
917.826	6437
917.938	6285
918.049	6281
918.161	6315
918.272	6407
918.384	6452
918.495	6365
918.606	6300
918.717	6258
918.828	6281
918.939	6266
919.05	6205
919.161	6247
919.272	6125
919.383	6110
919.494	6315
919.604	6365
919.715	6270
919.826	6194
919.936	6205
920.047	6308
920.157	6266
920.267	6460
920.378	6289
920.488	6273
920.598	6418
920.708	6532
920.818	6509
920.928	6486
921.038	6544
921.148	6589
921.258	6327
921.368	6243
921.477	6254
921.587	6209
921.697	6095
921.806	6175
921.916	6106
922.025	5977
922.134	5923
922.244	5882
922.353	5946
922.462	5859
922.571	5779
922.68	5733
922.789	5634
922.898	5710
923.007	5585
923.116	5733
923.224	5703
923.333	5661
923.442	5600
923.55	5516
923.659	5562
923.767	5623
923.876	5524
923.984	5642
924.092	5524
924.201	5554
924.309	5547
924.417	5535
924.525	5501
924.633	5505
924.741	6251
924.849	5345
924.956	5497
925.064	5368
925.172	5334
925.279	5341
925.387	5345
925.494	5322
925.602	5391
925.709	5402
925.816	5258
925.924	5322
926.031	5322
926.138	5299
926.245	5322
926.352	5246
926.459	5337
926.566	5311
926.673	5239
926.779	5105
926.886	5105
926.993	5056
927.099	5022
927.206	4965
927.312	4919
927.419	5041
927.525	4968
927.631	4953
927.737	4896
927.843	4900
927.95	4767
928.056	4820
928.162	4870
928.267	4809
928.373	5330
928.479	4828
928.585	4679
928.69	4782
928.796	4831
928.901	4679
929.007	4565
929.112	4653
929.218	4653
929.323	4626
929.428	4561
929.533	4672
929.638	4497
929.743	4489
929.848	4569
929.953	4516
930.058	4413
930.163	4306
930.267	4333
930.372	4386
930.477	4303
930.581	4455
930.685	4318
930.79	4314
930.894	4303
930.998	4299
931.103	4363
931.207	4177
931.311	4086
931.415	4051
931.519	3922
931.623	3937
