Data from glass_V78500241_1928.txt Node
Date: Wed Sep 01 19:27:51 CST 2021
User: usil
Spectrometer: V785-0024
Trigger mode: 0
Integration Time (sec): 4.000000E-1
Scans to average: 1
Nonlinearity correction enabled: false
Boxcar width: 0
Storing dark spectrum: false
XAxis mode: Wavelengths
Number of Pixels in Spectrum: 1024
>>>>>Begin Spectral Data<<<<<
801.071	3732
801.214	3724
801.356	3740
801.499	3732
801.641	3713
801.783	3778
801.926	3865
802.068	3896
802.211	3846
802.353	3888
802.496	3816
802.638	3888
802.78	3899
802.923	3926
803.065	3907
803.208	3892
803.35	3907
803.492	3937
803.635	3888
803.777	3835
803.919	3873
804.061	4158
804.204	3937
804.346	3968
804.488	3918
804.63	4021
804.773	3979
804.915	4010
805.057	4173
805.199	4063
805.341	4116
805.483	4150
805.626	4147
805.768	4124
805.91	4196
806.052	4223
806.194	4162
806.336	4356
806.478	4261
806.62	4169
806.762	4169
806.904	4261
807.046	4371
807.188	4246
807.33	4192
807.472	4215
807.614	4166
807.756	4257
807.898	4211
808.04	4242
808.182	4249
808.324	4303
808.465	4360
808.607	4459
808.749	4451
808.891	4440
809.033	4531
809.174	4409
809.316	4253
809.458	4242
809.6	4105
809.741	4109
809.883	4128
810.025	4211
810.166	4207
810.308	4192
810.45	4246
810.591	4242
810.733	4314
810.875	4466
811.016	4805
811.158	5162
811.299	5284
811.441	5273
811.582	5067
811.724	4717
811.865	4485
812.007	4447
812.148	4466
812.29	4398
812.431	4455
812.573	4402
812.714	4390
812.855	4421
812.997	4409
813.138	4451
813.279	4405
813.421	4367
813.562	4405
813.703	4337
813.845	4363
813.986	4246
814.127	4230
814.268	4299
814.41	4249
814.551	4272
814.692	4310
814.833	4265
814.974	4306
815.115	4375
815.256	4234
815.397	4227
815.539	4238
815.68	4223
815.821	4223
815.962	4299
816.103	4291
816.244	4223
816.385	4215
816.526	4242
816.666	4207
816.807	4067
816.948	4185
817.089	4150
817.23	4128
817.371	4112
817.512	4029
817.653	4059
817.793	4067
817.934	4071
818.075	4071
818.216	4105
818.356	4090
818.497	4021
818.638	3915
818.778	3937
818.919	3846
819.06	3861
819.2	3968
819.341	3880
819.481	3850
819.622	3930
819.762	4017
819.903	4010
820.043	3880
820.184	3831
820.324	3800
820.465	3907
820.605	3838
820.746	3880
820.886	3812
821.026	3842
821.167	3896
821.307	3968
821.447	3937
821.588	3911
821.728	3930
821.868	3953
822.008	3873
822.149	3934
822.289	3926
822.429	3785
822.569	3747
822.709	3789
822.849	3732
822.99	3694
823.13	3747
823.27	3781
823.41	3705
823.55	3736
823.69	3724
823.83	3720
823.97	3686
824.11	3622
824.25	3614
824.389	3622
824.529	3663
824.669	3576
824.809	3724
824.949	3717
825.089	3747
825.228	3713
825.368	3557
825.508	3557
825.648	3576
825.787	3633
825.927	3599
826.067	3652
826.206	3644
826.346	3759
826.485	3793
826.625	3835
826.765	3922
826.904	3869
827.044	3629
827.183	3545
827.323	3420
827.462	3473
827.601	3416
827.741	3405
827.88	3420
828.02	3355
828.159	3450
828.298	3458
828.437	3534
828.577	3454
828.716	3591
828.855	3485
828.994	3370
829.134	3378
829.273	3405
829.412	3329
829.551	3340
829.69	3351
829.829	3416
829.968	3504
830.107	3412
830.246	3454
830.385	3348
830.524	3325
830.663	3294
830.802	3272
830.941	3218
831.08	3203
831.219	3218
831.357	3226
831.496	3412
831.635	3207
831.774	3195
831.913	3214
832.051	3123
832.19	3142
832.329	3203
832.467	3123
832.606	3108
832.744	3176
832.883	3173
833.022	3211
833.16	3253
833.299	3287
833.437	3336
833.576	3336
833.714	3378
833.852	3416
833.991	3469
834.129	3492
834.267	3443
834.406	3374
834.544	3401
834.682	3370
834.821	3428
834.959	3553
835.097	3397
835.235	3523
835.373	3473
835.511	3492
835.65	3450
835.788	3500
835.926	3386
836.064	3386
836.202	3382
836.34	3568
836.478	3584
836.615	3538
836.753	3564
836.891	3610
837.029	3648
837.167	3591
837.305	3511
837.443	3538
837.58	3500
837.718	3618
837.856	3549
837.993	3519
838.131	3587
838.269	3587
838.406	3584
838.544	3564
838.681	3443
838.819	3435
838.956	3321
839.094	3389
839.231	3409
839.369	3526
839.506	3686
839.643	3656
839.781	3504
839.918	3458
840.055	3523
840.193	3576
840.33	3534
840.467	3557
840.604	3587
840.742	3781
840.879	3561
841.016	3564
841.153	3629
841.29	3751
841.427	3717
841.564	3713
841.701	3766
841.838	3720
841.975	3690
842.112	3720
842.249	3641
842.385	3625
842.522	3804
842.659	3686
842.796	3667
842.933	3705
843.069	3713
843.206	3740
843.343	3812
843.479	3751
843.616	3785
843.752	3663
843.889	3701
844.025	3861
844.162	3709
844.298	3800
844.435	3770
844.571	3800
844.708	3869
844.844	4029
844.98	3975
845.117	4025
845.253	3934
845.389	3880
845.525	3915
845.661	3915
845.798	3930
845.934	4002
846.07	3987
846.206	4063
846.342	4078
846.478	4078
846.614	3991
846.75	3915
846.886	3892
847.022	4036
847.158	3991
847.294	3983
847.429	3998
847.565	4010
847.701	4230
847.837	3876
847.972	3823
848.108	3987
848.244	3949
848.379	3800
848.515	3804
848.65	3823
848.786	3846
848.921	3838
849.057	3884
849.192	3915
849.328	3896
849.463	3861
849.598	3876
849.734	3869
849.869	3819
850.004	3751
850.14	3838
850.275	3778
850.41	3728
850.545	3728
850.68	3797
850.815	3770
850.95	3762
851.085	3899
851.22	3854
851.355	3876
851.49	3797
851.625	3804
851.76	3888
851.895	3766
852.03	3759
852.165	3812
852.299	3873
852.434	3934
852.569	3888
852.703	3838
852.838	3915
852.973	4021
853.107	3998
853.242	3907
853.376	3819
853.511	3759
853.645	3831
853.78	3956
853.914	3911
854.048	3892
854.183	3903
854.317	3903
854.451	4040
854.585	3956
854.72	3922
854.854	4048
854.988	3930
855.122	4010
855.256	3930
855.39	3983
855.524	4082
855.658	4055
855.792	4101
855.926	4139
856.06	4154
856.194	4192
856.327	4135
856.461	4116
856.595	4135
856.729	4169
856.862	4207
856.996	4242
857.13	4284
857.263	4337
857.397	4352
857.53	4310
857.664	4329
857.797	4360
857.931	4413
858.064	4405
858.197	4428
858.331	4421
858.464	4367
858.597	4348
858.731	4428
858.864	4481
858.997	4398
859.13	4500
859.263	4538
859.396	4554
859.529	4519
859.662	4596
859.795	4554
859.928	4630
860.061	4679
860.194	4714
860.327	4622
860.46	4656
860.592	4694
860.725	4763
860.858	4774
860.99	4714
861.123	4714
861.256	4710
861.388	4763
861.521	5368
861.653	4706
861.786	4672
861.918	4729
862.05	4778
862.183	4877
862.315	4858
862.447	4949
862.58	4870
862.712	4809
862.844	4790
862.976	4881
863.108	4889
863.24	5189
863.372	4805
863.504	4923
863.636	4839
863.768	4957
863.9	4942
864.032	4904
864.164	4946
864.296	5064
864.428	5067
864.559	5128
864.691	5094
864.823	5105
864.954	5140
865.086	5079
865.217	5155
865.349	5162
865.48	5181
865.612	5231
865.743	5269
865.875	5159
866.006	5246
866.137	5261
866.269	5220
866.4	5208
866.531	5254
866.662	5235
866.793	5235
866.924	5326
867.055	5318
867.186	5261
867.317	5318
867.448	5322
867.579	5364
867.71	5391
867.841	5368
867.972	5421
868.103	5433
868.233	5474
868.364	5486
868.495	5520
868.625	5661
868.756	5767
868.886	5646
869.017	5718
869.147	5859
869.278	5805
869.408	5832
869.539	5870
869.669	5901
869.799	5847
869.929	5999
870.06	5999
870.19	6171
870.32	6213
870.45	6251
870.58	6292
870.71	6391
870.84	6452
870.97	6384
871.1	6448
871.23	6597
871.36	6745
871.489	6612
871.619	6696
871.749	6818
871.879	6894
872.008	7004
872.138	6935
872.267	6993
872.397	7000
872.526	6996
872.656	7129
872.785	7133
872.915	7369
873.044	7506
873.173	7616
873.303	7647
873.432	7685
873.561	7852
873.69	7944
873.819	8027
873.948	8199
874.077	8259
874.206	8324
874.335	8427
874.464	8731
874.593	8834
874.722	8887
874.851	9199
874.979	9230
875.108	9370
875.237	9348
875.365	9481
875.494	9694
875.623	9876
875.751	9827
875.88	10017
876.008	10139
876.136	10322
876.265	10523
876.393	10702
876.521	10698
876.65	10835
876.778	10896
876.906	10866
877.034	10946
877.162	11052
877.29	11170
877.418	11204
877.546	11383
877.674	11436
877.802	11433
877.93	11535
878.058	11493
878.185	11589
878.313	11691
878.441	11699
878.568	11714
878.696	11790
878.824	11874
878.951	11999
879.079	12045
879.206	12224
879.333	12049
879.461	11996
879.588	11984
879.715	12064
879.842	12239
879.97	12102
880.097	11927
880.224	11893
880.351	11885
880.478	11916
880.605	11836
880.732	11821
880.859	11992
880.986	11882
881.112	11851
881.239	11695
881.366	11672
881.493	11638
881.619	11539
881.746	11630
881.872	11493
881.999	11512
882.125	11425
882.252	11558
882.378	11547
882.505	11585
882.631	11379
882.757	11288
882.883	11311
883.01	11258
883.136	11174
883.262	11197
883.388	11098
883.514	11121
883.64	11269
883.766	11140
883.892	10896
884.018	11018
884.143	11109
884.269	11105
884.395	10869
884.52	10782
884.646	10736
884.772	10660
884.897	10645
885.023	10634
885.148	10645
885.274	10714
885.399	10649
885.524	10569
885.65	10615
885.775	10656
885.9	10565
886.025	10603
886.15	10573
886.275	10462
886.4	10417
886.525	10382
886.65	10348
886.775	10310
886.9	10443
887.025	10417
887.149	10375
887.274	10181
887.399	10158
887.523	10143
887.648	10090
887.773	10097
887.897	10261
888.021	10215
888.146	10188
888.27	10253
888.395	10207
888.519	10215
888.643	10147
888.767	10211
888.891	10158
889.015	10006
889.139	10105
889.263	9987
889.387	10029
889.511	10135
889.635	10055
889.759	9953
889.883	9949
890.006	10002
890.13	10086
890.254	10010
890.377	9983
890.501	9903
890.624	9873
890.748	9800
890.871	9831
890.995	9759
891.118	9770
891.241	9751
891.364	9717
891.488	9842
891.611	9713
891.734	9686
891.857	9785
891.98	9713
892.103	9759
892.226	9747
892.349	9614
892.471	9530
892.594	9530
892.717	9587
892.839	9530
892.962	9622
893.085	9682
893.207	9591
893.33	9591
893.452	9542
893.575	9614
893.697	9534
893.819	9553
893.941	9644
894.064	9606
894.186	9466
894.308	9370
894.43	9485
894.552	9564
894.674	9561
894.796	9488
894.918	9435
895.04	9313
895.161	9386
895.283	9294
895.405	9211
895.526	9287
895.648	9222
895.769	9184
895.891	9241
896.012	9291
896.134	9272
896.255	9138
896.376	9131
896.498	9214
896.619	9207
896.74	9051
896.861	9104
896.982	9256
897.103	9378
897.224	9169
897.345	9039
897.466	9020
897.587	8956
897.708	9104
897.828	9043
897.949	8899
898.07	8823
898.19	8899
898.311	9070
898.431	8918
898.552	8941
898.672	9074
898.792	8887
898.913	8868
899.033	8849
899.153	8743
899.273	8640
899.393	8758
899.513	8800
899.633	8689
899.753	8708
899.873	8705
899.993	8750
900.113	8708
900.232	8693
900.352	8705
900.472	8610
900.591	8571
900.711	8571
900.83	8530
900.95	8651
901.069	8712
901.189	8530
901.308	8389
901.427	8396
901.546	8434
901.665	8488
901.784	8473
901.904	8457
902.023	8347
902.141	8248
902.26	8229
902.379	8237
902.498	8195
902.617	8259
902.735	8294
902.854	8240
902.973	8275
903.091	8107
903.21	8183
903.328	8183
903.446	8111
903.565	8084
903.683	8073
903.801	8065
903.919	8107
904.038	8119
904.156	8005
904.274	8054
904.392	7993
904.51	8008
904.627	8031
904.745	8119
904.863	8111
904.981	7921
905.098	7852
905.216	7875
905.334	7959
905.451	7894
905.569	7830
905.686	7887
905.803	7898
905.921	7753
906.038	7883
906.155	7769
906.272	7647
906.389	7719
906.506	7636
906.623	7601
906.74	7597
906.857	7533
906.974	7578
907.091	7647
907.208	7704
907.324	7594
907.441	7510
907.557	7457
907.674	7441
907.79	7358
907.907	7362
908.023	7441
908.139	7419
908.256	7350
908.372	7346
908.488	7362
908.604	7289
908.72	7240
908.836	7316
908.952	7232
909.068	7247
909.184	7331
909.3	7305
909.415	7331
909.531	7247
909.647	7118
909.762	7133
909.878	7137
909.993	7156
910.108	7065
910.224	7095
910.339	7053
910.454	7069
910.57	6947
910.685	7034
910.8	7103
910.915	7152
911.03	7076
911.145	6871
911.259	6894
911.374	6821
911.489	6852
911.604	6833
911.718	6772
911.833	6722
911.947	6639
912.062	6665
912.176	6738
912.291	6703
912.405	6688
912.519	6798
912.633	6825
912.748	6776
912.862	6669
912.976	6639
913.09	6574
913.204	6509
913.318	6612
913.431	6692
913.545	6631
913.659	6726
913.772	6681
913.886	6616
914	6589
914.113	6654
914.226	6673
914.34	6620
914.453	6509
914.566	6563
914.68	6563
914.793	6536
914.906	6399
915.019	6323
915.132	6319
915.245	6418
915.358	6429
915.47	6437
915.583	6418
915.696	6467
915.809	6509
915.921	6601
916.034	6486
916.146	6350
916.259	6395
916.371	6456
916.483	6464
916.595	6357
916.708	6380
916.82	6395
916.932	6338
917.044	6422
917.156	6388
917.268	6357
917.38	6323
917.491	6323
917.603	6334
917.715	6391
917.826	6357
917.938	6327
918.049	6258
918.161	6350
918.272	6395
918.384	6418
918.495	6372
918.606	6281
918.717	6228
918.828	6251
918.939	6331
919.05	6190
919.161	6239
919.272	6091
919.383	6178
919.494	6228
919.604	6418
919.715	6311
919.826	6201
919.936	6228
920.047	6353
920.157	6243
920.267	6410
920.378	6289
920.488	6251
920.598	6426
920.708	6559
920.818	6464
920.928	6464
921.038	6559
921.148	6544
921.258	6308
921.368	6308
921.477	6190
921.587	6159
921.697	6144
921.806	6167
921.916	6102
922.025	5969
922.134	5897
922.244	5885
922.353	5958
922.462	5847
922.571	5817
922.68	5668
922.789	5657
922.898	5741
923.007	5646
923.116	5672
923.224	5649
923.333	5630
923.442	5615
923.55	5581
923.659	5577
923.767	5649
923.876	5551
923.984	5638
924.092	5505
924.201	5528
924.309	5520
924.417	5554
924.525	5490
924.633	5516
924.741	6266
924.849	5433
924.956	5490
925.064	5303
925.172	5246
925.279	5296
925.387	5421
925.494	5330
925.602	5421
925.709	5376
925.816	5303
925.924	5353
926.031	5315
926.138	5231
926.245	5265
926.352	5239
926.459	5307
926.566	5315
926.673	5235
926.779	5155
926.886	5079
926.993	5048
927.099	4976
927.206	4938
927.312	4942
927.419	5033
927.525	4987
927.631	4965
927.737	4908
927.843	4877
927.95	4782
928.056	4816
928.162	4828
928.267	4858
928.373	5345
928.479	4831
928.585	4660
928.69	4782
928.796	4740
928.901	4702
929.007	4577
929.112	4710
929.218	4641
929.323	4596
929.428	4535
929.533	4660
929.638	4493
929.743	4535
929.848	4569
929.953	4462
930.058	4451
930.163	4322
930.267	4356
930.372	4417
930.477	4276
930.581	4451
930.685	4360
930.79	4246
930.894	4287
930.998	4272
931.103	4447
931.207	4086
931.311	4074
931.415	4032
931.519	3956
931.623	3903
