Data from glass_V78500241_2244.txt Node
Date: Wed Sep 01 19:30:03 CST 2021
User: usil
Spectrometer: V785-0024
Trigger mode: 0
Integration Time (sec): 4.000000E-1
Scans to average: 1
Nonlinearity correction enabled: false
Boxcar width: 0
Storing dark spectrum: false
XAxis mode: Wavelengths
Number of Pixels in Spectrum: 1024
>>>>>Begin Spectral Data<<<<<
801.071	3743
801.214	3732
801.356	3751
801.499	3743
801.641	3747
801.783	3762
801.926	3880
802.068	3869
802.211	3831
802.353	3857
802.496	3842
802.638	3884
802.78	3934
802.923	3930
803.065	3896
803.208	3808
803.35	3850
803.492	3884
803.635	3930
803.777	3816
803.919	3896
804.061	4139
804.204	3983
804.346	4010
804.488	3888
804.63	4036
804.773	3994
804.915	3991
805.057	4150
805.199	4002
805.341	4090
805.483	4082
805.626	4128
805.768	4105
805.91	4227
806.052	4249
806.194	4188
806.336	4337
806.478	4227
806.62	4154
806.762	4181
806.904	4234
807.046	4310
807.188	4211
807.33	4162
807.472	4253
807.614	4169
807.756	4265
807.898	4223
808.04	4207
808.182	4284
808.324	4314
808.465	4371
808.607	4436
808.749	4466
808.891	4447
809.033	4462
809.174	4398
809.316	4211
809.458	4200
809.6	4169
809.741	4192
809.883	4131
810.025	4196
810.166	4196
810.308	4219
810.45	4242
810.591	4207
810.733	4268
810.875	4508
811.016	4847
811.158	5102
811.299	5265
811.441	5254
811.582	5029
811.724	4710
811.865	4470
812.007	4440
812.148	4413
812.29	4451
812.431	4375
812.573	4409
812.714	4413
812.855	4409
812.997	4466
813.138	4459
813.279	4413
813.421	4363
813.562	4394
813.703	4306
813.845	4356
813.986	4242
814.127	4204
814.268	4265
814.41	4287
814.551	4253
814.692	4280
814.833	4246
814.974	4306
815.115	4280
815.256	4276
815.397	4204
815.539	4204
815.68	4207
815.821	4223
815.962	4322
816.103	4291
816.244	4253
816.385	4246
816.526	4287
816.666	4207
816.807	4086
816.948	4173
817.089	4166
817.23	4090
817.371	4067
817.512	4040
817.653	4124
817.793	4017
817.934	4086
818.075	4105
818.216	4067
818.356	4063
818.497	4010
818.638	3926
818.778	3865
818.919	3876
819.06	3918
819.2	3922
819.341	3838
819.481	3854
819.622	3911
819.762	4021
819.903	3991
820.043	3861
820.184	3846
820.324	3819
820.465	3857
820.605	3846
820.746	3865
820.886	3759
821.026	3926
821.167	3884
821.307	3937
821.447	3975
821.588	3945
821.728	3941
821.868	3930
822.008	3854
822.149	3888
822.289	3899
822.429	3793
822.569	3724
822.709	3823
822.849	3736
822.99	3724
823.13	3740
823.27	3793
823.41	3736
823.55	3728
823.69	3732
823.83	3743
823.97	3667
824.11	3606
824.25	3610
824.389	3584
824.529	3614
824.669	3671
824.809	3682
824.949	3728
825.089	3751
825.228	3698
825.368	3564
825.508	3538
825.648	3564
825.787	3584
825.927	3625
826.067	3599
826.206	3644
826.346	3778
826.485	3808
826.625	3854
826.765	3922
826.904	3804
827.044	3584
827.183	3526
827.323	3447
827.462	3507
827.601	3409
827.741	3386
827.88	3447
828.02	3397
828.159	3466
828.298	3481
828.437	3511
828.577	3458
828.716	3587
828.855	3496
828.994	3378
829.134	3367
829.273	3397
829.412	3294
829.551	3344
829.69	3336
829.829	3424
829.968	3500
830.107	3462
830.246	3443
830.385	3359
830.524	3351
830.663	3283
830.802	3218
830.941	3169
831.08	3199
831.219	3241
831.357	3256
831.496	3370
831.635	3211
831.774	3207
831.913	3203
832.051	3142
832.19	3135
832.329	3264
832.467	3146
832.606	3104
832.744	3150
832.883	3176
833.022	3176
833.16	3272
833.299	3302
833.437	3325
833.576	3340
833.714	3412
833.852	3420
833.991	3439
834.129	3481
834.267	3412
834.406	3405
834.544	3393
834.682	3378
834.821	3374
834.959	3553
835.097	3409
835.235	3526
835.373	3488
835.511	3477
835.65	3488
835.788	3481
835.926	3409
836.064	3363
836.202	3397
836.34	3545
836.478	3614
836.615	3530
836.753	3591
836.891	3595
837.029	3606
837.167	3572
837.305	3511
837.443	3538
837.58	3473
837.718	3625
837.856	3564
837.993	3526
838.131	3568
838.269	3542
838.406	3561
838.544	3599
838.681	3416
838.819	3428
838.956	3336
839.094	3397
839.231	3435
839.369	3523
839.506	3747
839.643	3603
839.781	3488
839.918	3439
840.055	3504
840.193	3507
840.33	3530
840.467	3576
840.604	3557
840.742	3800
840.879	3568
841.016	3564
841.153	3618
841.29	3728
841.427	3675
841.564	3682
841.701	3740
841.838	3705
841.975	3686
842.112	3686
842.249	3656
842.385	3618
842.522	3831
842.659	3698
842.796	3663
842.933	3698
843.069	3682
843.206	3694
843.343	3785
843.479	3743
843.616	3808
843.752	3682
843.889	3686
844.025	3835
844.162	3698
844.298	3842
844.435	3766
844.571	3781
844.708	3873
844.844	4010
844.98	3983
845.117	3994
845.253	3922
845.389	3892
845.525	3983
845.661	3960
845.798	3926
845.934	4017
846.07	3930
846.206	4074
846.342	4101
846.478	4051
846.614	3896
846.75	3930
846.886	3880
847.022	4040
847.158	3930
847.294	3987
847.429	4002
847.565	3994
847.701	4196
847.837	3873
847.972	3827
848.108	3953
848.244	3915
848.379	3857
848.515	3827
848.65	3827
848.786	3842
848.921	3854
849.057	3930
849.192	3922
849.328	3903
849.463	3888
849.598	3869
849.734	3842
849.869	3838
850.004	3778
850.14	3827
850.275	3816
850.41	3713
850.545	3743
850.68	3785
850.815	3781
850.95	3759
851.085	3892
851.22	3861
851.355	3846
851.49	3793
851.625	3778
851.76	3762
851.895	3774
852.03	3713
852.165	3797
852.299	3812
852.434	3892
852.569	3857
852.703	3861
852.838	3922
852.973	4010
853.107	3968
853.242	3915
853.376	3838
853.511	3781
853.645	3835
853.78	3934
853.914	3884
854.048	3857
854.183	3869
854.317	3934
854.451	4078
854.585	3937
854.72	3934
854.854	4059
854.988	3926
855.122	4002
855.256	3865
855.39	4032
855.524	4105
855.658	4082
855.792	4078
855.926	4188
856.06	4162
856.194	4196
856.327	4116
856.461	4143
856.595	4116
856.729	4150
856.862	4287
856.996	4227
857.13	4310
857.263	4314
857.397	4409
857.53	4284
857.664	4303
857.797	4329
857.931	4405
858.064	4383
858.197	4440
858.331	4386
858.464	4390
858.597	4375
858.731	4451
858.864	4478
858.997	4379
859.13	4485
859.263	4550
859.396	4599
859.529	4508
859.662	4535
859.795	4497
859.928	4592
860.061	4714
860.194	4733
860.327	4596
860.46	4637
860.592	4721
860.725	4748
860.858	4740
860.99	4672
861.123	4672
861.256	4656
861.388	4763
861.521	5452
861.653	4702
861.786	4691
861.918	4725
862.05	4816
862.183	4812
862.315	4824
862.447	4919
862.58	4812
862.712	4790
862.844	4763
862.976	4835
863.108	4824
863.24	5174
863.372	4831
863.504	4847
863.636	4892
863.768	4961
863.9	4961
864.032	4873
864.164	4965
864.296	5022
864.428	5102
864.559	5132
864.691	5109
864.823	5124
864.954	5071
865.086	5128
865.217	5159
865.349	5109
865.48	5147
865.612	5155
865.743	5330
865.875	5181
866.006	5185
866.137	5273
866.269	5189
866.4	5227
866.531	5227
866.662	5193
866.793	5269
866.924	5311
867.055	5307
867.186	5292
867.317	5322
867.448	5311
867.579	5341
867.71	5353
867.841	5425
867.972	5436
868.103	5463
868.233	5478
868.364	5512
868.495	5509
868.625	5646
868.756	5779
868.886	5707
869.017	5646
869.147	5805
869.278	5950
869.408	5783
869.539	5790
869.669	5893
869.799	5889
869.929	5961
870.06	5988
870.19	6209
870.32	6175
870.45	6254
870.58	6353
870.71	6429
870.84	6467
870.97	6361
871.1	6418
871.23	6639
871.36	6627
871.489	6646
871.619	6779
871.749	6814
871.879	6814
872.008	6958
872.138	6954
872.267	7019
872.397	6989
872.526	7023
872.656	7065
872.785	7156
872.915	7369
873.044	7575
873.173	7556
873.303	7639
873.432	7742
873.561	7951
873.69	7967
873.819	8035
873.948	8157
874.077	8256
874.206	8309
874.335	8381
874.464	8659
874.593	8921
874.722	8914
874.851	9108
874.979	9268
875.108	9443
875.237	9393
875.365	9428
875.494	9652
875.623	9819
875.751	9892
875.88	9972
876.008	10154
876.136	10249
876.265	10451
876.393	10599
876.521	10675
876.65	10702
876.778	10877
876.906	10847
877.034	10946
877.162	11083
877.29	11136
877.418	11273
877.546	11395
877.674	11474
877.802	11425
877.93	11474
878.058	11615
878.185	11608
878.313	11627
878.441	11745
878.568	11577
878.696	11771
878.824	11855
878.951	11939
879.079	12030
879.206	12072
879.333	12034
879.461	11923
879.588	12072
879.715	12083
879.842	12243
879.97	12076
880.097	11885
880.224	11847
880.351	11984
880.478	11901
880.605	11878
880.732	11737
880.859	11961
880.986	11889
881.112	11828
881.239	11684
881.366	11646
881.493	11657
881.619	11551
881.746	11512
881.872	11592
881.999	11455
882.125	11440
882.252	11570
882.378	11528
882.505	11573
882.631	11303
882.757	11204
882.883	11364
883.01	11235
883.136	11227
883.262	11189
883.388	11132
883.514	11189
883.64	11086
883.766	11064
883.892	10942
884.018	10957
884.143	11083
884.269	11067
884.395	10812
884.52	10812
884.646	10801
884.772	10714
884.897	10687
885.023	10733
885.148	10729
885.274	10752
885.399	10672
885.524	10626
885.65	10588
885.775	10497
885.9	10580
886.025	10462
886.15	10527
886.275	10398
886.4	10409
886.525	10481
886.65	10375
886.775	10287
886.9	10402
887.025	10599
887.149	10390
887.274	10280
887.399	10287
887.523	10192
887.648	10124
887.773	10055
887.897	10219
888.021	10166
888.146	10040
888.27	10306
888.395	10211
888.519	10188
888.643	10204
888.767	10185
888.891	10051
889.015	10010
889.139	10010
889.263	9915
889.387	10093
889.511	10082
889.635	10131
889.759	9979
889.883	9991
890.006	9945
890.13	9998
890.254	9930
890.377	9934
890.501	9876
890.624	9899
890.748	9789
890.871	9774
890.995	9720
891.118	9781
891.241	9740
891.364	9717
891.488	9781
891.611	9816
891.734	9728
891.857	9747
891.98	9755
892.103	9717
892.226	9751
892.349	9682
892.471	9549
892.594	9481
892.717	9568
892.839	9618
892.962	9633
893.085	9663
893.207	9641
893.33	9534
893.452	9519
893.575	9534
893.697	9481
893.819	9648
893.941	9584
894.064	9580
894.186	9412
894.308	9359
894.43	9530
894.552	9576
894.674	9481
894.796	9424
894.918	9447
895.04	9405
895.161	9466
895.283	9382
895.405	9222
895.526	9214
895.648	9146
895.769	9230
895.891	9203
896.012	9291
896.134	9245
896.255	9161
896.376	9089
896.498	9188
896.619	9131
896.74	9127
896.861	9055
896.982	9222
897.103	9287
897.224	9127
897.345	9070
897.466	8998
897.587	8986
897.708	9161
897.828	8979
897.949	8941
898.07	8891
898.19	8952
898.311	8933
898.431	8906
898.552	8929
898.672	8998
898.792	8921
898.913	8887
899.033	8754
899.153	8796
899.273	8697
899.393	8724
899.513	8727
899.633	8746
899.753	8766
899.873	8682
899.993	8762
900.113	8716
900.232	8629
900.352	8606
900.472	8571
900.591	8522
900.711	8518
900.83	8488
900.95	8598
901.069	8651
901.189	8518
901.308	8457
901.427	8339
901.546	8473
901.665	8492
901.784	8423
901.904	8476
902.023	8343
902.141	8214
902.26	8275
902.379	8256
902.498	8210
902.617	8164
902.735	8259
902.854	8233
902.973	8210
903.091	8081
903.21	8206
903.328	8130
903.446	8065
903.565	8119
903.683	8084
903.801	8046
903.919	7982
904.038	8161
904.156	8077
904.274	8130
904.392	8012
904.51	8050
904.627	8073
904.745	8077
904.863	8077
904.981	7830
905.098	7890
905.216	7879
905.334	7894
905.451	7894
905.569	7868
905.686	7959
905.803	7883
905.921	7753
906.038	7856
906.155	7814
906.272	7651
906.389	7689
906.506	7696
906.623	7708
906.74	7609
906.857	7544
906.974	7533
907.091	7613
907.208	7681
907.324	7662
907.441	7571
907.557	7480
907.674	7438
907.79	7354
907.907	7327
908.023	7358
908.139	7403
908.256	7407
908.372	7358
908.488	7320
908.604	7297
908.72	7240
908.836	7232
908.952	7301
909.068	7259
909.184	7331
909.3	7312
909.415	7293
909.531	7266
909.647	7122
909.762	7122
909.878	7046
909.993	7129
910.108	7110
910.224	7118
910.339	7076
910.454	7061
910.57	6977
910.685	6943
910.8	7129
910.915	7126
911.03	7034
911.145	6916
911.259	6818
911.374	6856
911.489	6840
911.604	6779
911.718	6726
911.833	6711
911.947	6681
912.062	6635
912.176	6688
912.291	6791
912.405	6662
912.519	6821
912.633	6840
912.748	6757
912.862	6658
912.976	6582
913.09	6574
913.204	6566
913.318	6616
913.431	6665
913.545	6601
913.659	6688
913.772	6654
913.886	6589
914	6498
914.113	6593
914.226	6639
914.34	6563
914.453	6555
914.566	6551
914.68	6525
914.793	6551
914.906	6407
915.019	6399
915.132	6376
915.245	6426
915.358	6384
915.47	6456
915.583	6467
915.696	6467
915.809	6486
915.921	6555
916.034	6471
916.146	6395
916.259	6365
916.371	6509
916.483	6498
916.595	6418
916.708	6376
916.82	6388
916.932	6346
917.044	6372
917.156	6418
917.268	6365
917.38	6311
917.491	6308
917.603	6353
917.715	6376
917.826	6410
917.938	6342
918.049	6243
918.161	6384
918.272	6433
918.384	6384
918.495	6319
918.606	6289
918.717	6213
918.828	6270
918.939	6243
919.05	6159
919.161	6289
919.272	6129
919.383	6060
919.494	6315
919.604	6334
919.715	6270
919.826	6235
919.936	6232
920.047	6327
920.157	6228
920.267	6403
920.378	6365
920.488	6285
920.598	6448
920.708	6551
920.818	6509
920.928	6445
921.038	6585
921.148	6555
921.258	6338
921.368	6266
921.477	6182
921.587	6140
921.697	6091
921.806	6133
921.916	6076
922.025	5942
922.134	5901
922.244	5912
922.353	5878
922.462	5817
922.571	5798
922.68	5684
922.789	5676
922.898	5672
923.007	5657
923.116	5699
923.224	5638
923.333	5600
923.442	5627
923.55	5589
923.659	5570
923.767	5653
923.876	5512
923.984	5611
924.092	5512
924.201	5528
924.309	5551
924.417	5611
924.525	5467
924.633	5497
924.741	6220
924.849	5357
924.956	5467
925.064	5341
925.172	5273
925.279	5261
925.387	5334
925.494	5315
925.602	5417
925.709	5383
925.816	5258
925.924	5296
926.031	5337
926.138	5322
926.245	5277
926.352	5239
926.459	5330
926.566	5334
926.673	5216
926.779	5136
926.886	5090
926.993	4991
927.099	5048
927.206	4968
927.312	4938
927.419	4991
927.525	4968
927.631	4968
927.737	4908
927.843	4831
927.95	4691
928.056	4900
928.162	4828
928.267	4843
928.373	5345
928.479	4854
928.585	4694
928.69	4740
928.796	4786
928.901	4641
929.007	4599
929.112	4729
929.218	4599
929.323	4641
929.428	4527
929.533	4702
929.638	4527
929.743	4535
929.848	4584
929.953	4535
930.058	4455
930.163	4310
930.267	4348
930.372	4383
930.477	4306
930.581	4428
930.685	4375
930.79	4268
930.894	4325
930.998	4280
931.103	4379
931.207	4128
931.311	4112
931.415	4067
931.519	3922
931.623	3922
