Data from glass_V78500241_18.txt Node
Date: Wed Sep 01 19:14:37 CST 2021
User: usil
Spectrometer: V785-0024
Trigger mode: 0
Integration Time (sec): 4.000000E-1
Scans to average: 1
Nonlinearity correction enabled: false
Boxcar width: 0
Storing dark spectrum: false
XAxis mode: Wavelengths
Number of Pixels in Spectrum: 1024
>>>>>Begin Spectral Data<<<<<
801.071	3720
801.214	3724
801.356	3743
801.499	3740
801.641	3728
801.783	3789
801.926	3930
802.068	3865
802.211	3861
802.353	3907
802.496	3888
802.638	3854
802.78	3934
802.923	3945
803.065	3934
803.208	3846
803.35	3869
803.492	3907
803.635	3884
803.777	3781
803.919	3888
804.061	4219
804.204	4006
804.346	3975
804.488	3941
804.63	4006
804.773	4017
804.915	4071
805.057	4169
805.199	4051
805.341	4086
805.483	4143
805.626	4169
805.768	4128
805.91	4234
806.052	4188
806.194	4173
806.336	4379
806.478	4215
806.62	4158
806.762	4215
806.904	4253
807.046	4379
807.188	4238
807.33	4169
807.472	4280
807.614	4230
807.756	4337
807.898	4204
808.04	4265
808.182	4265
808.324	4310
808.465	4344
808.607	4474
808.749	4459
808.891	4459
809.033	4500
809.174	4390
809.316	4249
809.458	4253
809.6	4177
809.741	4181
809.883	4196
810.025	4242
810.166	4196
810.308	4238
810.45	4265
810.591	4276
810.733	4303
810.875	4577
811.016	4839
811.158	5155
811.299	5216
811.441	5318
811.582	5045
811.724	4679
811.865	4478
812.007	4451
812.148	4462
812.29	4428
812.431	4413
812.573	4421
812.714	4413
812.855	4428
812.997	4428
813.138	4478
813.279	4436
813.421	4440
813.562	4405
813.703	4348
813.845	4318
813.986	4287
814.127	4238
814.268	4253
814.41	4272
814.551	4257
814.692	4363
814.833	4314
814.974	4287
815.115	4390
815.256	4291
815.397	4249
815.539	4284
815.68	4188
815.821	4265
815.962	4360
816.103	4295
816.244	4242
816.385	4261
816.526	4337
816.666	4219
816.807	4128
816.948	4204
817.089	4204
817.23	4097
817.371	4074
817.512	4093
817.653	4048
817.793	4063
817.934	4078
818.075	4131
818.216	4093
818.356	4097
818.497	4002
818.638	3918
818.778	3922
818.919	3892
819.06	3888
819.2	3930
819.341	3854
819.481	3865
819.622	3937
819.762	3998
819.903	3979
820.043	3892
820.184	3857
820.324	3842
820.465	3911
820.605	3850
820.746	3896
820.886	3819
821.026	3941
821.167	3911
821.307	4013
821.447	4006
821.588	3972
821.728	3915
821.868	3975
822.008	3896
822.149	3941
822.289	3930
822.429	3789
822.569	3759
822.709	3819
822.849	3728
822.99	3778
823.13	3762
823.27	3800
823.41	3747
823.55	3751
823.69	3755
823.83	3759
823.97	3667
824.11	3637
824.25	3629
824.389	3610
824.529	3682
824.669	3656
824.809	3720
824.949	3781
825.089	3724
825.228	3701
825.368	3584
825.508	3584
825.648	3591
825.787	3629
825.927	3671
826.067	3622
826.206	3667
826.346	3778
826.485	3812
826.625	3869
826.765	3941
826.904	3831
827.044	3648
827.183	3568
827.323	3435
827.462	3454
827.601	3439
827.741	3469
827.88	3511
828.02	3367
828.159	3443
828.298	3504
828.437	3561
828.577	3504
828.716	3671
828.855	3477
828.994	3386
829.134	3378
829.273	3386
829.412	3359
829.551	3370
829.69	3363
829.829	3458
829.968	3545
830.107	3435
830.246	3469
830.385	3409
830.524	3393
830.663	3317
830.802	3317
830.941	3176
831.08	3165
831.219	3313
831.357	3294
831.496	3416
831.635	3264
831.774	3218
831.913	3214
832.051	3150
832.19	3142
832.329	3218
832.467	3180
832.606	3108
832.744	3157
832.883	3214
833.022	3218
833.16	3268
833.299	3317
833.437	3355
833.576	3416
833.714	3428
833.852	3466
833.991	3443
834.129	3473
834.267	3420
834.406	3435
834.544	3428
834.682	3431
834.821	3431
834.959	3580
835.097	3492
835.235	3511
835.373	3542
835.511	3511
835.65	3496
835.788	3488
835.926	3397
836.064	3348
836.202	3409
836.34	3599
836.478	3622
836.615	3561
836.753	3603
836.891	3648
837.029	3622
837.167	3580
837.305	3584
837.443	3561
837.58	3511
837.718	3553
837.856	3591
837.993	3549
838.131	3618
838.269	3614
838.406	3587
838.544	3606
838.681	3511
838.819	3428
838.956	3405
839.094	3386
839.231	3443
839.369	3561
839.506	3755
839.643	3660
839.781	3504
839.918	3458
840.055	3545
840.193	3553
840.33	3584
840.467	3591
840.604	3633
840.742	3808
840.879	3553
841.016	3587
841.153	3572
841.29	3789
841.427	3679
841.564	3751
841.701	3781
841.838	3724
841.975	3694
842.112	3728
842.249	3682
842.385	3625
842.522	3838
842.659	3717
842.796	3705
842.933	3751
843.069	3740
843.206	3743
843.343	3831
843.479	3785
843.616	3850
843.752	3667
843.889	3690
844.025	3869
844.162	3713
844.298	3922
844.435	3770
844.571	3778
844.708	3892
844.844	4010
844.98	4071
845.117	4044
845.253	3953
845.389	3892
845.525	3987
845.661	3987
845.798	3918
845.934	4025
846.07	4021
846.206	4101
846.342	4177
846.478	4086
846.614	4017
846.75	3937
846.886	3941
847.022	4105
847.158	3972
847.294	4051
847.429	4021
847.565	4032
847.701	4284
847.837	3918
847.972	3903
848.108	3987
848.244	4040
848.379	3857
848.515	3850
848.65	3778
848.786	3903
848.921	3915
849.057	3903
849.192	3956
849.328	3922
849.463	3994
849.598	3842
849.734	3861
849.869	3876
850.004	3778
850.14	3831
850.275	3762
850.41	3774
850.545	3785
850.68	3797
850.815	3831
850.95	3816
851.085	3945
851.22	3842
851.355	3842
851.49	3838
851.625	3831
851.76	3823
851.895	3759
852.03	3751
852.165	3781
852.299	3903
852.434	3861
852.569	3850
852.703	3903
852.838	3949
852.973	4032
853.107	3991
853.242	3888
853.376	3831
853.511	3785
853.645	3880
853.78	4044
853.914	3915
854.048	3922
854.183	3896
854.317	3934
854.451	4090
854.585	3918
854.72	3979
854.854	4071
854.988	3975
855.122	4048
855.256	3937
855.39	4029
855.524	4116
855.658	4139
855.792	4120
855.926	4173
856.06	4223
856.194	4280
856.327	4135
856.461	4082
856.595	4181
856.729	4181
856.862	4272
856.996	4257
857.13	4295
857.263	4322
857.397	4356
857.53	4322
857.664	4409
857.797	4440
857.931	4436
858.064	4413
858.197	4516
858.331	4405
858.464	4436
858.597	4310
858.731	4489
858.864	4459
858.997	4462
859.13	4519
859.263	4565
859.396	4611
859.529	4523
859.662	4603
859.795	4565
859.928	4584
860.061	4687
860.194	4759
860.327	4714
860.46	4679
860.592	4710
860.725	4782
860.858	4782
860.99	4729
861.123	4683
861.256	4729
861.388	4778
861.521	5433
861.653	4778
861.786	4721
861.918	4755
862.05	4797
862.183	4835
862.315	4904
862.447	4904
862.58	4881
862.712	4801
862.844	4797
862.976	4885
863.108	4870
863.24	5299
863.372	4877
863.504	4949
863.636	4881
863.768	4961
863.9	4999
864.032	4923
864.164	4942
864.296	5079
864.428	5071
864.559	5124
864.691	5151
864.823	5124
864.954	5136
865.086	5159
865.217	5147
865.349	5147
865.48	5220
865.612	5231
865.743	5315
865.875	5159
866.006	5166
866.137	5208
866.269	5273
866.4	5307
866.531	5261
866.662	5178
866.793	5311
866.924	5288
867.055	5334
867.186	5334
867.317	5330
867.448	5353
867.579	5383
867.71	5383
867.841	5429
867.972	5444
868.103	5486
868.233	5543
868.364	5535
868.495	5570
868.625	5680
868.756	5824
868.886	5745
869.017	5741
869.147	5836
869.278	5923
869.408	5844
869.539	5840
869.669	5904
869.799	5942
869.929	6053
870.06	6011
870.19	6175
870.32	6171
870.45	6289
870.58	6334
870.71	6407
870.84	6513
870.97	6464
871.1	6437
871.23	6635
871.36	6726
871.489	6696
871.619	6821
871.749	6810
871.879	6871
872.008	7008
872.138	6996
872.267	7050
872.397	6996
872.526	7069
872.656	7156
872.785	7236
872.915	7384
873.044	7510
873.173	7586
873.303	7685
873.432	7719
873.561	7906
873.69	7890
873.819	8069
873.948	8168
874.077	8298
874.206	8309
874.335	8530
874.464	8617
874.593	8819
874.722	8933
874.851	9157
874.979	9264
875.108	9401
875.237	9420
875.365	9382
875.494	9671
875.623	9755
875.751	9880
875.88	9979
876.008	10192
876.136	10325
876.265	10451
876.393	10786
876.521	10763
876.65	10847
876.778	10885
876.906	10995
877.034	10991
877.162	11105
877.29	11181
877.418	11292
877.546	11326
877.674	11501
877.802	11433
877.93	11543
878.058	11562
878.185	11608
878.313	11691
878.441	11779
878.568	11634
878.696	11802
878.824	11863
878.951	11996
879.079	11958
879.206	12239
879.333	12125
879.461	12003
879.588	12079
879.715	12079
879.842	12136
879.97	12076
880.097	11912
880.224	11863
880.351	11908
880.478	11916
880.605	11901
880.732	11821
880.859	11958
880.986	11859
881.112	11851
881.239	11760
881.366	11646
881.493	11615
881.619	11570
881.746	11615
881.872	11512
881.999	11509
882.125	11474
882.252	11577
882.378	11497
882.505	11596
882.631	11376
882.757	11269
882.883	11326
883.01	11250
883.136	11204
883.262	11094
883.388	11086
883.514	11189
883.64	11277
883.766	11136
883.892	11006
884.018	10980
884.143	11048
884.269	11090
884.395	10889
884.52	10790
884.646	10797
884.772	10683
884.897	10725
885.023	10710
885.148	10763
885.274	10809
885.399	10771
885.524	10618
885.65	10580
885.775	10607
885.9	10504
886.025	10599
886.15	10569
886.275	10478
886.4	10375
886.525	10363
886.65	10348
886.775	10356
886.9	10512
887.025	10527
887.149	10379
887.274	10188
887.399	10200
887.523	10185
887.648	10185
887.773	10120
887.897	10287
888.021	10265
888.146	10128
888.27	10261
888.395	10227
888.519	10291
888.643	10230
888.767	10173
888.891	10048
889.015	10017
889.139	10063
889.263	9895
889.387	10074
889.511	10173
889.635	10101
889.759	9899
889.883	9979
890.006	10006
890.13	10192
890.254	10002
890.377	10021
890.501	9899
890.624	9838
890.748	9926
890.871	9949
890.995	9686
891.118	9797
891.241	9778
891.364	9755
891.488	9800
891.611	9778
891.734	9774
891.857	9747
891.98	9694
892.103	9778
892.226	9675
892.349	9671
892.471	9545
892.594	9591
892.717	9637
892.839	9599
892.962	9648
893.085	9633
893.207	9652
893.33	9488
893.452	9557
893.575	9648
893.697	9538
893.819	9580
893.941	9622
894.064	9622
894.186	9469
894.308	9408
894.43	9488
894.552	9584
894.674	9515
894.796	9393
894.918	9382
895.04	9367
895.161	9435
895.283	9253
895.405	9268
895.526	9294
895.648	9169
895.769	9195
895.891	9268
896.012	9294
896.134	9214
896.255	9165
896.376	9135
896.498	9173
896.619	9146
896.74	9036
896.861	9138
896.982	9336
897.103	9283
897.224	9154
897.345	9077
897.466	9066
897.587	9081
897.708	9074
897.828	9070
897.949	8998
898.07	8861
898.19	8895
898.311	9089
898.431	8956
898.552	8861
898.672	9051
898.792	9009
898.913	8986
899.033	8823
899.153	8785
899.273	8648
899.393	8735
899.513	8762
899.633	8746
899.753	8766
899.873	8739
899.993	8743
900.113	8724
900.232	8762
900.352	8640
900.472	8579
900.591	8537
900.711	8648
900.83	8571
900.95	8693
901.069	8739
901.189	8613
901.308	8473
901.427	8412
901.546	8473
901.665	8461
901.784	8480
901.904	8412
902.023	8252
902.141	8225
902.26	8256
902.379	8279
902.498	8233
902.617	8240
902.735	8366
902.854	8271
902.973	8301
903.091	8168
903.21	8214
903.328	8195
903.446	8153
903.565	8065
903.683	8039
903.801	8024
903.919	8123
904.038	8161
904.156	8016
904.274	8176
904.392	8043
904.51	8058
904.627	8062
904.745	8035
904.863	8069
904.981	8043
905.098	7841
905.216	7879
905.334	7940
905.451	7883
905.569	7909
905.686	7989
905.803	7883
905.921	7803
906.038	7860
906.155	7769
906.272	7818
906.389	7693
906.506	7734
906.623	7594
906.74	7666
906.857	7563
906.974	7632
907.091	7712
907.208	7746
907.324	7681
907.441	7571
907.557	7491
907.674	7472
907.79	7415
907.907	7430
908.023	7495
908.139	7487
908.256	7422
908.372	7407
908.488	7316
908.604	7324
908.72	7236
908.836	7301
908.952	7236
909.068	7251
909.184	7305
909.3	7251
909.415	7282
909.531	7285
909.647	7145
909.762	7114
909.878	7084
909.993	7088
910.108	7088
910.224	7099
910.339	7110
910.454	7114
910.57	7031
910.685	7023
910.8	7149
910.915	7175
911.03	7027
911.145	6913
911.259	6886
911.374	6958
911.489	6905
911.604	6890
911.718	6700
911.833	6787
911.947	6635
912.062	6601
912.176	6726
912.291	6798
912.405	6730
912.519	6848
912.633	6844
912.748	6783
912.862	6738
912.976	6574
913.09	6521
913.204	6642
913.318	6642
913.431	6677
913.545	6703
913.659	6741
913.772	6646
913.886	6597
914	6551
914.113	6620
914.226	6593
914.34	6627
914.453	6521
914.566	6627
914.68	6627
914.793	6467
914.906	6460
915.019	6422
915.132	6422
915.245	6464
915.358	6486
915.47	6399
915.583	6437
915.696	6475
915.809	6536
915.921	6521
916.034	6357
916.146	6441
916.259	6380
916.371	6494
916.483	6475
916.595	6429
916.708	6384
916.82	6464
916.932	6452
917.044	6376
917.156	6399
917.268	6376
917.38	6350
917.491	6300
917.603	6376
917.715	6475
917.826	6506
917.938	6315
918.049	6281
918.161	6304
918.272	6441
918.384	6437
918.495	6334
918.606	6243
918.717	6281
918.828	6277
918.939	6281
919.05	6262
919.161	6334
919.272	6125
919.383	6159
919.494	6281
919.604	6433
919.715	6315
919.826	6235
919.936	6254
920.047	6350
920.157	6273
920.267	6490
920.378	6384
920.488	6270
920.598	6521
920.708	6513
920.818	6483
920.928	6532
921.038	6593
921.148	6563
921.258	6376
921.368	6300
921.477	6281
921.587	6159
921.697	6106
921.806	6152
921.916	6114
922.025	6030
922.134	5950
922.244	5935
922.353	5954
922.462	5847
922.571	5802
922.68	5661
922.789	5676
922.898	5691
923.007	5638
923.116	5726
923.224	5695
923.333	5657
923.442	5668
923.55	5619
923.659	5589
923.767	5672
923.876	5486
923.984	5608
924.092	5577
924.201	5589
924.309	5581
924.417	5539
924.525	5505
924.633	5551
924.741	6353
924.849	5387
924.956	5467
925.064	5433
925.172	5311
925.279	5364
925.387	5368
925.494	5318
925.602	5345
925.709	5436
925.816	5231
925.924	5345
926.031	5425
926.138	5349
926.245	5296
926.352	5269
926.459	5334
926.566	5322
926.673	5254
926.779	5170
926.886	5124
926.993	5048
927.099	4999
927.206	4927
927.312	4942
927.419	5003
927.525	5003
927.631	5018
927.737	4927
927.843	4896
927.95	4816
928.056	4828
928.162	4850
928.267	4904
928.373	5334
928.479	4824
928.585	4675
928.69	4778
928.796	4774
928.901	4649
929.007	4584
929.112	4675
929.218	4637
929.323	4592
929.428	4569
929.533	4736
929.638	4550
929.743	4527
929.848	4592
929.953	4554
930.058	4440
930.163	4352
930.267	4402
930.372	4451
930.477	4310
930.581	4489
930.685	4363
930.79	4280
930.894	4291
930.998	4246
931.103	4421
931.207	4154
931.311	4124
931.415	4048
931.519	3953
931.623	3918
