Data from glass_V78500241_158.txt Node
Date: Wed Sep 01 19:15:35 CST 2021
User: usil
Spectrometer: V785-0024
Trigger mode: 0
Integration Time (sec): 4.000000E-1
Scans to average: 1
Nonlinearity correction enabled: false
Boxcar width: 0
Storing dark spectrum: false
XAxis mode: Wavelengths
Number of Pixels in Spectrum: 1024
>>>>>Begin Spectral Data<<<<<
801.071	3778
801.214	3804
801.356	3755
801.499	3759
801.641	3762
801.783	3812
801.926	3850
802.068	3838
802.211	3907
802.353	3896
802.496	3869
802.638	3884
802.78	3907
802.923	3960
803.065	3869
803.208	3861
803.35	3907
803.492	3934
803.635	3922
803.777	3800
803.919	3850
804.061	4173
804.204	4013
804.346	3972
804.488	3941
804.63	4078
804.773	3930
804.915	4059
805.057	4181
805.199	4067
805.341	4067
805.483	4147
805.626	4128
805.768	4147
805.91	4227
806.052	4200
806.194	4223
806.336	4344
806.478	4207
806.62	4196
806.762	4234
806.904	4242
807.046	4337
807.188	4211
807.33	4204
807.472	4306
807.614	4196
807.756	4249
807.898	4185
808.04	4223
808.182	4295
808.324	4314
808.465	4417
808.607	4558
808.749	4481
808.891	4436
809.033	4531
809.174	4436
809.316	4261
809.458	4242
809.6	4185
809.741	4181
809.883	4150
810.025	4211
810.166	4192
810.308	4227
810.45	4246
810.591	4238
810.733	4284
810.875	4523
811.016	4839
811.158	5113
811.299	5326
811.441	5280
811.582	5098
811.724	4721
811.865	4512
812.007	4478
812.148	4455
812.29	4421
812.431	4455
812.573	4398
812.714	4413
812.855	4474
812.997	4417
813.138	4493
813.279	4451
813.421	4352
813.562	4390
813.703	4348
813.845	4325
813.986	4291
814.127	4299
814.268	4287
814.41	4303
814.551	4272
814.692	4367
814.833	4284
814.974	4329
815.115	4344
815.256	4261
815.397	4265
815.539	4280
815.68	4158
815.821	4223
815.962	4325
816.103	4329
816.244	4242
816.385	4261
816.526	4287
816.666	4230
816.807	4154
816.948	4227
817.089	4173
817.23	4139
817.371	4071
817.512	4059
817.653	4074
817.793	4071
817.934	4048
818.075	4150
818.216	4090
818.356	4059
818.497	4006
818.638	3918
818.778	3896
818.919	3823
819.06	3865
819.2	3937
819.341	3873
819.481	3854
819.622	3975
819.762	3998
819.903	3949
820.043	3896
820.184	3835
820.324	3854
820.465	3869
820.605	3838
820.746	3915
820.886	3819
821.026	3934
821.167	3972
821.307	4017
821.447	4002
821.588	3979
821.728	3918
821.868	3934
822.008	3899
822.149	3918
822.289	3915
822.429	3838
822.569	3770
822.709	3812
822.849	3751
822.99	3728
823.13	3785
823.27	3800
823.41	3724
823.55	3732
823.69	3698
823.83	3762
823.97	3717
824.11	3641
824.25	3637
824.389	3641
824.529	3679
824.669	3637
824.809	3774
824.949	3759
825.089	3762
825.228	3694
825.368	3587
825.508	3553
825.648	3606
825.787	3603
825.927	3660
826.067	3656
826.206	3709
826.346	3816
826.485	3869
826.625	3850
826.765	3994
826.904	3846
827.044	3660
827.183	3515
827.323	3439
827.462	3507
827.601	3431
827.741	3443
827.88	3462
828.02	3420
828.159	3473
828.298	3469
828.437	3564
828.577	3477
828.716	3637
828.855	3492
828.994	3409
829.134	3363
829.273	3412
829.412	3420
829.551	3397
829.69	3359
829.829	3454
829.968	3545
830.107	3447
830.246	3450
830.385	3374
830.524	3351
830.663	3302
830.802	3245
830.941	3233
831.08	3203
831.219	3279
831.357	3294
831.496	3424
831.635	3264
831.774	3192
831.913	3245
832.051	3123
832.19	3131
832.329	3195
832.467	3150
832.606	3112
832.744	3176
832.883	3184
833.022	3184
833.16	3294
833.299	3294
833.437	3344
833.576	3386
833.714	3431
833.852	3416
833.991	3458
834.129	3435
834.267	3477
834.406	3439
834.544	3397
834.682	3431
834.821	3397
834.959	3599
835.097	3435
835.235	3500
835.373	3473
835.511	3507
835.65	3485
835.788	3523
835.926	3409
836.064	3447
836.202	3431
836.34	3568
836.478	3629
836.615	3576
836.753	3606
836.891	3671
837.029	3561
837.167	3610
837.305	3549
837.443	3580
837.58	3530
837.718	3584
837.856	3564
837.993	3584
838.131	3591
838.269	3599
838.406	3599
838.544	3603
838.681	3504
838.819	3462
838.956	3435
839.094	3431
839.231	3485
839.369	3507
839.506	3766
839.643	3633
839.781	3534
839.918	3492
840.055	3542
840.193	3530
840.33	3526
840.467	3595
840.604	3591
840.742	3846
840.879	3549
841.016	3591
841.153	3633
841.29	3762
841.427	3713
841.564	3755
841.701	3751
841.838	3732
841.975	3675
842.112	3747
842.249	3648
842.385	3686
842.522	3888
842.659	3717
842.796	3671
842.933	3732
843.069	3690
843.206	3717
843.343	3869
843.479	3816
843.616	3827
843.752	3736
843.889	3698
844.025	3884
844.162	3717
844.298	3854
844.435	3816
844.571	3789
844.708	3915
844.844	4002
844.98	4036
845.117	4021
845.253	3945
845.389	3945
845.525	3926
845.661	4010
845.798	3934
845.934	3975
846.07	3930
846.206	4101
846.342	4093
846.478	4090
846.614	4010
846.75	3911
846.886	3945
847.022	4010
847.158	3983
847.294	3979
847.429	4071
847.565	3994
847.701	4234
847.837	3888
847.972	3857
848.108	4021
848.244	3998
848.379	3888
848.515	3842
848.65	3819
848.786	3857
848.921	3937
849.057	3922
849.192	3949
849.328	3937
849.463	3926
849.598	3922
849.734	3869
849.869	3850
850.004	3781
850.14	3846
850.275	3819
850.41	3797
850.545	3740
850.68	3827
850.815	3808
850.95	3823
851.085	3991
851.22	3873
851.355	3865
851.49	3762
851.625	3850
851.76	3835
851.895	3766
852.03	3747
852.165	3781
852.299	3884
852.434	3934
852.569	3831
852.703	3896
852.838	3994
852.973	4006
853.107	4044
853.242	3903
853.376	3831
853.511	3804
853.645	3846
853.78	3949
853.914	3937
854.048	3888
854.183	3915
854.317	3964
854.451	4112
854.585	3899
854.72	3956
854.854	4044
854.988	3975
855.122	4063
855.256	3926
855.39	4044
855.524	4105
855.658	4067
855.792	4124
855.926	4143
856.06	4128
856.194	4242
856.327	4147
856.461	4181
856.595	4200
856.729	4173
856.862	4265
856.996	4265
857.13	4344
857.263	4341
857.397	4344
857.53	4280
857.664	4356
857.797	4360
857.931	4432
858.064	4398
858.197	4436
858.331	4409
858.464	4405
858.597	4348
858.731	4436
858.864	4508
858.997	4413
859.13	4531
859.263	4565
859.396	4569
859.529	4546
859.662	4523
859.795	4577
859.928	4634
860.061	4721
860.194	4752
860.327	4668
860.46	4637
860.592	4744
860.725	4824
860.858	4736
860.99	4740
861.123	4664
861.256	4729
861.388	4755
861.521	5486
861.653	4729
861.786	4755
861.918	4786
862.05	4835
862.183	4854
862.315	4862
862.447	5003
862.58	4908
862.712	4805
862.844	4763
862.976	4908
863.108	4896
863.24	5277
863.372	4824
863.504	4919
863.636	4915
863.768	4957
863.9	4961
864.032	4942
864.164	4938
864.296	5018
864.428	5117
864.559	5121
864.691	5128
864.823	5121
864.954	5174
865.086	5155
865.217	5155
865.349	5090
865.48	5174
865.612	5258
865.743	5315
865.875	5193
866.006	5170
866.137	5269
866.269	5277
866.4	5204
866.531	5223
866.662	5254
866.793	5280
866.924	5280
867.055	5349
867.186	5360
867.317	5318
867.448	5299
867.579	5440
867.71	5383
867.841	5391
867.972	5467
868.103	5493
868.233	5467
868.364	5467
868.495	5554
868.625	5672
868.756	5756
868.886	5676
869.017	5771
869.147	5840
869.278	5939
869.408	5794
869.539	5863
869.669	5882
869.799	5893
869.929	6060
870.06	6015
870.19	6205
870.32	6232
870.45	6273
870.58	6357
870.71	6407
870.84	6509
870.97	6422
871.1	6517
871.23	6593
871.36	6692
871.489	6677
871.619	6760
871.749	6810
871.879	6890
872.008	7008
872.138	7023
872.267	7042
872.397	7023
872.526	7053
872.656	7088
872.785	7149
872.915	7381
873.044	7548
873.173	7609
873.303	7655
873.432	7757
873.561	7875
873.69	7932
873.819	8027
873.948	8176
874.077	8214
874.206	8358
874.335	8484
874.464	8632
874.593	8872
874.722	8944
874.851	9097
874.979	9256
875.108	9397
875.237	9389
875.365	9538
875.494	9644
875.623	9865
875.751	9800
875.88	10048
876.008	10147
876.136	10253
876.265	10565
876.393	10725
876.521	10752
876.65	10850
876.778	10892
876.906	10896
877.034	11003
877.162	11056
877.29	11204
877.418	11277
877.546	11296
877.674	11455
877.802	11463
877.93	11520
878.058	11570
878.185	11668
878.313	11741
878.441	11767
878.568	11688
878.696	11840
878.824	11817
878.951	11950
879.079	12011
879.206	12186
879.333	12110
879.461	11935
879.588	12152
879.715	12102
879.842	12323
879.97	11996
880.097	11889
880.224	11794
880.351	11874
880.478	11908
880.605	11798
880.732	11817
880.859	12003
880.986	11718
881.112	11885
881.239	11756
881.366	11722
881.493	11668
881.619	11512
881.746	11512
881.872	11512
881.999	11463
882.125	11554
882.252	11528
882.378	11417
882.505	11611
882.631	11372
882.757	11269
882.883	11402
883.01	11273
883.136	11216
883.262	11075
883.388	11094
883.514	11261
883.64	11094
883.766	11166
883.892	10957
884.018	10972
884.143	11045
884.269	11117
884.395	10923
884.52	10847
884.646	10839
884.772	10744
884.897	10603
885.023	10683
885.148	10717
885.274	10831
885.399	10748
885.524	10599
885.65	10641
885.775	10523
885.9	10546
886.025	10634
886.15	10569
886.275	10455
886.4	10382
886.525	10424
886.65	10375
886.775	10303
886.9	10470
887.025	10565
887.149	10379
887.274	10143
887.399	10276
887.523	10219
887.648	10185
887.773	10166
887.897	10207
888.021	10284
888.146	10139
888.27	10230
888.395	10268
888.519	10200
888.643	10147
888.767	10177
888.891	10078
889.015	10109
889.139	10116
889.263	9937
889.387	10124
889.511	10093
889.635	10139
889.759	10063
889.883	10013
890.006	10010
890.13	10082
890.254	9983
890.377	10032
890.501	9907
890.624	9865
890.748	9918
890.871	9793
890.995	9762
891.118	9781
891.241	9709
891.364	9728
891.488	9846
891.611	9797
891.734	9789
891.857	9793
891.98	9717
892.103	9823
892.226	9724
892.349	9701
892.471	9488
892.594	9599
892.717	9591
892.839	9667
892.962	9572
893.085	9656
893.207	9671
893.33	9587
893.452	9553
893.575	9675
893.697	9450
893.819	9587
893.941	9629
894.064	9530
894.186	9412
894.308	9488
894.43	9545
894.552	9606
894.674	9519
894.796	9397
894.918	9428
895.04	9374
895.161	9401
895.283	9332
895.405	9245
895.526	9237
895.648	9226
895.769	9169
895.891	9211
896.012	9298
896.134	9180
896.255	9154
896.376	9127
896.498	9195
896.619	9146
896.74	9089
896.861	9207
896.982	9336
897.103	9313
897.224	9123
897.345	9036
897.466	9055
897.587	9032
897.708	9138
897.828	9043
897.949	9058
898.07	8891
898.19	8849
898.311	9039
898.431	8914
898.552	8883
898.672	8998
898.792	8960
898.913	8902
899.033	8849
899.153	8819
899.273	8689
899.393	8731
899.513	8785
899.633	8800
899.753	8773
899.873	8636
899.993	8724
900.113	8739
900.232	8705
900.352	8655
900.472	8507
900.591	8560
900.711	8594
900.83	8579
900.95	8644
901.069	8712
901.189	8507
901.308	8415
901.427	8450
901.546	8454
901.665	8511
901.784	8480
901.904	8358
902.023	8381
902.141	8267
902.26	8267
902.379	8275
902.498	8233
902.617	8240
902.735	8301
902.854	8275
902.973	8263
903.091	8210
903.21	8119
903.328	8153
903.446	8157
903.565	8115
903.683	8065
903.801	8058
903.919	8073
904.038	8088
904.156	8077
904.274	8077
904.392	8050
904.51	8020
904.627	8046
904.745	8119
904.863	8088
904.981	7993
905.098	7860
905.216	7860
905.334	7955
905.451	7890
905.569	7883
905.686	7959
905.803	7947
905.921	7772
906.038	7868
906.155	7784
906.272	7647
906.389	7708
906.506	7658
906.623	7643
906.74	7552
906.857	7518
906.974	7613
907.091	7681
907.208	7731
907.324	7708
907.441	7636
907.557	7411
907.674	7476
907.79	7354
907.907	7426
908.023	7445
908.139	7438
908.256	7388
908.372	7369
908.488	7350
908.604	7327
908.72	7236
908.836	7263
908.952	7316
909.068	7270
909.184	7358
909.3	7327
909.415	7316
909.531	7266
909.647	7149
909.762	7114
909.878	7084
909.993	7076
910.108	7103
910.224	7110
910.339	7110
910.454	7080
910.57	6996
910.685	6993
910.8	7217
910.915	7118
911.03	7008
911.145	6897
911.259	6905
911.374	6916
911.489	6798
911.604	6798
911.718	6776
911.833	6730
911.947	6673
912.062	6669
912.176	6760
912.291	6734
912.405	6700
912.519	6798
912.633	6795
912.748	6741
912.862	6669
912.976	6642
913.09	6544
913.204	6566
913.318	6597
913.431	6707
913.545	6673
913.659	6741
913.772	6635
913.886	6578
914	6551
914.113	6612
914.226	6623
914.34	6650
914.453	6456
914.566	6616
914.68	6578
914.793	6494
914.906	6403
915.019	6429
915.132	6365
915.245	6407
915.358	6521
915.47	6448
915.583	6517
915.696	6460
915.809	6559
915.921	6456
916.034	6384
916.146	6422
916.259	6357
916.371	6498
916.483	6437
916.595	6388
916.708	6426
916.82	6388
916.932	6418
917.044	6353
917.156	6426
917.268	6331
917.38	6361
917.491	6372
917.603	6350
917.715	6422
917.826	6479
917.938	6342
918.049	6292
918.161	6334
918.272	6391
918.384	6528
918.495	6338
918.606	6254
918.717	6232
918.828	6262
918.939	6331
919.05	6155
919.161	6289
919.272	6125
919.383	6163
919.494	6357
919.604	6433
919.715	6266
919.826	6239
919.936	6243
920.047	6353
920.157	6327
920.267	6467
920.378	6315
920.488	6323
920.598	6483
920.708	6555
920.818	6460
920.928	6475
921.038	6646
921.148	6570
921.258	6327
921.368	6338
921.477	6235
921.587	6186
921.697	6110
921.806	6190
921.916	6083
922.025	5920
922.134	5946
922.244	5836
922.353	5965
922.462	5927
922.571	5767
922.68	5710
922.789	5703
922.898	5745
923.007	5672
923.116	5710
923.224	5707
923.333	5657
923.442	5630
923.55	5608
923.659	5585
923.767	5676
923.876	5524
923.984	5668
924.092	5501
924.201	5539
924.309	5547
924.417	5619
924.525	5505
924.633	5566
924.741	6159
924.849	5402
924.956	5532
925.064	5337
925.172	5322
925.279	5288
925.387	5425
925.494	5341
925.602	5433
925.709	5398
925.816	5296
925.924	5326
926.031	5353
926.138	5330
926.245	5318
926.352	5288
926.459	5349
926.566	5303
926.673	5288
926.779	5132
926.886	5170
926.993	5048
927.099	4987
927.206	4953
927.312	4946
927.419	5056
927.525	5033
927.631	5014
927.737	4900
927.843	4911
927.95	4858
928.056	4824
928.162	4843
928.267	4858
928.373	5334
928.479	4923
928.585	4725
928.69	4805
928.796	4782
928.901	4691
929.007	4622
929.112	4717
929.218	4664
929.323	4637
929.428	4573
929.533	4679
929.638	4489
929.743	4535
929.848	4573
929.953	4546
930.058	4455
930.163	4386
930.267	4337
930.372	4424
930.477	4344
930.581	4440
930.685	4390
930.79	4310
930.894	4310
930.998	4299
931.103	4383
931.207	4166
931.311	4067
931.415	4086
931.519	3975
931.623	3934
