Data from glass_V78500241_1584.txt Node
Date: Wed Sep 01 19:25:28 CST 2021
User: usil
Spectrometer: V785-0024
Trigger mode: 0
Integration Time (sec): 4.000000E-1
Scans to average: 1
Nonlinearity correction enabled: false
Boxcar width: 0
Storing dark spectrum: false
XAxis mode: Wavelengths
Number of Pixels in Spectrum: 1024
>>>>>Begin Spectral Data<<<<<
801.071	3682
801.214	3728
801.356	3705
801.499	3747
801.641	3705
801.783	3793
801.926	3876
802.068	3835
802.211	3835
802.353	3865
802.496	3854
802.638	3903
802.78	3922
802.923	3979
803.065	3865
803.208	3869
803.35	3896
803.492	3911
803.635	3899
803.777	3789
803.919	3941
804.061	4158
804.204	3960
804.346	3911
804.488	3934
804.63	4067
804.773	3979
804.915	4040
805.057	4112
805.199	4013
805.341	4078
805.483	4147
805.626	4055
805.768	4120
805.91	4246
806.052	4253
806.194	4192
806.336	4329
806.478	4223
806.62	4166
806.762	4147
806.904	4253
807.046	4325
807.188	4207
807.33	4200
807.472	4257
807.614	4173
807.756	4242
807.898	4196
808.04	4200
808.182	4306
808.324	4314
808.465	4375
808.607	4436
808.749	4489
808.891	4455
809.033	4421
809.174	4402
809.316	4257
809.458	4249
809.6	4116
809.741	4128
809.883	4147
810.025	4227
810.166	4207
810.308	4253
810.45	4261
810.591	4219
810.733	4276
810.875	4538
811.016	4847
811.158	5128
811.299	5280
811.441	5239
811.582	5090
811.724	4736
811.865	4474
812.007	4485
812.148	4432
812.29	4428
812.431	4402
812.573	4440
812.714	4375
812.855	4394
812.997	4443
813.138	4500
813.279	4424
813.421	4421
813.562	4405
813.703	4306
813.845	4325
813.986	4284
814.127	4238
814.268	4272
814.41	4287
814.551	4280
814.692	4329
814.833	4276
814.974	4318
815.115	4344
815.256	4249
815.397	4257
815.539	4280
815.68	4249
815.821	4204
815.962	4287
816.103	4280
816.244	4204
816.385	4242
816.526	4303
816.666	4211
816.807	4093
816.948	4139
817.089	4158
817.23	4120
817.371	4101
817.512	4029
817.653	4063
817.793	4017
817.934	4051
818.075	4112
818.216	4105
818.356	4086
818.497	3998
818.638	3903
818.778	3922
818.919	3945
819.06	3857
819.2	3930
819.341	3873
819.481	3827
819.622	3896
819.762	4002
819.903	3934
820.043	3835
820.184	3835
820.324	3838
820.465	3869
820.605	3842
820.746	3823
820.886	3808
821.026	3949
821.167	3831
821.307	3972
821.447	3998
821.588	3956
821.728	3956
821.868	3941
822.008	3873
822.149	3896
822.289	3949
822.429	3797
822.569	3812
822.709	3800
822.849	3686
822.99	3736
823.13	3720
823.27	3804
823.41	3701
823.55	3743
823.69	3675
823.83	3717
823.97	3679
824.11	3603
824.25	3568
824.389	3660
824.529	3652
824.669	3629
824.809	3690
824.949	3724
825.089	3701
825.228	3724
825.368	3549
825.508	3576
825.648	3614
825.787	3629
825.927	3641
826.067	3618
826.206	3644
826.346	3823
826.485	3823
826.625	3835
826.765	3960
826.904	3789
827.044	3641
827.183	3507
827.323	3481
827.462	3462
827.601	3439
827.741	3435
827.88	3477
828.02	3329
828.159	3424
828.298	3462
828.437	3553
828.577	3450
828.716	3591
828.855	3496
828.994	3386
829.134	3374
829.273	3389
829.412	3378
829.551	3321
829.69	3386
829.829	3439
829.968	3534
830.107	3435
830.246	3416
830.385	3409
830.524	3325
830.663	3355
830.802	3211
830.941	3203
831.08	3188
831.219	3279
831.357	3268
831.496	3393
831.635	3230
831.774	3192
831.913	3245
832.051	3131
832.19	3157
832.329	3203
832.467	3135
832.606	3119
832.744	3161
832.883	3203
833.022	3195
833.16	3249
833.299	3302
833.437	3374
833.576	3370
833.714	3416
833.852	3435
833.991	3439
834.129	3466
834.267	3424
834.406	3420
834.544	3428
834.682	3435
834.821	3458
834.959	3568
835.097	3386
835.235	3599
835.373	3534
835.511	3492
835.65	3450
835.788	3511
835.926	3374
836.064	3344
836.202	3393
836.34	3545
836.478	3618
836.615	3542
836.753	3580
836.891	3644
837.029	3629
837.167	3553
837.305	3572
837.443	3564
837.58	3492
837.718	3610
837.856	3587
837.993	3534
838.131	3595
838.269	3584
838.406	3587
838.544	3580
838.681	3473
838.819	3424
838.956	3393
839.094	3378
839.231	3458
839.369	3519
839.506	3732
839.643	3614
839.781	3473
839.918	3485
840.055	3519
840.193	3526
840.33	3515
840.467	3572
840.604	3610
840.742	3816
840.879	3526
841.016	3568
841.153	3584
841.29	3724
841.427	3705
841.564	3740
841.701	3736
841.838	3679
841.975	3728
842.112	3720
842.249	3587
842.385	3637
842.522	3838
842.659	3705
842.796	3660
842.933	3675
843.069	3698
843.206	3728
843.343	3812
843.479	3762
843.616	3797
843.752	3698
843.889	3667
844.025	3911
844.162	3671
844.298	3823
844.435	3785
844.571	3797
844.708	3876
844.844	4040
844.98	3975
845.117	3998
845.253	3907
845.389	3903
845.525	3956
845.661	3953
845.798	3915
845.934	3975
846.07	3991
846.206	4105
846.342	4128
846.478	4078
846.614	3975
846.75	3960
846.886	3911
847.022	4048
847.158	3983
847.294	3956
847.429	4036
847.565	3994
847.701	4192
847.837	3892
847.972	3896
848.108	4002
848.244	4017
848.379	3842
848.515	3846
848.65	3797
848.786	3842
848.921	3876
849.057	3907
849.192	3964
849.328	3892
849.463	3884
849.598	3918
849.734	3846
849.869	3835
850.004	3774
850.14	3789
850.275	3759
850.41	3720
850.545	3736
850.68	3800
850.815	3789
850.95	3823
851.085	3937
851.22	3880
851.355	3846
851.49	3797
851.625	3861
851.76	3823
851.895	3724
852.03	3724
852.165	3770
852.299	3861
852.434	3922
852.569	3888
852.703	3831
852.838	3918
852.973	4025
853.107	3941
853.242	3861
853.376	3854
853.511	3793
853.645	3876
853.78	3960
853.914	3884
854.048	3884
854.183	3903
854.317	3956
854.451	4048
854.585	3926
854.72	3926
854.854	4040
854.988	3968
855.122	4059
855.256	3903
855.39	4029
855.524	4074
855.658	4101
855.792	4093
855.926	4093
856.06	4188
856.194	4200
856.327	4120
856.461	4158
856.595	4131
856.729	4154
856.862	4280
856.996	4242
857.13	4303
857.263	4303
857.397	4352
857.53	4257
857.664	4367
857.797	4402
857.931	4417
858.064	4371
858.197	4455
858.331	4405
858.464	4402
858.597	4329
858.731	4462
858.864	4462
858.997	4481
859.13	4500
859.263	4527
859.396	4618
859.529	4558
859.662	4565
859.795	4508
859.928	4596
860.061	4740
860.194	4755
860.327	4645
860.46	4691
860.592	4767
860.725	4752
860.858	4793
860.99	4649
861.123	4675
861.256	4694
861.388	4771
861.521	5535
861.653	4672
861.786	4706
861.918	4714
862.05	4809
862.183	4854
862.315	4881
862.447	4949
862.58	4881
862.712	4805
862.844	4782
862.976	4881
863.108	4911
863.24	5223
863.372	4801
863.504	4862
863.636	4930
863.768	4965
863.9	4953
864.032	4908
864.164	4900
864.296	5033
864.428	5090
864.559	5113
864.691	5102
864.823	5079
864.954	5113
865.086	5212
865.217	5102
865.349	5094
865.48	5155
865.612	5170
865.743	5318
865.875	5212
866.006	5189
866.137	5231
866.269	5204
866.4	5265
866.531	5258
866.662	5235
866.793	5235
866.924	5258
867.055	5376
867.186	5372
867.317	5307
867.448	5307
867.579	5364
867.71	5360
867.841	5368
867.972	5448
868.103	5547
868.233	5520
868.364	5490
868.495	5551
868.625	5592
868.756	5786
868.886	5672
869.017	5722
869.147	5844
869.278	5813
869.408	5813
869.539	5851
869.669	5935
869.799	5973
869.929	5988
870.06	6011
870.19	6216
870.32	6114
870.45	6319
870.58	6384
870.71	6456
870.84	6517
870.97	6471
871.1	6471
871.23	6597
871.36	6768
871.489	6582
871.619	6749
871.749	6878
871.879	6920
872.008	6993
872.138	6962
872.267	6993
872.397	6970
872.526	7065
872.656	7084
872.785	7232
872.915	7381
873.044	7537
873.173	7601
873.303	7670
873.432	7761
873.561	7830
873.69	7913
873.819	8062
873.948	8157
874.077	8271
874.206	8286
874.335	8499
874.464	8682
874.593	8872
874.722	8941
874.851	9066
874.979	9233
875.108	9283
875.237	9439
875.365	9507
875.494	9637
875.623	9774
875.751	9930
875.88	9968
876.008	10139
876.136	10257
876.265	10485
876.393	10672
876.521	10748
876.65	10881
876.778	10877
876.906	10942
877.034	10949
877.162	11102
877.29	11151
877.418	11311
877.546	11395
877.674	11433
877.802	11486
877.93	11440
878.058	11608
878.185	11573
878.313	11714
878.441	11707
878.568	11722
878.696	11813
878.824	11863
878.951	11904
879.079	12041
879.206	12140
879.333	12117
879.461	11950
879.588	12072
879.715	12095
879.842	12213
879.97	12133
880.097	11916
880.224	11809
880.351	11882
880.478	11931
880.605	11798
880.732	11809
880.859	11992
880.986	11855
881.112	11809
881.239	11714
881.366	11790
881.493	11596
881.619	11501
881.746	11562
881.872	11539
881.999	11577
882.125	11486
882.252	11589
882.378	11493
882.505	11505
882.631	11410
882.757	11322
882.883	11307
883.01	11250
883.136	11201
883.262	11048
883.388	10991
883.514	11235
883.64	11220
883.766	11208
883.892	10984
884.018	10930
884.143	11079
884.269	11090
884.395	10835
884.52	10748
884.646	10820
884.772	10664
884.897	10683
885.023	10656
885.148	10687
885.274	10771
885.399	10702
885.524	10615
885.65	10558
885.775	10653
885.9	10535
886.025	10603
886.15	10580
886.275	10443
886.4	10485
886.525	10436
886.65	10386
886.775	10379
886.9	10493
887.025	10440
887.149	10390
887.274	10253
887.399	10291
887.523	10219
887.648	10147
887.773	10116
887.897	10227
888.021	10211
888.146	10109
888.27	10207
888.395	10204
888.519	10143
888.643	10223
888.767	10200
888.891	10090
889.015	10006
889.139	10063
889.263	9964
889.387	10059
889.511	10147
889.635	10051
889.759	9930
889.883	9949
890.006	10074
890.13	10143
890.254	9956
890.377	9926
890.501	9888
890.624	9873
890.748	9865
890.871	9823
890.995	9740
891.118	9698
891.241	9789
891.364	9759
891.488	9819
891.611	9728
891.734	9724
891.857	9774
891.98	9778
892.103	9766
892.226	9698
892.349	9648
892.471	9545
892.594	9603
892.717	9648
892.839	9637
892.962	9618
893.085	9587
893.207	9618
893.33	9393
893.452	9515
893.575	9622
893.697	9492
893.819	9633
893.941	9671
894.064	9625
894.186	9507
894.308	9351
894.43	9477
894.552	9667
894.674	9469
894.796	9344
894.918	9401
895.04	9351
895.161	9332
895.283	9363
895.405	9291
895.526	9264
895.648	9329
895.769	9245
895.891	9241
896.012	9302
896.134	9241
896.255	9233
896.376	9150
896.498	9173
896.619	9028
896.74	9024
896.861	9131
896.982	9207
897.103	9260
897.224	9188
897.345	8994
897.466	9043
897.587	9051
897.708	9127
897.828	8998
897.949	8971
898.07	8883
898.19	8872
898.311	9013
898.431	8914
898.552	8944
898.672	8982
898.792	8975
898.913	8899
899.033	8773
899.153	8743
899.273	8727
899.393	8693
899.513	8712
899.633	8667
899.753	8754
899.873	8727
899.993	8781
900.113	8769
900.232	8762
900.352	8670
900.472	8686
900.591	8526
900.711	8613
900.83	8522
900.95	8731
901.069	8674
901.189	8598
901.308	8423
901.427	8377
901.546	8431
901.665	8454
901.784	8495
901.904	8332
902.023	8389
902.141	8183
902.26	8172
902.379	8267
902.498	8199
902.617	8225
902.735	8317
902.854	8305
902.973	8263
903.091	8149
903.21	8138
903.328	8202
903.446	8081
903.565	8119
903.683	8092
903.801	8058
903.919	8153
904.038	8145
904.156	8088
904.274	8103
904.392	7982
904.51	8092
904.627	8039
904.745	8123
904.863	8081
904.981	7944
905.098	7940
905.216	7951
905.334	7921
905.451	7928
905.569	7894
905.686	7955
905.803	7925
905.921	7734
906.038	7875
906.155	7719
906.272	7677
906.389	7753
906.506	7666
906.623	7594
906.74	7658
906.857	7548
906.974	7502
907.091	7719
907.208	7693
907.324	7655
907.441	7582
907.557	7438
907.674	7434
907.79	7396
907.907	7422
908.023	7438
908.139	7438
908.256	7339
908.372	7381
908.488	7388
908.604	7293
908.72	7251
908.836	7221
908.952	7285
909.068	7285
909.184	7289
909.3	7297
909.415	7331
909.531	7247
909.647	7080
909.762	7118
909.878	7118
909.993	7149
910.108	7118
910.224	7099
910.339	7126
910.454	7065
910.57	6966
910.685	7031
910.8	7149
910.915	7107
911.03	7050
911.145	6867
911.259	6848
911.374	6932
911.489	6783
911.604	6764
911.718	6635
911.833	6722
911.947	6650
912.062	6566
912.176	6673
912.291	6707
912.405	6673
912.519	6760
912.633	6837
912.748	6753
912.862	6722
912.976	6604
913.09	6570
913.204	6631
913.318	6612
913.431	6642
913.545	6669
913.659	6760
913.772	6669
913.886	6547
914	6578
914.113	6608
914.226	6654
914.34	6578
914.453	6494
914.566	6658
914.68	6532
914.793	6502
914.906	6395
915.019	6410
915.132	6380
915.245	6388
915.358	6426
915.47	6433
915.583	6429
915.696	6448
915.809	6536
915.921	6566
916.034	6483
916.146	6403
916.259	6399
916.371	6471
916.483	6509
916.595	6410
916.708	6410
916.82	6414
916.932	6361
917.044	6369
917.156	6334
917.268	6350
917.38	6285
917.491	6285
917.603	6350
917.715	6380
917.826	6460
917.938	6350
918.049	6235
918.161	6369
918.272	6452
918.384	6407
918.495	6357
918.606	6277
918.717	6201
918.828	6232
918.939	6296
919.05	6175
919.161	6228
919.272	6182
919.383	6125
919.494	6262
919.604	6433
919.715	6331
919.826	6224
919.936	6186
920.047	6350
920.157	6292
920.267	6471
920.378	6338
920.488	6296
920.598	6433
920.708	6582
920.818	6471
920.928	6437
921.038	6540
921.148	6593
921.258	6353
921.368	6270
921.477	6190
921.587	6167
921.697	6087
921.806	6152
921.916	6057
922.025	5996
922.134	5912
922.244	5847
922.353	5942
922.462	5874
922.571	5783
922.68	5726
922.789	5684
922.898	5699
923.007	5611
923.116	5733
923.224	5676
923.333	5657
923.442	5623
923.55	5585
923.659	5524
923.767	5577
923.876	5566
923.984	5589
924.092	5474
924.201	5516
924.309	5570
924.417	5543
924.525	5482
924.633	5493
924.741	6110
924.849	5360
924.956	5539
925.064	5334
925.172	5296
925.279	5299
925.387	5398
925.494	5292
925.602	5429
925.709	5326
925.816	5330
925.924	5292
926.031	5406
926.138	5273
926.245	5349
926.352	5193
926.459	5345
926.566	5391
926.673	5208
926.779	5159
926.886	5113
926.993	5018
927.099	5037
927.206	4927
927.312	4949
927.419	4949
927.525	4972
927.631	5025
927.737	4915
927.843	4889
927.95	4801
928.056	4801
928.162	4828
928.267	4892
928.373	5368
928.479	4839
928.585	4706
928.69	4748
928.796	4771
928.901	4672
929.007	4603
929.112	4664
929.218	4687
929.323	4630
929.428	4596
929.533	4675
929.638	4493
929.743	4565
929.848	4538
929.953	4535
930.058	4443
930.163	4360
930.267	4379
930.372	4451
930.477	4310
930.581	4466
930.685	4402
930.79	4253
930.894	4246
930.998	4246
931.103	4402
931.207	4086
931.311	4109
931.415	4029
931.519	3964
931.623	3930
