Data from glass_V78500241_832.txt Node
Date: Wed Sep 01 19:20:16 CST 2021
User: usil
Spectrometer: V785-0024
Trigger mode: 0
Integration Time (sec): 4.000000E-1
Scans to average: 1
Nonlinearity correction enabled: false
Boxcar width: 0
Storing dark spectrum: false
XAxis mode: Wavelengths
Number of Pixels in Spectrum: 1024
>>>>>Begin Spectral Data<<<<<
801.071	3747
801.214	3747
801.356	3724
801.499	3759
801.641	3785
801.783	3819
801.926	3865
802.068	3831
802.211	3869
802.353	3903
802.496	3880
802.638	3888
802.78	3918
802.923	3953
803.065	3899
803.208	3842
803.35	3880
803.492	3903
803.635	3896
803.777	3819
803.919	3899
804.061	4135
804.204	3941
804.346	3972
804.488	3926
804.63	4082
804.773	4013
804.915	4044
805.057	4147
805.199	4036
805.341	4067
805.483	4120
805.626	4173
805.768	4116
805.91	4204
806.052	4265
806.194	4185
806.336	4318
806.478	4257
806.62	4196
806.762	4230
806.904	4223
807.046	4405
807.188	4204
807.33	4211
807.472	4204
807.614	4188
807.756	4234
807.898	4238
808.04	4242
808.182	4329
808.324	4341
808.465	4413
808.607	4481
808.749	4478
808.891	4470
809.033	4508
809.174	4402
809.316	4268
809.458	4268
809.6	4131
809.741	4147
809.883	4181
810.025	4204
810.166	4223
810.308	4268
810.45	4249
810.591	4303
810.733	4299
810.875	4558
811.016	4831
811.158	5140
811.299	5273
811.441	5318
811.582	5098
811.724	4740
811.865	4508
812.007	4478
812.148	4470
812.29	4417
812.431	4443
812.573	4451
812.714	4383
812.855	4390
812.997	4405
813.138	4466
813.279	4459
813.421	4371
813.562	4383
813.703	4375
813.845	4333
813.986	4242
814.127	4230
814.268	4246
814.41	4280
814.551	4325
814.692	4341
814.833	4223
814.974	4280
815.115	4348
815.256	4265
815.397	4265
815.539	4280
815.68	4230
815.821	4253
815.962	4291
816.103	4306
816.244	4284
816.385	4223
816.526	4287
816.666	4219
816.807	4143
816.948	4227
817.089	4158
817.23	4154
817.371	4116
817.512	4071
817.653	4120
817.793	4078
817.934	4040
818.075	4101
818.216	4093
818.356	4093
818.497	4010
818.638	3941
818.778	3896
818.919	3869
819.06	3861
819.2	3953
819.341	3899
819.481	3880
819.622	3926
819.762	4021
819.903	3994
820.043	3907
820.184	3827
820.324	3835
820.465	3873
820.605	3918
820.746	3835
820.886	3804
821.026	3941
821.167	3945
821.307	3991
821.447	3975
821.588	3998
821.728	3960
821.868	3953
822.008	3884
822.149	3922
822.289	3937
822.429	3762
822.569	3770
822.709	3816
822.849	3743
822.99	3724
823.13	3728
823.27	3823
823.41	3724
823.55	3728
823.69	3724
823.83	3720
823.97	3690
824.11	3648
824.25	3584
824.389	3633
824.529	3690
824.669	3595
824.809	3709
824.949	3755
825.089	3751
825.228	3709
825.368	3599
825.508	3545
825.648	3580
825.787	3633
825.927	3660
826.067	3633
826.206	3694
826.346	3812
826.485	3880
826.625	3861
826.765	3956
826.904	3819
827.044	3618
827.183	3523
827.323	3469
827.462	3504
827.601	3409
827.741	3431
827.88	3462
828.02	3367
828.159	3511
828.298	3492
828.437	3542
828.577	3481
828.716	3595
828.855	3530
828.994	3359
829.134	3382
829.273	3397
829.412	3389
829.551	3351
829.69	3424
829.829	3454
829.968	3519
830.107	3412
830.246	3450
830.385	3389
830.524	3374
830.663	3287
830.802	3279
830.941	3203
831.08	3195
831.219	3256
831.357	3336
831.496	3428
831.635	3279
831.774	3195
831.913	3226
832.051	3146
832.19	3142
832.329	3211
832.467	3161
832.606	3119
832.744	3184
832.883	3188
833.022	3211
833.16	3275
833.299	3336
833.437	3329
833.576	3351
833.714	3401
833.852	3466
833.991	3447
834.129	3477
834.267	3450
834.406	3386
834.544	3397
834.682	3435
834.821	3405
834.959	3580
835.097	3424
835.235	3523
835.373	3507
835.511	3515
835.65	3481
835.788	3500
835.926	3393
836.064	3378
836.202	3485
836.34	3526
836.478	3595
836.615	3561
836.753	3595
836.891	3667
837.029	3644
837.167	3625
837.305	3557
837.443	3511
837.58	3523
837.718	3584
837.856	3561
837.993	3553
838.131	3606
838.269	3610
838.406	3576
838.544	3580
838.681	3504
838.819	3466
838.956	3428
839.094	3431
839.231	3428
839.369	3496
839.506	3755
839.643	3622
839.781	3542
839.918	3447
840.055	3542
840.193	3515
840.33	3519
840.467	3538
840.604	3629
840.742	3857
840.879	3580
841.016	3584
841.153	3633
841.29	3740
841.427	3774
841.564	3701
841.701	3800
841.838	3724
841.975	3717
842.112	3705
842.249	3660
842.385	3610
842.522	3846
842.659	3679
842.796	3641
842.933	3740
843.069	3762
843.206	3766
843.343	3797
843.479	3793
843.616	3873
843.752	3743
843.889	3701
844.025	3907
844.162	3759
844.298	3850
844.435	3759
844.571	3831
844.708	3926
844.844	4021
844.98	4063
845.117	4055
845.253	3945
845.389	3930
845.525	3972
845.661	3991
845.798	3998
845.934	3983
846.07	3949
846.206	4101
846.342	4112
846.478	4090
846.614	3994
846.75	3994
846.886	3915
847.022	4048
847.158	4010
847.294	4010
847.429	4029
847.565	4017
847.701	4242
847.837	3934
847.972	3876
848.108	3994
848.244	4002
848.379	3880
848.515	3781
848.65	3838
848.786	3873
848.921	3827
849.057	3922
849.192	3960
849.328	3907
849.463	3926
849.598	3911
849.734	3846
849.869	3846
850.004	3827
850.14	3850
850.275	3762
850.41	3728
850.545	3770
850.68	3778
850.815	3804
850.95	3785
851.085	3956
851.22	3808
851.355	3888
851.49	3766
851.625	3812
851.76	3808
851.895	3747
852.03	3732
852.165	3838
852.299	3808
852.434	3949
852.569	3823
852.703	3911
852.838	3937
852.973	3979
853.107	3998
853.242	3884
853.376	3873
853.511	3789
853.645	3869
853.78	3987
853.914	3907
854.048	3880
854.183	3911
854.317	3968
854.451	4101
854.585	3945
854.72	3960
854.854	4040
854.988	3953
855.122	4051
855.256	3941
855.39	4040
855.524	4109
855.658	4097
855.792	4105
855.926	4112
856.06	4150
856.194	4242
856.327	4181
856.461	4124
856.595	4185
856.729	4204
856.862	4310
856.996	4234
857.13	4303
857.263	4352
857.397	4348
857.53	4291
857.664	4398
857.797	4413
857.931	4421
858.064	4417
858.197	4497
858.331	4363
858.464	4379
858.597	4371
858.731	4424
858.864	4504
858.997	4478
859.13	4519
859.263	4531
859.396	4588
859.529	4508
859.662	4573
859.795	4531
859.928	4618
860.061	4683
860.194	4759
860.327	4672
860.46	4668
860.592	4797
860.725	4767
860.858	4774
860.99	4752
861.123	4656
861.256	4717
861.388	4790
861.521	5398
861.653	4729
861.786	4706
861.918	4763
862.05	4763
862.183	4854
862.315	4854
862.447	4949
862.58	4911
862.712	4816
862.844	4763
862.976	4892
863.108	4866
863.24	5181
863.372	4873
863.504	4930
863.636	4949
863.768	4946
863.9	4987
864.032	4934
864.164	4938
864.296	4995
864.428	5083
864.559	5083
864.691	5170
864.823	5151
864.954	5159
865.086	5159
865.217	5159
865.349	5090
865.48	5155
865.612	5227
865.743	5292
865.875	5258
866.006	5155
866.137	5277
866.269	5235
866.4	5208
866.531	5204
866.662	5235
866.793	5265
866.924	5288
867.055	5364
867.186	5341
867.317	5353
867.448	5288
867.579	5395
867.71	5353
867.841	5429
867.972	5467
868.103	5448
868.233	5459
868.364	5463
868.495	5600
868.625	5676
868.756	5794
868.886	5688
869.017	5729
869.147	5859
869.278	5889
869.408	5828
869.539	5821
869.669	5920
869.799	5893
869.929	5980
870.06	6022
870.19	6224
870.32	6159
870.45	6228
870.58	6376
870.71	6414
870.84	6502
870.97	6464
871.1	6502
871.23	6658
871.36	6665
871.489	6681
871.619	6772
871.749	6779
871.879	6878
872.008	7012
872.138	6981
872.267	6985
872.397	7004
872.526	7114
872.656	7129
872.785	7209
872.915	7362
873.044	7586
873.173	7609
873.303	7651
873.432	7738
873.561	7902
873.69	7932
873.819	8092
873.948	8168
874.077	8206
874.206	8400
874.335	8469
874.464	8705
874.593	8876
874.722	8967
874.851	9165
874.979	9245
875.108	9348
875.237	9553
875.365	9462
875.494	9728
875.623	9930
875.751	9793
875.88	10010
876.008	10200
876.136	10284
876.265	10489
876.393	10634
876.521	10828
876.65	10831
876.778	10778
876.906	10953
877.034	10987
877.162	11083
877.29	11102
877.418	11391
877.546	11368
877.674	11482
877.802	11436
877.93	11581
878.058	11528
878.185	11592
878.313	11672
878.441	11783
878.568	11699
878.696	11767
878.824	11874
878.951	11942
879.079	12091
879.206	12083
879.333	12136
879.461	12003
879.588	12102
879.715	12068
879.842	12273
879.97	11980
880.097	11908
880.224	11874
880.351	11863
880.478	11996
880.605	11847
880.732	11821
880.859	11954
880.986	11878
881.112	11866
881.239	11760
881.366	11649
881.493	11672
881.619	11524
881.746	11516
881.872	11547
881.999	11497
882.125	11516
882.252	11547
882.378	11547
882.505	11630
882.631	11402
882.757	11269
882.883	11376
883.01	11299
883.136	11098
883.262	11090
883.388	11121
883.514	11166
883.64	11140
883.766	11132
883.892	11048
884.018	11014
884.143	11098
884.269	11086
884.395	10896
884.52	10729
884.646	10786
884.772	10729
884.897	10679
885.023	10725
885.148	10714
885.274	10801
885.399	10725
885.524	10683
885.65	10615
885.775	10649
885.9	10546
886.025	10634
886.15	10561
886.275	10519
886.4	10356
886.525	10413
886.65	10398
886.775	10322
886.9	10451
887.025	10512
887.149	10443
887.274	10223
887.399	10192
887.523	10192
887.648	10196
887.773	10128
887.897	10249
888.021	10291
888.146	10097
888.27	10257
888.395	10181
888.519	10230
888.643	10246
888.767	10219
888.891	10040
889.015	10067
889.139	10059
889.263	9994
889.387	10105
889.511	10131
889.635	10059
889.759	10010
889.883	10006
890.006	9987
890.13	10139
890.254	9979
890.377	9979
890.501	9823
890.624	9945
890.748	9850
890.871	9724
890.995	9755
891.118	9747
891.241	9781
891.364	9751
891.488	9835
891.611	9793
891.734	9778
891.857	9816
891.98	9717
892.103	9709
892.226	9720
892.349	9652
892.471	9519
892.594	9610
892.717	9663
892.839	9625
892.962	9641
893.085	9625
893.207	9614
893.33	9557
893.452	9485
893.575	9614
893.697	9492
893.819	9561
893.941	9603
894.064	9584
894.186	9439
894.308	9428
894.43	9538
894.552	9561
894.674	9618
894.796	9428
894.918	9416
895.04	9374
895.161	9416
895.283	9367
895.405	9294
895.526	9302
895.648	9226
895.769	9245
895.891	9214
896.012	9302
896.134	9253
896.255	9169
896.376	9085
896.498	9154
896.619	9097
896.74	9058
896.861	9192
896.982	9249
897.103	9241
897.224	9184
897.345	9055
897.466	9020
897.587	9047
897.708	9142
897.828	9017
897.949	8963
898.07	8929
898.19	8899
898.311	9074
898.431	8895
898.552	8925
898.672	8967
898.792	8918
898.913	8937
899.033	8883
899.153	8804
899.273	8640
899.393	8781
899.513	8872
899.633	8796
899.753	8766
899.873	8701
899.993	8826
900.113	8731
900.232	8724
900.352	8678
900.472	8629
900.591	8606
900.711	8606
900.83	8560
900.95	8670
901.069	8670
901.189	8537
901.308	8408
901.427	8408
901.546	8404
901.665	8507
901.784	8518
901.904	8385
902.023	8309
902.141	8252
902.26	8218
902.379	8298
902.498	8202
902.617	8221
902.735	8244
902.854	8282
902.973	8267
903.091	8138
903.21	8100
903.328	8153
903.446	8111
903.565	8172
903.683	8157
903.801	8054
903.919	8077
904.038	8111
904.156	8035
904.274	8096
904.392	8027
904.51	8058
904.627	8077
904.745	8058
904.863	8073
904.981	7955
905.098	7860
905.216	7879
905.334	7917
905.451	7967
905.569	7879
905.686	7906
905.803	7868
905.921	7792
906.038	7913
906.155	7803
906.272	7765
906.389	7712
906.506	7662
906.623	7632
906.74	7529
906.857	7529
906.974	7559
907.091	7616
907.208	7765
907.324	7616
907.441	7601
907.557	7502
907.674	7518
907.79	7358
907.907	7369
908.023	7491
908.139	7449
908.256	7422
908.372	7354
908.488	7419
908.604	7263
908.72	7190
908.836	7244
908.952	7236
909.068	7255
909.184	7297
909.3	7266
909.415	7339
909.531	7293
909.647	7091
909.762	7114
909.878	7088
909.993	7099
910.108	7152
910.224	7103
910.339	7057
910.454	7099
910.57	7012
910.685	7000
910.8	7194
910.915	7114
911.03	7057
911.145	6890
911.259	6875
911.374	6833
911.489	6837
911.604	6833
911.718	6700
911.833	6768
911.947	6631
912.062	6608
912.176	6715
912.291	6764
912.405	6688
912.519	6867
912.633	6772
912.748	6783
912.862	6703
912.976	6639
913.09	6589
913.204	6601
913.318	6601
913.431	6669
913.545	6707
913.659	6707
913.772	6681
913.886	6589
914	6620
914.113	6585
914.226	6650
914.34	6525
914.453	6486
914.566	6601
914.68	6532
914.793	6517
914.906	6388
915.019	6414
915.132	6338
915.245	6479
915.358	6452
915.47	6460
915.583	6471
915.696	6475
915.809	6513
915.921	6471
916.034	6426
916.146	6372
916.259	6380
916.371	6486
916.483	6456
916.595	6395
916.708	6418
916.82	6391
916.932	6403
917.044	6445
917.156	6388
917.268	6273
917.38	6353
917.491	6323
917.603	6315
917.715	6452
917.826	6445
917.938	6342
918.049	6239
918.161	6365
918.272	6410
918.384	6441
918.495	6372
918.606	6296
918.717	6194
918.828	6327
918.939	6270
919.05	6171
919.161	6308
919.272	6079
919.383	6114
919.494	6285
919.604	6426
919.715	6281
919.826	6175
919.936	6213
920.047	6372
920.157	6277
920.267	6559
920.378	6342
920.488	6300
920.598	6506
920.708	6582
920.818	6494
920.928	6471
921.038	6669
921.148	6582
921.258	6334
921.368	6338
921.477	6262
921.587	6224
921.697	6091
921.806	6194
921.916	6121
922.025	6011
922.134	5863
922.244	5958
922.353	5973
922.462	5844
922.571	5798
922.68	5695
922.789	5634
922.898	5752
923.007	5695
923.116	5718
923.224	5710
923.333	5741
923.442	5611
923.55	5600
923.659	5623
923.767	5646
923.876	5558
923.984	5600
924.092	5532
924.201	5589
924.309	5547
924.417	5585
924.525	5448
924.633	5547
924.741	6148
924.849	5387
924.956	5478
925.064	5360
925.172	5341
925.279	5303
925.387	5414
925.494	5322
925.602	5490
925.709	5398
925.816	5273
925.924	5311
926.031	5337
926.138	5311
926.245	5364
926.352	5242
926.459	5337
926.566	5315
926.673	5250
926.779	5121
926.886	5098
926.993	5052
927.099	5018
927.206	4942
927.312	5018
927.419	4991
927.525	5022
927.631	5014
927.737	4911
927.843	4889
927.95	4778
928.056	4805
928.162	4843
928.267	4824
928.373	5395
928.479	4877
928.585	4675
928.69	4778
928.796	4801
928.901	4649
929.007	4603
929.112	4683
929.218	4634
929.323	4668
929.428	4508
929.533	4656
929.638	4546
929.743	4577
929.848	4561
929.953	4554
930.058	4485
930.163	4352
930.267	4383
930.372	4455
930.477	4360
930.581	4508
930.685	4360
930.79	4280
930.894	4272
930.998	4318
931.103	4386
931.207	4120
931.311	4078
931.415	4063
931.519	3937
931.623	3968
