Data from glass_V78500241_1253.txt Node
Date: Wed Sep 01 19:23:11 CST 2021
User: usil
Spectrometer: V785-0024
Trigger mode: 0
Integration Time (sec): 4.000000E-1
Scans to average: 1
Nonlinearity correction enabled: false
Boxcar width: 0
Storing dark spectrum: false
XAxis mode: Wavelengths
Number of Pixels in Spectrum: 1024
>>>>>Begin Spectral Data<<<<<
801.071	3743
801.214	3736
801.356	3709
801.499	3751
801.641	3713
801.783	3819
801.926	3884
802.068	3819
802.211	3842
802.353	3915
802.496	3876
802.638	3850
802.78	3899
802.923	3907
803.065	3888
803.208	3854
803.35	3854
803.492	3934
803.635	3941
803.777	3800
803.919	3945
804.061	4139
804.204	3968
804.346	3926
804.488	3922
804.63	4055
804.773	3972
804.915	4013
805.057	4150
805.199	4010
805.341	4097
805.483	4158
805.626	4116
805.768	4139
805.91	4207
806.052	4272
806.194	4188
806.336	4352
806.478	4188
806.62	4162
806.762	4177
806.904	4257
807.046	4356
807.188	4192
807.33	4147
807.472	4215
807.614	4253
807.756	4234
807.898	4188
808.04	4185
808.182	4306
808.324	4337
808.465	4405
808.607	4436
808.749	4470
808.891	4466
809.033	4538
809.174	4421
809.316	4265
809.458	4287
809.6	4185
809.741	4169
809.883	4143
810.025	4207
810.166	4215
810.308	4261
810.45	4230
810.591	4200
810.733	4314
810.875	4527
811.016	4820
811.158	5090
811.299	5292
811.441	5273
811.582	5090
811.724	4710
811.865	4508
812.007	4485
812.148	4455
812.29	4409
812.431	4409
812.573	4424
812.714	4402
812.855	4443
812.997	4383
813.138	4493
813.279	4432
813.421	4386
813.562	4386
813.703	4341
813.845	4383
813.986	4287
814.127	4207
814.268	4272
814.41	4318
814.551	4280
814.692	4291
814.833	4299
814.974	4363
815.115	4360
815.256	4238
815.397	4253
815.539	4242
815.68	4227
815.821	4238
815.962	4306
816.103	4257
816.244	4238
816.385	4234
816.526	4322
816.666	4188
816.807	4090
816.948	4188
817.089	4166
817.23	4109
817.371	4059
817.512	4071
817.653	4124
817.793	4032
817.934	4071
818.075	4055
818.216	4078
818.356	4109
818.497	4002
818.638	3930
818.778	3896
818.919	3899
819.06	3903
819.2	3915
819.341	3865
819.481	3861
819.622	3937
819.762	4025
819.903	3968
820.043	3865
820.184	3857
820.324	3797
820.465	3850
820.605	3926
820.746	3869
820.886	3797
821.026	3884
821.167	3918
821.307	3987
821.447	3998
821.588	3937
821.728	3953
821.868	3926
822.008	3876
822.149	3892
822.289	3903
822.429	3793
822.569	3785
822.709	3804
822.849	3682
822.99	3728
823.13	3713
823.27	3759
823.41	3755
823.55	3724
823.69	3720
823.83	3728
823.97	3671
824.11	3648
824.25	3629
824.389	3637
824.529	3671
824.669	3629
824.809	3698
824.949	3720
825.089	3770
825.228	3690
825.368	3564
825.508	3576
825.648	3591
825.787	3629
825.927	3641
826.067	3622
826.206	3675
826.346	3835
826.485	3854
826.625	3835
826.765	3922
826.904	3880
827.044	3641
827.183	3542
827.323	3428
827.462	3507
827.601	3428
827.741	3450
827.88	3488
828.02	3386
828.159	3412
828.298	3454
828.437	3538
828.577	3485
828.716	3576
828.855	3469
828.994	3386
829.134	3416
829.273	3393
829.412	3332
829.551	3340
829.69	3378
829.829	3420
829.968	3485
830.107	3454
830.246	3450
830.385	3401
830.524	3329
830.663	3306
830.802	3256
830.941	3222
831.08	3214
831.219	3279
831.357	3268
831.496	3378
831.635	3237
831.774	3157
831.913	3230
832.051	3161
832.19	3131
832.329	3214
832.467	3161
832.606	3108
832.744	3161
832.883	3169
833.022	3188
833.16	3268
833.299	3332
833.437	3329
833.576	3351
833.714	3424
833.852	3450
833.991	3439
834.129	3469
834.267	3450
834.406	3393
834.544	3401
834.682	3424
834.821	3431
834.959	3576
835.097	3382
835.235	3584
835.373	3466
835.511	3523
835.65	3447
835.788	3481
835.926	3367
836.064	3397
836.202	3412
836.34	3603
836.478	3629
836.615	3576
836.753	3599
836.891	3648
837.029	3584
837.167	3614
837.305	3545
837.443	3561
837.58	3515
837.718	3587
837.856	3580
837.993	3526
838.131	3618
838.269	3557
838.406	3576
838.544	3595
838.681	3485
838.819	3435
838.956	3393
839.094	3409
839.231	3439
839.369	3557
839.506	3740
839.643	3663
839.781	3439
839.918	3500
840.055	3549
840.193	3515
840.33	3549
840.467	3557
840.604	3591
840.742	3823
840.879	3553
841.016	3561
841.153	3599
841.29	3789
841.427	3720
841.564	3713
841.701	3751
841.838	3728
841.975	3660
842.112	3701
842.249	3648
842.385	3614
842.522	3850
842.659	3682
842.796	3644
842.933	3698
843.069	3709
843.206	3705
843.343	3819
843.479	3762
843.616	3816
843.752	3663
843.889	3690
844.025	3823
844.162	3724
844.298	3857
844.435	3800
844.571	3747
844.708	3922
844.844	3983
844.98	4021
845.117	4002
845.253	3918
845.389	3960
845.525	3968
845.661	4040
845.798	3926
845.934	4025
846.07	3968
846.206	4071
846.342	4082
846.478	4101
846.614	3972
846.75	4013
846.886	3907
847.022	3987
847.158	3956
847.294	4010
847.429	4051
847.565	4044
847.701	4234
847.837	3876
847.972	3896
848.108	3979
848.244	3994
848.379	3850
848.515	3865
848.65	3838
848.786	3804
848.921	3907
849.057	3926
849.192	3941
849.328	3911
849.463	3899
849.598	3892
849.734	3892
849.869	3812
850.004	3774
850.14	3831
850.275	3804
850.41	3747
850.545	3789
850.68	3766
850.815	3819
850.95	3774
851.085	3953
851.22	3903
851.355	3816
851.49	3804
851.625	3797
851.76	3770
851.895	3751
852.03	3770
852.165	3846
852.299	3880
852.434	3892
852.569	3892
852.703	3857
852.838	3968
852.973	4002
853.107	4032
853.242	3911
853.376	3831
853.511	3789
853.645	3842
853.78	3994
853.914	3926
854.048	3911
854.183	3884
854.317	3949
854.451	4074
854.585	3960
854.72	3956
854.854	4051
854.988	3911
855.122	4002
855.256	3930
855.39	4040
855.524	4135
855.658	4082
855.792	4116
855.926	4143
856.06	4147
856.194	4207
856.327	4215
856.461	4169
856.595	4200
856.729	4207
856.862	4272
856.996	4242
857.13	4268
857.263	4287
857.397	4337
857.53	4325
857.664	4352
857.797	4413
857.931	4443
858.064	4402
858.197	4447
858.331	4417
858.464	4447
858.597	4322
858.731	4451
858.864	4432
858.997	4409
859.13	4493
859.263	4565
859.396	4630
859.529	4554
859.662	4554
859.795	4580
859.928	4615
860.061	4710
860.194	4744
860.327	4630
860.46	4649
860.592	4774
860.725	4759
860.858	4790
860.99	4687
861.123	4717
861.256	4694
861.388	4793
861.521	5410
861.653	4736
861.786	4721
861.918	4763
862.05	4759
862.183	4892
862.315	4877
862.447	4934
862.58	4915
862.712	4786
862.844	4767
862.976	4908
863.108	4896
863.24	5151
863.372	4839
863.504	4908
863.636	4873
863.768	4949
863.9	4980
864.032	4934
864.164	4999
864.296	4999
864.428	5086
864.559	5071
864.691	5109
864.823	5132
864.954	5083
865.086	5178
865.217	5151
865.349	5071
865.48	5159
865.612	5242
865.743	5280
865.875	5201
866.006	5212
866.137	5212
866.269	5174
866.4	5254
866.531	5242
866.662	5258
866.793	5280
866.924	5292
867.055	5368
867.186	5372
867.317	5299
867.448	5307
867.579	5395
867.71	5341
867.841	5341
867.972	5414
868.103	5493
868.233	5455
868.364	5539
868.495	5516
868.625	5695
868.756	5786
868.886	5661
869.017	5729
869.147	5889
869.278	5863
869.408	5840
869.539	5863
869.669	5942
869.799	5916
869.929	5973
870.06	5984
870.19	6251
870.32	6171
870.45	6251
870.58	6391
870.71	6448
870.84	6448
870.97	6502
871.1	6437
871.23	6597
871.36	6692
871.489	6684
871.619	6738
871.749	6768
871.879	6852
872.008	6928
872.138	6973
872.267	6993
872.397	7038
872.526	7034
872.656	7190
872.785	7228
872.915	7373
873.044	7487
873.173	7556
873.303	7666
873.432	7715
873.561	7879
873.69	7963
873.819	8039
873.948	8191
874.077	8252
874.206	8324
874.335	8461
874.464	8674
874.593	8819
874.722	8941
874.851	9138
874.979	9264
875.108	9397
875.237	9443
875.365	9511
875.494	9637
875.623	9808
875.751	9873
875.88	10025
876.008	10128
876.136	10268
876.265	10523
876.393	10679
876.521	10782
876.65	10797
876.778	10900
876.906	10892
877.034	11060
877.162	11071
877.29	11151
877.418	11303
877.546	11330
877.674	11455
877.802	11600
877.93	11573
878.058	11524
878.185	11642
878.313	11657
878.441	11836
878.568	11741
878.696	11843
878.824	11893
878.951	11908
879.079	12064
879.206	12148
879.333	12079
879.461	11992
879.588	12091
879.715	12110
879.842	12205
879.97	12045
880.097	11901
880.224	11870
880.351	11973
880.478	11859
880.605	11840
880.732	11840
880.859	12026
880.986	11870
881.112	11824
881.239	11699
881.366	11649
881.493	11634
881.619	11509
881.746	11627
881.872	11600
881.999	11532
882.125	11547
882.252	11512
882.378	11535
882.505	11558
882.631	11417
882.757	11318
882.883	11379
883.01	11299
883.136	11261
883.262	11056
883.388	11060
883.514	11216
883.64	11216
883.766	11128
883.892	10987
884.018	10995
884.143	11060
884.269	11113
884.395	10869
884.52	10843
884.646	10828
884.772	10809
884.897	10618
885.023	10729
885.148	10812
885.274	10774
885.399	10698
885.524	10653
885.65	10558
885.775	10649
885.9	10508
886.025	10573
886.15	10596
886.275	10367
886.4	10386
886.525	10474
886.65	10424
886.775	10356
886.9	10466
887.025	10466
887.149	10375
887.274	10211
887.399	10246
887.523	10169
887.648	10143
887.773	10131
887.897	10299
888.021	10230
888.146	10150
888.27	10329
888.395	10253
888.519	10147
888.643	10181
888.767	10249
888.891	10101
889.015	10021
889.139	10059
889.263	9998
889.387	10147
889.511	10124
889.635	10105
889.759	9876
889.883	9895
890.006	10071
890.13	10071
890.254	10010
890.377	10010
890.501	9903
890.624	9911
890.748	9911
890.871	9827
890.995	9831
891.118	9599
891.241	9804
891.364	9770
891.488	9819
891.611	9747
891.734	9720
891.857	9740
891.98	9709
892.103	9831
892.226	9694
892.349	9724
892.471	9576
892.594	9633
892.717	9633
892.839	9603
892.962	9679
893.085	9690
893.207	9576
893.33	9500
893.452	9538
893.575	9629
893.697	9526
893.819	9614
893.941	9686
894.064	9671
894.186	9420
894.308	9416
894.43	9519
894.552	9576
894.674	9458
894.796	9348
894.918	9378
895.04	9401
895.161	9363
895.283	9393
895.405	9260
895.526	9222
895.648	9302
895.769	9260
895.891	9294
896.012	9370
896.134	9283
896.255	9112
896.376	9161
896.498	9180
896.619	9169
896.74	9157
896.861	9154
896.982	9199
897.103	9291
897.224	9176
897.345	9043
897.466	9039
897.587	9036
897.708	9104
897.828	9081
897.949	9089
898.07	8830
898.19	8899
898.311	9051
898.431	8937
898.552	8960
898.672	8960
898.792	8952
898.913	8982
899.033	8834
899.153	8758
899.273	8655
899.393	8708
899.513	8724
899.633	8648
899.753	8735
899.873	8670
899.993	8750
900.113	8785
900.232	8746
900.352	8724
900.472	8632
900.591	8518
900.711	8602
900.83	8560
900.95	8632
901.069	8689
901.189	8610
901.308	8427
901.427	8415
901.546	8423
901.665	8450
901.784	8514
901.904	8347
902.023	8343
902.141	8191
902.26	8252
902.379	8301
902.498	8206
902.617	8172
902.735	8355
902.854	8233
902.973	8263
903.091	8195
903.21	8191
903.328	8259
903.446	8153
903.565	8054
903.683	8164
903.801	8084
903.919	8111
904.038	8130
904.156	8008
904.274	8046
904.392	8054
904.51	8058
904.627	8073
904.745	8046
904.863	8073
904.981	7902
905.098	7864
905.216	7830
905.334	7906
905.451	7936
905.569	7841
905.686	7883
905.803	7826
905.921	7788
906.038	7818
906.155	7734
906.272	7753
906.389	7780
906.506	7696
906.623	7594
906.74	7628
906.857	7575
906.974	7613
907.091	7677
907.208	7731
907.324	7658
907.441	7597
907.557	7480
907.674	7464
907.79	7358
907.907	7430
908.023	7403
908.139	7438
908.256	7373
908.372	7411
908.488	7384
908.604	7266
908.72	7259
908.836	7320
908.952	7240
909.068	7255
909.184	7362
909.3	7297
909.415	7331
909.531	7297
909.647	7099
909.762	7118
909.878	7057
909.993	7183
910.108	7110
910.224	7110
910.339	7114
910.454	7027
910.57	7004
910.685	6989
910.8	7133
910.915	7122
911.03	7057
911.145	6939
911.259	6920
911.374	6970
911.489	6825
911.604	6795
911.718	6749
911.833	6757
911.947	6654
912.062	6677
912.176	6749
912.291	6700
912.405	6707
912.519	6856
912.633	6867
912.748	6730
912.862	6669
912.976	6623
913.09	6566
913.204	6601
913.318	6601
913.431	6642
913.545	6654
913.659	6677
913.772	6669
913.886	6559
914	6506
914.113	6612
914.226	6703
914.34	6631
914.453	6517
914.566	6646
914.68	6486
914.793	6517
914.906	6437
915.019	6437
915.132	6353
915.245	6475
915.358	6479
915.47	6483
915.583	6433
915.696	6464
915.809	6513
915.921	6566
916.034	6414
916.146	6464
916.259	6403
916.371	6506
916.483	6456
916.595	6376
916.708	6403
916.82	6403
916.932	6414
917.044	6445
917.156	6426
917.268	6254
917.38	6346
917.491	6353
917.603	6391
917.715	6361
917.826	6407
917.938	6338
918.049	6224
918.161	6403
918.272	6414
918.384	6464
918.495	6338
918.606	6258
918.717	6171
918.828	6262
918.939	6304
919.05	6235
919.161	6289
919.272	6140
919.383	6148
919.494	6258
919.604	6452
919.715	6331
919.826	6228
919.936	6205
920.047	6357
920.157	6277
920.267	6426
920.378	6319
920.488	6308
920.598	6475
920.708	6521
920.818	6498
920.928	6433
921.038	6578
921.148	6540
921.258	6407
921.368	6300
921.477	6228
921.587	6251
921.697	6110
921.806	6186
921.916	6114
922.025	5965
922.134	5904
922.244	5844
922.353	5942
922.462	5855
922.571	5821
922.68	5676
922.789	5657
922.898	5752
923.007	5653
923.116	5691
923.224	5718
923.333	5684
923.442	5592
923.55	5577
923.659	5592
923.767	5630
923.876	5585
923.984	5600
924.092	5467
924.201	5570
924.309	5554
924.417	5608
924.525	5577
924.633	5543
924.741	6300
924.849	5376
924.956	5512
925.064	5330
925.172	5299
925.279	5337
925.387	5349
925.494	5368
925.602	5455
925.709	5414
925.816	5280
925.924	5341
926.031	5436
926.138	5311
926.245	5353
926.352	5212
926.459	5311
926.566	5337
926.673	5269
926.779	5170
926.886	5143
926.993	5105
927.099	5025
927.206	5010
927.312	5006
927.419	4999
927.525	5003
927.631	4972
927.737	4934
927.843	4911
927.95	4786
928.056	4843
928.162	4839
928.267	4873
928.373	5379
928.479	4835
928.585	4687
928.69	4797
928.796	4831
928.901	4721
929.007	4637
929.112	4698
929.218	4702
929.323	4607
929.428	4538
929.533	4694
929.638	4508
929.743	4535
929.848	4580
929.953	4535
930.058	4470
930.163	4325
930.267	4333
930.372	4447
930.477	4337
930.581	4508
930.685	4367
930.79	4242
930.894	4287
930.998	4230
931.103	4379
931.207	4105
931.311	4063
931.415	4055
931.519	3918
931.623	3937
