Data from glass_V78500241_1907.txt Node
Date: Wed Sep 01 19:27:43 CST 2021
User: usil
Spectrometer: V785-0024
Trigger mode: 0
Integration Time (sec): 4.000000E-1
Scans to average: 1
Nonlinearity correction enabled: false
Boxcar width: 0
Storing dark spectrum: false
XAxis mode: Wavelengths
Number of Pixels in Spectrum: 1024
>>>>>Begin Spectral Data<<<<<
801.071	3747
801.214	3766
801.356	3698
801.499	3778
801.641	3709
801.783	3770
801.926	3918
802.068	3869
802.211	3842
802.353	3896
802.496	3861
802.638	3918
802.78	3892
802.923	3941
803.065	3854
803.208	3857
803.35	3861
803.492	3911
803.635	3880
803.777	3740
803.919	3949
804.061	4169
804.204	3953
804.346	3979
804.488	3907
804.63	4055
804.773	4010
804.915	4002
805.057	4124
805.199	4017
805.341	4093
805.483	4166
805.626	4135
805.768	4116
805.91	4192
806.052	4238
806.194	4223
806.336	4352
806.478	4253
806.62	4177
806.762	4207
806.904	4234
807.046	4337
807.188	4207
807.33	4181
807.472	4192
807.614	4185
807.756	4257
807.898	4154
808.04	4230
808.182	4314
808.324	4337
808.465	4386
808.607	4451
808.749	4459
808.891	4489
809.033	4550
809.174	4371
809.316	4261
809.458	4219
809.6	4154
809.741	4143
809.883	4139
810.025	4211
810.166	4215
810.308	4185
810.45	4230
810.591	4230
810.733	4299
810.875	4554
811.016	4748
811.158	5140
811.299	5311
811.441	5250
811.582	5079
811.724	4736
811.865	4474
812.007	4451
812.148	4413
812.29	4409
812.431	4432
812.573	4436
812.714	4428
812.855	4383
812.997	4409
813.138	4451
813.279	4413
813.421	4333
813.562	4379
813.703	4310
813.845	4394
813.986	4265
814.127	4196
814.268	4276
814.41	4246
814.551	4329
814.692	4367
814.833	4265
814.974	4287
815.115	4348
815.256	4211
815.397	4192
815.539	4230
815.68	4211
815.821	4257
815.962	4329
816.103	4306
816.244	4242
816.385	4253
816.526	4276
816.666	4223
816.807	4116
816.948	4181
817.089	4196
817.23	4120
817.371	4082
817.512	4036
817.653	4101
817.793	4032
817.934	4074
818.075	4086
818.216	4036
818.356	4074
818.497	3983
818.638	3892
818.778	3892
818.919	3861
819.06	3842
819.2	3930
819.341	3850
819.481	3827
819.622	3861
819.762	3998
819.903	3937
820.043	3873
820.184	3789
820.324	3827
820.465	3873
820.605	3850
820.746	3861
820.886	3778
821.026	3918
821.167	3918
821.307	3964
821.447	3960
821.588	3945
821.728	3907
821.868	3907
822.008	3835
822.149	3915
822.289	3922
822.429	3755
822.569	3785
822.709	3781
822.849	3694
822.99	3732
823.13	3732
823.27	3766
823.41	3701
823.55	3774
823.69	3705
823.83	3724
823.97	3667
824.11	3633
824.25	3603
824.389	3637
824.529	3682
824.669	3648
824.809	3686
824.949	3713
825.089	3751
825.228	3679
825.368	3587
825.508	3576
825.648	3614
825.787	3553
825.927	3622
826.067	3603
826.206	3690
826.346	3751
826.485	3793
826.625	3854
826.765	3918
826.904	3789
827.044	3603
827.183	3526
827.323	3447
827.462	3458
827.601	3409
827.741	3450
827.88	3469
828.02	3370
828.159	3435
828.298	3488
828.437	3519
828.577	3469
828.716	3561
828.855	3492
828.994	3367
829.134	3389
829.273	3386
829.412	3359
829.551	3344
829.69	3367
829.829	3450
829.968	3523
830.107	3447
830.246	3424
830.385	3378
830.524	3336
830.663	3275
830.802	3249
830.941	3154
831.08	3195
831.219	3294
831.357	3260
831.496	3424
831.635	3192
831.774	3203
831.913	3195
832.051	3100
832.19	3165
832.329	3207
832.467	3123
832.606	3116
832.744	3169
832.883	3192
833.022	3169
833.16	3253
833.299	3317
833.437	3340
833.576	3359
833.714	3420
833.852	3431
833.991	3420
834.129	3481
834.267	3447
834.406	3329
834.544	3462
834.682	3447
834.821	3401
834.959	3576
835.097	3447
835.235	3553
835.373	3534
835.511	3492
835.65	3473
835.788	3485
835.926	3435
836.064	3374
836.202	3397
836.34	3557
836.478	3587
836.615	3538
836.753	3606
836.891	3652
837.029	3584
837.167	3591
837.305	3549
837.443	3534
837.58	3481
837.718	3603
837.856	3538
837.993	3545
838.131	3584
838.269	3587
838.406	3580
838.544	3534
838.681	3447
838.819	3443
838.956	3367
839.094	3393
839.231	3435
839.369	3500
839.506	3705
839.643	3648
839.781	3515
839.918	3504
840.055	3534
840.193	3496
840.33	3519
840.467	3580
840.604	3614
840.742	3781
840.879	3523
841.016	3553
841.153	3587
841.29	3728
841.427	3663
841.564	3732
841.701	3755
841.838	3686
841.975	3637
842.112	3713
842.249	3648
842.385	3633
842.522	3842
842.659	3644
842.796	3705
842.933	3671
843.069	3667
843.206	3713
843.343	3785
843.479	3800
843.616	3812
843.752	3641
843.889	3663
844.025	3812
844.162	3686
844.298	3854
844.435	3823
844.571	3766
844.708	3880
844.844	4013
844.98	3998
845.117	4013
845.253	3953
845.389	3846
845.525	3953
845.661	3968
845.798	3915
845.934	3983
846.07	3964
846.206	4032
846.342	4101
846.478	4021
846.614	3979
846.75	3930
846.886	3892
847.022	3987
847.158	3972
847.294	3987
847.429	3987
847.565	4002
847.701	4207
847.837	3911
847.972	3835
848.108	3979
848.244	3964
848.379	3888
848.515	3785
848.65	3838
848.786	3876
848.921	3827
849.057	3926
849.192	3915
849.328	3873
849.463	3915
849.598	3907
849.734	3896
849.869	3804
850.004	3789
850.14	3831
850.275	3812
850.41	3717
850.545	3762
850.68	3838
850.815	3850
850.95	3785
851.085	3884
851.22	3888
851.355	3838
851.49	3812
851.625	3736
851.76	3797
851.895	3740
852.03	3698
852.165	3781
852.299	3850
852.434	3903
852.569	3846
852.703	3861
852.838	3899
852.973	3964
853.107	4040
853.242	3896
853.376	3838
853.511	3781
853.645	3804
853.78	3998
853.914	3869
854.048	3888
854.183	3888
854.317	3903
854.451	4044
854.585	3968
854.72	3949
854.854	4044
854.988	3899
855.122	4013
855.256	3934
855.39	4032
855.524	4131
855.658	4120
855.792	4105
855.926	4112
856.06	4158
856.194	4207
856.327	4154
856.461	4120
856.595	4173
856.729	4181
856.862	4295
856.996	4192
857.13	4276
857.263	4333
857.397	4356
857.53	4310
857.664	4363
857.797	4375
857.931	4447
858.064	4405
858.197	4466
858.331	4367
858.464	4421
858.597	4390
858.731	4432
858.864	4459
858.997	4489
859.13	4504
859.263	4523
859.396	4561
859.529	4481
859.662	4538
859.795	4462
859.928	4596
860.061	4694
860.194	4706
860.327	4656
860.46	4626
860.592	4694
860.725	4763
860.858	4824
860.99	4664
861.123	4706
861.256	4733
861.388	4755
861.521	5395
861.653	4748
861.786	4679
861.918	4706
862.05	4812
862.183	4854
862.315	4850
862.447	4984
862.58	4908
862.712	4835
862.844	4812
862.976	4881
863.108	4896
863.24	5189
863.372	4858
863.504	4915
863.636	4892
863.768	4995
863.9	4999
864.032	4915
864.164	4995
864.296	5045
864.428	5067
864.559	5098
864.691	5105
864.823	5083
864.954	4980
865.086	5109
865.217	5090
865.349	5086
865.48	5170
865.612	5181
865.743	5303
865.875	5193
866.006	5174
866.137	5189
866.269	5235
866.4	5239
866.531	5235
866.662	5227
866.793	5261
866.924	5296
867.055	5299
867.186	5315
867.317	5261
867.448	5231
867.579	5364
867.71	5357
867.841	5376
867.972	5493
868.103	5433
868.233	5539
868.364	5474
868.495	5562
868.625	5691
868.756	5756
868.886	5695
869.017	5733
869.147	5847
869.278	5893
869.408	5824
869.539	5790
869.669	5859
869.799	5904
869.929	6030
870.06	6022
870.19	6232
870.32	6171
870.45	6270
870.58	6338
870.71	6384
870.84	6433
870.97	6395
871.1	6479
871.23	6639
871.36	6669
871.489	6635
871.619	6719
871.749	6821
871.879	6897
872.008	7046
872.138	6943
872.267	6962
872.397	6981
872.526	7042
872.656	7080
872.785	7213
872.915	7373
873.044	7544
873.173	7563
873.303	7647
873.432	7746
873.561	7898
873.69	7875
873.819	7993
873.948	8229
874.077	8218
874.206	8290
874.335	8415
874.464	8617
874.593	8895
874.722	8963
874.851	9119
874.979	9203
875.108	9397
875.237	9416
875.365	9428
875.494	9587
875.623	9835
875.751	9873
875.88	9975
876.008	10063
876.136	10322
876.265	10443
876.393	10675
876.521	10706
876.65	10786
876.778	10858
876.906	10953
877.034	10972
877.162	11037
877.29	11056
877.418	11284
877.546	11337
877.674	11360
877.802	11524
877.93	11425
878.058	11562
878.185	11444
878.313	11551
878.441	11802
878.568	11661
878.696	11889
878.824	11786
878.951	11946
879.079	12022
879.206	12121
879.333	11969
879.461	12003
879.588	12060
879.715	12011
879.842	12220
879.97	12026
880.097	11935
880.224	11897
880.351	11859
880.478	11874
880.605	11779
880.732	11813
880.859	12015
880.986	11882
881.112	11809
881.239	11718
881.366	11707
881.493	11611
881.619	11543
881.746	11551
881.872	11562
881.999	11528
882.125	11493
882.252	11520
882.378	11436
882.505	11604
882.631	11334
882.757	11299
882.883	11322
883.01	11318
883.136	11197
883.262	11166
883.388	11029
883.514	11220
883.64	11239
883.766	11079
883.892	10965
884.018	10984
884.143	11029
884.269	11132
884.395	10828
884.52	10790
884.646	10816
884.772	10774
884.897	10634
885.023	10683
885.148	10687
885.274	10801
885.399	10706
885.524	10759
885.65	10573
885.775	10531
885.9	10603
886.025	10508
886.15	10546
886.275	10409
886.4	10440
886.525	10379
886.65	10360
886.775	10344
886.9	10565
887.025	10500
887.149	10337
887.274	10253
887.399	10230
887.523	10173
887.648	10162
887.773	10109
887.897	10246
888.021	10162
888.146	10131
888.27	10261
888.395	10177
888.519	10082
888.643	10242
888.767	10143
888.891	10109
889.015	9994
889.139	10006
889.263	10025
889.387	10006
889.511	10093
889.635	10112
889.759	9991
889.883	9926
890.006	9998
890.13	10086
890.254	9968
890.377	10021
890.501	9846
890.624	9892
890.748	9903
890.871	9766
890.995	9759
891.118	9717
891.241	9793
891.364	9690
891.488	9797
891.611	9751
891.734	9781
891.857	9766
891.98	9652
892.103	9831
892.226	9679
892.349	9625
892.471	9507
892.594	9561
892.717	9622
892.839	9568
892.962	9633
893.085	9584
893.207	9538
893.33	9500
893.452	9599
893.575	9519
893.697	9473
893.819	9603
893.941	9675
894.064	9637
894.186	9401
894.308	9367
894.43	9515
894.552	9545
894.674	9568
894.796	9363
894.918	9378
895.04	9317
895.161	9359
895.283	9401
895.405	9253
895.526	9214
895.648	9253
895.769	9230
895.891	9321
896.012	9230
896.134	9207
896.255	9157
896.376	9169
896.498	9150
896.619	9116
896.74	9138
896.861	9074
896.982	9214
897.103	9321
897.224	9127
897.345	9066
897.466	8998
897.587	9013
897.708	9036
897.828	8986
897.949	8929
898.07	8849
898.19	8944
898.311	9051
898.431	8891
898.552	8902
898.672	9020
898.792	8880
898.913	9013
899.033	8807
899.153	8705
899.273	8670
899.393	8720
899.513	8720
899.633	8678
899.753	8766
899.873	8667
899.993	8746
900.113	8651
900.232	8739
900.352	8621
900.472	8571
900.591	8549
900.711	8583
900.83	8503
900.95	8678
901.069	8640
901.189	8480
901.308	8385
901.427	8457
901.546	8377
901.665	8469
901.784	8465
901.904	8370
902.023	8347
902.141	8195
902.26	8183
902.379	8279
902.498	8199
902.617	8100
902.735	8294
902.854	8282
902.973	8263
903.091	8012
903.21	8096
903.328	8153
903.446	8035
903.565	8073
903.683	8088
903.801	7986
903.919	8103
904.038	8077
904.156	8107
904.274	8077
904.392	8008
904.51	8062
904.627	8092
904.745	8065
904.863	8046
904.981	7963
905.098	7814
905.216	7784
905.334	7913
905.451	7894
905.569	7887
905.686	7940
905.803	7879
905.921	7830
906.038	7875
906.155	7769
906.272	7681
906.389	7677
906.506	7609
906.623	7689
906.74	7632
906.857	7548
906.974	7586
907.091	7666
907.208	7784
907.324	7666
907.441	7571
907.557	7457
907.674	7457
907.79	7403
907.907	7422
908.023	7415
908.139	7438
908.256	7407
908.372	7365
908.488	7377
908.604	7266
908.72	7289
908.836	7247
908.952	7236
909.068	7240
909.184	7320
909.3	7255
909.415	7301
909.531	7270
909.647	7076
909.762	7114
909.878	7080
909.993	7088
910.108	7076
910.224	7065
910.339	7046
910.454	7023
910.57	7015
910.685	6897
910.8	7183
910.915	7095
911.03	7019
911.145	6875
911.259	6882
911.374	6905
911.489	6779
911.604	6818
911.718	6662
911.833	6738
911.947	6635
912.062	6566
912.176	6688
912.291	6688
912.405	6703
912.519	6795
912.633	6837
912.748	6707
912.862	6654
912.976	6547
913.09	6547
913.204	6582
913.318	6631
913.431	6608
913.545	6639
913.659	6681
913.772	6665
913.886	6525
914	6547
914.113	6601
914.226	6604
914.34	6574
914.453	6467
914.566	6540
914.68	6490
914.793	6544
914.906	6372
915.019	6422
915.132	6376
915.245	6441
915.358	6445
915.47	6464
915.583	6429
915.696	6445
915.809	6536
915.921	6563
916.034	6384
916.146	6452
916.259	6388
916.371	6509
916.483	6433
916.595	6376
916.708	6422
916.82	6414
916.932	6403
917.044	6407
917.156	6380
917.268	6304
917.38	6361
917.491	6350
917.603	6365
917.715	6384
917.826	6410
917.938	6323
918.049	6254
918.161	6315
918.272	6395
918.384	6437
918.495	6323
918.606	6296
918.717	6243
918.828	6262
918.939	6258
919.05	6197
919.161	6228
919.272	6152
919.383	6155
919.494	6296
919.604	6399
919.715	6254
919.826	6220
919.936	6281
920.047	6277
920.157	6296
920.267	6410
920.378	6296
920.488	6334
920.598	6460
920.708	6528
920.818	6467
920.928	6490
921.038	6555
921.148	6528
921.258	6346
921.368	6296
921.477	6228
921.587	6159
921.697	6098
921.806	6197
921.916	6072
922.025	5965
922.134	5923
922.244	5897
922.353	5961
922.462	5798
922.571	5847
922.68	5714
922.789	5665
922.898	5649
923.007	5653
923.116	5733
923.224	5672
923.333	5699
923.442	5573
923.55	5535
923.659	5596
923.767	5619
923.876	5570
923.984	5619
924.092	5478
924.201	5562
924.309	5562
924.417	5547
924.525	5505
924.633	5516
924.741	6213
924.849	5296
924.956	5509
925.064	5364
925.172	5311
925.279	5303
925.387	5303
925.494	5337
925.602	5433
925.709	5334
925.816	5315
925.924	5318
926.031	5414
926.138	5311
926.245	5364
926.352	5208
926.459	5341
926.566	5269
926.673	5170
926.779	5102
926.886	5124
926.993	5052
927.099	5014
927.206	4957
927.312	4934
927.419	4953
927.525	5006
927.631	4972
927.737	4938
927.843	4854
927.95	4778
928.056	4839
928.162	4748
928.267	4831
928.373	5307
928.479	4828
928.585	4679
928.69	4752
928.796	4771
928.901	4645
929.007	4592
929.112	4626
929.218	4656
929.323	4584
929.428	4561
929.533	4653
929.638	4516
929.743	4516
929.848	4523
929.953	4497
930.058	4436
930.163	4295
930.267	4394
930.372	4432
930.477	4268
930.581	4447
930.685	4398
930.79	4284
930.894	4272
930.998	4242
931.103	4344
931.207	4120
931.311	4074
931.415	4032
931.519	3892
931.623	3915
