Data from glass_V78500241_2257.txt Node
Date: Wed Sep 01 19:30:08 CST 2021
User: usil
Spectrometer: V785-0024
Trigger mode: 0
Integration Time (sec): 4.000000E-1
Scans to average: 1
Nonlinearity correction enabled: false
Boxcar width: 0
Storing dark spectrum: false
XAxis mode: Wavelengths
Number of Pixels in Spectrum: 1024
>>>>>Begin Spectral Data<<<<<
801.071	3720
801.214	3804
801.356	3694
801.499	3774
801.641	3724
801.783	3793
801.926	3804
802.068	3800
802.211	3865
802.353	3876
802.496	3835
802.638	3857
802.78	3915
802.923	3896
803.065	3873
803.208	3861
803.35	3880
803.492	3911
803.635	3903
803.777	3831
803.919	3892
804.061	4135
804.204	3934
804.346	3934
804.488	3880
804.63	4029
804.773	3918
804.915	4029
805.057	4093
805.199	3998
805.341	4090
805.483	4128
805.626	4143
805.768	4124
805.91	4177
806.052	4204
806.194	4135
806.336	4314
806.478	4207
806.62	4154
806.762	4211
806.904	4268
807.046	4337
807.188	4188
807.33	4169
807.472	4253
807.614	4185
807.756	4284
807.898	4211
808.04	4215
808.182	4276
808.324	4295
808.465	4371
808.607	4424
808.749	4440
808.891	4447
809.033	4504
809.174	4417
809.316	4223
809.458	4246
809.6	4143
809.741	4116
809.883	4120
810.025	4166
810.166	4166
810.308	4219
810.45	4200
810.591	4204
810.733	4299
810.875	4489
811.016	4839
811.158	5124
811.299	5261
811.441	5277
811.582	5067
811.724	4778
811.865	4485
812.007	4478
812.148	4398
812.29	4443
812.431	4363
812.573	4398
812.714	4360
812.855	4413
812.997	4436
813.138	4500
813.279	4421
813.421	4394
813.562	4428
813.703	4295
813.845	4314
813.986	4268
814.127	4196
814.268	4253
814.41	4253
814.551	4272
814.692	4333
814.833	4272
814.974	4306
815.115	4276
815.256	4238
815.397	4223
815.539	4253
815.68	4204
815.821	4162
815.962	4306
816.103	4272
816.244	4230
816.385	4257
816.526	4268
816.666	4207
816.807	4051
816.948	4158
817.089	4177
817.23	4090
817.371	4067
817.512	4074
817.653	4112
817.793	4097
817.934	4071
818.075	4078
818.216	4071
818.356	4048
818.497	3998
818.638	3846
818.778	3911
818.919	3896
819.06	3857
819.2	3922
819.341	3823
819.481	3835
819.622	3876
819.762	4013
819.903	3956
820.043	3846
820.184	3804
820.324	3819
820.465	3827
820.605	3835
820.746	3869
820.886	3736
821.026	3934
821.167	3911
821.307	3937
821.447	3983
821.588	3945
821.728	3926
821.868	3907
822.008	3846
822.149	3888
822.289	3918
822.429	3759
822.569	3751
822.709	3766
822.849	3656
822.99	3743
823.13	3720
823.27	3781
823.41	3679
823.55	3781
823.69	3728
823.83	3751
823.97	3633
824.11	3625
824.25	3587
824.389	3591
824.529	3656
824.669	3584
824.809	3675
824.949	3747
825.089	3747
825.228	3686
825.368	3557
825.508	3572
825.648	3584
825.787	3591
825.927	3622
826.067	3610
826.206	3622
826.346	3736
826.485	3808
826.625	3892
826.765	3956
826.904	3842
827.044	3648
827.183	3458
827.323	3435
827.462	3500
827.601	3439
827.741	3431
827.88	3435
828.02	3405
828.159	3405
828.298	3454
828.437	3519
828.577	3469
828.716	3580
828.855	3496
828.994	3367
829.134	3405
829.273	3405
829.412	3313
829.551	3306
829.69	3351
829.829	3416
829.968	3511
830.107	3439
830.246	3450
830.385	3363
830.524	3386
830.663	3329
830.802	3226
830.941	3184
831.08	3184
831.219	3264
831.357	3245
831.496	3397
831.635	3245
831.774	3207
831.913	3165
832.051	3089
832.19	3146
832.329	3161
832.467	3108
832.606	3097
832.744	3169
832.883	3161
833.022	3192
833.16	3222
833.299	3310
833.437	3355
833.576	3359
833.714	3382
833.852	3401
833.991	3496
834.129	3473
834.267	3409
834.406	3462
834.544	3435
834.682	3443
834.821	3351
834.959	3523
835.097	3393
835.235	3534
835.373	3439
835.511	3485
835.65	3488
835.788	3466
835.926	3374
836.064	3340
836.202	3393
836.34	3545
836.478	3614
836.615	3519
836.753	3584
836.891	3644
837.029	3660
837.167	3561
837.305	3538
837.443	3496
837.58	3530
837.718	3606
837.856	3606
837.993	3515
838.131	3576
838.269	3564
838.406	3584
838.544	3530
838.681	3481
838.819	3492
838.956	3370
839.094	3401
839.231	3450
839.369	3519
839.506	3709
839.643	3622
839.781	3507
839.918	3447
840.055	3519
840.193	3530
840.33	3534
840.467	3557
840.604	3606
840.742	3800
840.879	3572
841.016	3553
841.153	3584
841.29	3770
841.427	3709
841.564	3690
841.701	3736
841.838	3675
841.975	3679
842.112	3728
842.249	3625
842.385	3656
842.522	3857
842.659	3667
842.796	3686
842.933	3690
843.069	3709
843.206	3740
843.343	3766
843.479	3762
843.616	3781
843.752	3663
843.889	3705
844.025	3865
844.162	3728
844.298	3827
844.435	3781
844.571	3743
844.708	3907
844.844	4017
844.98	3994
845.117	3991
845.253	3922
845.389	3934
845.525	3941
845.661	3953
845.798	3926
845.934	3991
846.07	3964
846.206	4044
846.342	4128
846.478	4071
846.614	3926
846.75	3930
846.886	3907
847.022	3994
847.158	3960
847.294	3991
847.429	3983
847.565	4021
847.701	4242
847.837	3892
847.972	3911
848.108	3983
848.244	3960
848.379	3865
848.515	3800
848.65	3781
848.786	3850
848.921	3869
849.057	3899
849.192	3964
849.328	3930
849.463	3937
849.598	3888
849.734	3880
849.869	3850
850.004	3781
850.14	3774
850.275	3789
850.41	3682
850.545	3770
850.68	3759
850.815	3812
850.95	3759
851.085	3918
851.22	3876
851.355	3831
851.49	3812
851.625	3740
851.76	3736
851.895	3717
852.03	3705
852.165	3781
852.299	3808
852.434	3876
852.569	3816
852.703	3888
852.838	3915
852.973	4010
853.107	3972
853.242	3869
853.376	3861
853.511	3740
853.645	3827
853.78	3949
853.914	3915
854.048	3915
854.183	3876
854.317	3945
854.451	4090
854.585	3945
854.72	3953
854.854	4078
854.988	3930
855.122	3979
855.256	3911
855.39	3991
855.524	4074
855.658	4032
855.792	4082
855.926	4181
856.06	4131
856.194	4154
856.327	4162
856.461	4124
856.595	4147
856.729	4177
856.862	4318
856.996	4265
857.13	4284
857.263	4333
857.397	4337
857.53	4276
857.664	4337
857.797	4402
857.931	4390
858.064	4383
858.197	4459
858.331	4375
858.464	4409
858.597	4329
858.731	4413
858.864	4432
858.997	4428
859.13	4497
859.263	4558
859.396	4592
859.529	4489
859.662	4550
859.795	4493
859.928	4558
860.061	4679
860.194	4748
860.327	4634
860.46	4637
860.592	4710
860.725	4721
860.858	4729
860.99	4660
861.123	4729
861.256	4637
861.388	4752
861.521	5410
861.653	4717
861.786	4694
861.918	4721
862.05	4767
862.183	4793
862.315	4889
862.447	4923
862.58	4904
862.712	4782
862.844	4759
862.976	4892
863.108	4812
863.24	5174
863.372	4771
863.504	4877
863.636	4858
863.768	4919
863.9	4953
864.032	4900
864.164	4930
864.296	5071
864.428	5033
864.559	5136
864.691	5083
864.823	5124
864.954	5102
865.086	5132
865.217	5113
865.349	5147
865.48	5174
865.612	5181
865.743	5269
865.875	5189
866.006	5174
866.137	5246
866.269	5231
866.4	5258
866.531	5197
866.662	5273
866.793	5261
866.924	5288
867.055	5315
867.186	5341
867.317	5311
867.448	5296
867.579	5368
867.71	5353
867.841	5417
867.972	5455
868.103	5429
868.233	5505
868.364	5505
868.495	5524
868.625	5649
868.756	5794
868.886	5657
869.017	5760
869.147	5912
869.278	5836
869.408	5718
869.539	5836
869.669	5920
869.799	5912
869.929	6053
870.06	6076
870.19	6152
870.32	6190
870.45	6235
870.58	6353
870.71	6433
870.84	6498
870.97	6384
871.1	6376
871.23	6589
871.36	6673
871.489	6589
871.619	6730
871.749	6802
871.879	6844
872.008	6981
872.138	6935
872.267	7034
872.397	6970
872.526	7000
872.656	7137
872.785	7274
872.915	7419
873.044	7559
873.173	7575
873.303	7628
873.432	7734
873.561	7826
873.69	7947
873.819	7978
873.948	8142
874.077	8259
874.206	8343
874.335	8461
874.464	8659
874.593	8861
874.722	8994
874.851	9100
874.979	9169
875.108	9420
875.237	9405
875.365	9447
875.494	9599
875.623	9762
875.751	9812
875.88	10036
876.008	10143
876.136	10318
876.265	10523
876.393	10706
876.521	10740
876.65	10755
876.778	10862
876.906	10976
877.034	11010
877.162	11048
877.29	11140
877.418	11162
877.546	11307
877.674	11349
877.802	11436
877.93	11459
878.058	11486
878.185	11600
878.313	11653
878.441	11767
878.568	11699
878.696	11821
878.824	11859
878.951	11961
879.079	12045
879.206	12098
879.333	12106
879.461	11973
879.588	12038
879.715	12022
879.842	12194
879.97	12030
880.097	11882
880.224	11851
880.351	11874
880.478	11821
880.605	11748
880.732	11889
880.859	11999
880.986	11741
881.112	11764
881.239	11726
881.366	11676
881.493	11532
881.619	11558
881.746	11467
881.872	11600
881.999	11444
882.125	11516
882.252	11497
882.378	11509
882.505	11566
882.631	11326
882.757	11303
882.883	11330
883.01	11307
883.136	11151
883.262	11143
883.388	11128
883.514	11197
883.64	11250
883.766	11113
883.892	10968
884.018	10991
884.143	11071
884.269	11189
884.395	10858
884.52	10763
884.646	10839
884.772	10740
884.897	10592
885.023	10618
885.148	10660
885.274	10702
885.399	10721
885.524	10679
885.65	10580
885.775	10546
885.9	10554
886.025	10603
886.15	10569
886.275	10485
886.4	10436
886.525	10508
886.65	10421
886.775	10303
886.9	10523
887.025	10516
887.149	10325
887.274	10257
887.399	10253
887.523	10139
887.648	10150
887.773	10154
887.897	10238
888.021	10196
888.146	10143
888.27	10310
888.395	10238
888.519	10223
888.643	10143
888.767	10215
888.891	10025
889.015	10071
889.139	10032
889.263	10036
889.387	10048
889.511	10090
889.635	10139
889.759	9934
889.883	9998
890.006	10010
890.13	10090
890.254	9937
890.377	9960
890.501	9953
890.624	9857
890.748	9922
890.871	9774
890.995	9755
891.118	9663
891.241	9736
891.364	9736
891.488	9751
891.611	9724
891.734	9812
891.857	9857
891.98	9690
892.103	9736
892.226	9656
892.349	9637
892.471	9473
892.594	9523
892.717	9576
892.839	9603
892.962	9610
893.085	9736
893.207	9542
893.33	9515
893.452	9488
893.575	9580
893.697	9538
893.819	9557
893.941	9580
894.064	9488
894.186	9431
894.308	9435
894.43	9599
894.552	9572
894.674	9526
894.796	9355
894.918	9397
895.04	9332
895.161	9313
895.283	9317
895.405	9230
895.526	9222
895.648	9184
895.769	9214
895.891	9222
896.012	9272
896.134	9253
896.255	9249
896.376	9150
896.498	9097
896.619	9123
896.74	9070
896.861	9058
896.982	9268
897.103	9340
897.224	9119
897.345	9039
897.466	8982
897.587	9055
897.708	9077
897.828	9020
897.949	9013
898.07	8868
898.19	8880
898.311	9001
898.431	8902
898.552	8933
898.672	8929
898.792	8952
898.913	8864
899.033	8857
899.153	8712
899.273	8651
899.393	8716
899.513	8682
899.633	8758
899.753	8701
899.873	8617
899.993	8769
900.113	8655
900.232	8716
900.352	8602
900.472	8545
900.591	8476
900.711	8545
900.83	8503
900.95	8686
901.069	8712
901.189	8537
901.308	8408
901.427	8355
901.546	8442
901.665	8446
901.784	8465
901.904	8404
902.023	8305
902.141	8229
902.26	8168
902.379	8229
902.498	8195
902.617	8252
902.735	8362
902.854	8294
902.973	8305
903.091	8134
903.21	8107
903.328	8149
903.446	8107
903.565	8084
903.683	8103
903.801	8115
903.919	8138
904.038	8081
904.156	8027
904.274	8077
904.392	7970
904.51	8062
904.627	8012
904.745	8130
904.863	8046
904.981	7921
905.098	7940
905.216	7928
905.334	7856
905.451	7864
905.569	7890
905.686	7879
905.803	7868
905.921	7792
906.038	7860
906.155	7761
906.272	7651
906.389	7666
906.506	7567
906.623	7662
906.74	7582
906.857	7537
906.974	7518
907.091	7651
907.208	7689
907.324	7620
907.441	7552
907.557	7499
907.674	7510
907.79	7381
907.907	7369
908.023	7441
908.139	7403
908.256	7350
908.372	7320
908.488	7308
908.604	7266
908.72	7225
908.836	7221
908.952	7206
909.068	7202
909.184	7293
909.3	7217
909.415	7316
909.531	7217
909.647	7080
909.762	7072
909.878	7103
909.993	7114
910.108	7053
910.224	7046
910.339	7122
910.454	7042
910.57	7065
910.685	6878
910.8	7190
910.915	7103
911.03	6981
911.145	6894
911.259	6882
911.374	6863
911.489	6825
911.604	6798
911.718	6719
911.833	6741
911.947	6620
912.062	6574
912.176	6650
912.291	6715
912.405	6684
912.519	6772
912.633	6897
912.748	6734
912.862	6703
912.976	6578
913.09	6547
913.204	6608
913.318	6608
913.431	6707
913.545	6681
913.659	6719
913.772	6601
913.886	6574
914	6525
914.113	6620
914.226	6696
914.34	6563
914.453	6502
914.566	6566
914.68	6490
914.793	6547
914.906	6357
915.019	6388
915.132	6395
915.245	6426
915.358	6414
915.47	6407
915.583	6407
915.696	6452
915.809	6540
915.921	6540
916.034	6388
916.146	6422
916.259	6407
916.371	6399
916.483	6445
916.595	6395
916.708	6433
916.82	6361
916.932	6391
917.044	6433
917.156	6422
917.268	6311
917.38	6296
917.491	6311
917.603	6262
917.715	6403
917.826	6410
917.938	6338
918.049	6232
918.161	6273
918.272	6410
918.384	6399
918.495	6304
918.606	6190
918.717	6167
918.828	6273
918.939	6311
919.05	6186
919.161	6194
919.272	6060
919.383	6167
919.494	6285
919.604	6437
919.715	6277
919.826	6201
919.936	6182
920.047	6281
920.157	6254
920.267	6391
920.378	6311
920.488	6285
920.598	6452
920.708	6547
920.818	6486
920.928	6456
921.038	6570
921.148	6604
921.258	6384
921.368	6350
921.477	6201
921.587	6194
921.697	6095
921.806	6140
921.916	6049
922.025	5969
922.134	5954
922.244	5851
922.353	5908
922.462	5809
922.571	5882
922.68	5688
922.789	5676
922.898	5714
923.007	5585
923.116	5676
923.224	5657
923.333	5665
923.442	5581
923.55	5600
923.659	5509
923.767	5657
923.876	5562
923.984	5604
924.092	5493
924.201	5562
924.309	5577
924.417	5520
924.525	5452
924.633	5490
924.741	6243
924.849	5383
924.956	5490
925.064	5383
925.172	5330
925.279	5334
925.387	5357
925.494	5345
925.602	5421
925.709	5391
925.816	5250
925.924	5258
926.031	5372
926.138	5334
926.245	5296
926.352	5235
926.459	5296
926.566	5307
926.673	5140
926.779	5140
926.886	5102
926.993	5003
927.099	4984
927.206	4927
927.312	4942
927.419	4999
927.525	4961
927.631	4972
927.737	4904
927.843	4847
927.95	4740
928.056	4816
928.162	4790
928.267	4831
928.373	5345
928.479	4896
928.585	4706
928.69	4740
928.796	4744
928.901	4675
929.007	4618
929.112	4672
929.218	4603
929.323	4622
929.428	4580
929.533	4637
929.638	4500
929.743	4538
929.848	4523
929.953	4542
930.058	4409
930.163	4356
930.267	4333
930.372	4432
930.477	4291
930.581	4436
930.685	4363
930.79	4230
930.894	4295
930.998	4253
931.103	4386
931.207	4139
931.311	4086
931.415	4036
931.519	3907
931.623	3922
