Data from glass_V78500241_1882.txt Node
Date: Wed Sep 01 19:27:32 CST 2021
User: usil
Spectrometer: V785-0024
Trigger mode: 0
Integration Time (sec): 4.000000E-1
Scans to average: 1
Nonlinearity correction enabled: false
Boxcar width: 0
Storing dark spectrum: false
XAxis mode: Wavelengths
Number of Pixels in Spectrum: 1024
>>>>>Begin Spectral Data<<<<<
801.071	3705
801.214	3751
801.356	3728
801.499	3720
801.641	3720
801.783	3762
801.926	3880
802.068	3827
802.211	3812
802.353	3892
802.496	3827
802.638	3846
802.78	3907
802.923	3934
803.065	3884
803.208	3789
803.35	3873
803.492	3911
803.635	3884
803.777	3812
803.919	3903
804.061	4135
804.204	3937
804.346	3998
804.488	3975
804.63	4071
804.773	3949
804.915	3987
805.057	4143
805.199	4051
805.341	4071
805.483	4128
805.626	4139
805.768	4128
805.91	4192
806.052	4219
806.194	4215
806.336	4314
806.478	4223
806.62	4196
806.762	4185
806.904	4276
807.046	4356
807.188	4162
807.33	4188
807.472	4272
807.614	4158
807.756	4299
807.898	4207
808.04	4223
808.182	4303
808.324	4295
808.465	4360
808.607	4459
808.749	4386
808.891	4443
809.033	4489
809.174	4348
809.316	4242
809.458	4253
809.6	4169
809.741	4143
809.883	4097
810.025	4215
810.166	4219
810.308	4196
810.45	4242
810.591	4257
810.733	4310
810.875	4489
811.016	4812
811.158	5143
811.299	5288
811.441	5261
811.582	5071
811.724	4744
811.865	4436
812.007	4497
812.148	4405
812.29	4375
812.431	4413
812.573	4390
812.714	4356
812.855	4409
812.997	4424
813.138	4523
813.279	4436
813.421	4363
813.562	4329
813.703	4363
813.845	4318
813.986	4265
814.127	4200
814.268	4280
814.41	4299
814.551	4234
814.692	4333
814.833	4268
814.974	4299
815.115	4337
815.256	4272
815.397	4230
815.539	4272
815.68	4192
815.821	4227
815.962	4276
816.103	4295
816.244	4253
816.385	4249
816.526	4272
816.666	4185
816.807	4109
816.948	4154
817.089	4181
817.23	4154
817.371	4059
817.512	4044
817.653	4078
817.793	4063
817.934	4063
818.075	4105
818.216	4074
818.356	4067
818.497	4029
818.638	3915
818.778	3884
818.919	3926
819.06	3884
819.2	3892
819.341	3831
819.481	3816
819.622	3884
819.762	4025
819.903	3945
820.043	3876
820.184	3823
820.324	3793
820.465	3896
820.605	3854
820.746	3857
820.886	3789
821.026	3953
821.167	3873
821.307	3975
821.447	3983
821.588	3994
821.728	3960
821.868	3930
822.008	3876
822.149	3884
822.289	3846
822.429	3781
822.569	3713
822.709	3793
822.849	3690
822.99	3690
823.13	3751
823.27	3778
823.41	3743
823.55	3736
823.69	3724
823.83	3740
823.97	3671
824.11	3584
824.25	3576
824.389	3637
824.529	3667
824.669	3618
824.809	3663
824.949	3778
825.089	3690
825.228	3732
825.368	3599
825.508	3564
825.648	3545
825.787	3606
825.927	3595
826.067	3629
826.206	3641
826.346	3793
826.485	3800
826.625	3865
826.765	3918
826.904	3816
827.044	3618
827.183	3538
827.323	3424
827.462	3454
827.601	3428
827.741	3397
827.88	3420
828.02	3378
828.159	3443
828.298	3450
828.437	3542
828.577	3504
828.716	3584
828.855	3492
828.994	3397
829.134	3363
829.273	3389
829.412	3355
829.551	3355
829.69	3321
829.829	3405
829.968	3549
830.107	3458
830.246	3428
830.385	3355
830.524	3310
830.663	3310
830.802	3230
830.941	3195
831.08	3195
831.219	3241
831.357	3306
831.496	3382
831.635	3203
831.774	3195
831.913	3214
832.051	3112
832.19	3131
832.329	3222
832.467	3142
832.606	3112
832.744	3176
832.883	3207
833.022	3207
833.16	3226
833.299	3294
833.437	3325
833.576	3374
833.714	3393
833.852	3431
833.991	3405
834.129	3462
834.267	3435
834.406	3412
834.544	3439
834.682	3424
834.821	3412
834.959	3534
835.097	3420
835.235	3523
835.373	3469
835.511	3485
835.65	3504
835.788	3485
835.926	3389
836.064	3374
836.202	3389
836.34	3572
836.478	3637
836.615	3549
836.753	3572
836.891	3614
837.029	3625
837.167	3610
837.305	3530
837.443	3545
837.58	3504
837.718	3610
837.856	3564
837.993	3557
838.131	3633
838.269	3580
838.406	3576
838.544	3542
838.681	3481
838.819	3458
838.956	3370
839.094	3374
839.231	3443
839.369	3511
839.506	3705
839.643	3595
839.781	3492
839.918	3504
840.055	3553
840.193	3534
840.33	3564
840.467	3549
840.604	3610
840.742	3816
840.879	3534
841.016	3549
841.153	3591
841.29	3785
841.427	3717
841.564	3774
841.701	3724
841.838	3720
841.975	3648
842.112	3694
842.249	3671
842.385	3641
842.522	3873
842.659	3679
842.796	3698
842.933	3709
843.069	3717
843.206	3713
843.343	3797
843.479	3785
843.616	3823
843.752	3690
843.889	3675
844.025	3865
844.162	3656
844.298	3812
844.435	3759
844.571	3778
844.708	3884
844.844	3975
844.98	4032
845.117	4040
845.253	3915
845.389	3892
845.525	3983
845.661	3979
845.798	3937
845.934	3998
846.07	3926
846.206	4055
846.342	4120
846.478	4093
846.614	3934
846.75	3888
846.886	3907
847.022	4124
847.158	3956
847.294	3975
847.429	4059
847.565	3991
847.701	4238
847.837	3884
847.972	3823
848.108	3956
848.244	3941
848.379	3850
848.515	3812
848.65	3816
848.786	3823
848.921	3907
849.057	3945
849.192	3949
849.328	3926
849.463	3915
849.598	3884
849.734	3835
849.869	3831
850.004	3778
850.14	3827
850.275	3785
850.41	3705
850.545	3755
850.68	3751
850.815	3785
850.95	3774
851.085	3934
851.22	3876
851.355	3861
851.49	3812
851.625	3781
851.76	3785
851.895	3709
852.03	3740
852.165	3800
852.299	3846
852.434	3899
852.569	3865
852.703	3857
852.838	3899
852.973	4021
853.107	3953
853.242	3907
853.376	3873
853.511	3774
853.645	3819
853.78	3975
853.914	3941
854.048	3888
854.183	3896
854.317	3972
854.451	4059
854.585	3964
854.72	3937
854.854	4025
854.988	3922
855.122	3956
855.256	3888
855.39	3979
855.524	4086
855.658	4090
855.792	4086
855.926	4124
856.06	4177
856.194	4181
856.327	4105
856.461	4116
856.595	4120
856.729	4204
856.862	4303
856.996	4249
857.13	4253
857.263	4337
857.397	4337
857.53	4284
857.664	4356
857.797	4390
857.931	4424
858.064	4402
858.197	4466
858.331	4379
858.464	4352
858.597	4348
858.731	4432
858.864	4538
858.997	4443
859.13	4493
859.263	4542
859.396	4577
859.529	4504
859.662	4558
859.795	4485
859.928	4615
860.061	4736
860.194	4729
860.327	4675
860.46	4668
860.592	4694
860.725	4752
860.858	4755
860.99	4710
861.123	4698
861.256	4694
861.388	4763
861.521	5379
861.653	4691
861.786	4672
861.918	4736
862.05	4801
862.183	4797
862.315	4904
862.447	4961
862.58	4881
862.712	4763
862.844	4736
862.976	4900
863.108	4927
863.24	5102
863.372	4850
863.504	4892
863.636	4915
863.768	4965
863.9	4987
864.032	4870
864.164	4934
864.296	5025
864.428	5060
864.559	5045
864.691	5136
864.823	5102
864.954	5132
865.086	5155
865.217	5102
865.349	5098
865.48	5181
865.612	5166
865.743	5288
865.875	5189
866.006	5212
866.137	5201
866.269	5246
866.4	5273
866.531	5220
866.662	5185
866.793	5284
866.924	5315
867.055	5337
867.186	5299
867.317	5334
867.448	5330
867.579	5368
867.71	5387
867.841	5433
867.972	5463
868.103	5482
868.233	5440
868.364	5474
868.495	5547
868.625	5661
868.756	5752
868.886	5623
869.017	5745
869.147	5866
869.278	5908
869.408	5813
869.539	5863
869.669	5920
869.799	5931
869.929	6007
870.06	6019
870.19	6190
870.32	6190
870.45	6239
870.58	6342
870.71	6418
870.84	6517
870.97	6376
871.1	6410
871.23	6585
871.36	6696
871.489	6639
871.619	6749
871.749	6814
871.879	6856
872.008	6966
872.138	6924
872.267	7012
872.397	7004
872.526	7012
872.656	7023
872.785	7255
872.915	7434
873.044	7548
873.173	7518
873.303	7658
873.432	7696
873.561	7887
873.69	7913
873.819	8024
873.948	8202
874.077	8229
874.206	8271
874.335	8438
874.464	8708
874.593	8887
874.722	8925
874.851	9123
874.979	9112
875.108	9336
875.237	9492
875.365	9477
875.494	9648
875.623	9743
875.751	9827
875.88	10032
876.008	10143
876.136	10333
876.265	10481
876.393	10725
876.521	10672
876.65	10824
876.778	10873
876.906	10896
877.034	10923
877.162	11018
877.29	11159
877.418	11254
877.546	11383
877.674	11444
877.802	11436
877.93	11528
878.058	11570
878.185	11604
878.313	11676
878.441	11786
878.568	11688
878.696	11794
878.824	11718
878.951	11897
879.079	11996
879.206	12171
879.333	12038
879.461	11946
879.588	12076
879.715	12098
879.842	12213
879.97	12045
880.097	11901
880.224	11897
880.351	11901
880.478	11946
880.605	11802
880.732	11840
880.859	12060
880.986	11821
881.112	11885
881.239	11786
881.366	11680
881.493	11585
881.619	11547
881.746	11440
881.872	11478
881.999	11467
882.125	11505
882.252	11600
882.378	11528
882.505	11570
882.631	11433
882.757	11368
882.883	11360
883.01	11242
883.136	11239
883.262	11067
883.388	11147
883.514	11197
883.64	11216
883.766	11143
883.892	11067
884.018	11018
884.143	11079
884.269	11060
884.395	10854
884.52	10729
884.646	10736
884.772	10721
884.897	10660
885.023	10740
885.148	10752
885.274	10797
885.399	10622
885.524	10698
885.65	10618
885.775	10577
885.9	10542
886.025	10561
886.15	10653
886.275	10481
886.4	10409
886.525	10413
886.65	10352
886.775	10386
886.9	10516
887.025	10615
887.149	10246
887.274	10177
887.399	10185
887.523	10204
887.648	10200
887.773	10082
887.897	10204
888.021	10204
888.146	10112
888.27	10257
888.395	10234
888.519	10249
888.643	10246
888.767	10280
888.891	10082
889.015	10006
889.139	10071
889.263	9975
889.387	10059
889.511	10185
889.635	10131
889.759	9968
889.883	9960
890.006	9895
890.13	10131
890.254	9934
890.377	9915
890.501	9873
890.624	9857
890.748	9857
890.871	9831
890.995	9876
891.118	9709
891.241	9740
891.364	9781
891.488	9808
891.611	9728
891.734	9812
891.857	9743
891.98	9736
892.103	9732
892.226	9698
892.349	9667
892.471	9523
892.594	9526
892.717	9682
892.839	9549
892.962	9564
893.085	9656
893.207	9561
893.33	9488
893.452	9492
893.575	9584
893.697	9523
893.819	9652
893.941	9610
894.064	9568
894.186	9431
894.308	9355
894.43	9576
894.552	9561
894.674	9545
894.796	9363
894.918	9492
895.04	9302
895.161	9431
895.283	9355
895.405	9329
895.526	9287
895.648	9176
895.769	9195
895.891	9245
896.012	9275
896.134	9199
896.255	9138
896.376	9150
896.498	9112
896.619	9169
896.74	9047
896.861	9108
896.982	9218
897.103	9321
897.224	9150
897.345	9009
897.466	9051
897.587	8986
897.708	9089
897.828	9039
897.949	8902
898.07	8868
898.19	8887
898.311	9085
898.431	8921
898.552	8876
898.672	8872
898.792	8967
898.913	8899
899.033	8807
899.153	8686
899.273	8621
899.393	8689
899.513	8777
899.633	8777
899.753	8769
899.873	8689
899.993	8777
900.113	8678
900.232	8632
900.352	8644
900.472	8579
900.591	8526
900.711	8587
900.83	8587
900.95	8678
901.069	8678
901.189	8495
901.308	8434
901.427	8355
901.546	8400
901.665	8503
901.784	8507
901.904	8370
902.023	8328
902.141	8259
902.26	8199
902.379	8252
902.498	8248
902.617	8164
902.735	8332
902.854	8248
902.973	8248
903.091	8103
903.21	8145
903.328	8153
903.446	8168
903.565	7982
903.683	8103
903.801	8008
903.919	8054
904.038	8100
904.156	8012
904.274	8107
904.392	8062
904.51	7921
904.627	8035
904.745	8107
904.863	8069
904.981	7906
905.098	7841
905.216	7864
905.334	7875
905.451	7963
905.569	7909
905.686	7871
905.803	7864
905.921	7788
906.038	7902
906.155	7814
906.272	7696
906.389	7715
906.506	7639
906.623	7662
906.74	7613
906.857	7525
906.974	7582
907.091	7708
907.208	7753
907.324	7639
907.441	7601
907.557	7441
907.674	7438
907.79	7407
907.907	7403
908.023	7464
908.139	7392
908.256	7453
908.372	7293
908.488	7346
908.604	7282
908.72	7289
908.836	7305
908.952	7293
909.068	7240
909.184	7293
909.3	7244
909.415	7247
909.531	7278
909.647	7076
909.762	7076
909.878	7099
909.993	7118
910.108	7099
910.224	7137
910.339	7065
910.454	7031
910.57	7015
910.685	6973
910.8	7145
910.915	7057
911.03	6993
911.145	6913
911.259	6905
911.374	6897
911.489	6840
911.604	6829
911.718	6768
911.833	6715
911.947	6639
912.062	6585
912.176	6719
912.291	6696
912.405	6681
912.519	6795
912.633	6852
912.748	6715
912.862	6646
912.976	6650
913.09	6551
913.204	6627
913.318	6593
913.431	6673
913.545	6642
913.659	6722
913.772	6646
913.886	6582
914	6570
914.113	6597
914.226	6635
914.34	6585
914.453	6494
914.566	6620
914.68	6525
914.793	6517
914.906	6407
915.019	6498
915.132	6361
915.245	6426
915.358	6437
915.47	6395
915.583	6452
915.696	6475
915.809	6547
915.921	6471
916.034	6418
916.146	6380
916.259	6376
916.371	6376
916.483	6464
916.595	6380
916.708	6414
916.82	6388
916.932	6448
917.044	6369
917.156	6395
917.268	6277
917.38	6342
917.491	6266
917.603	6338
917.715	6403
917.826	6357
917.938	6338
918.049	6289
918.161	6338
918.272	6441
918.384	6433
918.495	6323
918.606	6300
918.717	6178
918.828	6254
918.939	6304
919.05	6213
919.161	6254
919.272	6144
919.383	6194
919.494	6292
919.604	6369
919.715	6296
919.826	6197
919.936	6262
920.047	6334
920.157	6273
920.267	6445
920.378	6296
920.488	6285
920.598	6456
920.708	6585
920.818	6441
920.928	6471
921.038	6601
921.148	6578
921.258	6342
921.368	6285
921.477	6220
921.587	6209
921.697	6102
921.806	6182
921.916	6083
922.025	5935
922.134	5882
922.244	5885
922.353	5965
922.462	5840
922.571	5817
922.68	5665
922.789	5623
922.898	5748
923.007	5668
923.116	5684
923.224	5665
923.333	5627
923.442	5600
923.55	5532
923.659	5589
923.767	5646
923.876	5566
923.984	5566
924.092	5554
924.201	5623
924.309	5528
924.417	5562
924.525	5512
924.633	5478
924.741	6270
924.849	5368
924.956	5455
925.064	5368
925.172	5284
925.279	5326
925.387	5349
925.494	5353
925.602	5402
925.709	5341
925.816	5235
925.924	5353
926.031	5315
926.138	5280
926.245	5345
926.352	5181
926.459	5277
926.566	5277
926.673	5212
926.779	5105
926.886	5094
926.993	4991
927.099	4991
927.206	4946
927.312	5014
927.419	5010
927.525	4987
927.631	5033
927.737	4923
927.843	4889
927.95	4771
928.056	4767
928.162	4850
928.267	4839
928.373	5284
928.479	4801
928.585	4691
928.69	4736
928.796	4778
928.901	4691
929.007	4653
929.112	4698
929.218	4618
929.323	4603
929.428	4535
929.533	4634
929.638	4546
929.743	4558
929.848	4554
929.953	4500
930.058	4424
930.163	4375
930.267	4325
930.372	4436
930.477	4299
930.581	4432
930.685	4375
930.79	4234
930.894	4318
930.998	4215
931.103	4371
931.207	4169
931.311	4071
931.415	4044
931.519	3892
931.623	3918
