Data from glass_V78500241_1712.txt Node
Date: Wed Sep 01 19:26:22 CST 2021
User: usil
Spectrometer: V785-0024
Trigger mode: 0
Integration Time (sec): 4.000000E-1
Scans to average: 1
Nonlinearity correction enabled: false
Boxcar width: 0
Storing dark spectrum: false
XAxis mode: Wavelengths
Number of Pixels in Spectrum: 1024
>>>>>Begin Spectral Data<<<<<
801.071	3759
801.214	3766
801.356	3724
801.499	3709
801.641	3724
801.783	3789
801.926	3846
802.068	3869
802.211	3854
802.353	3892
802.496	3865
802.638	3888
802.78	3884
802.923	3930
803.065	3838
803.208	3865
803.35	3854
803.492	3899
803.635	3873
803.777	3838
803.919	3915
804.061	4112
804.204	3937
804.346	3998
804.488	3934
804.63	4048
804.773	3979
804.915	4021
805.057	4162
805.199	4048
805.341	4154
805.483	4120
805.626	4147
805.768	4109
805.91	4219
806.052	4249
806.194	4211
806.336	4329
806.478	4207
806.62	4177
806.762	4162
806.904	4215
807.046	4306
807.188	4192
807.33	4166
807.472	4287
807.614	4143
807.756	4265
807.898	4227
808.04	4204
808.182	4234
808.324	4265
808.465	4348
808.607	4443
808.749	4447
808.891	4485
809.033	4550
809.174	4390
809.316	4234
809.458	4257
809.6	4147
809.741	4128
809.883	4166
810.025	4192
810.166	4204
810.308	4230
810.45	4219
810.591	4192
810.733	4265
810.875	4481
811.016	4782
811.158	5201
811.299	5269
811.441	5299
811.582	5079
811.724	4698
811.865	4455
812.007	4459
812.148	4421
812.29	4443
812.431	4375
812.573	4402
812.714	4356
812.855	4409
812.997	4436
813.138	4504
813.279	4436
813.421	4398
813.562	4417
813.703	4371
813.845	4329
813.986	4261
814.127	4249
814.268	4253
814.41	4238
814.551	4227
814.692	4261
814.833	4192
814.974	4318
815.115	4367
815.256	4204
815.397	4280
815.539	4265
815.68	4211
815.821	4196
815.962	4325
816.103	4257
816.244	4238
816.385	4242
816.526	4318
816.666	4261
816.807	4093
816.948	4188
817.089	4185
817.23	4105
817.371	4051
817.512	4055
817.653	4074
817.793	4044
817.934	4032
818.075	4093
818.216	4055
818.356	4082
818.497	4013
818.638	3876
818.778	3915
818.919	3892
819.06	3896
819.2	3930
819.341	3819
819.481	3831
819.622	3915
819.762	4044
819.903	3960
820.043	3850
820.184	3857
820.324	3854
820.465	3896
820.605	3873
820.746	3857
820.886	3808
821.026	3880
821.167	3888
821.307	3956
821.447	3975
821.588	3972
821.728	3956
821.868	3884
822.008	3869
822.149	3918
822.289	3934
822.429	3770
822.569	3759
822.709	3800
822.849	3679
822.99	3690
823.13	3724
823.27	3819
823.41	3736
823.55	3732
823.69	3770
823.83	3720
823.97	3709
824.11	3587
824.25	3606
824.389	3663
824.529	3694
824.669	3633
824.809	3747
824.949	3736
825.089	3759
825.228	3720
825.368	3587
825.508	3557
825.648	3553
825.787	3637
825.927	3663
826.067	3622
826.206	3698
826.346	3759
826.485	3842
826.625	3880
826.765	3934
826.904	3812
827.044	3618
827.183	3553
827.323	3378
827.462	3485
827.601	3481
827.741	3443
827.88	3447
828.02	3359
828.159	3473
828.298	3507
828.437	3507
828.577	3443
828.716	3584
828.855	3523
828.994	3363
829.134	3370
829.273	3405
829.412	3367
829.551	3378
829.69	3355
829.829	3443
829.968	3507
830.107	3447
830.246	3443
830.385	3310
830.524	3332
830.663	3287
830.802	3279
830.941	3188
831.08	3176
831.219	3268
831.357	3218
831.496	3367
831.635	3230
831.774	3192
831.913	3237
832.051	3154
832.19	3142
832.329	3237
832.467	3150
832.606	3070
832.744	3173
832.883	3203
833.022	3176
833.16	3272
833.299	3325
833.437	3306
833.576	3359
833.714	3378
833.852	3428
833.991	3424
834.129	3485
834.267	3416
834.406	3405
834.544	3428
834.682	3428
834.821	3393
834.959	3591
835.097	3428
835.235	3526
835.373	3507
835.511	3523
835.65	3473
835.788	3485
835.926	3382
836.064	3420
836.202	3424
836.34	3519
836.478	3629
836.615	3595
836.753	3606
836.891	3648
837.029	3599
837.167	3606
837.305	3568
837.443	3526
837.58	3473
837.718	3572
837.856	3587
837.993	3485
838.131	3587
838.269	3564
838.406	3606
838.544	3595
838.681	3481
838.819	3458
838.956	3359
839.094	3370
839.231	3389
839.369	3492
839.506	3720
839.643	3610
839.781	3485
839.918	3447
840.055	3530
840.193	3526
840.33	3534
840.467	3545
840.604	3614
840.742	3865
840.879	3538
841.016	3564
841.153	3603
841.29	3728
841.427	3717
841.564	3717
841.701	3709
841.838	3690
841.975	3686
842.112	3682
842.249	3625
842.385	3610
842.522	3789
842.659	3675
842.796	3671
842.933	3690
843.069	3686
843.206	3709
843.343	3808
843.479	3781
843.616	3838
843.752	3690
843.889	3717
844.025	3869
844.162	3679
844.298	3869
844.435	3762
844.571	3781
844.708	3884
844.844	4017
844.98	3968
845.117	3998
845.253	3994
845.389	3869
845.525	3987
845.661	3949
845.798	3888
845.934	4010
846.07	3937
846.206	4078
846.342	4086
846.478	4059
846.614	3979
846.75	3934
846.886	3934
847.022	4059
847.158	4029
847.294	4002
847.429	4063
847.565	4025
847.701	4284
847.837	3873
847.972	3865
848.108	3983
848.244	3949
848.379	3842
848.515	3831
848.65	3896
848.786	3819
848.921	3842
849.057	3968
849.192	3964
849.328	3873
849.463	3934
849.598	3911
849.734	3945
849.869	3854
850.004	3793
850.14	3762
850.275	3789
850.41	3762
850.545	3751
850.68	3778
850.815	3812
850.95	3770
851.085	3956
851.22	3831
851.355	3816
851.49	3785
851.625	3797
851.76	3781
851.895	3728
852.03	3751
852.165	3854
852.299	3854
852.434	3827
852.569	3846
852.703	3892
852.838	3949
852.973	4010
853.107	3964
853.242	3850
853.376	3846
853.511	3751
853.645	3838
853.78	3934
853.914	3903
854.048	3884
854.183	3869
854.317	3949
854.451	4063
854.585	3953
854.72	3922
854.854	4025
854.988	3956
855.122	3972
855.256	3930
855.39	4059
855.524	4097
855.658	4082
855.792	4097
855.926	4105
856.06	4169
856.194	4211
856.327	4109
856.461	4150
856.595	4154
856.729	4207
856.862	4261
856.996	4253
857.13	4314
857.263	4303
857.397	4352
857.53	4265
857.664	4394
857.797	4436
857.931	4451
858.064	4390
858.197	4443
858.331	4379
858.464	4356
858.597	4371
858.731	4455
858.864	4455
858.997	4455
859.13	4512
859.263	4561
859.396	4565
859.529	4508
859.662	4538
859.795	4485
859.928	4649
860.061	4668
860.194	4691
860.327	4641
860.46	4649
860.592	4748
860.725	4752
860.858	4759
860.99	4706
861.123	4687
861.256	4656
861.388	4782
861.521	5410
861.653	4721
861.786	4748
861.918	4793
862.05	4812
862.183	4816
862.315	4885
862.447	4942
862.58	4908
862.712	4767
862.844	4790
862.976	4858
863.108	4862
863.24	5296
863.372	4862
863.504	4873
863.636	4835
863.768	4949
863.9	4949
864.032	4949
864.164	4946
864.296	5045
864.428	5060
864.559	5155
864.691	5113
864.823	5181
864.954	5159
865.086	5162
865.217	5132
865.349	5124
865.48	5162
865.612	5162
865.743	5315
865.875	5231
866.006	5105
866.137	5242
866.269	5292
866.4	5277
866.531	5220
866.662	5185
866.793	5265
866.924	5288
867.055	5334
867.186	5315
867.317	5311
867.448	5303
867.579	5406
867.71	5379
867.841	5387
867.972	5414
868.103	5493
868.233	5463
868.364	5474
868.495	5547
868.625	5619
868.756	5786
868.886	5707
869.017	5798
869.147	5844
869.278	5889
869.408	5813
869.539	5866
869.669	5897
869.799	5897
869.929	6007
870.06	6076
870.19	6197
870.32	6175
870.45	6285
870.58	6384
870.71	6445
870.84	6437
870.97	6384
871.1	6437
871.23	6639
871.36	6692
871.489	6623
871.619	6719
871.749	6844
871.879	6821
872.008	6973
872.138	6947
872.267	6970
872.397	7019
872.526	7042
872.656	7084
872.785	7240
872.915	7400
873.044	7491
873.173	7594
873.303	7674
873.432	7780
873.561	7894
873.69	7909
873.819	8092
873.948	8161
874.077	8275
874.206	8336
874.335	8461
874.464	8648
874.593	8845
874.722	9032
874.851	9081
874.979	9192
875.108	9325
875.237	9397
875.365	9431
875.494	9625
875.623	9884
875.751	9842
875.88	9960
876.008	10211
876.136	10291
876.265	10489
876.393	10763
876.521	10687
876.65	10763
876.778	10866
876.906	10946
877.034	10995
877.162	11090
877.29	11231
877.418	11246
877.546	11368
877.674	11467
877.802	11539
877.93	11493
878.058	11554
878.185	11558
878.313	11703
878.441	11726
878.568	11737
878.696	11779
878.824	11843
878.951	11828
879.079	11984
879.206	12167
879.333	12045
879.461	12083
879.588	12015
879.715	12060
879.842	12197
879.97	12083
880.097	11908
880.224	11817
880.351	11912
880.478	11885
880.605	11836
880.732	11882
880.859	12045
880.986	11764
881.112	11855
881.239	11783
881.366	11707
881.493	11573
881.619	11455
881.746	11623
881.872	11581
881.999	11463
882.125	11455
882.252	11532
882.378	11570
882.505	11512
882.631	11406
882.757	11360
882.883	11280
883.01	11334
883.136	11223
883.262	11075
883.388	11075
883.514	11155
883.64	11071
883.766	11128
883.892	10972
884.018	10930
884.143	11048
884.269	11086
884.395	10862
884.52	10854
884.646	10835
884.772	10691
884.897	10634
885.023	10668
885.148	10736
885.274	10763
885.399	10672
885.524	10535
885.65	10588
885.775	10603
885.9	10592
886.025	10558
886.15	10626
886.275	10436
886.4	10348
886.525	10443
886.65	10318
886.775	10337
886.9	10523
887.025	10493
887.149	10394
887.274	10234
887.399	10188
887.523	10211
887.648	10139
887.773	10116
887.897	10196
888.021	10276
888.146	10158
888.27	10272
888.395	10280
888.519	10158
888.643	10204
888.767	10181
888.891	10078
889.015	10036
889.139	10166
889.263	9983
889.387	10086
889.511	10040
889.635	10063
889.759	10002
889.883	9975
890.006	9975
890.13	10150
890.254	9926
890.377	9949
890.501	9922
890.624	9888
890.748	9884
890.871	9838
890.995	9751
891.118	9759
891.241	9751
891.364	9717
891.488	9740
891.611	9698
891.734	9724
891.857	9812
891.98	9667
892.103	9831
892.226	9743
892.349	9686
892.471	9507
892.594	9580
892.717	9629
892.839	9644
892.962	9591
893.085	9599
893.207	9625
893.33	9511
893.452	9534
893.575	9591
893.697	9530
893.819	9603
893.941	9603
894.064	9584
894.186	9466
894.308	9386
894.43	9545
894.552	9618
894.674	9469
894.796	9340
894.918	9454
895.04	9393
895.161	9389
895.283	9348
895.405	9245
895.526	9192
895.648	9188
895.769	9154
895.891	9214
896.012	9291
896.134	9214
896.255	9218
896.376	9097
896.498	9119
896.619	9154
896.74	9074
896.861	9104
896.982	9306
897.103	9249
897.224	9192
897.345	9013
897.466	8944
897.587	9032
897.708	9043
897.828	8979
897.949	8929
898.07	8880
898.19	9001
898.311	9142
898.431	8899
898.552	8895
898.672	8982
898.792	8933
898.913	8929
899.033	8750
899.153	8708
899.273	8606
899.393	8739
899.513	8701
899.633	8739
899.753	8697
899.873	8743
899.993	8766
900.113	8693
900.232	8644
900.352	8720
900.472	8590
900.591	8545
900.711	8606
900.83	8575
900.95	8689
901.069	8731
901.189	8587
901.308	8404
901.427	8427
901.546	8404
901.665	8480
901.784	8503
901.904	8320
902.023	8355
902.141	8271
902.26	8256
902.379	8286
902.498	8183
902.617	8221
902.735	8328
902.854	8237
902.973	8244
903.091	8149
903.21	8119
903.328	8145
903.446	8073
903.565	8027
903.683	8092
903.801	8031
903.919	8077
904.038	8142
904.156	8096
904.274	8073
904.392	8031
904.51	8069
904.627	8088
904.745	8046
904.863	8043
904.981	7993
905.098	7753
905.216	7864
905.334	7879
905.451	7921
905.569	7864
905.686	7944
905.803	8008
905.921	7795
906.038	7852
906.155	7803
906.272	7712
906.389	7734
906.506	7582
906.623	7616
906.74	7537
906.857	7601
906.974	7567
907.091	7712
907.208	7738
907.324	7597
907.441	7594
907.557	7476
907.674	7426
907.79	7400
907.907	7388
908.023	7468
908.139	7422
908.256	7400
908.372	7362
908.488	7388
908.604	7331
908.72	7232
908.836	7255
908.952	7206
909.068	7213
909.184	7324
909.3	7232
909.415	7305
909.531	7297
909.647	7171
909.762	7072
909.878	7095
909.993	7084
910.108	7107
910.224	7156
910.339	7050
910.454	7050
910.57	6989
910.685	6977
910.8	7152
910.915	7095
911.03	7000
911.145	6947
911.259	6890
911.374	6837
911.489	6829
911.604	6821
911.718	6738
911.833	6745
911.947	6620
912.062	6585
912.176	6703
912.291	6700
912.405	6749
912.519	6840
912.633	6833
912.748	6711
912.862	6753
912.976	6551
913.09	6536
913.204	6593
913.318	6650
913.431	6669
913.545	6673
913.659	6677
913.772	6608
913.886	6544
914	6574
914.113	6563
914.226	6654
914.34	6566
914.453	6498
914.566	6570
914.68	6544
914.793	6490
914.906	6426
915.019	6369
915.132	6376
915.245	6452
915.358	6452
915.47	6464
915.583	6441
915.696	6448
915.809	6563
915.921	6544
916.034	6414
916.146	6407
916.259	6365
916.371	6467
916.483	6532
916.595	6410
916.708	6418
916.82	6429
916.932	6369
917.044	6399
917.156	6365
917.268	6311
917.38	6327
917.491	6296
917.603	6308
917.715	6399
917.826	6403
917.938	6285
918.049	6186
918.161	6350
918.272	6475
918.384	6361
918.495	6369
918.606	6220
918.717	6186
918.828	6243
918.939	6315
919.05	6182
919.161	6228
919.272	6095
919.383	6125
919.494	6266
919.604	6422
919.715	6289
919.826	6201
919.936	6262
920.047	6353
920.157	6232
920.267	6498
920.378	6311
920.488	6254
920.598	6410
920.708	6532
920.818	6464
920.928	6452
921.038	6635
921.148	6563
921.258	6296
921.368	6292
921.477	6201
921.587	6076
921.697	6060
921.806	6216
921.916	6079
922.025	5961
922.134	5912
922.244	5863
922.353	5999
922.462	5855
922.571	5805
922.68	5733
922.789	5688
922.898	5699
923.007	5661
923.116	5680
923.224	5688
923.333	5661
923.442	5634
923.55	5528
923.659	5592
923.767	5611
923.876	5547
923.984	5589
924.092	5452
924.201	5493
924.309	5573
924.417	5551
924.525	5471
924.633	5474
924.741	6308
924.849	5360
924.956	5482
925.064	5353
925.172	5322
925.279	5337
925.387	5433
925.494	5364
925.602	5421
925.709	5372
925.816	5315
925.924	5326
926.031	5398
926.138	5337
926.245	5296
926.352	5265
926.459	5334
926.566	5357
926.673	5216
926.779	5136
926.886	5151
926.993	4987
927.099	5029
927.206	4953
927.312	4980
927.419	5025
927.525	4987
927.631	4984
927.737	4923
927.843	4870
927.95	4801
928.056	4793
928.162	4866
928.267	4870
928.373	5349
928.479	4843
928.585	4714
928.69	4759
928.796	4733
928.901	4729
929.007	4546
929.112	4672
929.218	4615
929.323	4603
929.428	4516
929.533	4649
929.638	4546
929.743	4561
929.848	4596
929.953	4538
930.058	4436
930.163	4291
930.267	4383
930.372	4436
930.477	4272
930.581	4447
930.685	4367
930.79	4215
930.894	4276
930.998	4238
931.103	4348
931.207	4135
931.311	4059
931.415	4032
931.519	3918
931.623	3949
