Data from glass_V78500241_939.txt Node
Date: Wed Sep 01 19:21:00 CST 2021
User: usil
Spectrometer: V785-0024
Trigger mode: 0
Integration Time (sec): 4.000000E-1
Scans to average: 1
Nonlinearity correction enabled: false
Boxcar width: 0
Storing dark spectrum: false
XAxis mode: Wavelengths
Number of Pixels in Spectrum: 1024
>>>>>Begin Spectral Data<<<<<
801.071	3747
801.214	3785
801.356	3705
801.499	3770
801.641	3743
801.783	3762
801.926	3865
802.068	3892
802.211	3876
802.353	3922
802.496	3816
802.638	3876
802.78	3941
802.923	3926
803.065	3884
803.208	3865
803.35	3915
803.492	3888
803.635	3869
803.777	3759
803.919	3926
804.061	4188
804.204	3941
804.346	3979
804.488	3926
804.63	4032
804.773	3960
804.915	4029
805.057	4139
805.199	4040
805.341	4090
805.483	4139
805.626	4124
805.768	4169
805.91	4223
806.052	4261
806.194	4211
806.336	4352
806.478	4234
806.62	4169
806.762	4177
806.904	4272
807.046	4322
807.188	4280
807.33	4238
807.472	4234
807.614	4200
807.756	4268
807.898	4200
808.04	4238
808.182	4272
808.324	4341
808.465	4371
808.607	4466
808.749	4466
808.891	4440
809.033	4554
809.174	4371
809.316	4242
809.458	4234
809.6	4211
809.741	4166
809.883	4150
810.025	4196
810.166	4234
810.308	4223
810.45	4261
810.591	4246
810.733	4299
810.875	4542
811.016	4812
811.158	5140
811.299	5265
811.441	5296
811.582	5056
811.724	4740
811.865	4481
812.007	4459
812.148	4428
812.29	4402
812.431	4394
812.573	4405
812.714	4379
812.855	4459
812.997	4432
813.138	4478
813.279	4455
813.421	4360
813.562	4333
813.703	4348
813.845	4337
813.986	4280
814.127	4238
814.268	4257
814.41	4306
814.551	4287
814.692	4356
814.833	4246
814.974	4329
815.115	4341
815.256	4280
815.397	4246
815.539	4223
815.68	4249
815.821	4211
815.962	4303
816.103	4280
816.244	4249
816.385	4276
816.526	4314
816.666	4211
816.807	4109
816.948	4162
817.089	4166
817.23	4135
817.371	4086
817.512	4063
817.653	4067
817.793	4032
817.934	4032
818.075	4078
818.216	4044
818.356	4131
818.497	4002
818.638	3941
818.778	3937
818.919	3899
819.06	3888
819.2	3892
819.341	3861
819.481	3869
819.622	3937
819.762	4059
819.903	3949
820.043	3857
820.184	3842
820.324	3888
820.465	3888
820.605	3926
820.746	3884
820.886	3804
821.026	3964
821.167	3918
821.307	3987
821.447	3987
821.588	3968
821.728	3949
821.868	3953
822.008	3876
822.149	3915
822.289	3926
822.429	3800
822.569	3766
822.709	3846
822.849	3690
822.99	3728
823.13	3766
823.27	3797
823.41	3679
823.55	3755
823.69	3717
823.83	3732
823.97	3675
824.11	3644
824.25	3610
824.389	3679
824.529	3713
824.669	3641
824.809	3732
824.949	3755
825.089	3743
825.228	3701
825.368	3564
825.508	3576
825.648	3591
825.787	3580
825.927	3652
826.067	3641
826.206	3682
826.346	3770
826.485	3812
826.625	3861
826.765	3964
826.904	3854
827.044	3656
827.183	3572
827.323	3454
827.462	3507
827.601	3496
827.741	3435
827.88	3492
828.02	3370
828.159	3458
828.298	3534
828.437	3534
828.577	3523
828.716	3652
828.855	3523
828.994	3420
829.134	3374
829.273	3428
829.412	3397
829.551	3370
829.69	3393
829.829	3389
829.968	3549
830.107	3412
830.246	3469
830.385	3420
830.524	3367
830.663	3340
830.802	3275
830.941	3211
831.08	3195
831.219	3260
831.357	3275
831.496	3401
831.635	3230
831.774	3211
831.913	3211
832.051	3127
832.19	3161
832.329	3203
832.467	3165
832.606	3097
832.744	3176
832.883	3211
833.022	3222
833.16	3294
833.299	3332
833.437	3325
833.576	3378
833.714	3401
833.852	3412
833.991	3462
834.129	3450
834.267	3454
834.406	3378
834.544	3447
834.682	3439
834.821	3389
834.959	3595
835.097	3431
835.235	3549
835.373	3488
835.511	3492
835.65	3477
835.788	3504
835.926	3401
836.064	3359
836.202	3382
836.34	3633
836.478	3629
836.615	3542
836.753	3625
836.891	3618
837.029	3587
837.167	3603
837.305	3542
837.443	3549
837.58	3507
837.718	3603
837.856	3576
837.993	3572
838.131	3603
838.269	3568
838.406	3629
838.544	3591
838.681	3481
838.819	3447
838.956	3386
839.094	3389
839.231	3447
839.369	3523
839.506	3762
839.643	3629
839.781	3496
839.918	3473
840.055	3542
840.193	3492
840.33	3591
840.467	3584
840.604	3549
840.742	3797
840.879	3584
841.016	3561
841.153	3591
841.29	3778
841.427	3732
841.564	3740
841.701	3808
841.838	3641
841.975	3663
842.112	3709
842.249	3625
842.385	3625
842.522	3854
842.659	3679
842.796	3667
842.933	3732
843.069	3709
843.206	3740
843.343	3838
843.479	3831
843.616	3846
843.752	3679
843.889	3694
844.025	3873
844.162	3705
844.298	3831
844.435	3819
844.571	3816
844.708	3915
844.844	3975
844.98	4055
845.117	4002
845.253	3934
845.389	3926
845.525	3968
845.661	3956
845.798	3926
845.934	4074
846.07	3953
846.206	4086
846.342	4097
846.478	4071
846.614	3945
846.75	3953
846.886	3922
847.022	4017
847.158	4025
847.294	4017
847.429	4021
847.565	3998
847.701	4246
847.837	3915
847.972	3903
848.108	3953
848.244	3964
848.379	3880
848.515	3819
848.65	3850
848.786	3850
848.921	3918
849.057	3930
849.192	3922
849.328	3915
849.463	3949
849.598	3854
849.734	3903
849.869	3846
850.004	3823
850.14	3827
850.275	3785
850.41	3732
850.545	3762
850.68	3755
850.815	3842
850.95	3800
851.085	3926
851.22	3888
851.355	3827
851.49	3865
851.625	3808
851.76	3819
851.895	3778
852.03	3740
852.165	3800
852.299	3831
852.434	3934
852.569	3888
852.703	3926
852.838	3922
852.973	4002
853.107	4029
853.242	3884
853.376	3854
853.511	3797
853.645	3838
853.78	3979
853.914	3926
854.048	3896
854.183	3888
854.317	3983
854.451	4063
854.585	3949
854.72	3960
854.854	4063
854.988	3937
855.122	4044
855.256	3915
855.39	4006
855.524	4109
855.658	4112
855.792	4074
855.926	4131
856.06	4154
856.194	4207
856.327	4173
856.461	4116
856.595	4185
856.729	4204
856.862	4337
856.996	4211
857.13	4303
857.263	4367
857.397	4371
857.53	4318
857.664	4371
857.797	4424
857.931	4405
858.064	4394
858.197	4466
858.331	4417
858.464	4375
858.597	4341
858.731	4428
858.864	4459
858.997	4432
859.13	4519
859.263	4538
859.396	4554
859.529	4550
859.662	4504
859.795	4565
859.928	4618
860.061	4706
860.194	4759
860.327	4622
860.46	4683
860.592	4771
860.725	4797
860.858	4767
860.99	4721
861.123	4675
861.256	4706
861.388	4786
861.521	5520
861.653	4763
861.786	4710
861.918	4778
862.05	4786
862.183	4839
862.315	4843
862.447	4972
862.58	4938
862.712	4809
862.844	4767
862.976	4885
863.108	4911
863.24	5140
863.372	4828
863.504	4889
863.636	4870
863.768	4972
863.9	4991
864.032	4953
864.164	4972
864.296	5071
864.428	5056
864.559	5064
864.691	5143
864.823	5204
864.954	5136
865.086	5124
865.217	5174
865.349	5132
865.48	5132
865.612	5242
865.743	5303
865.875	5170
866.006	5185
866.137	5220
866.269	5273
866.4	5242
866.531	5280
866.662	5261
866.793	5349
866.924	5284
867.055	5391
867.186	5345
867.317	5330
867.448	5345
867.579	5364
867.71	5395
867.841	5372
867.972	5425
868.103	5444
868.233	5493
868.364	5493
868.495	5532
868.625	5653
868.756	5767
868.886	5657
869.017	5707
869.147	5870
869.278	5889
869.408	5764
869.539	5783
869.669	5878
869.799	5969
869.929	5996
870.06	6068
870.19	6220
870.32	6258
870.45	6289
870.58	6315
870.71	6410
870.84	6441
870.97	6437
871.1	6437
871.23	6677
871.36	6673
871.489	6662
871.619	6715
871.749	6787
871.879	6848
872.008	6970
872.138	6970
872.267	7110
872.397	6947
872.526	7027
872.656	7072
872.785	7179
872.915	7422
873.044	7476
873.173	7605
873.303	7636
873.432	7833
873.561	7906
873.69	7856
873.819	7940
873.948	8149
874.077	8305
874.206	8358
874.335	8480
874.464	8610
874.593	8838
874.722	9001
874.851	9150
874.979	9241
875.108	9329
875.237	9408
875.365	9504
875.494	9732
875.623	9819
875.751	9857
875.88	10074
876.008	10131
876.136	10291
876.265	10516
876.393	10744
876.521	10790
876.65	10930
876.778	10850
876.906	10930
877.034	11006
877.162	11140
877.29	11223
877.418	11254
877.546	11383
877.674	11421
877.802	11452
877.93	11417
878.058	11562
878.185	11619
878.313	11676
878.441	11756
878.568	11691
878.696	11764
878.824	11809
878.951	11923
879.079	11996
879.206	12144
879.333	11999
879.461	11996
879.588	12117
879.715	12030
879.842	12258
879.97	12087
880.097	11939
880.224	11882
880.351	11927
880.478	11916
880.605	11920
880.732	11817
880.859	12026
880.986	11863
881.112	11843
881.239	11882
881.366	11691
881.493	11710
881.619	11520
881.746	11665
881.872	11493
881.999	11486
882.125	11471
882.252	11615
882.378	11516
882.505	11657
882.631	11410
882.757	11341
882.883	11341
883.01	11265
883.136	11261
883.262	11174
883.388	11086
883.514	11204
883.64	11086
883.766	11094
883.892	10946
884.018	11045
884.143	11037
884.269	11117
884.395	10904
884.52	10850
884.646	10778
884.772	10691
884.897	10733
885.023	10687
885.148	10812
885.274	10816
885.399	10672
885.524	10596
885.65	10577
885.775	10558
885.9	10508
886.025	10569
886.15	10580
886.275	10485
886.4	10443
886.525	10455
886.65	10405
886.775	10318
886.9	10462
887.025	10554
887.149	10428
887.274	10223
887.399	10276
887.523	10246
887.648	10150
887.773	10154
887.897	10284
888.021	10223
888.146	10158
888.27	10249
888.395	10173
888.519	10188
888.643	10135
888.767	10166
888.891	10120
889.015	10055
889.139	10017
889.263	9968
889.387	10051
889.511	10131
889.635	10139
889.759	9994
889.883	9926
890.006	10021
890.13	10051
890.254	10059
890.377	9953
890.501	9953
890.624	9941
890.748	9865
890.871	9869
890.995	9793
891.118	9667
891.241	9819
891.364	9793
891.488	9755
891.611	9785
891.734	9720
891.857	9732
891.98	9740
892.103	9816
892.226	9751
892.349	9652
892.471	9519
892.594	9690
892.717	9633
892.839	9568
892.962	9686
893.085	9644
893.207	9660
893.33	9523
893.452	9511
893.575	9618
893.697	9545
893.819	9618
893.941	9625
894.064	9614
894.186	9485
894.308	9408
894.43	9545
894.552	9553
894.674	9530
894.796	9321
894.918	9439
895.04	9351
895.161	9443
895.283	9340
895.405	9287
895.526	9260
895.648	9237
895.769	9325
895.891	9264
896.012	9302
896.134	9230
896.255	9188
896.376	9116
896.498	9127
896.619	9154
896.74	9154
896.861	9039
896.982	9329
897.103	9340
897.224	9184
897.345	9051
897.466	9070
897.587	9009
897.708	9123
897.828	8990
897.949	8998
898.07	8944
898.19	9009
898.311	8994
898.431	8918
898.552	8933
898.672	8933
898.792	8948
898.913	8921
899.033	8830
899.153	8686
899.273	8644
899.393	8758
899.513	8678
899.633	8792
899.753	8777
899.873	8686
899.993	8788
900.113	8720
900.232	8674
900.352	8655
900.472	8697
900.591	8476
900.711	8568
900.83	8568
900.95	8651
901.069	8617
901.189	8564
901.308	8442
901.427	8461
901.546	8457
901.665	8419
901.784	8473
901.904	8355
902.023	8309
902.141	8267
902.26	8248
902.379	8256
902.498	8161
902.617	8199
902.735	8358
902.854	8309
902.973	8199
903.091	8191
903.21	8153
903.328	8214
903.446	8214
903.565	8103
903.683	8081
903.801	7974
903.919	8134
904.038	8092
904.156	7997
904.274	8103
904.392	8107
904.51	8020
904.627	8024
904.745	8054
904.863	8119
904.981	7978
905.098	7860
905.216	7928
905.334	7883
905.451	7974
905.569	7860
905.686	7932
905.803	7830
905.921	7811
906.038	7890
906.155	7799
906.272	7727
906.389	7708
906.506	7651
906.623	7651
906.74	7693
906.857	7578
906.974	7613
907.091	7712
907.208	7719
907.324	7689
907.441	7624
907.557	7487
907.674	7407
907.79	7339
907.907	7346
908.023	7373
908.139	7441
908.256	7369
908.372	7369
908.488	7377
908.604	7278
908.72	7213
908.836	7221
908.952	7247
909.068	7263
909.184	7312
909.3	7255
909.415	7308
909.531	7259
909.647	7175
909.762	7160
909.878	7061
909.993	7206
910.108	7046
910.224	7095
910.339	7152
910.454	7050
910.57	7019
910.685	6993
910.8	7187
910.915	7107
911.03	6989
911.145	6943
911.259	6916
911.374	6962
911.489	6764
911.604	6844
911.718	6684
911.833	6791
911.947	6688
912.062	6620
912.176	6741
912.291	6749
912.405	6662
912.519	6798
912.633	6848
912.748	6741
912.862	6730
912.976	6639
913.09	6517
913.204	6585
913.318	6639
913.431	6681
913.545	6749
913.659	6795
913.772	6646
913.886	6612
914	6566
914.113	6597
914.226	6631
914.34	6616
914.453	6464
914.566	6555
914.68	6566
914.793	6555
914.906	6418
915.019	6422
915.132	6418
915.245	6441
915.358	6433
915.47	6429
915.583	6460
915.696	6540
915.809	6547
915.921	6563
916.034	6445
916.146	6380
916.259	6429
916.371	6483
916.483	6460
916.595	6384
916.708	6437
916.82	6403
916.932	6346
917.044	6410
917.156	6410
917.268	6323
917.38	6338
917.491	6334
917.603	6361
917.715	6384
917.826	6403
917.938	6289
918.049	6251
918.161	6426
918.272	6448
918.384	6407
918.495	6372
918.606	6292
918.717	6266
918.828	6311
918.939	6251
919.05	6213
919.161	6300
919.272	6106
919.383	6133
919.494	6308
919.604	6388
919.715	6270
919.826	6258
919.936	6251
920.047	6323
920.157	6300
920.267	6456
920.378	6311
920.488	6323
920.598	6437
920.708	6574
920.818	6544
920.928	6475
921.038	6608
921.148	6585
921.258	6361
921.368	6346
921.477	6213
921.587	6190
921.697	6087
921.806	6148
921.916	6060
922.025	5908
922.134	5935
922.244	5821
922.353	5954
922.462	5840
922.571	5840
922.68	5695
922.789	5707
922.898	5733
923.007	5676
923.116	5688
923.224	5680
923.333	5707
923.442	5672
923.55	5562
923.659	5585
923.767	5592
923.876	5543
923.984	5611
924.092	5505
924.201	5543
924.309	5543
924.417	5562
924.525	5448
924.633	5501
924.741	6144
924.849	5417
924.956	5455
925.064	5391
925.172	5311
925.279	5315
925.387	5345
925.494	5368
925.602	5391
925.709	5368
925.816	5254
925.924	5345
926.031	5345
926.138	5307
926.245	5436
926.352	5201
926.459	5265
926.566	5326
926.673	5193
926.779	5197
926.886	5151
926.993	5037
927.099	5025
927.206	4968
927.312	4965
927.419	5018
927.525	4980
927.631	4991
927.737	4881
927.843	4930
927.95	4793
928.056	4847
928.162	4767
928.267	4824
928.373	5322
928.479	4843
928.585	4683
928.69	4767
928.796	4797
928.901	4679
929.007	4588
929.112	4683
929.218	4603
929.323	4615
929.428	4561
929.533	4691
929.638	4523
929.743	4546
929.848	4550
929.953	4558
930.058	4474
930.163	4325
930.267	4371
930.372	4436
930.477	4329
930.581	4485
930.685	4363
930.79	4268
930.894	4246
930.998	4257
931.103	4360
931.207	4135
931.311	4093
931.415	4086
931.519	3941
931.623	3945
