Data from glass_V78500241_159.txt Node
Date: Wed Sep 01 19:15:36 CST 2021
User: usil
Spectrometer: V785-0024
Trigger mode: 0
Integration Time (sec): 4.000000E-1
Scans to average: 1
Nonlinearity correction enabled: false
Boxcar width: 0
Storing dark spectrum: false
XAxis mode: Wavelengths
Number of Pixels in Spectrum: 1024
>>>>>Begin Spectral Data<<<<<
801.071	3797
801.214	3770
801.356	3709
801.499	3812
801.641	3736
801.783	3736
801.926	3873
802.068	3835
802.211	3846
802.353	3915
802.496	3842
802.638	3918
802.78	3911
802.923	3949
803.065	3930
803.208	3876
803.35	3892
803.492	3899
803.635	3899
803.777	3854
803.919	3926
804.061	4162
804.204	3979
804.346	3994
804.488	3934
804.63	4059
804.773	4013
804.915	4029
805.057	4139
805.199	4059
805.341	4109
805.483	4162
805.626	4131
805.768	4112
805.91	4238
806.052	4265
806.194	4188
806.336	4360
806.478	4227
806.62	4207
806.762	4188
806.904	4291
807.046	4367
807.188	4230
807.33	4192
807.472	4238
807.614	4234
807.756	4249
807.898	4249
808.04	4227
808.182	4314
808.324	4318
808.465	4363
808.607	4500
808.749	4474
808.891	4451
809.033	4478
809.174	4394
809.316	4303
809.458	4230
809.6	4162
809.741	4185
809.883	4181
810.025	4242
810.166	4169
810.308	4211
810.45	4268
810.591	4238
810.733	4265
810.875	4519
811.016	4831
811.158	5113
811.299	5318
811.441	5269
811.582	5033
811.724	4656
811.865	4474
812.007	4489
812.148	4424
812.29	4440
812.431	4409
812.573	4417
812.714	4405
812.855	4409
812.997	4428
813.138	4508
813.279	4402
813.421	4390
813.562	4421
813.703	4367
813.845	4356
813.986	4272
814.127	4265
814.268	4230
814.41	4295
814.551	4306
814.692	4344
814.833	4318
814.974	4287
815.115	4348
815.256	4272
815.397	4295
815.539	4249
815.68	4215
815.821	4257
815.962	4348
816.103	4287
816.244	4257
816.385	4238
816.526	4284
816.666	4200
816.807	4131
816.948	4188
817.089	4227
817.23	4112
817.371	4105
817.512	4067
817.653	4074
817.793	4040
817.934	4074
818.075	4067
818.216	4131
818.356	4063
818.497	4017
818.638	3949
818.778	3937
818.919	3915
819.06	3915
819.2	3941
819.341	3892
819.481	3831
819.622	3930
819.762	4040
819.903	3975
820.043	3911
820.184	3819
820.324	3827
820.465	3892
820.605	3846
820.746	3903
820.886	3857
821.026	3918
821.167	3937
821.307	4017
821.447	4025
821.588	3987
821.728	3998
821.868	4025
822.008	3896
822.149	3941
822.289	3983
822.429	3800
822.569	3778
822.709	3812
822.849	3724
822.99	3770
823.13	3819
823.27	3785
823.41	3686
823.55	3762
823.69	3717
823.83	3766
823.97	3736
824.11	3625
824.25	3637
824.389	3663
824.529	3717
824.669	3652
824.809	3728
824.949	3804
825.089	3728
825.228	3728
825.368	3572
825.508	3633
825.648	3576
825.787	3629
825.927	3644
826.067	3618
826.206	3705
826.346	3808
826.485	3861
826.625	3876
826.765	3937
826.904	3850
827.044	3641
827.183	3519
827.323	3428
827.462	3507
827.601	3439
827.741	3466
827.88	3462
828.02	3416
828.159	3447
828.298	3511
828.437	3576
828.577	3500
828.716	3633
828.855	3481
828.994	3386
829.134	3401
829.273	3378
829.412	3359
829.551	3336
829.69	3367
829.829	3466
829.968	3553
830.107	3469
830.246	3477
830.385	3389
830.524	3378
830.663	3294
830.802	3291
830.941	3237
831.08	3222
831.219	3253
831.357	3321
831.496	3370
831.635	3241
831.774	3203
831.913	3169
832.051	3157
832.19	3154
832.329	3226
832.467	3146
832.606	3123
832.744	3165
832.883	3176
833.022	3222
833.16	3268
833.299	3287
833.437	3367
833.576	3359
833.714	3382
833.852	3469
833.991	3485
834.129	3462
834.267	3458
834.406	3450
834.544	3492
834.682	3458
834.821	3447
834.959	3584
835.097	3439
835.235	3523
835.373	3496
835.511	3568
835.65	3500
835.788	3492
835.926	3447
836.064	3378
836.202	3443
836.34	3580
836.478	3656
836.615	3545
836.753	3644
836.891	3622
837.029	3652
837.167	3629
837.305	3568
837.443	3545
837.58	3534
837.718	3614
837.856	3580
837.993	3572
838.131	3622
838.269	3610
838.406	3610
838.544	3561
838.681	3500
838.819	3477
838.956	3420
839.094	3435
839.231	3450
839.369	3564
839.506	3766
839.643	3679
839.781	3469
839.918	3477
840.055	3580
840.193	3534
840.33	3545
840.467	3568
840.604	3629
840.742	3842
840.879	3564
841.016	3576
841.153	3610
841.29	3785
841.427	3717
841.564	3736
841.701	3762
841.838	3751
841.975	3736
842.112	3740
842.249	3648
842.385	3622
842.522	3831
842.659	3709
842.796	3686
842.933	3705
843.069	3728
843.206	3720
843.343	3804
843.479	3781
843.616	3819
843.752	3698
843.889	3713
844.025	3865
844.162	3732
844.298	3819
844.435	3804
844.571	3804
844.708	3918
844.844	4006
844.98	4059
845.117	4010
845.253	3945
845.389	3899
845.525	3975
845.661	3937
845.798	3896
845.934	4021
846.07	3953
846.206	4086
846.342	4131
846.478	4093
846.614	3960
846.75	3960
846.886	3926
847.022	4059
847.158	4048
847.294	3994
847.429	4063
847.565	4029
847.701	4219
847.837	3911
847.972	3850
848.108	4029
848.244	3926
848.379	3918
848.515	3873
848.65	3819
848.786	3850
848.921	3823
849.057	3991
849.192	3953
849.328	3934
849.463	3941
849.598	3915
849.734	3873
849.869	3800
850.004	3789
850.14	3846
850.275	3808
850.41	3793
850.545	3778
850.68	3819
850.815	3819
850.95	3827
851.085	3918
851.22	3888
851.355	3816
851.49	3857
851.625	3831
851.76	3819
851.895	3766
852.03	3724
852.165	3819
852.299	3857
852.434	3949
852.569	3823
852.703	3922
852.838	3937
852.973	4071
853.107	4036
853.242	3911
853.376	3884
853.511	3835
853.645	3846
853.78	3991
853.914	3953
854.048	3960
854.183	3854
854.317	3956
854.451	4093
854.585	3945
854.72	3926
854.854	4074
854.988	3953
855.122	3979
855.256	3934
855.39	3994
855.524	4109
855.658	4120
855.792	4105
855.926	4207
856.06	4177
856.194	4230
856.327	4181
856.461	4086
856.595	4166
856.729	4169
856.862	4322
856.996	4291
857.13	4341
857.263	4329
857.397	4383
857.53	4314
857.664	4363
857.797	4424
857.931	4443
858.064	4451
858.197	4451
858.331	4447
858.464	4417
858.597	4356
858.731	4424
858.864	4500
858.997	4516
859.13	4531
859.263	4561
859.396	4577
859.529	4535
859.662	4573
859.795	4558
859.928	4611
860.061	4702
860.194	4786
860.327	4656
860.46	4653
860.592	4786
860.725	4793
860.858	4793
860.99	4675
861.123	4729
861.256	4725
861.388	4774
861.521	5379
861.653	4721
861.786	4755
861.918	4706
862.05	4793
862.183	4820
862.315	4930
862.447	4915
862.58	4877
862.712	4809
862.844	4809
862.976	4885
863.108	4877
863.24	5292
863.372	4828
863.504	4911
863.636	4896
863.768	4965
863.9	4946
864.032	4946
864.164	4938
864.296	5018
864.428	5098
864.559	5121
864.691	5113
864.823	5083
864.954	5174
865.086	5159
865.217	5223
865.349	5064
865.48	5193
865.612	5220
865.743	5273
865.875	5193
866.006	5227
866.137	5261
866.269	5261
866.4	5299
866.531	5296
866.662	5242
866.793	5269
866.924	5280
867.055	5326
867.186	5349
867.317	5345
867.448	5387
867.579	5379
867.71	5410
867.841	5417
867.972	5459
868.103	5509
868.233	5505
868.364	5486
868.495	5535
868.625	5703
868.756	5821
868.886	5714
869.017	5726
869.147	5859
869.278	5863
869.408	5824
869.539	5897
869.669	5931
869.799	5954
869.929	6019
870.06	6026
870.19	6213
870.32	6266
870.45	6273
870.58	6353
870.71	6509
870.84	6490
870.97	6448
871.1	6464
871.23	6715
871.36	6696
871.489	6677
871.619	6768
871.749	6806
871.879	6825
872.008	6977
872.138	6954
872.267	6985
872.397	7053
872.526	7031
872.656	7118
872.785	7213
872.915	7354
873.044	7514
873.173	7594
873.303	7651
873.432	7757
873.561	7917
873.69	7887
873.819	7982
873.948	8149
874.077	8263
874.206	8358
874.335	8415
874.464	8640
874.593	8982
874.722	9036
874.851	9127
874.979	9260
875.108	9378
875.237	9450
875.365	9523
875.494	9705
875.623	9865
875.751	9804
875.88	10063
876.008	10154
876.136	10268
876.265	10531
876.393	10717
876.521	10767
876.65	10820
876.778	10850
876.906	10908
877.034	10980
877.162	11155
877.29	11132
877.418	11284
877.546	11387
877.674	11524
877.802	11547
877.93	11524
878.058	11638
878.185	11535
878.313	11672
878.441	11748
878.568	11661
878.696	11764
878.824	11889
878.951	11931
879.079	12045
879.206	12133
879.333	12057
879.461	11992
879.588	12110
879.715	12098
879.842	12117
879.97	12163
880.097	11813
880.224	11828
880.351	11832
880.478	11767
880.605	11847
880.732	11935
880.859	12060
880.986	11855
881.112	11843
881.239	11691
881.366	11611
881.493	11642
881.619	11459
881.746	11528
881.872	11509
881.999	11493
882.125	11467
882.252	11592
882.378	11554
882.505	11589
882.631	11406
882.757	11318
882.883	11326
883.01	11242
883.136	11185
883.262	11079
883.388	11162
883.514	11185
883.64	11227
883.766	11136
883.892	11022
884.018	11052
884.143	11090
884.269	11143
884.395	10908
884.52	10755
884.646	10763
884.772	10687
884.897	10660
885.023	10763
885.148	10687
885.274	10744
885.399	10774
885.524	10630
885.65	10603
885.775	10596
885.9	10573
886.025	10504
886.15	10569
886.275	10542
886.4	10344
886.525	10413
886.65	10360
886.775	10314
886.9	10443
887.025	10455
887.149	10382
887.274	10306
887.399	10223
887.523	10090
887.648	10040
887.773	10025
887.897	10261
888.021	10265
888.146	10116
888.27	10253
888.395	10234
888.519	10238
888.643	10261
888.767	10169
888.891	10150
889.015	9998
889.139	10101
889.263	9949
889.387	10143
889.511	10112
889.635	10017
889.759	9876
889.883	10032
890.006	9937
890.13	10063
890.254	10002
890.377	10013
890.501	9892
890.624	9835
890.748	9869
890.871	9797
890.995	9762
891.118	9759
891.241	9766
891.364	9762
891.488	9838
891.611	9717
891.734	9747
891.857	9823
891.98	9705
892.103	9766
892.226	9789
892.349	9728
892.471	9481
892.594	9625
892.717	9633
892.839	9576
892.962	9652
893.085	9625
893.207	9542
893.33	9473
893.452	9526
893.575	9644
893.697	9507
893.819	9580
893.941	9610
894.064	9637
894.186	9492
894.308	9412
894.43	9557
894.552	9652
894.674	9534
894.796	9462
894.918	9408
895.04	9386
895.161	9355
895.283	9256
895.405	9180
895.526	9275
895.648	9203
895.769	9233
895.891	9332
896.012	9222
896.134	9211
896.255	9184
896.376	9165
896.498	9218
896.619	9211
896.74	9081
896.861	9138
896.982	9321
897.103	9298
897.224	9195
897.345	9077
897.466	9036
897.587	8998
897.708	9131
897.828	9032
897.949	8960
898.07	8921
898.19	8895
898.311	8990
898.431	8872
898.552	8998
898.672	8986
898.792	8929
898.913	8921
899.033	8788
899.153	8777
899.273	8674
899.393	8769
899.513	8720
899.633	8754
899.753	8777
899.873	8781
899.993	8769
900.113	8739
900.232	8743
900.352	8697
900.472	8629
900.591	8594
900.711	8537
900.83	8575
900.95	8689
901.069	8667
901.189	8568
901.308	8465
901.427	8419
901.546	8450
901.665	8442
901.784	8549
901.904	8370
902.023	8324
902.141	8221
902.26	8187
902.379	8320
902.498	8271
902.617	8180
902.735	8301
902.854	8271
902.973	8195
903.091	8111
903.21	8157
903.328	8176
903.446	8084
903.565	8084
903.683	8142
903.801	8043
903.919	8100
904.038	8142
904.156	8046
904.274	8123
904.392	8005
904.51	8031
904.627	8008
904.745	8138
904.863	8096
904.981	7967
905.098	7947
905.216	7875
905.334	7940
905.451	7993
905.569	7864
905.686	7890
905.803	7974
905.921	7833
906.038	7887
906.155	7772
906.272	7799
906.389	7788
906.506	7616
906.623	7670
906.74	7658
906.857	7575
906.974	7533
907.091	7681
907.208	7693
907.324	7670
907.441	7586
907.557	7525
907.674	7449
907.79	7396
907.907	7430
908.023	7449
908.139	7449
908.256	7422
908.372	7381
908.488	7400
908.604	7327
908.72	7213
908.836	7266
908.952	7225
909.068	7217
909.184	7369
909.3	7255
909.415	7263
909.531	7343
909.647	7126
909.762	7091
909.878	7099
909.993	7168
910.108	7114
910.224	7095
910.339	7076
910.454	7107
910.57	6996
910.685	7000
910.8	7164
910.915	7137
911.03	7031
911.145	6901
911.259	6924
911.374	6932
911.489	6890
911.604	6814
911.718	6779
911.833	6738
911.947	6707
912.062	6589
912.176	6703
912.291	6760
912.405	6711
912.519	6840
912.633	6840
912.748	6738
912.862	6776
912.976	6631
913.09	6593
913.204	6616
913.318	6623
913.431	6692
913.545	6760
913.659	6795
913.772	6715
913.886	6559
914	6528
914.113	6620
914.226	6627
914.34	6604
914.453	6486
914.566	6684
914.68	6490
914.793	6578
914.906	6464
915.019	6437
915.132	6308
915.245	6448
915.358	6464
915.47	6479
915.583	6483
915.696	6551
915.809	6479
915.921	6540
916.034	6403
916.146	6456
916.259	6471
916.371	6483
916.483	6437
916.595	6350
916.708	6369
916.82	6399
916.932	6395
917.044	6407
917.156	6407
917.268	6350
917.38	6331
917.491	6353
917.603	6350
917.715	6399
917.826	6441
917.938	6342
918.049	6277
918.161	6334
918.272	6410
918.384	6380
918.495	6350
918.606	6300
918.717	6209
918.828	6262
918.939	6319
919.05	6209
919.161	6262
919.272	6190
919.383	6167
919.494	6334
919.604	6429
919.715	6327
919.826	6254
919.936	6289
920.047	6361
920.157	6251
920.267	6479
920.378	6315
920.488	6296
920.598	6483
920.708	6604
920.818	6502
920.928	6467
921.038	6616
921.148	6597
921.258	6350
921.368	6342
921.477	6220
921.587	6220
921.697	6106
921.806	6194
921.916	6117
922.025	6011
922.134	5927
922.244	5973
922.353	5988
922.462	5863
922.571	5817
922.68	5703
922.789	5653
922.898	5722
923.007	5627
923.116	5726
923.224	5714
923.333	5672
923.442	5630
923.55	5615
923.659	5585
923.767	5691
923.876	5573
923.984	5596
924.092	5535
924.201	5611
924.309	5592
924.417	5608
924.525	5570
924.633	5478
924.741	6125
924.849	5391
924.956	5520
925.064	5353
925.172	5322
925.279	5330
925.387	5398
925.494	5360
925.602	5440
925.709	5398
925.816	5299
925.924	5296
926.031	5383
926.138	5364
926.245	5330
926.352	5216
926.459	5330
926.566	5318
926.673	5216
926.779	5124
926.886	5140
926.993	5060
927.099	4980
927.206	4984
927.312	4980
927.419	5003
927.525	4976
927.631	4991
927.737	4927
927.843	4911
927.95	4778
928.056	4809
928.162	4843
928.267	4831
928.373	5322
928.479	4854
928.585	4721
928.69	4748
928.796	4862
928.901	4710
929.007	4634
929.112	4675
929.218	4656
929.323	4672
929.428	4573
929.533	4649
929.638	4523
929.743	4519
929.848	4554
929.953	4527
930.058	4379
930.163	4310
930.267	4360
930.372	4436
930.477	4318
930.581	4447
930.685	4424
930.79	4306
930.894	4306
930.998	4268
931.103	4379
931.207	4158
931.311	4074
931.415	4032
931.519	3949
931.623	3987
