Data from glass_V78500241_1929.txt Node
Date: Wed Sep 01 19:27:52 CST 2021
User: usil
Spectrometer: V785-0024
Trigger mode: 0
Integration Time (sec): 4.000000E-1
Scans to average: 1
Nonlinearity correction enabled: false
Boxcar width: 0
Storing dark spectrum: false
XAxis mode: Wavelengths
Number of Pixels in Spectrum: 1024
>>>>>Begin Spectral Data<<<<<
801.071	3747
801.214	3732
801.356	3705
801.499	3785
801.641	3766
801.783	3781
801.926	3857
802.068	3823
802.211	3842
802.353	3857
802.496	3804
802.638	3850
802.78	3896
802.923	3903
803.065	3915
803.208	3846
803.35	3831
803.492	3899
803.635	3930
803.777	3789
803.919	3865
804.061	4147
804.204	3964
804.346	3941
804.488	3911
804.63	4006
804.773	3975
804.915	4036
805.057	4150
805.199	4074
805.341	4059
805.483	4166
805.626	4109
805.768	4090
805.91	4211
806.052	4230
806.194	4166
806.336	4333
806.478	4207
806.62	4143
806.762	4166
806.904	4249
807.046	4344
807.188	4196
807.33	4158
807.472	4261
807.614	4185
807.756	4253
807.898	4188
808.04	4238
808.182	4322
808.324	4268
808.465	4417
808.607	4447
808.749	4398
808.891	4432
809.033	4500
809.174	4352
809.316	4318
809.458	4207
809.6	4166
809.741	4120
809.883	4120
810.025	4181
810.166	4211
810.308	4188
810.45	4242
810.591	4207
810.733	4246
810.875	4546
811.016	4870
811.158	5128
811.299	5277
811.441	5277
811.582	5033
811.724	4683
811.865	4428
812.007	4462
812.148	4424
812.29	4440
812.431	4394
812.573	4344
812.714	4379
812.855	4424
812.997	4409
813.138	4424
813.279	4413
813.421	4375
813.562	4356
813.703	4341
813.845	4329
813.986	4246
814.127	4211
814.268	4268
814.41	4249
814.551	4215
814.692	4352
814.833	4238
814.974	4268
815.115	4333
815.256	4272
815.397	4192
815.539	4268
815.68	4227
815.821	4185
815.962	4333
816.103	4295
816.244	4227
816.385	4204
816.526	4246
816.666	4162
816.807	4086
816.948	4177
817.089	4196
817.23	4109
817.371	4032
817.512	4063
817.653	4082
817.793	4021
817.934	4048
818.075	4097
818.216	4093
818.356	4074
818.497	4002
818.638	3911
818.778	3934
818.919	3876
819.06	3861
819.2	3907
819.341	3842
819.481	3835
819.622	3846
819.762	3994
819.903	3956
820.043	3880
820.184	3854
820.324	3778
820.465	3850
820.605	3857
820.746	3876
820.886	3819
821.026	3983
821.167	3937
821.307	3937
821.447	3945
821.588	3953
821.728	3994
821.868	3949
822.008	3838
822.149	3873
822.289	3926
822.429	3838
822.569	3736
822.709	3766
822.849	3679
822.99	3740
823.13	3778
823.27	3778
823.41	3682
823.55	3762
823.69	3736
823.83	3740
823.97	3679
824.11	3587
824.25	3618
824.389	3656
824.529	3682
824.669	3584
824.809	3679
824.949	3743
825.089	3682
825.228	3717
825.368	3584
825.508	3568
825.648	3557
825.787	3603
825.927	3633
826.067	3648
826.206	3667
826.346	3781
826.485	3816
826.625	3873
826.765	3926
826.904	3831
827.044	3610
827.183	3549
827.323	3416
827.462	3462
827.601	3386
827.741	3416
827.88	3443
828.02	3382
828.159	3447
828.298	3500
828.437	3504
828.577	3481
828.716	3572
828.855	3496
828.994	3370
829.134	3370
829.273	3374
829.412	3321
829.551	3336
829.69	3393
829.829	3355
829.968	3545
830.107	3416
830.246	3447
830.385	3355
830.524	3325
830.663	3291
830.802	3275
830.941	3195
831.08	3184
831.219	3291
831.357	3260
831.496	3367
831.635	3268
831.774	3157
831.913	3199
832.051	3142
832.19	3180
832.329	3226
832.467	3123
832.606	3138
832.744	3192
832.883	3184
833.022	3184
833.16	3253
833.299	3275
833.437	3340
833.576	3340
833.714	3397
833.852	3431
833.991	3481
834.129	3473
834.267	3409
834.406	3374
834.544	3428
834.682	3431
834.821	3386
834.959	3591
835.097	3420
835.235	3523
835.373	3481
835.511	3481
835.65	3466
835.788	3443
835.926	3435
836.064	3420
836.202	3405
836.34	3511
836.478	3595
836.615	3542
836.753	3568
836.891	3637
837.029	3629
837.167	3564
837.305	3549
837.443	3523
837.58	3466
837.718	3637
837.856	3542
837.993	3530
838.131	3606
838.269	3595
838.406	3629
838.544	3606
838.681	3500
838.819	3443
838.956	3359
839.094	3389
839.231	3428
839.369	3515
839.506	3698
839.643	3618
839.781	3534
839.918	3428
840.055	3523
840.193	3553
840.33	3519
840.467	3572
840.604	3576
840.742	3827
840.879	3542
841.016	3549
841.153	3595
841.29	3762
841.427	3694
841.564	3686
841.701	3728
841.838	3720
841.975	3720
842.112	3709
842.249	3606
842.385	3637
842.522	3846
842.659	3713
842.796	3637
842.933	3663
843.069	3675
843.206	3736
843.343	3804
843.479	3785
843.616	3774
843.752	3698
843.889	3667
844.025	3850
844.162	3762
844.298	3846
844.435	3808
844.571	3747
844.708	3873
844.844	3975
844.98	4025
845.117	3960
845.253	3949
845.389	3926
845.525	3998
845.661	3937
845.798	3937
845.934	4021
846.07	3968
846.206	4021
846.342	4109
846.478	4063
846.614	3987
846.75	3953
846.886	3907
847.022	3998
847.158	3998
847.294	4013
847.429	3987
847.565	3968
847.701	4215
847.837	3869
847.972	3869
848.108	4010
848.244	3949
848.379	3831
848.515	3793
848.65	3812
848.786	3831
848.921	3857
849.057	3915
849.192	3953
849.328	3899
849.463	3903
849.598	3842
849.734	3835
849.869	3835
850.004	3785
850.14	3854
850.275	3778
850.41	3770
850.545	3728
850.68	3766
850.815	3804
850.95	3800
851.085	3975
851.22	3861
851.355	3812
851.49	3804
851.625	3759
851.76	3732
851.895	3732
852.03	3705
852.165	3789
852.299	3850
852.434	3892
852.569	3827
852.703	3865
852.838	3899
852.973	3975
853.107	3998
853.242	3876
853.376	3819
853.511	3747
853.645	3827
853.78	4002
853.914	3876
854.048	3884
854.183	3903
854.317	3964
854.451	4067
854.585	3922
854.72	3922
854.854	4036
854.988	3934
855.122	3979
855.256	3911
855.39	4048
855.524	4116
855.658	4067
855.792	4131
855.926	4143
856.06	4177
856.194	4219
856.327	4169
856.461	4101
856.595	4120
856.729	4131
856.862	4261
856.996	4272
857.13	4299
857.263	4306
857.397	4348
857.53	4295
857.664	4344
857.797	4379
857.931	4424
858.064	4375
858.197	4421
858.331	4390
858.464	4398
858.597	4291
858.731	4440
858.864	4443
858.997	4462
859.13	4485
859.263	4569
859.396	4607
859.529	4531
859.662	4546
859.795	4474
859.928	4592
860.061	4721
860.194	4679
860.327	4710
860.46	4691
860.592	4729
860.725	4691
860.858	4744
860.99	4679
861.123	4706
861.256	4714
861.388	4790
861.521	5402
861.653	4706
861.786	4694
861.918	4744
862.05	4771
862.183	4835
862.315	4870
862.447	4927
862.58	4881
862.712	4778
862.844	4786
862.976	4862
863.108	4847
863.24	5147
863.372	4820
863.504	4881
863.636	4927
863.768	4995
863.9	5010
864.032	4896
864.164	4949
864.296	5083
864.428	5060
864.559	5071
864.691	5159
864.823	5121
864.954	5094
865.086	5159
865.217	5113
865.349	5098
865.48	5178
865.612	5193
865.743	5258
865.875	5185
866.006	5239
866.137	5231
866.269	5258
866.4	5280
866.531	5280
866.662	5193
866.793	5269
866.924	5296
867.055	5330
867.186	5364
867.317	5296
867.448	5299
867.579	5364
867.71	5345
867.841	5395
867.972	5417
868.103	5463
868.233	5482
868.364	5478
868.495	5570
868.625	5630
868.756	5828
868.886	5691
869.017	5729
869.147	5821
869.278	5851
869.408	5805
869.539	5832
869.669	5961
869.799	5859
869.929	5999
870.06	5965
870.19	6201
870.32	6159
870.45	6251
870.58	6338
870.71	6403
870.84	6490
870.97	6395
871.1	6448
871.23	6650
871.36	6654
871.489	6673
871.619	6730
871.749	6734
871.879	6814
872.008	7031
872.138	6935
872.267	6966
872.397	7042
872.526	6970
872.656	7038
872.785	7145
872.915	7400
873.044	7544
873.173	7548
873.303	7693
873.432	7727
873.561	7894
873.69	7875
873.819	7989
873.948	8168
874.077	8271
874.206	8355
874.335	8511
874.464	8670
874.593	8914
874.722	8971
874.851	9081
874.979	9230
875.108	9325
875.237	9435
875.365	9557
875.494	9644
875.623	9857
875.751	9865
875.88	10044
876.008	10154
876.136	10261
876.265	10500
876.393	10584
876.521	10653
876.65	10824
876.778	10843
876.906	10812
877.034	10919
877.162	11064
877.29	11216
877.418	11288
877.546	11280
877.674	11425
877.802	11539
877.93	11509
878.058	11604
878.185	11532
878.313	11570
878.441	11764
878.568	11661
878.696	11760
878.824	11817
878.951	11973
879.079	12026
879.206	12235
879.333	12095
879.461	12015
879.588	12076
879.715	11988
879.842	12106
879.97	12087
880.097	11817
880.224	11805
880.351	11882
880.478	11885
880.605	11821
880.732	11859
880.859	11901
880.986	11722
881.112	11786
881.239	11665
881.366	11505
881.493	11653
881.619	11566
881.746	11551
881.872	11589
881.999	11493
882.125	11486
882.252	11554
882.378	11509
882.505	11562
882.631	11356
882.757	11334
882.883	11246
883.01	11277
883.136	11147
883.262	11162
883.388	11098
883.514	11231
883.64	11193
883.766	11037
883.892	10999
884.018	11090
884.143	11045
884.269	11159
884.395	10858
884.52	10748
884.646	10824
884.772	10683
884.897	10706
885.023	10748
885.148	10736
885.274	10767
885.399	10649
885.524	10580
885.65	10599
885.775	10580
885.9	10531
886.025	10615
886.15	10615
886.275	10489
886.4	10432
886.525	10379
886.65	10325
886.775	10424
886.9	10440
887.025	10538
887.149	10474
887.274	10234
887.399	10234
887.523	10196
887.648	10131
887.773	10101
887.897	10272
888.021	10158
888.146	10101
888.27	10227
888.395	10135
888.519	10124
888.643	10169
888.767	10169
888.891	10097
889.015	10021
889.139	10040
889.263	9968
889.387	10105
889.511	10086
889.635	10166
889.759	10013
889.883	9937
890.006	9949
890.13	10116
890.254	10010
890.377	9854
890.501	9827
890.624	9816
890.748	9873
890.871	9793
890.995	9717
891.118	9641
891.241	9751
891.364	9774
891.488	9800
891.611	9679
891.734	9781
891.857	9713
891.98	9694
892.103	9785
892.226	9751
892.349	9686
892.471	9507
892.594	9656
892.717	9576
892.839	9599
892.962	9675
893.085	9701
893.207	9549
893.33	9526
893.452	9519
893.575	9526
893.697	9488
893.819	9584
893.941	9686
894.064	9545
894.186	9393
894.308	9435
894.43	9534
894.552	9564
894.674	9538
894.796	9363
894.918	9393
895.04	9370
895.161	9462
895.283	9355
895.405	9268
895.526	9249
895.648	9226
895.769	9241
895.891	9203
896.012	9294
896.134	9199
896.255	9161
896.376	9169
896.498	9127
896.619	9100
896.74	9085
896.861	9097
896.982	9169
897.103	9272
897.224	9173
897.345	9062
897.466	9032
897.587	9001
897.708	9089
897.828	8979
897.949	8963
898.07	8819
898.19	8941
898.311	9100
898.431	8906
898.552	8948
898.672	8925
898.792	8933
898.913	8853
899.033	8834
899.153	8788
899.273	8663
899.393	8716
899.513	8792
899.633	8663
899.753	8708
899.873	8693
899.993	8781
900.113	8686
900.232	8708
900.352	8678
900.472	8667
900.591	8492
900.711	8571
900.83	8533
900.95	8667
901.069	8758
901.189	8560
901.308	8450
901.427	8400
901.546	8427
901.665	8423
901.784	8457
901.904	8377
902.023	8370
902.141	8221
902.26	8244
902.379	8301
902.498	8202
902.617	8172
902.735	8332
902.854	8286
902.973	8195
903.091	8065
903.21	8123
903.328	8199
903.446	8202
903.565	8020
903.683	8100
903.801	8050
903.919	8134
904.038	8092
904.156	8039
904.274	8050
904.392	7959
904.51	8008
904.627	7997
904.745	8103
904.863	8077
904.981	7967
905.098	7887
905.216	7833
905.334	7928
905.451	7792
905.569	7875
905.686	7982
905.803	7932
905.921	7811
906.038	7860
906.155	7719
906.272	7719
906.389	7670
906.506	7563
906.623	7616
906.74	7510
906.857	7567
906.974	7567
907.091	7578
907.208	7704
907.324	7624
907.441	7556
907.557	7445
907.674	7445
907.79	7411
907.907	7384
908.023	7457
908.139	7457
908.256	7335
908.372	7453
908.488	7289
908.604	7274
908.72	7236
908.836	7266
908.952	7289
909.068	7247
909.184	7297
909.3	7263
909.415	7331
909.531	7293
909.647	7103
909.762	7110
909.878	7107
909.993	7114
910.108	7122
910.224	7107
910.339	7099
910.454	7023
910.57	6989
910.685	7019
910.8	7156
910.915	7084
911.03	7031
911.145	6886
911.259	6859
911.374	6894
911.489	6810
911.604	6840
911.718	6753
911.833	6757
911.947	6681
912.062	6582
912.176	6719
912.291	6654
912.405	6711
912.519	6859
912.633	6802
912.748	6734
912.862	6749
912.976	6604
913.09	6521
913.204	6597
913.318	6601
913.431	6696
913.545	6601
913.659	6738
913.772	6620
913.886	6540
914	6597
914.113	6578
914.226	6631
914.34	6574
914.453	6506
914.566	6574
914.68	6502
914.793	6528
914.906	6422
915.019	6422
915.132	6380
915.245	6353
915.358	6464
915.47	6467
915.583	6445
915.696	6452
915.809	6490
915.921	6525
916.034	6384
916.146	6380
916.259	6391
916.371	6490
916.483	6464
916.595	6380
916.708	6433
916.82	6388
916.932	6429
917.044	6372
917.156	6399
917.268	6376
917.38	6372
917.491	6277
917.603	6334
917.715	6410
917.826	6426
917.938	6365
918.049	6239
918.161	6296
918.272	6422
918.384	6452
918.495	6323
918.606	6239
918.717	6224
918.828	6311
918.939	6266
919.05	6167
919.161	6251
919.272	6091
919.383	6159
919.494	6258
919.604	6414
919.715	6273
919.826	6175
919.936	6209
920.047	6331
920.157	6277
920.267	6433
920.378	6296
920.488	6228
920.598	6403
920.708	6536
920.818	6437
920.928	6486
921.038	6597
921.148	6540
921.258	6395
921.368	6342
921.477	6258
921.587	6228
921.697	6129
921.806	6190
921.916	6038
922.025	5916
922.134	5897
922.244	5878
922.353	5904
922.462	5832
922.571	5756
922.68	5718
922.789	5710
922.898	5684
923.007	5627
923.116	5722
923.224	5615
923.333	5623
923.442	5547
923.55	5577
923.659	5577
923.767	5600
923.876	5505
923.984	5600
924.092	5486
924.201	5539
924.309	5497
924.417	5573
924.525	5505
924.633	5425
924.741	6262
924.849	5398
924.956	5436
925.064	5337
925.172	5273
925.279	5311
925.387	5372
925.494	5311
925.602	5406
925.709	5353
925.816	5299
925.924	5277
926.031	5372
926.138	5307
926.245	5303
926.352	5220
926.459	5357
926.566	5326
926.673	5246
926.779	5166
926.886	5071
926.993	5041
927.099	5018
927.206	4999
927.312	4942
927.419	5010
927.525	4949
927.631	4987
927.737	4885
927.843	4873
927.95	4797
928.056	4805
928.162	4801
928.267	4816
928.373	5284
928.479	4892
928.585	4710
928.69	4767
928.796	4763
928.901	4668
929.007	4592
929.112	4691
929.218	4580
929.323	4558
929.428	4561
929.533	4626
929.638	4546
929.743	4554
929.848	4577
929.953	4489
930.058	4413
930.163	4314
930.267	4367
930.372	4379
930.477	4299
930.581	4447
930.685	4360
930.79	4249
930.894	4261
930.998	4246
931.103	4344
931.207	4097
931.311	4071
931.415	4006
931.519	3903
931.623	3945
