Data from glass_V78500241_618.txt Node
Date: Wed Sep 01 19:18:47 CST 2021
User: usil
Spectrometer: V785-0024
Trigger mode: 0
Integration Time (sec): 4.000000E-1
Scans to average: 1
Nonlinearity correction enabled: false
Boxcar width: 0
Storing dark spectrum: false
XAxis mode: Wavelengths
Number of Pixels in Spectrum: 1024
>>>>>Begin Spectral Data<<<<<
801.071	3751
801.214	3759
801.356	3740
801.499	3759
801.641	3728
801.783	3793
801.926	3865
802.068	3835
802.211	3880
802.353	3888
802.496	3846
802.638	3892
802.78	3842
802.923	3991
803.065	3926
803.208	3854
803.35	3884
803.492	3941
803.635	3911
803.777	3812
803.919	3907
804.061	4204
804.204	4006
804.346	3960
804.488	3968
804.63	4063
804.773	3987
804.915	4071
805.057	4112
805.199	4071
805.341	4124
805.483	4128
805.626	4147
805.768	4078
805.91	4249
806.052	4261
806.194	4200
806.336	4344
806.478	4204
806.62	4169
806.762	4154
806.904	4242
807.046	4360
807.188	4200
807.33	4211
807.472	4211
807.614	4272
807.756	4295
807.898	4253
808.04	4196
808.182	4265
808.324	4352
808.465	4417
808.607	4478
808.749	4447
808.891	4481
809.033	4512
809.174	4417
809.316	4284
809.458	4249
809.6	4181
809.741	4177
809.883	4158
810.025	4242
810.166	4204
810.308	4246
810.45	4246
810.591	4272
810.733	4276
810.875	4531
811.016	4809
811.158	5109
811.299	5227
811.441	5322
811.582	5064
811.724	4698
811.865	4470
812.007	4440
812.148	4459
812.29	4405
812.431	4421
812.573	4413
812.714	4436
812.855	4451
812.997	4432
813.138	4504
813.279	4421
813.421	4360
813.562	4398
813.703	4367
813.845	4383
813.986	4276
814.127	4242
814.268	4295
814.41	4246
814.551	4253
814.692	4333
814.833	4257
814.974	4329
815.115	4375
815.256	4276
815.397	4249
815.539	4261
815.68	4242
815.821	4204
815.962	4333
816.103	4291
816.244	4230
816.385	4280
816.526	4223
816.666	4238
816.807	4128
816.948	4177
817.089	4192
817.23	4139
817.371	4101
817.512	4116
817.653	4116
817.793	4036
817.934	4029
818.075	4093
818.216	4090
818.356	4093
818.497	3937
818.638	3930
818.778	3983
818.919	3850
819.06	3888
819.2	3922
819.341	3846
819.481	3854
819.622	3873
819.762	4040
819.903	4002
820.043	3903
820.184	3838
820.324	3838
820.465	3861
820.605	3854
820.746	3865
820.886	3850
821.026	3945
821.167	3956
821.307	3979
821.447	3998
821.588	3941
821.728	3975
821.868	3934
822.008	3865
822.149	3934
822.289	3941
822.429	3789
822.569	3800
822.709	3804
822.849	3713
822.99	3766
823.13	3728
823.27	3812
823.41	3751
823.55	3755
823.69	3713
823.83	3713
823.97	3686
824.11	3652
824.25	3603
824.389	3656
824.529	3663
824.669	3633
824.809	3766
824.949	3732
825.089	3766
825.228	3701
825.368	3595
825.508	3572
825.648	3599
825.787	3603
825.927	3660
826.067	3641
826.206	3694
826.346	3800
826.485	3876
826.625	3903
826.765	3922
826.904	3842
827.044	3671
827.183	3576
827.323	3443
827.462	3500
827.601	3458
827.741	3466
827.88	3473
828.02	3367
828.159	3458
828.298	3500
828.437	3504
828.577	3462
828.716	3625
828.855	3481
828.994	3393
829.134	3401
829.273	3355
829.412	3363
829.551	3321
829.69	3386
829.829	3431
829.968	3553
830.107	3481
830.246	3443
830.385	3416
830.524	3389
830.663	3321
830.802	3256
830.941	3195
831.08	3180
831.219	3287
831.357	3272
831.496	3416
831.635	3253
831.774	3226
831.913	3218
832.051	3135
832.19	3165
832.329	3203
832.467	3157
832.606	3138
832.744	3184
832.883	3188
833.022	3207
833.16	3313
833.299	3359
833.437	3374
833.576	3382
833.714	3454
833.852	3428
833.991	3477
834.129	3488
834.267	3447
834.406	3439
834.544	3458
834.682	3431
834.821	3405
834.959	3572
835.097	3454
835.235	3526
835.373	3507
835.511	3477
835.65	3477
835.788	3485
835.926	3420
836.064	3374
836.202	3420
836.34	3580
836.478	3595
836.615	3561
836.753	3614
836.891	3660
837.029	3637
837.167	3595
837.305	3561
837.443	3549
837.58	3477
837.718	3614
837.856	3595
837.993	3542
838.131	3587
838.269	3587
838.406	3625
838.544	3576
838.681	3485
838.819	3443
838.956	3363
839.094	3378
839.231	3435
839.369	3530
839.506	3759
839.643	3625
839.781	3500
839.918	3488
840.055	3584
840.193	3553
840.33	3526
840.467	3568
840.604	3648
840.742	3793
840.879	3553
841.016	3591
841.153	3637
841.29	3747
841.427	3755
841.564	3724
841.701	3766
841.838	3698
841.975	3690
842.112	3736
842.249	3652
842.385	3622
842.522	3804
842.659	3682
842.796	3663
842.933	3720
843.069	3705
843.206	3698
843.343	3846
843.479	3785
843.616	3804
843.752	3694
843.889	3663
844.025	3884
844.162	3759
844.298	3884
844.435	3804
844.571	3816
844.708	3896
844.844	4013
844.98	4044
845.117	4063
845.253	3953
845.389	3903
845.525	3968
845.661	3975
845.798	3930
845.934	4051
846.07	3956
846.206	4013
846.342	4147
846.478	4116
846.614	3994
846.75	3907
846.886	3915
847.022	4048
847.158	4029
847.294	4010
847.429	4048
847.565	4021
847.701	4219
847.837	3907
847.972	3869
848.108	3994
848.244	3991
848.379	3884
848.515	3857
848.65	3838
848.786	3850
848.921	3846
849.057	3930
849.192	3960
849.328	3949
849.463	3892
849.598	3922
849.734	3865
849.869	3835
850.004	3842
850.14	3797
850.275	3793
850.41	3789
850.545	3713
850.68	3793
850.815	3785
850.95	3797
851.085	3934
851.22	3838
851.355	3831
851.49	3816
851.625	3816
851.76	3816
851.895	3736
852.03	3781
852.165	3808
852.299	3876
852.434	3911
852.569	3903
852.703	3911
852.838	3907
852.973	3956
853.107	4002
853.242	3930
853.376	3857
853.511	3800
853.645	3869
853.78	4010
853.914	3922
854.048	3915
854.183	3876
854.317	4002
854.451	4101
854.585	3934
854.72	3972
854.854	4093
854.988	3930
855.122	4044
855.256	3926
855.39	4051
855.524	4105
855.658	4173
855.792	4074
855.926	4196
856.06	4253
856.194	4204
856.327	4150
856.461	4162
856.595	4188
856.729	4154
856.862	4322
856.996	4230
857.13	4303
857.263	4386
857.397	4333
857.53	4276
857.664	4337
857.797	4417
857.931	4424
858.064	4402
858.197	4481
858.331	4371
858.464	4360
858.597	4356
858.731	4417
858.864	4481
858.997	4470
859.13	4504
859.263	4531
859.396	4611
859.529	4512
859.662	4554
859.795	4531
859.928	4592
860.061	4710
860.194	4729
860.327	4626
860.46	4679
860.592	4736
860.725	4774
860.858	4774
860.99	4725
861.123	4706
861.256	4706
861.388	4767
861.521	5402
861.653	4797
861.786	4710
861.918	4729
862.05	4801
862.183	4839
862.315	4885
862.447	4938
862.58	4862
862.712	4862
862.844	4721
862.976	4908
863.108	4892
863.24	5185
863.372	4843
863.504	4854
863.636	4919
863.768	4980
863.9	5025
864.032	4968
864.164	4984
864.296	5037
864.428	5109
864.559	5060
864.691	5162
864.823	5121
864.954	5189
865.086	5159
865.217	5098
865.349	5128
865.48	5185
865.612	5220
865.743	5345
865.875	5128
866.006	5227
866.137	5269
866.269	5239
866.4	5288
866.531	5239
866.662	5231
866.793	5345
866.924	5269
867.055	5337
867.186	5318
867.317	5387
867.448	5345
867.579	5395
867.71	5417
867.841	5406
867.972	5444
868.103	5543
868.233	5509
868.364	5539
868.495	5543
868.625	5703
868.756	5817
868.886	5661
869.017	5722
869.147	5847
869.278	5927
869.408	5809
869.539	5809
869.669	5942
869.799	5920
869.929	6011
870.06	6038
870.19	6205
870.32	6163
870.45	6281
870.58	6331
870.71	6399
870.84	6513
870.97	6433
871.1	6418
871.23	6623
871.36	6688
871.489	6662
871.619	6772
871.749	6810
871.879	6818
872.008	7008
872.138	7004
872.267	7042
872.397	7019
872.526	6993
872.656	7137
872.785	7209
872.915	7419
873.044	7476
873.173	7548
873.303	7674
873.432	7689
873.561	7898
873.69	7917
873.819	7982
873.948	8199
874.077	8275
874.206	8328
874.335	8434
874.464	8587
874.593	8845
874.722	8902
874.851	9104
874.979	9245
875.108	9363
875.237	9370
875.365	9523
875.494	9698
875.623	9785
875.751	9797
875.88	9987
876.008	10128
876.136	10299
876.265	10459
876.393	10725
876.521	10694
876.65	10820
876.778	10908
876.906	10995
877.034	10976
877.162	11083
877.29	11162
877.418	11269
877.546	11349
877.674	11490
877.802	11512
877.93	11478
878.058	11524
878.185	11570
878.313	11688
878.441	11680
878.568	11668
878.696	11771
878.824	11889
878.951	11843
879.079	12030
879.206	12171
879.333	12098
879.461	12079
879.588	12117
879.715	12087
879.842	12285
879.97	12034
880.097	11840
880.224	11847
880.351	11889
880.478	11882
880.605	11798
880.732	11828
880.859	12038
880.986	11775
881.112	11775
881.239	11832
881.366	11589
881.493	11600
881.619	11642
881.746	11604
881.872	11627
881.999	11566
882.125	11452
882.252	11558
882.378	11524
882.505	11512
882.631	11406
882.757	11326
882.883	11303
883.01	11326
883.136	11147
883.262	11128
883.388	11132
883.514	11197
883.64	11151
883.766	11204
883.892	10961
884.018	10972
884.143	11124
884.269	11048
884.395	10824
884.52	10809
884.646	10748
884.772	10683
884.897	10675
885.023	10672
885.148	10710
885.274	10733
885.399	10763
885.524	10596
885.65	10637
885.775	10584
885.9	10542
886.025	10580
886.15	10584
886.275	10413
886.4	10363
886.525	10424
886.65	10382
886.775	10344
886.9	10421
887.025	10584
887.149	10356
887.274	10287
887.399	10280
887.523	10109
887.648	10112
887.773	10124
887.897	10299
888.021	10211
888.146	10143
888.27	10196
888.395	10280
888.519	10181
888.643	10128
888.767	10234
888.891	10101
889.015	10002
889.139	10032
889.263	10044
889.387	10090
889.511	10036
889.635	10063
889.759	10059
889.883	9987
890.006	10071
890.13	10143
890.254	9915
890.377	9998
890.501	9876
890.624	9842
890.748	9903
890.871	9808
890.995	9740
891.118	9728
891.241	9713
891.364	9747
891.488	9804
891.611	9778
891.734	9808
891.857	9793
891.98	9728
892.103	9774
892.226	9694
892.349	9618
892.471	9511
892.594	9637
892.717	9671
892.839	9644
892.962	9591
893.085	9641
893.207	9568
893.33	9496
893.452	9523
893.575	9587
893.697	9439
893.819	9629
893.941	9656
894.064	9580
894.186	9481
894.308	9408
894.43	9614
894.552	9538
894.674	9584
894.796	9370
894.918	9412
895.04	9355
895.161	9374
895.283	9389
895.405	9230
895.526	9287
895.648	9241
895.769	9264
895.891	9283
896.012	9310
896.134	9249
896.255	9192
896.376	9173
896.498	9123
896.619	9135
896.74	9146
896.861	9085
896.982	9321
897.103	9412
897.224	9241
897.345	9081
897.466	9032
897.587	9017
897.708	9108
897.828	9100
897.949	8899
898.07	8864
898.19	8941
898.311	9013
898.431	8941
898.552	8948
898.672	9001
898.792	8925
898.913	8880
899.033	8895
899.153	8788
899.273	8686
899.393	8708
899.513	8731
899.633	8800
899.753	8754
899.873	8750
899.993	8758
900.113	8663
900.232	8735
900.352	8636
900.472	8579
900.591	8526
900.711	8617
900.83	8617
900.95	8670
901.069	8716
901.189	8568
901.308	8480
901.427	8381
901.546	8446
901.665	8499
901.784	8514
901.904	8465
902.023	8290
902.141	8313
902.26	8229
902.379	8267
902.498	8214
902.617	8218
902.735	8324
902.854	8229
902.973	8244
903.091	8126
903.21	8111
903.328	8195
903.446	8180
903.565	8077
903.683	8088
903.801	8100
903.919	8092
904.038	8176
904.156	8069
904.274	8065
904.392	7921
904.51	8024
904.627	8024
904.745	8103
904.863	8073
904.981	7967
905.098	7864
905.216	7868
905.334	8058
905.451	7936
905.569	7898
905.686	7951
905.803	7963
905.921	7818
906.038	7909
906.155	7792
906.272	7727
906.389	7693
906.506	7670
906.623	7647
906.74	7616
906.857	7552
906.974	7597
907.091	7696
907.208	7738
907.324	7575
907.441	7552
907.557	7495
907.674	7438
907.79	7411
907.907	7438
908.023	7468
908.139	7449
908.256	7419
908.372	7388
908.488	7365
908.604	7282
908.72	7240
908.836	7198
908.952	7278
909.068	7308
909.184	7373
909.3	7251
909.415	7301
909.531	7324
909.647	7122
909.762	7129
909.878	7137
909.993	7099
910.108	7156
910.224	7046
910.339	7160
910.454	7031
910.57	7034
910.685	6962
910.8	7126
910.915	7110
911.03	7008
911.145	6916
911.259	6886
911.374	6932
911.489	6806
911.604	6798
911.718	6779
911.833	6741
911.947	6696
912.062	6601
912.176	6741
912.291	6669
912.405	6662
912.519	6833
912.633	6852
912.748	6837
912.862	6726
912.976	6574
913.09	6589
913.204	6574
913.318	6631
913.431	6715
913.545	6658
913.659	6726
913.772	6673
913.886	6650
914	6517
914.113	6570
914.226	6623
914.34	6650
914.453	6467
914.566	6681
914.68	6525
914.793	6574
914.906	6460
915.019	6395
915.132	6403
915.245	6403
915.358	6437
915.47	6395
915.583	6441
915.696	6471
915.809	6525
915.921	6574
916.034	6479
916.146	6429
916.259	6399
916.371	6494
916.483	6407
916.595	6342
916.708	6384
916.82	6433
916.932	6407
917.044	6399
917.156	6388
917.268	6323
917.38	6350
917.491	6319
917.603	6327
917.715	6407
917.826	6479
917.938	6372
918.049	6308
918.161	6357
918.272	6418
918.384	6395
918.495	6304
918.606	6289
918.717	6213
918.828	6270
918.939	6311
919.05	6159
919.161	6235
919.272	6148
919.383	6190
919.494	6311
919.604	6433
919.715	6331
919.826	6205
919.936	6235
920.047	6357
920.157	6273
920.267	6426
920.378	6285
920.488	6315
920.598	6467
920.708	6547
920.818	6486
920.928	6502
921.038	6601
921.148	6555
921.258	6327
921.368	6327
921.477	6213
921.587	6239
921.697	6125
921.806	6205
921.916	6140
922.025	5935
922.134	5920
922.244	5961
922.353	5988
922.462	5851
922.571	5824
922.68	5699
922.789	5741
922.898	5691
923.007	5661
923.116	5703
923.224	5668
923.333	5642
923.442	5608
923.55	5596
923.659	5558
923.767	5630
923.876	5592
923.984	5619
924.092	5486
924.201	5558
924.309	5585
924.417	5532
924.525	5512
924.633	5516
924.741	6289
924.849	5395
924.956	5509
925.064	5353
925.172	5345
925.279	5383
925.387	5395
925.494	5311
925.602	5444
925.709	5376
925.816	5334
925.924	5303
926.031	5368
926.138	5265
926.245	5337
926.352	5250
926.459	5353
926.566	5391
926.673	5269
926.779	5140
926.886	5132
926.993	5086
927.099	5022
927.206	5041
927.312	5006
927.419	5056
927.525	4953
927.631	5003
927.737	4873
927.843	4870
927.95	4797
928.056	4843
928.162	4835
928.267	4881
928.373	5288
928.479	4858
928.585	4748
928.69	4805
928.796	4801
928.901	4683
929.007	4626
929.112	4733
929.218	4656
929.323	4630
929.428	4569
929.533	4679
929.638	4538
929.743	4500
929.848	4561
929.953	4493
930.058	4462
930.163	4344
930.267	4352
930.372	4440
930.477	4295
930.581	4489
930.685	4341
930.79	4265
930.894	4299
930.998	4314
931.103	4417
931.207	4147
931.311	4131
931.415	4059
931.519	3964
931.623	3968
