Data from glass_V78500241_2337.txt Node
Date: Wed Sep 01 19:30:42 CST 2021
User: usil
Spectrometer: V785-0024
Trigger mode: 0
Integration Time (sec): 4.000000E-1
Scans to average: 1
Nonlinearity correction enabled: false
Boxcar width: 0
Storing dark spectrum: false
XAxis mode: Wavelengths
Number of Pixels in Spectrum: 1024
>>>>>Begin Spectral Data<<<<<
801.071	3709
801.214	3728
801.356	3682
801.499	3736
801.641	3724
801.783	3789
801.926	3835
802.068	3789
802.211	3861
802.353	3835
802.496	3838
802.638	3854
802.78	3892
802.923	3911
803.065	3911
803.208	3850
803.35	3915
803.492	3899
803.635	3869
803.777	3823
803.919	3892
804.061	4128
804.204	3911
804.346	3896
804.488	3907
804.63	3994
804.773	3979
804.915	4025
805.057	4169
805.199	4021
805.341	4128
805.483	4093
805.626	4131
805.768	4093
805.91	4192
806.052	4150
806.194	4188
806.336	4322
806.478	4238
806.62	4173
806.762	4196
806.904	4261
807.046	4341
807.188	4219
807.33	4207
807.472	4253
807.614	4268
807.756	4253
807.898	4227
808.04	4253
808.182	4280
808.324	4314
808.465	4383
808.607	4436
808.749	4489
808.891	4481
809.033	4481
809.174	4432
809.316	4238
809.458	4272
809.6	4204
809.741	4158
809.883	4112
810.025	4196
810.166	4204
810.308	4177
810.45	4253
810.591	4200
810.733	4291
810.875	4462
811.016	4843
811.158	5109
811.299	5261
811.441	5284
811.582	5022
811.724	4694
811.865	4466
812.007	4466
812.148	4500
812.29	4402
812.431	4405
812.573	4413
812.714	4440
812.855	4428
812.997	4390
813.138	4447
813.279	4344
813.421	4421
813.562	4375
813.703	4367
813.845	4344
813.986	4249
814.127	4227
814.268	4265
814.41	4287
814.551	4227
814.692	4337
814.833	4238
814.974	4306
815.115	4318
815.256	4242
815.397	4215
815.539	4234
815.68	4242
815.821	4204
815.962	4318
816.103	4303
816.244	4215
816.385	4204
816.526	4215
816.666	4207
816.807	4105
816.948	4158
817.089	4162
817.23	4112
817.371	4036
817.512	4025
817.653	4090
817.793	4010
817.934	4040
818.075	4090
818.216	4071
818.356	4078
818.497	3983
818.638	3915
818.778	3941
818.919	3888
819.06	3827
819.2	3888
819.341	3835
819.481	3865
819.622	3918
819.762	3987
819.903	3926
820.043	3869
820.184	3800
820.324	3812
820.465	3884
820.605	3808
820.746	3865
820.886	3823
821.026	3991
821.167	3918
821.307	3949
821.447	3983
821.588	3941
821.728	3899
821.868	3960
822.008	3876
822.149	3896
822.289	3922
822.429	3793
822.569	3789
822.709	3808
822.849	3667
822.99	3679
823.13	3755
823.27	3759
823.41	3709
823.55	3747
823.69	3728
823.83	3720
823.97	3679
824.11	3603
824.25	3553
824.389	3637
824.529	3629
824.669	3591
824.809	3686
824.949	3698
825.089	3743
825.228	3717
825.368	3603
825.508	3568
825.648	3530
825.787	3568
825.927	3622
826.067	3622
826.206	3637
826.346	3835
826.485	3797
826.625	3876
826.765	3915
826.904	3838
827.044	3644
827.183	3526
827.323	3447
827.462	3492
827.601	3409
827.741	3435
827.88	3473
828.02	3370
828.159	3428
828.298	3485
828.437	3542
828.577	3435
828.716	3591
828.855	3507
828.994	3336
829.134	3332
829.273	3378
829.412	3363
829.551	3291
829.69	3374
829.829	3454
829.968	3492
830.107	3416
830.246	3416
830.385	3389
830.524	3344
830.663	3313
830.802	3260
830.941	3195
831.08	3176
831.219	3222
831.357	3218
831.496	3386
831.635	3222
831.774	3173
831.913	3199
832.051	3138
832.19	3169
832.329	3180
832.467	3150
832.606	3077
832.744	3195
832.883	3184
833.022	3161
833.16	3230
833.299	3313
833.437	3374
833.576	3344
833.714	3382
833.852	3420
833.991	3431
834.129	3450
834.267	3443
834.406	3412
834.544	3412
834.682	3428
834.821	3405
834.959	3530
835.097	3424
835.235	3511
835.373	3496
835.511	3507
835.65	3469
835.788	3466
835.926	3401
836.064	3344
836.202	3439
836.34	3591
836.478	3599
836.615	3523
836.753	3595
836.891	3644
837.029	3603
837.167	3515
837.305	3557
837.443	3580
837.58	3477
837.718	3591
837.856	3564
837.993	3530
838.131	3557
838.269	3561
838.406	3618
838.544	3511
838.681	3481
838.819	3435
838.956	3355
839.094	3344
839.231	3450
839.369	3504
839.506	3705
839.643	3595
839.781	3431
839.918	3519
840.055	3492
840.193	3523
840.33	3519
840.467	3553
840.604	3572
840.742	3816
840.879	3526
841.016	3485
841.153	3641
841.29	3732
841.427	3713
841.564	3701
841.701	3724
841.838	3641
841.975	3648
842.112	3671
842.249	3622
842.385	3625
842.522	3831
842.659	3682
842.796	3656
842.933	3682
843.069	3701
843.206	3698
843.343	3789
843.479	3778
843.616	3797
843.752	3644
843.889	3629
844.025	3816
844.162	3720
844.298	3869
844.435	3743
844.571	3804
844.708	3869
844.844	3998
844.98	3987
845.117	3987
845.253	3903
845.389	3865
845.525	3964
845.661	3964
845.798	3899
845.934	4017
846.07	3949
846.206	4036
846.342	4048
846.478	4013
846.614	3975
846.75	3937
846.886	3873
847.022	4032
847.158	3972
847.294	3991
847.429	4025
847.565	3964
847.701	4207
847.837	3876
847.972	3884
848.108	3945
848.244	3998
848.379	3812
848.515	3766
848.65	3831
848.786	3857
848.921	3857
849.057	3907
849.192	3903
849.328	3926
849.463	3857
849.598	3903
849.734	3896
849.869	3808
850.004	3781
850.14	3797
850.275	3766
850.41	3747
850.545	3720
850.68	3804
850.815	3720
850.95	3747
851.085	3911
851.22	3823
851.355	3808
851.49	3774
851.625	3747
851.76	3785
851.895	3682
852.03	3709
852.165	3789
852.299	3835
852.434	3884
852.569	3831
852.703	3838
852.838	3937
852.973	3983
853.107	3964
853.242	3876
853.376	3850
853.511	3774
853.645	3812
853.78	3975
853.914	3907
854.048	3857
854.183	3930
854.317	3930
854.451	4032
854.585	4006
854.72	3918
854.854	4032
854.988	3945
855.122	3979
855.256	3972
855.39	4032
855.524	4139
855.658	4093
855.792	4090
855.926	4143
856.06	4131
856.194	4207
856.327	4135
856.461	4109
856.595	4147
856.729	4185
856.862	4238
856.996	4238
857.13	4337
857.263	4291
857.397	4333
857.53	4287
857.664	4360
857.797	4383
857.931	4405
858.064	4443
858.197	4447
858.331	4390
858.464	4363
858.597	4329
858.731	4440
858.864	4447
858.997	4474
859.13	4550
859.263	4500
859.396	4561
859.529	4500
859.662	4542
859.795	4512
859.928	4599
860.061	4736
860.194	4725
860.327	4607
860.46	4622
860.592	4755
860.725	4778
860.858	4820
860.99	4691
861.123	4660
861.256	4691
861.388	4752
861.521	5242
861.653	4710
861.786	4702
861.918	4771
862.05	4778
862.183	4824
862.315	4930
862.447	4877
862.58	4877
862.712	4793
862.844	4771
862.976	4892
863.108	4930
863.24	5193
863.372	4778
863.504	4877
863.636	4877
863.768	4965
863.9	4946
864.032	4908
864.164	4965
864.296	4980
864.428	5056
864.559	5094
864.691	5060
864.823	5128
864.954	5140
865.086	5109
865.217	5094
865.349	5143
865.48	5166
865.612	5178
865.743	5292
865.875	5227
866.006	5170
866.137	5223
866.269	5235
866.4	5254
866.531	5227
866.662	5181
866.793	5261
866.924	5303
867.055	5315
867.186	5311
867.317	5349
867.448	5337
867.579	5368
867.71	5383
867.841	5376
867.972	5421
868.103	5421
868.233	5463
868.364	5493
868.495	5535
868.625	5634
868.756	5794
868.886	5638
869.017	5707
869.147	5847
869.278	5847
869.408	5760
869.539	5840
869.669	5836
869.799	5927
869.929	5954
870.06	5954
870.19	6163
870.32	6136
870.45	6254
870.58	6353
870.71	6414
870.84	6448
870.97	6437
871.1	6441
871.23	6700
871.36	6650
871.489	6650
871.619	6795
871.749	6802
871.879	6856
872.008	6970
872.138	6985
872.267	6966
872.397	7027
872.526	7019
872.656	7069
872.785	7202
872.915	7392
873.044	7495
873.173	7521
873.303	7571
873.432	7765
873.561	7947
873.69	7913
873.819	8016
873.948	8142
874.077	8206
874.206	8275
874.335	8370
874.464	8705
874.593	8804
874.722	8960
874.851	9104
874.979	9272
875.108	9279
875.237	9389
875.365	9481
875.494	9637
875.623	9800
875.751	9785
875.88	9998
876.008	10074
876.136	10261
876.265	10466
876.393	10645
876.521	10714
876.65	10843
876.778	10816
876.906	10892
877.034	11014
877.162	11105
877.29	11147
877.418	11277
877.546	11349
877.674	11417
877.802	11448
877.93	11608
878.058	11528
878.185	11493
878.313	11562
878.441	11688
878.568	11627
878.696	11760
878.824	11980
878.951	11961
879.079	12064
879.206	12041
879.333	12022
879.461	11954
879.588	12106
879.715	12076
879.842	12175
879.97	12060
880.097	11809
880.224	11908
880.351	11935
880.478	11885
880.605	11824
880.732	11771
880.859	11916
880.986	11840
881.112	11832
881.239	11646
881.366	11619
881.493	11767
881.619	11524
881.746	11649
881.872	11520
881.999	11486
882.125	11471
882.252	11501
882.378	11577
882.505	11592
882.631	11448
882.757	11261
882.883	11296
883.01	11292
883.136	11181
883.262	11159
883.388	11098
883.514	11189
883.64	11208
883.766	11079
883.892	10987
884.018	10976
884.143	11056
884.269	11113
884.395	10774
884.52	10733
884.646	10828
884.772	10729
884.897	10717
885.023	10721
885.148	10771
885.274	10717
885.399	10721
885.524	10580
885.65	10607
885.775	10565
885.9	10584
886.025	10573
886.15	10512
886.275	10478
886.4	10443
886.525	10322
886.65	10306
886.775	10352
886.9	10462
887.025	10596
887.149	10329
887.274	10249
887.399	10162
887.523	10158
887.648	10082
887.773	10086
887.897	10272
888.021	10299
888.146	10169
888.27	10120
888.395	10192
888.519	10200
888.643	10188
888.767	10120
888.891	10063
889.015	9991
889.139	10074
889.263	9934
889.387	10055
889.511	10059
889.635	10109
889.759	9911
889.883	9991
890.006	9987
890.13	10090
890.254	9941
890.377	9991
890.501	9831
890.624	9812
890.748	9876
890.871	9789
890.995	9736
891.118	9743
891.241	9812
891.364	9732
891.488	9831
891.611	9694
891.734	9648
891.857	9774
891.98	9637
892.103	9808
892.226	9656
892.349	9667
892.471	9542
892.594	9671
892.717	9576
892.839	9603
892.962	9564
893.085	9610
893.207	9606
893.33	9538
893.452	9553
893.575	9606
893.697	9500
893.819	9587
893.941	9595
894.064	9618
894.186	9428
894.308	9458
894.43	9507
894.552	9538
894.674	9530
894.796	9424
894.918	9370
895.04	9374
895.161	9329
895.283	9348
895.405	9253
895.526	9287
895.648	9192
895.769	9226
895.891	9192
896.012	9291
896.134	9218
896.255	9207
896.376	9119
896.498	9157
896.619	9062
896.74	9009
896.861	9142
896.982	9256
897.103	9275
897.224	9116
897.345	9020
897.466	8990
897.587	8944
897.708	9135
897.828	9039
897.949	8914
898.07	8826
898.19	8941
898.311	9058
898.431	8918
898.552	8830
898.672	8975
898.792	8941
898.913	8933
899.033	8876
899.153	8743
899.273	8678
899.393	8686
899.513	8735
899.633	8640
899.753	8712
899.873	8693
899.993	8686
900.113	8693
900.232	8716
900.352	8560
900.472	8617
900.591	8606
900.711	8541
900.83	8533
900.95	8636
901.069	8712
901.189	8495
901.308	8465
901.427	8301
901.546	8415
901.665	8446
901.784	8560
901.904	8404
902.023	8336
902.141	8172
902.26	8259
902.379	8248
902.498	8138
902.617	8214
902.735	8275
902.854	8218
902.973	8317
903.091	8161
903.21	8119
903.328	8092
903.446	8103
903.565	8020
903.683	8088
903.801	8012
903.919	8115
904.038	8172
904.156	8062
904.274	8020
904.392	8073
904.51	7974
904.627	8039
904.745	8039
904.863	8119
904.981	7906
905.098	7830
905.216	7864
905.334	7826
905.451	7883
905.569	7887
905.686	7909
905.803	7890
905.921	7750
906.038	7826
906.155	7780
906.272	7666
906.389	7655
906.506	7628
906.623	7594
906.74	7563
906.857	7563
906.974	7480
907.091	7647
907.208	7651
907.324	7586
907.441	7480
907.557	7476
907.674	7468
907.79	7415
907.907	7430
908.023	7388
908.139	7415
908.256	7392
908.372	7400
908.488	7362
908.604	7221
908.72	7232
908.836	7225
908.952	7270
909.068	7263
909.184	7244
909.3	7251
909.415	7320
909.531	7259
909.647	7126
909.762	7034
909.878	7107
909.993	7088
910.108	7080
910.224	7084
910.339	7088
910.454	7038
910.57	6943
910.685	6981
910.8	7194
910.915	7145
911.03	7023
911.145	6882
911.259	6871
911.374	6867
911.489	6844
911.604	6821
911.718	6662
911.833	6730
911.947	6627
912.062	6578
912.176	6669
912.291	6738
912.405	6639
912.519	6802
912.633	6821
912.748	6601
912.862	6677
912.976	6681
913.09	6528
913.204	6585
913.318	6623
913.431	6662
913.545	6684
913.659	6764
913.772	6601
913.886	6612
914	6578
914.113	6635
914.226	6578
914.34	6578
914.453	6551
914.566	6608
914.68	6532
914.793	6525
914.906	6479
915.019	6429
915.132	6327
915.245	6357
915.358	6448
915.47	6452
915.583	6384
915.696	6456
915.809	6490
915.921	6547
916.034	6433
916.146	6380
916.259	6372
916.371	6471
916.483	6437
916.595	6391
916.708	6342
916.82	6414
916.932	6418
917.044	6369
917.156	6441
917.268	6308
917.38	6285
917.491	6308
917.603	6384
917.715	6441
917.826	6380
917.938	6376
918.049	6235
918.161	6315
918.272	6426
918.384	6426
918.495	6338
918.606	6201
918.717	6239
918.828	6296
918.939	6273
919.05	6247
919.161	6251
919.272	6102
919.383	6159
919.494	6292
919.604	6433
919.715	6205
919.826	6254
919.936	6224
920.047	6300
920.157	6224
920.267	6429
920.378	6304
920.488	6270
920.598	6426
920.708	6604
920.818	6448
920.928	6460
921.038	6566
921.148	6506
921.258	6323
921.368	6308
921.477	6194
921.587	6243
921.697	6064
921.806	6125
921.916	6068
922.025	5973
922.134	5882
922.244	5844
922.353	5939
922.462	5893
922.571	5794
922.68	5657
922.789	5661
922.898	5684
923.007	5608
923.116	5672
923.224	5630
923.333	5703
923.442	5623
923.55	5570
923.659	5543
923.767	5619
923.876	5486
923.984	5577
924.092	5539
924.201	5539
924.309	5493
924.417	5558
924.525	5467
924.633	5474
924.741	6239
924.849	5368
924.956	5478
925.064	5334
925.172	5345
925.279	5299
925.387	5391
925.494	5311
925.602	5345
925.709	5349
925.816	5315
925.924	5307
926.031	5330
926.138	5284
926.245	5296
926.352	5201
926.459	5265
926.566	5254
926.673	5197
926.779	5143
926.886	5086
926.993	5083
927.099	4968
927.206	4972
927.312	4976
927.419	5033
927.525	4987
927.631	4987
927.737	4870
927.843	4805
927.95	4767
928.056	4786
928.162	4835
928.267	4831
928.373	5318
928.479	4820
928.585	4660
928.69	4797
928.796	4782
928.901	4683
929.007	4618
929.112	4675
929.218	4683
929.323	4565
929.428	4577
929.533	4668
929.638	4523
929.743	4531
929.848	4554
929.953	4508
930.058	4421
930.163	4348
930.267	4394
930.372	4489
930.477	4322
930.581	4451
930.685	4371
930.79	4242
930.894	4287
930.998	4227
931.103	4363
931.207	4097
931.311	4048
931.415	4029
931.519	3934
931.623	3956
