Data from glass_V78500241_1956.txt Node
Date: Wed Sep 01 19:28:03 CST 2021
User: usil
Spectrometer: V785-0024
Trigger mode: 0
Integration Time (sec): 4.000000E-1
Scans to average: 1
Nonlinearity correction enabled: false
Boxcar width: 0
Storing dark spectrum: false
XAxis mode: Wavelengths
Number of Pixels in Spectrum: 1024
>>>>>Begin Spectral Data<<<<<
801.071	3736
801.214	3747
801.356	3660
801.499	3762
801.641	3781
801.783	3781
801.926	3846
802.068	3797
802.211	3892
802.353	3846
802.496	3838
802.638	3873
802.78	3857
802.923	3937
803.065	3869
803.208	3842
803.35	3823
803.492	3915
803.635	3888
803.777	3804
803.919	3915
804.061	4101
804.204	3949
804.346	3953
804.488	3884
804.63	4029
804.773	3972
804.915	4025
805.057	4158
805.199	3998
805.341	4063
805.483	4124
805.626	4154
805.768	4105
805.91	4173
806.052	4227
806.194	4169
806.336	4314
806.478	4181
806.62	4158
806.762	4234
806.904	4265
807.046	4310
807.188	4261
807.33	4143
807.472	4242
807.614	4154
807.756	4280
807.898	4200
808.04	4204
808.182	4253
808.324	4325
808.465	4360
808.607	4462
808.749	4478
808.891	4485
809.033	4485
809.174	4409
809.316	4257
809.458	4276
809.6	4196
809.741	4128
809.883	4131
810.025	4211
810.166	4173
810.308	4276
810.45	4196
810.591	4246
810.733	4257
810.875	4481
811.016	4801
811.158	5159
811.299	5265
811.441	5242
811.582	5018
811.724	4668
811.865	4481
812.007	4432
812.148	4413
812.29	4394
812.431	4466
812.573	4402
812.714	4352
812.855	4413
812.997	4424
813.138	4440
813.279	4462
813.421	4363
813.562	4306
813.703	4360
813.845	4371
813.986	4249
814.127	4223
814.268	4249
814.41	4268
814.551	4284
814.692	4322
814.833	4211
814.974	4272
815.115	4379
815.256	4249
815.397	4284
815.539	4223
815.68	4154
815.821	4223
815.962	4318
816.103	4272
816.244	4249
816.385	4246
816.526	4306
816.666	4192
816.807	4059
816.948	4166
817.089	4173
817.23	4109
817.371	4059
817.512	4097
817.653	4063
817.793	4021
817.934	4048
818.075	4093
818.216	4055
818.356	4067
818.497	4002
818.638	3968
818.778	3907
818.919	3934
819.06	3850
819.2	3937
819.341	3888
819.481	3857
819.622	3903
819.762	4036
819.903	3949
820.043	3850
820.184	3838
820.324	3835
820.465	3865
820.605	3880
820.746	3846
820.886	3781
821.026	3922
821.167	3930
821.307	3991
821.447	3991
821.588	3941
821.728	3972
821.868	3911
822.008	3869
822.149	3926
822.289	3896
822.429	3774
822.569	3808
822.709	3797
822.849	3709
822.99	3705
823.13	3808
823.27	3732
823.41	3709
823.55	3743
823.69	3770
823.83	3740
823.97	3671
824.11	3591
824.25	3622
824.389	3663
824.529	3667
824.669	3644
824.809	3713
824.949	3755
825.089	3709
825.228	3709
825.368	3587
825.508	3557
825.648	3549
825.787	3591
825.927	3591
826.067	3610
826.206	3648
826.346	3755
826.485	3797
826.625	3823
826.765	3915
826.904	3789
827.044	3591
827.183	3500
827.323	3431
827.462	3481
827.601	3439
827.741	3443
827.88	3454
828.02	3412
828.159	3462
828.298	3477
828.437	3526
828.577	3492
828.716	3584
828.855	3462
828.994	3374
829.134	3382
829.273	3393
829.412	3348
829.551	3355
829.69	3367
829.829	3428
829.968	3485
830.107	3447
830.246	3458
830.385	3344
830.524	3344
830.663	3336
830.802	3256
830.941	3222
831.08	3157
831.219	3268
831.357	3245
831.496	3378
831.635	3230
831.774	3188
831.913	3233
832.051	3127
832.19	3157
832.329	3203
832.467	3100
832.606	3135
832.744	3184
832.883	3192
833.022	3199
833.16	3279
833.299	3317
833.437	3344
833.576	3332
833.714	3405
833.852	3412
833.991	3477
834.129	3473
834.267	3439
834.406	3439
834.544	3420
834.682	3378
834.821	3386
834.959	3576
835.097	3386
835.235	3515
835.373	3450
835.511	3492
835.65	3469
835.788	3466
835.926	3378
836.064	3393
836.202	3397
836.34	3584
836.478	3595
836.615	3526
836.753	3561
836.891	3656
837.029	3618
837.167	3561
837.305	3584
837.443	3526
837.58	3492
837.718	3606
837.856	3553
837.993	3557
838.131	3599
838.269	3549
838.406	3561
838.544	3564
838.681	3462
838.819	3439
838.956	3374
839.094	3420
839.231	3443
839.369	3511
839.506	3709
839.643	3629
839.781	3488
839.918	3462
840.055	3545
840.193	3523
840.33	3553
840.467	3568
840.604	3576
840.742	3804
840.879	3519
841.016	3545
841.153	3599
841.29	3789
841.427	3713
841.564	3694
841.701	3747
841.838	3667
841.975	3671
842.112	3732
842.249	3591
842.385	3610
842.522	3781
842.659	3690
842.796	3667
842.933	3675
843.069	3740
843.206	3713
843.343	3816
843.479	3785
843.616	3808
843.752	3694
843.889	3644
844.025	3827
844.162	3709
844.298	3857
844.435	3770
844.571	3785
844.708	3869
844.844	4006
844.98	3975
845.117	4013
845.253	3926
845.389	3907
845.525	3968
845.661	3994
845.798	3907
845.934	3983
846.07	3941
846.206	4044
846.342	4143
846.478	4055
846.614	3979
846.75	3934
846.886	3888
847.022	3998
847.158	4006
847.294	3934
847.429	4040
847.565	3964
847.701	4166
847.837	3888
847.972	3842
848.108	3945
848.244	3998
848.379	3846
848.515	3781
848.65	3804
848.786	3880
848.921	3857
849.057	3926
849.192	3918
849.328	3918
849.463	3926
849.598	3892
849.734	3861
849.869	3819
850.004	3827
850.14	3835
850.275	3785
850.41	3770
850.545	3724
850.68	3800
850.815	3751
850.95	3751
851.085	3884
851.22	3869
851.355	3819
851.49	3762
851.625	3797
851.76	3816
851.895	3747
852.03	3694
852.165	3781
852.299	3831
852.434	3911
852.569	3869
852.703	3915
852.838	3964
852.973	3987
853.107	3991
853.242	3873
853.376	3838
853.511	3755
853.645	3854
853.78	3941
853.914	3876
854.048	3896
854.183	3835
854.317	3934
854.451	4082
854.585	3975
854.72	3915
854.854	4036
854.988	3930
855.122	4021
855.256	3941
855.39	3994
855.524	4105
855.658	4109
855.792	4105
855.926	4116
856.06	4169
856.194	4215
856.327	4162
856.461	4101
856.595	4173
856.729	4116
856.862	4261
856.996	4268
857.13	4284
857.263	4306
857.397	4341
857.53	4306
857.664	4383
857.797	4333
857.931	4417
858.064	4398
858.197	4462
858.331	4394
858.464	4360
858.597	4371
858.731	4440
858.864	4421
858.997	4421
859.13	4500
859.263	4546
859.396	4565
859.529	4493
859.662	4531
859.795	4504
859.928	4596
860.061	4744
860.194	4778
860.327	4618
860.46	4656
860.592	4778
860.725	4771
860.858	4790
860.99	4714
861.123	4691
861.256	4702
861.388	4816
861.521	5376
861.653	4698
861.786	4714
861.918	4778
862.05	4774
862.183	4835
862.315	4911
862.447	4991
862.58	4896
862.712	4797
862.844	4847
862.976	4866
863.108	4866
863.24	5212
863.372	4816
863.504	4911
863.636	4873
863.768	4938
863.9	4938
864.032	4942
864.164	4949
864.296	5006
864.428	5071
864.559	5136
864.691	5143
864.823	5067
864.954	5121
865.086	5128
865.217	5128
865.349	5094
865.48	5162
865.612	5235
865.743	5273
865.875	5143
866.006	5220
866.137	5208
866.269	5277
866.4	5220
866.531	5261
866.662	5193
866.793	5265
866.924	5254
867.055	5334
867.186	5357
867.317	5299
867.448	5315
867.579	5379
867.71	5353
867.841	5364
867.972	5528
868.103	5452
868.233	5425
868.364	5512
868.495	5539
868.625	5608
868.756	5779
868.886	5661
869.017	5729
869.147	5828
869.278	5885
869.408	5840
869.539	5840
869.669	5946
869.799	5901
869.929	6019
870.06	5992
870.19	6155
870.32	6148
870.45	6251
870.58	6342
870.71	6399
870.84	6410
870.97	6441
871.1	6471
871.23	6654
871.36	6684
871.489	6650
871.619	6741
871.749	6802
871.879	6871
872.008	7012
872.138	6947
872.267	6985
872.397	7004
872.526	7038
872.656	7103
872.785	7221
872.915	7388
873.044	7506
873.173	7540
873.303	7681
873.432	7750
873.561	7830
873.69	7928
873.819	8016
873.948	8187
874.077	8206
874.206	8313
874.335	8396
874.464	8659
874.593	8857
874.722	8952
874.851	9173
874.979	9218
875.108	9313
875.237	9439
875.365	9507
875.494	9622
875.623	9808
875.751	9827
875.88	10029
876.008	10116
876.136	10375
876.265	10535
876.393	10653
876.521	10664
876.65	10805
876.778	10843
876.906	10972
877.034	10987
877.162	11079
877.29	11212
877.418	11189
877.546	11326
877.674	11421
877.802	11448
877.93	11440
878.058	11493
878.185	11497
878.313	11627
878.441	11760
878.568	11653
878.696	11809
878.824	11771
878.951	11954
879.079	11984
879.206	12152
879.333	12110
879.461	11923
879.588	12068
879.715	12102
879.842	12197
879.97	12060
880.097	11821
880.224	11840
880.351	11840
880.478	11878
880.605	11779
880.732	11866
880.859	11977
880.986	11866
881.112	11843
881.239	11668
881.366	11638
881.493	11573
881.619	11505
881.746	11539
881.872	11482
881.999	11486
882.125	11535
882.252	11611
882.378	11501
882.505	11543
882.631	11410
882.757	11322
882.883	11220
883.01	11265
883.136	11185
883.262	11086
883.388	11105
883.514	11143
883.64	11067
883.766	11151
883.892	11102
884.018	11006
884.143	10972
884.269	11105
884.395	10774
884.52	10752
884.646	10820
884.772	10641
884.897	10656
885.023	10736
885.148	10736
885.274	10752
885.399	10706
885.524	10588
885.65	10596
885.775	10519
885.9	10512
886.025	10565
886.15	10565
886.275	10440
886.4	10398
886.525	10363
886.65	10451
886.775	10299
886.9	10436
887.025	10592
887.149	10352
887.274	10253
887.399	10185
887.523	10173
887.648	10109
887.773	10154
887.897	10211
888.021	10246
888.146	10071
888.27	10230
888.395	10272
888.519	10230
888.643	10139
888.767	10169
888.891	10071
889.015	10002
889.139	9960
889.263	9987
889.387	10032
889.511	10029
889.635	10177
889.759	9964
889.883	9892
890.006	9983
890.13	10059
890.254	9968
890.377	9945
890.501	9793
890.624	9861
890.748	9918
890.871	9770
890.995	9728
891.118	9736
891.241	9717
891.364	9663
891.488	9876
891.611	9747
891.734	9740
891.857	9732
891.98	9720
892.103	9808
892.226	9679
892.349	9698
892.471	9469
892.594	9557
892.717	9568
892.839	9637
892.962	9622
893.085	9656
893.207	9553
893.33	9523
893.452	9580
893.575	9580
893.697	9500
893.819	9633
893.941	9633
894.064	9580
894.186	9485
894.308	9302
894.43	9538
894.552	9603
894.674	9511
894.796	9340
894.918	9447
895.04	9367
895.161	9389
895.283	9363
895.405	9260
895.526	9268
895.648	9222
895.769	9264
895.891	9256
896.012	9287
896.134	9256
896.255	9203
896.376	9146
896.498	9116
896.619	9135
896.74	9077
896.861	9150
896.982	9222
897.103	9253
897.224	9188
897.345	9112
897.466	8937
897.587	8982
897.708	9112
897.828	8998
897.949	8948
898.07	8830
898.19	9024
898.311	9062
898.431	8929
898.552	8868
898.672	8982
898.792	8948
898.913	8842
899.033	8872
899.153	8693
899.273	8640
899.393	8743
899.513	8743
899.633	8743
899.753	8754
899.873	8610
899.993	8739
900.113	8716
900.232	8667
900.352	8629
900.472	8594
900.591	8545
900.711	8541
900.83	8556
900.95	8636
901.069	8678
901.189	8632
901.308	8408
901.427	8355
901.546	8427
901.665	8434
901.784	8461
901.904	8355
902.023	8389
902.141	8286
902.26	8225
902.379	8294
902.498	8176
902.617	8123
902.735	8301
902.854	8290
902.973	8214
903.091	8020
903.21	8142
903.328	8103
903.446	8103
903.565	8069
903.683	8081
903.801	8027
903.919	8111
904.038	8149
904.156	7982
904.274	8107
904.392	7989
904.51	8058
904.627	8054
904.745	8084
904.863	8107
904.981	7944
905.098	7818
905.216	7932
905.334	7898
905.451	7864
905.569	7936
905.686	7898
905.803	7906
905.921	7723
906.038	7887
906.155	7765
906.272	7731
906.389	7696
906.506	7594
906.623	7639
906.74	7586
906.857	7491
906.974	7655
907.091	7628
907.208	7719
907.324	7662
907.441	7632
907.557	7419
907.674	7354
907.79	7388
907.907	7392
908.023	7403
908.139	7400
908.256	7282
908.372	7324
908.488	7346
908.604	7247
908.72	7244
908.836	7289
908.952	7293
909.068	7270
909.184	7255
909.3	7221
909.415	7274
909.531	7331
909.647	7091
909.762	7190
909.878	7091
909.993	7088
910.108	7046
910.224	7050
910.339	7069
910.454	7042
910.57	6989
910.685	6916
910.8	7114
910.915	7137
911.03	7061
911.145	6867
911.259	6859
911.374	6901
911.489	6806
911.604	6814
911.718	6726
911.833	6722
911.947	6711
912.062	6639
912.176	6692
912.291	6722
912.405	6665
912.519	6825
912.633	6787
912.748	6703
912.862	6677
912.976	6525
913.09	6563
913.204	6555
913.318	6536
913.431	6719
913.545	6620
913.659	6730
913.772	6684
913.886	6559
914	6566
914.113	6612
914.226	6650
914.34	6623
914.453	6521
914.566	6608
914.68	6509
914.793	6593
914.906	6357
915.019	6448
915.132	6327
915.245	6418
915.358	6441
915.47	6475
915.583	6418
915.696	6483
915.809	6547
915.921	6525
916.034	6407
916.146	6384
916.259	6338
916.371	6437
916.483	6486
916.595	6331
916.708	6327
916.82	6365
916.932	6350
917.044	6384
917.156	6376
917.268	6311
917.38	6334
917.491	6289
917.603	6372
917.715	6380
917.826	6407
917.938	6319
918.049	6266
918.161	6350
918.272	6380
918.384	6410
918.495	6323
918.606	6216
918.717	6205
918.828	6251
918.939	6254
919.05	6171
919.161	6273
919.272	6106
919.383	6114
919.494	6277
919.604	6452
919.715	6296
919.826	6159
919.936	6296
920.047	6395
920.157	6353
920.267	6452
920.378	6296
920.488	6315
920.598	6475
920.708	6536
920.818	6494
920.928	6475
921.038	6604
921.148	6566
921.258	6311
921.368	6334
921.477	6228
921.587	6232
921.697	6114
921.806	6178
921.916	6087
922.025	5946
922.134	5897
922.244	5901
922.353	5958
922.462	5866
922.571	5828
922.68	5680
922.789	5646
922.898	5680
923.007	5684
923.116	5676
923.224	5649
923.333	5657
923.442	5634
923.55	5577
923.659	5551
923.767	5657
923.876	5471
923.984	5585
924.092	5524
924.201	5570
924.309	5547
924.417	5577
924.525	5433
924.633	5471
924.741	6327
924.849	5398
924.956	5459
925.064	5341
925.172	5284
925.279	5269
925.387	5387
925.494	5318
925.602	5414
925.709	5326
925.816	5242
925.924	5288
926.031	5315
926.138	5277
926.245	5357
926.352	5216
926.459	5288
926.566	5303
926.673	5212
926.779	5128
926.886	5105
926.993	5006
927.099	4976
927.206	4976
927.312	5018
927.419	5033
927.525	5018
927.631	4961
927.737	4904
927.843	4828
927.95	4763
928.056	4801
928.162	4752
928.267	4809
928.373	5372
928.479	4843
928.585	4710
928.69	4736
928.796	4755
928.901	4672
929.007	4573
929.112	4660
929.218	4630
929.323	4554
929.428	4611
929.533	4687
929.638	4497
929.743	4531
929.848	4558
929.953	4535
930.058	4470
930.163	4352
930.267	4356
930.372	4405
930.477	4310
930.581	4455
930.685	4421
930.79	4261
930.894	4287
930.998	4253
931.103	4390
931.207	4154
931.311	4101
931.415	4055
931.519	3899
931.623	4002
