Data from glass_V78500241_1151.txt Node
Date: Wed Sep 01 19:22:28 CST 2021
User: usil
Spectrometer: V785-0024
Trigger mode: 0
Integration Time (sec): 4.000000E-1
Scans to average: 1
Nonlinearity correction enabled: false
Boxcar width: 0
Storing dark spectrum: false
XAxis mode: Wavelengths
Number of Pixels in Spectrum: 1024
>>>>>Begin Spectral Data<<<<<
801.071	3736
801.214	3774
801.356	3694
801.499	3743
801.641	3720
801.783	3766
801.926	3880
802.068	3827
802.211	3888
802.353	3880
802.496	3865
802.638	3903
802.78	3930
802.923	3934
803.065	3911
803.208	3884
803.35	3903
803.492	3907
803.635	3915
803.777	3838
803.919	3888
804.061	4173
804.204	3926
804.346	4029
804.488	3918
804.63	4040
804.773	3949
804.915	4059
805.057	4131
805.199	4067
805.341	4124
805.483	4124
805.626	4150
805.768	4162
805.91	4261
806.052	4246
806.194	4219
806.336	4360
806.478	4185
806.62	4154
806.762	4169
806.904	4272
807.046	4386
807.188	4211
807.33	4173
807.472	4238
807.614	4169
807.756	4284
807.898	4192
808.04	4261
808.182	4272
808.324	4295
808.465	4379
808.607	4535
808.749	4443
808.891	4455
809.033	4493
809.174	4409
809.316	4261
809.458	4257
809.6	4147
809.741	4169
809.883	4162
810.025	4230
810.166	4219
810.308	4246
810.45	4211
810.591	4280
810.733	4287
810.875	4542
811.016	4816
811.158	5124
811.299	5296
811.441	5231
811.582	5075
811.724	4683
811.865	4569
812.007	4451
812.148	4466
812.29	4474
812.431	4428
812.573	4428
812.714	4360
812.855	4440
812.997	4432
813.138	4478
813.279	4421
813.421	4421
813.562	4417
813.703	4371
813.845	4367
813.986	4310
814.127	4242
814.268	4257
814.41	4284
814.551	4291
814.692	4310
814.833	4265
814.974	4299
815.115	4386
815.256	4249
815.397	4234
815.539	4325
815.68	4238
815.821	4207
815.962	4306
816.103	4257
816.244	4219
816.385	4295
816.526	4291
816.666	4223
816.807	4128
816.948	4158
817.089	4169
817.23	4112
817.371	4097
817.512	4109
817.653	4063
817.793	4006
817.934	4044
818.075	4093
818.216	4120
818.356	4124
818.497	3998
818.638	3869
818.778	3903
818.919	3903
819.06	3876
819.2	3937
819.341	3857
819.481	3827
819.622	3899
819.762	4051
819.903	3960
820.043	3857
820.184	3823
820.324	3835
820.465	3850
820.605	3884
820.746	3903
820.886	3835
821.026	3930
821.167	3945
821.307	3998
821.447	3991
821.588	3994
821.728	3945
821.868	3949
822.008	3915
822.149	3960
822.289	3949
822.429	3781
822.569	3785
822.709	3827
822.849	3728
822.99	3759
823.13	3770
823.27	3766
823.41	3717
823.55	3762
823.69	3686
823.83	3740
823.97	3682
824.11	3629
824.25	3603
824.389	3629
824.529	3663
824.669	3656
824.809	3713
824.949	3747
825.089	3766
825.228	3694
825.368	3595
825.508	3572
825.648	3614
825.787	3625
825.927	3637
826.067	3671
826.206	3656
826.346	3816
826.485	3827
826.625	3888
826.765	3937
826.904	3808
827.044	3618
827.183	3534
827.323	3416
827.462	3511
827.601	3431
827.741	3462
827.88	3435
828.02	3374
828.159	3431
828.298	3466
828.437	3519
828.577	3458
828.716	3599
828.855	3488
828.994	3378
829.134	3386
829.273	3424
829.412	3317
829.551	3340
829.69	3374
829.829	3424
829.968	3523
830.107	3477
830.246	3454
830.385	3378
830.524	3344
830.663	3325
830.802	3226
830.941	3207
831.08	3180
831.219	3275
831.357	3302
831.496	3386
831.635	3233
831.774	3211
831.913	3241
832.051	3127
832.19	3157
832.329	3211
832.467	3116
832.606	3154
832.744	3169
832.883	3199
833.022	3214
833.16	3256
833.299	3336
833.437	3378
833.576	3359
833.714	3374
833.852	3424
833.991	3424
834.129	3458
834.267	3439
834.406	3405
834.544	3382
834.682	3409
834.821	3428
834.959	3572
835.097	3443
835.235	3549
835.373	3481
835.511	3511
835.65	3496
835.788	3477
835.926	3397
836.064	3374
836.202	3389
836.34	3561
836.478	3576
836.615	3545
836.753	3599
836.891	3667
837.029	3641
837.167	3587
837.305	3572
837.443	3568
837.58	3477
837.718	3576
837.856	3584
837.993	3553
838.131	3622
838.269	3606
838.406	3591
838.544	3584
838.681	3481
838.819	3477
838.956	3397
839.094	3405
839.231	3488
839.369	3534
839.506	3774
839.643	3652
839.781	3454
839.918	3519
840.055	3538
840.193	3564
840.33	3545
840.467	3580
840.604	3591
840.742	3819
840.879	3557
841.016	3572
841.153	3610
841.29	3743
841.427	3724
841.564	3755
841.701	3740
841.838	3732
841.975	3740
842.112	3740
842.249	3682
842.385	3622
842.522	3854
842.659	3690
842.796	3686
842.933	3728
843.069	3698
843.206	3713
843.343	3854
843.479	3774
843.616	3816
843.752	3701
843.889	3709
844.025	3850
844.162	3682
844.298	3816
844.435	3823
844.571	3774
844.708	3937
844.844	4025
844.98	4025
845.117	4051
845.253	3930
845.389	3899
845.525	3975
845.661	3960
845.798	3888
845.934	3972
846.07	3949
846.206	4090
846.342	4128
846.478	4086
846.614	3979
846.75	3945
846.886	3934
847.022	4044
847.158	3994
847.294	3991
847.429	4048
847.565	3979
847.701	4249
847.837	3911
847.972	3846
848.108	3998
848.244	3945
848.379	3857
848.515	3823
848.65	3831
848.786	3892
848.921	3873
849.057	3953
849.192	3968
849.328	3888
849.463	3949
849.598	3918
849.734	3884
849.869	3846
850.004	3797
850.14	3816
850.275	3793
850.41	3717
850.545	3762
850.68	3804
850.815	3778
850.95	3819
851.085	3937
851.22	3861
851.355	3812
851.49	3800
851.625	3770
851.76	3808
851.895	3770
852.03	3743
852.165	3846
852.299	3861
852.434	3922
852.569	3827
852.703	3884
852.838	3972
852.973	4006
853.107	3979
853.242	3915
853.376	3861
853.511	3762
853.645	3812
853.78	3956
853.914	3926
854.048	3899
854.183	3937
854.317	3975
854.451	4040
854.585	3979
854.72	3934
854.854	4051
854.988	3941
855.122	3998
855.256	3903
855.39	3998
855.524	4116
855.658	4101
855.792	4097
855.926	4112
856.06	4192
856.194	4196
856.327	4188
856.461	4082
856.595	4158
856.729	4162
856.862	4272
856.996	4253
857.13	4314
857.263	4314
857.397	4379
857.53	4310
857.664	4348
857.797	4409
857.931	4413
858.064	4383
858.197	4485
858.331	4436
858.464	4356
858.597	4367
858.731	4428
858.864	4497
858.997	4474
859.13	4542
859.263	4546
859.396	4592
859.529	4516
859.662	4531
859.795	4584
859.928	4596
860.061	4733
860.194	4725
860.327	4675
860.46	4637
860.592	4744
860.725	4748
860.858	4782
860.99	4668
861.123	4691
861.256	4729
861.388	4744
861.521	5410
861.653	4797
861.786	4694
861.918	4748
862.05	4820
862.183	4896
862.315	4934
862.447	4942
862.58	4930
862.712	4858
862.844	4767
862.976	4915
863.108	4839
863.24	5174
863.372	4862
863.504	4938
863.636	4892
863.768	4953
863.9	4927
864.032	4938
864.164	4957
864.296	5022
864.428	5098
864.559	5113
864.691	5147
864.823	5132
864.954	5121
865.086	5170
865.217	5140
865.349	5086
865.48	5140
865.612	5227
865.743	5334
865.875	5220
866.006	5201
866.137	5254
866.269	5250
866.4	5242
866.531	5261
866.662	5318
866.793	5242
866.924	5368
867.055	5372
867.186	5349
867.317	5322
867.448	5364
867.579	5334
867.71	5372
867.841	5372
867.972	5417
868.103	5478
868.233	5551
868.364	5497
868.495	5585
868.625	5619
868.756	5805
868.886	5646
869.017	5771
869.147	5851
869.278	5901
869.408	5836
869.539	5844
869.669	5958
869.799	5912
869.929	5980
870.06	6045
870.19	6167
870.32	6220
870.45	6311
870.58	6391
870.71	6475
870.84	6445
870.97	6426
871.1	6365
871.23	6627
871.36	6707
871.489	6620
871.619	6738
871.749	6840
871.879	6897
872.008	7004
872.138	6954
872.267	7050
872.397	7015
872.526	7118
872.656	7110
872.785	7240
872.915	7381
873.044	7506
873.173	7548
873.303	7616
873.432	7738
873.561	7894
873.69	7864
873.819	8005
873.948	8218
874.077	8298
874.206	8324
874.335	8537
874.464	8678
874.593	8849
874.722	8971
874.851	9142
874.979	9203
875.108	9412
875.237	9500
875.365	9542
875.494	9686
875.623	9880
875.751	9895
875.88	9979
876.008	10109
876.136	10242
876.265	10508
876.393	10656
876.521	10790
876.65	10896
876.778	10866
876.906	10820
877.034	11018
877.162	11159
877.29	11151
877.418	11254
877.546	11383
877.674	11497
877.802	11516
877.93	11486
878.058	11558
878.185	11535
878.313	11611
878.441	11790
878.568	11684
878.696	11813
878.824	11805
878.951	11893
879.079	11946
879.206	12102
879.333	12098
879.461	12057
879.588	12117
879.715	12095
879.842	12201
879.97	12011
880.097	11935
880.224	11980
880.351	11870
880.478	11965
880.605	11931
880.732	11901
880.859	12019
880.986	11851
881.112	11863
881.239	11745
881.366	11680
881.493	11699
881.619	11596
881.746	11554
881.872	11482
881.999	11478
882.125	11455
882.252	11611
882.378	11459
882.505	11623
882.631	11383
882.757	11318
882.883	11311
883.01	11356
883.136	11231
883.262	11201
883.388	11121
883.514	11265
883.64	11189
883.766	11162
883.892	11037
884.018	11056
884.143	11147
884.269	11136
884.395	10889
884.52	10767
884.646	10831
884.772	10679
884.897	10672
885.023	10683
885.148	10702
885.274	10763
885.399	10706
885.524	10710
885.65	10580
885.775	10580
885.9	10561
886.025	10656
886.15	10558
886.275	10455
886.4	10405
886.525	10466
886.65	10390
886.775	10379
886.9	10500
887.025	10569
887.149	10333
887.274	10249
887.399	10204
887.523	10246
887.648	10162
887.773	10101
887.897	10253
888.021	10246
888.146	10143
888.27	10185
888.395	10261
888.519	10204
888.643	10177
888.767	10230
888.891	10139
889.015	9941
889.139	10048
889.263	9953
889.387	9998
889.511	10086
889.635	10063
889.759	9987
889.883	10051
890.006	10010
890.13	10109
890.254	9964
890.377	9930
890.501	9861
890.624	9903
890.748	9892
890.871	9838
890.995	9751
891.118	9728
891.241	9850
891.364	9724
891.488	9842
891.611	9747
891.734	9713
891.857	9808
891.98	9705
892.103	9747
892.226	9755
892.349	9675
892.471	9485
892.594	9542
892.717	9667
892.839	9458
892.962	9610
893.085	9698
893.207	9599
893.33	9462
893.452	9534
893.575	9629
893.697	9450
893.819	9690
893.941	9671
894.064	9545
894.186	9405
894.308	9447
894.43	9580
894.552	9591
894.674	9462
894.796	9473
894.918	9431
895.04	9313
895.161	9408
895.283	9378
895.405	9275
895.526	9256
895.648	9226
895.769	9218
895.891	9233
896.012	9393
896.134	9253
896.255	9260
896.376	9211
896.498	9203
896.619	9070
896.74	9116
896.861	9142
896.982	9233
897.103	9291
897.224	9214
897.345	9097
897.466	9032
897.587	8998
897.708	9104
897.828	9077
897.949	8994
898.07	8899
898.19	8971
898.311	8994
898.431	8826
898.552	8925
898.672	8986
898.792	8948
898.913	8861
899.033	8811
899.153	8819
899.273	8663
899.393	8689
899.513	8720
899.633	8682
899.753	8819
899.873	8716
899.993	8758
900.113	8708
900.232	8712
900.352	8678
900.472	8674
900.591	8594
900.711	8613
900.83	8568
900.95	8727
901.069	8663
901.189	8613
901.308	8461
901.427	8457
901.546	8347
901.665	8476
901.784	8571
901.904	8366
902.023	8358
902.141	8221
902.26	8229
902.379	8301
902.498	8298
902.617	8176
902.735	8275
902.854	8320
902.973	8256
903.091	8123
903.21	8126
903.328	8172
903.446	8161
903.565	8073
903.683	8149
903.801	8035
903.919	8077
904.038	8134
904.156	8005
904.274	8100
904.392	8073
904.51	8035
904.627	8020
904.745	8107
904.863	8084
904.981	7944
905.098	7860
905.216	7940
905.334	7887
905.451	7906
905.569	7871
905.686	7951
905.803	7932
905.921	7776
906.038	7921
906.155	7860
906.272	7788
906.389	7742
906.506	7662
906.623	7677
906.74	7616
906.857	7575
906.974	7571
907.091	7674
907.208	7761
907.324	7674
907.441	7609
907.557	7506
907.674	7480
907.79	7369
907.907	7388
908.023	7438
908.139	7430
908.256	7388
908.372	7358
908.488	7301
908.604	7282
908.72	7255
908.836	7282
908.952	7293
909.068	7270
909.184	7293
909.3	7331
909.415	7270
909.531	7301
909.647	7145
909.762	7137
909.878	7076
909.993	7133
910.108	7107
910.224	7114
910.339	7137
910.454	7072
910.57	6996
910.685	6981
910.8	7168
910.915	7175
911.03	7015
911.145	6989
911.259	6924
911.374	6901
911.489	6856
911.604	6810
911.718	6760
911.833	6776
911.947	6673
912.062	6612
912.176	6722
912.291	6772
912.405	6703
912.519	6791
912.633	6859
912.748	6768
912.862	6681
912.976	6620
913.09	6456
913.204	6635
913.318	6627
913.431	6665
913.545	6677
913.659	6726
913.772	6684
913.886	6627
914	6532
914.113	6692
914.226	6654
914.34	6608
914.453	6479
914.566	6574
914.68	6513
914.793	6509
914.906	6426
915.019	6407
915.132	6384
915.245	6456
915.358	6460
915.47	6467
915.583	6456
915.696	6498
915.809	6559
915.921	6551
916.034	6441
916.146	6410
916.259	6410
916.371	6532
916.483	6407
916.595	6372
916.708	6403
916.82	6452
916.932	6391
917.044	6407
917.156	6422
917.268	6372
917.38	6334
917.491	6289
917.603	6311
917.715	6353
917.826	6467
917.938	6391
918.049	6292
918.161	6304
918.272	6422
918.384	6490
918.495	6365
918.606	6224
918.717	6258
918.828	6194
918.939	6266
919.05	6243
919.161	6251
919.272	6152
919.383	6171
919.494	6292
919.604	6460
919.715	6308
919.826	6194
919.936	6311
920.047	6334
920.157	6308
920.267	6475
920.378	6338
920.488	6262
920.598	6464
920.708	6506
920.818	6437
920.928	6486
921.038	6703
921.148	6604
921.258	6353
921.368	6334
921.477	6190
921.587	6171
921.697	6072
921.806	6167
921.916	6079
922.025	5977
922.134	5961
922.244	5885
922.353	5961
922.462	5847
922.571	5798
922.68	5783
922.789	5646
922.898	5737
923.007	5699
923.116	5741
923.224	5703
923.333	5657
923.442	5551
923.55	5608
923.659	5600
923.767	5634
923.876	5577
923.984	5646
924.092	5520
924.201	5543
924.309	5570
924.417	5570
924.525	5482
924.633	5505
924.741	6281
924.849	5372
924.956	5467
925.064	5345
925.172	5288
925.279	5288
925.387	5402
925.494	5334
925.602	5383
925.709	5391
925.816	5273
925.924	5357
926.031	5357
926.138	5326
926.245	5318
926.352	5269
926.459	5353
926.566	5311
926.673	5212
926.779	5155
926.886	5143
926.993	5086
927.099	5033
927.206	5041
927.312	4949
927.419	4987
927.525	4987
927.631	4953
927.737	4877
927.843	4896
927.95	4759
928.056	4862
928.162	4885
928.267	4904
928.373	5326
928.479	4870
928.585	4675
928.69	4786
928.796	4790
928.901	4759
929.007	4611
929.112	4702
929.218	4634
929.323	4649
929.428	4561
929.533	4664
929.638	4531
929.743	4538
929.848	4558
929.953	4493
930.058	4436
930.163	4421
930.267	4375
930.372	4455
930.477	4318
930.581	4466
930.685	4356
930.79	4280
930.894	4276
930.998	4291
931.103	4405
931.207	4139
931.311	4090
931.415	4032
931.519	3918
931.623	3972
