Data from glass_V78500241_362.txt Node
Date: Wed Sep 01 19:17:00 CST 2021
User: usil
Spectrometer: V785-0024
Trigger mode: 0
Integration Time (sec): 4.000000E-1
Scans to average: 1
Nonlinearity correction enabled: false
Boxcar width: 0
Storing dark spectrum: false
XAxis mode: Wavelengths
Number of Pixels in Spectrum: 1024
>>>>>Begin Spectral Data<<<<<
801.071	3732
801.214	3755
801.356	3751
801.499	3762
801.641	3732
801.783	3774
801.926	3888
802.068	3857
802.211	3857
802.353	3888
802.496	3873
802.638	3934
802.78	3911
802.923	3960
803.065	3941
803.208	3865
803.35	3907
803.492	3915
803.635	3930
803.777	3850
803.919	3922
804.061	4204
804.204	3994
804.346	3979
804.488	3956
804.63	4040
804.773	4002
804.915	4017
805.057	4192
805.199	4071
805.341	4097
805.483	4169
805.626	4101
805.768	4109
805.91	4185
806.052	4219
806.194	4215
806.336	4398
806.478	4242
806.62	4200
806.762	4185
806.904	4299
807.046	4360
807.188	4238
807.33	4223
807.472	4253
807.614	4242
807.756	4272
807.898	4242
808.04	4219
808.182	4272
808.324	4318
808.465	4363
808.607	4485
808.749	4459
808.891	4474
809.033	4554
809.174	4394
809.316	4242
809.458	4253
809.6	4166
809.741	4158
809.883	4139
810.025	4253
810.166	4238
810.308	4246
810.45	4215
810.591	4223
810.733	4299
810.875	4512
811.016	4839
811.158	5151
811.299	5299
811.441	5277
811.582	5124
811.724	4714
811.865	4466
812.007	4504
812.148	4443
812.29	4390
812.431	4424
812.573	4424
812.714	4390
812.855	4402
812.997	4474
813.138	4440
813.279	4383
813.421	4390
813.562	4402
813.703	4303
813.845	4371
813.986	4246
814.127	4207
814.268	4268
814.41	4333
814.551	4284
814.692	4352
814.833	4299
814.974	4325
815.115	4360
815.256	4276
815.397	4246
815.539	4303
815.68	4238
815.821	4211
815.962	4367
816.103	4291
816.244	4261
816.385	4219
816.526	4291
816.666	4219
816.807	4109
816.948	4177
817.089	4246
817.23	4154
817.371	4105
817.512	4067
817.653	4082
817.793	4071
817.934	4040
818.075	4143
818.216	4109
818.356	4093
818.497	4017
818.638	3884
818.778	3945
818.919	3892
819.06	3907
819.2	3941
819.341	3865
819.481	3850
819.622	3922
819.762	4029
819.903	3918
820.043	3884
820.184	3823
820.324	3838
820.465	3903
820.605	3880
820.746	3884
820.886	3789
821.026	3911
821.167	3915
821.307	4017
821.447	3998
821.588	3945
821.728	3979
821.868	3960
822.008	3880
822.149	3945
822.289	3937
822.429	3812
822.569	3766
822.709	3800
822.849	3705
822.99	3747
823.13	3766
823.27	3850
823.41	3709
823.55	3736
823.69	3743
823.83	3770
823.97	3717
824.11	3633
824.25	3603
824.389	3644
824.529	3720
824.669	3629
824.809	3732
824.949	3766
825.089	3747
825.228	3755
825.368	3580
825.508	3584
825.648	3595
825.787	3633
825.927	3644
826.067	3637
826.206	3682
826.346	3827
826.485	3827
826.625	3884
826.765	3918
826.904	3857
827.044	3633
827.183	3561
827.323	3439
827.462	3511
827.601	3466
827.741	3443
827.88	3466
828.02	3359
828.159	3466
828.298	3481
828.437	3545
828.577	3500
828.716	3648
828.855	3511
828.994	3393
829.134	3351
829.273	3378
829.412	3367
829.551	3313
829.69	3393
829.829	3416
829.968	3530
830.107	3424
830.246	3466
830.385	3355
830.524	3321
830.663	3313
830.802	3275
830.941	3230
831.08	3180
831.219	3260
831.357	3298
831.496	3439
831.635	3264
831.774	3211
831.913	3192
832.051	3154
832.19	3150
832.329	3222
832.467	3173
832.606	3104
832.744	3165
832.883	3222
833.022	3233
833.16	3264
833.299	3272
833.437	3355
833.576	3386
833.714	3412
833.852	3466
833.991	3488
834.129	3515
834.267	3443
834.406	3447
834.544	3412
834.682	3416
834.821	3439
834.959	3542
835.097	3416
835.235	3576
835.373	3526
835.511	3485
835.65	3481
835.788	3545
835.926	3382
836.064	3389
836.202	3397
836.34	3603
836.478	3648
836.615	3542
836.753	3614
836.891	3637
837.029	3633
837.167	3572
837.305	3545
837.443	3564
837.58	3500
837.718	3564
837.856	3553
837.993	3530
838.131	3599
838.269	3618
838.406	3591
838.544	3595
838.681	3469
838.819	3462
838.956	3378
839.094	3416
839.231	3431
839.369	3526
839.506	3717
839.643	3633
839.781	3515
839.918	3466
840.055	3542
840.193	3519
840.33	3519
840.467	3538
840.604	3599
840.742	3778
840.879	3557
841.016	3572
841.153	3591
841.29	3762
841.427	3755
841.564	3709
841.701	3770
841.838	3717
841.975	3713
842.112	3709
842.249	3648
842.385	3694
842.522	3846
842.659	3671
842.796	3698
842.933	3720
843.069	3698
843.206	3709
843.343	3884
843.479	3831
843.616	3861
843.752	3705
843.889	3724
844.025	3896
844.162	3762
844.298	3857
844.435	3797
844.571	3785
844.708	3922
844.844	4021
844.98	4013
845.117	4006
845.253	3930
845.389	3941
845.525	3975
845.661	4002
845.798	3968
845.934	4006
846.07	4021
846.206	4029
846.342	4071
846.478	4086
846.614	3991
846.75	3960
846.886	3922
847.022	4025
847.158	4025
847.294	4025
847.429	4029
847.565	4017
847.701	4268
847.837	3884
847.972	3865
848.108	3987
848.244	3968
848.379	3861
848.515	3823
848.65	3850
848.786	3793
848.921	3968
849.057	3964
849.192	3930
849.328	3876
849.463	3968
849.598	3888
849.734	3861
849.869	3846
850.004	3793
850.14	3793
850.275	3816
850.41	3732
850.545	3774
850.68	3800
850.815	3812
850.95	3797
851.085	3964
851.22	3884
851.355	3865
851.49	3812
851.625	3793
851.76	3857
851.895	3774
852.03	3747
852.165	3812
852.299	3880
852.434	3953
852.569	3865
852.703	3884
852.838	3892
852.973	4032
853.107	4048
853.242	3915
853.376	3869
853.511	3793
853.645	3854
853.78	3956
853.914	3956
854.048	3869
854.183	3907
854.317	3953
854.451	4074
854.585	3975
854.72	3953
854.854	4040
854.988	3956
855.122	4059
855.256	3945
855.39	4051
855.524	4105
855.658	4128
855.792	4105
855.926	4143
856.06	4215
856.194	4234
856.327	4173
856.461	4105
856.595	4131
856.729	4188
856.862	4299
856.996	4246
857.13	4329
857.263	4348
857.397	4417
857.53	4341
857.664	4367
857.797	4428
857.931	4459
858.064	4394
858.197	4516
858.331	4379
858.464	4428
858.597	4379
858.731	4394
858.864	4478
858.997	4417
859.13	4523
859.263	4508
859.396	4592
859.529	4550
859.662	4519
859.795	4584
859.928	4599
860.061	4717
860.194	4733
860.327	4710
860.46	4656
860.592	4771
860.725	4755
860.858	4767
860.99	4714
861.123	4675
861.256	4721
861.388	4809
861.521	5383
861.653	4736
861.786	4710
861.918	4771
862.05	4797
862.183	4877
862.315	4923
862.447	4961
862.58	4892
862.712	4839
862.844	4820
862.976	4866
863.108	4904
863.24	5315
863.372	4862
863.504	4919
863.636	4870
863.768	5003
863.9	5018
864.032	4923
864.164	4949
864.296	5075
864.428	5109
864.559	5166
864.691	5132
864.823	5170
864.954	5159
865.086	5155
865.217	5159
865.349	5102
865.48	5185
865.612	5193
865.743	5284
865.875	5185
866.006	5174
866.137	5250
866.269	5250
866.4	5265
866.531	5246
866.662	5261
866.793	5269
866.924	5292
867.055	5372
867.186	5357
867.317	5345
867.448	5334
867.579	5402
867.71	5383
867.841	5436
867.972	5509
868.103	5532
868.233	5486
868.364	5455
868.495	5516
868.625	5653
868.756	5790
868.886	5680
869.017	5691
869.147	5882
869.278	5874
869.408	5809
869.539	5844
869.669	5942
869.799	5912
869.929	6015
870.06	6068
870.19	6213
870.32	6205
870.45	6247
870.58	6353
870.71	6418
870.84	6460
870.97	6407
871.1	6414
871.23	6719
871.36	6642
871.489	6639
871.619	6757
871.749	6818
871.879	6844
872.008	7000
872.138	6939
872.267	6981
872.397	7034
872.526	7057
872.656	7118
872.785	7213
872.915	7373
873.044	7552
873.173	7594
873.303	7712
873.432	7761
873.561	7894
873.69	8008
873.819	8031
873.948	8214
874.077	8244
874.206	8347
874.335	8484
874.464	8644
874.593	8864
874.722	8952
874.851	9146
874.979	9230
875.108	9382
875.237	9412
875.365	9447
875.494	9625
875.623	9800
875.751	9835
875.88	10063
876.008	10219
876.136	10272
876.265	10580
876.393	10683
876.521	10763
876.65	10873
876.778	10896
876.906	10923
877.034	11025
877.162	11052
877.29	11128
877.418	11292
877.546	11349
877.674	11425
877.802	11406
877.93	11535
878.058	11554
878.185	11604
878.313	11611
878.441	11703
878.568	11722
878.696	11821
878.824	11836
878.951	11969
879.079	12026
879.206	12159
879.333	12102
879.461	12045
879.588	11958
879.715	12076
879.842	12197
879.97	12106
880.097	11904
880.224	11863
880.351	11847
880.478	11916
880.605	11847
880.732	11821
880.859	11946
880.986	11821
881.112	11836
881.239	11703
881.366	11691
881.493	11619
881.619	11589
881.746	11585
881.872	11596
881.999	11402
882.125	11463
882.252	11604
882.378	11509
882.505	11570
882.631	11387
882.757	11299
882.883	11277
883.01	11280
883.136	11216
883.262	11181
883.388	11075
883.514	11155
883.64	11220
883.766	11113
883.892	10923
884.018	11060
884.143	11071
884.269	11136
884.395	10831
884.52	10767
884.646	10809
884.772	10691
884.897	10683
885.023	10679
885.148	10774
885.274	10820
885.399	10679
885.524	10641
885.65	10626
885.775	10599
885.9	10618
886.025	10592
886.15	10615
886.275	10516
886.4	10440
886.525	10466
886.65	10371
886.775	10314
886.9	10421
887.025	10504
887.149	10417
887.274	10219
887.399	10261
887.523	10249
887.648	10169
887.773	10166
887.897	10295
888.021	10303
888.146	10173
888.27	10253
888.395	10211
888.519	10265
888.643	10219
888.767	10253
888.891	10071
889.015	10044
889.139	10086
889.263	10002
889.387	10067
889.511	10185
889.635	10067
889.759	9998
889.883	9930
890.006	10036
890.13	10044
890.254	9930
890.377	9964
890.501	9842
890.624	9850
890.748	9941
890.871	9819
890.995	9808
891.118	9732
891.241	9766
891.364	9789
891.488	9800
891.611	9720
891.734	9835
891.857	9793
891.98	9785
892.103	9755
892.226	9789
892.349	9675
892.471	9530
892.594	9705
892.717	9663
892.839	9660
892.962	9679
893.085	9595
893.207	9564
893.33	9553
893.452	9614
893.575	9633
893.697	9534
893.819	9545
893.941	9637
894.064	9606
894.186	9500
894.308	9412
894.43	9663
894.552	9572
894.674	9500
894.796	9405
894.918	9431
895.04	9355
895.161	9348
895.283	9370
895.405	9302
895.526	9245
895.648	9268
895.769	9317
895.891	9275
896.012	9287
896.134	9245
896.255	9195
896.376	9108
896.498	9207
896.619	9108
896.74	9131
896.861	9081
896.982	9207
897.103	9389
897.224	9165
897.345	9001
897.466	8998
897.587	8994
897.708	9108
897.828	9070
897.949	9009
898.07	8929
898.19	8937
898.311	9020
898.431	8937
898.552	8937
898.672	8979
898.792	8956
898.913	8956
899.033	8842
899.153	8766
899.273	8651
899.393	8720
899.513	8804
899.633	8785
899.753	8773
899.873	8708
899.993	8792
900.113	8735
900.232	8644
900.352	8636
900.472	8686
900.591	8625
900.711	8674
900.83	8552
900.95	8651
901.069	8663
901.189	8648
901.308	8476
901.427	8408
901.546	8400
901.665	8495
901.784	8461
901.904	8427
902.023	8317
902.141	8263
902.26	8279
902.379	8332
902.498	8199
902.617	8145
902.735	8336
902.854	8328
902.973	8267
903.091	8119
903.21	8187
903.328	8176
903.446	8210
903.565	8149
903.683	8107
903.801	8058
903.919	8123
904.038	8157
904.156	8016
904.274	8115
904.392	8077
904.51	7963
904.627	8046
904.745	8134
904.863	8138
904.981	7959
905.098	7860
905.216	7883
905.334	7856
905.451	7936
905.569	7928
905.686	7928
905.803	7917
905.921	7830
906.038	7936
906.155	7761
906.272	7792
906.389	7674
906.506	7655
906.623	7704
906.74	7601
906.857	7586
906.974	7575
907.091	7658
907.208	7734
907.324	7628
907.441	7544
907.557	7487
907.674	7491
907.79	7419
907.907	7400
908.023	7430
908.139	7483
908.256	7396
908.372	7335
908.488	7343
908.604	7228
908.72	7305
908.836	7217
908.952	7263
909.068	7228
909.184	7335
909.3	7228
909.415	7327
909.531	7312
909.647	7107
909.762	7122
909.878	7084
909.993	7160
910.108	7114
910.224	7103
910.339	7122
910.454	7042
910.57	6947
910.685	7015
910.8	7156
910.915	7118
911.03	7046
911.145	6894
911.259	6886
911.374	6875
911.489	6848
911.604	6821
911.718	6726
911.833	6757
911.947	6703
912.062	6627
912.176	6722
912.291	6726
912.405	6692
912.519	6878
912.633	6802
912.748	6783
912.862	6639
912.976	6635
913.09	6601
913.204	6631
913.318	6578
913.431	6692
913.545	6715
913.659	6726
913.772	6601
913.886	6551
914	6566
914.113	6593
914.226	6642
914.34	6673
914.453	6494
914.566	6616
914.68	6509
914.793	6521
914.906	6475
915.019	6399
915.132	6365
915.245	6525
915.358	6418
915.47	6452
915.583	6437
915.696	6547
915.809	6506
915.921	6559
916.034	6456
916.146	6414
916.259	6311
916.371	6486
916.483	6422
916.595	6357
916.708	6422
916.82	6361
916.932	6384
917.044	6479
917.156	6414
917.268	6315
917.38	6372
917.491	6331
917.603	6353
917.715	6426
917.826	6460
917.938	6361
918.049	6281
918.161	6315
918.272	6445
918.384	6429
918.495	6338
918.606	6331
918.717	6243
918.828	6224
918.939	6308
919.05	6239
919.161	6300
919.272	6079
919.383	6186
919.494	6391
919.604	6395
919.715	6300
919.826	6186
919.936	6308
920.047	6361
920.157	6232
920.267	6498
920.378	6319
920.488	6300
920.598	6441
920.708	6604
920.818	6498
920.928	6502
921.038	6620
921.148	6582
921.258	6467
921.368	6262
921.477	6182
921.587	6216
921.697	6140
921.806	6201
921.916	6125
922.025	5954
922.134	5920
922.244	5866
922.353	5965
922.462	5855
922.571	5794
922.68	5718
922.789	5680
922.898	5684
923.007	5680
923.116	5729
923.224	5729
923.333	5710
923.442	5630
923.55	5581
923.659	5589
923.767	5672
923.876	5577
923.984	5596
924.092	5554
924.201	5585
924.309	5547
924.417	5570
924.525	5497
924.633	5539
924.741	6342
924.849	5417
924.956	5467
925.064	5330
925.172	5322
925.279	5318
925.387	5368
925.494	5376
925.602	5357
925.709	5383
925.816	5307
925.924	5337
926.031	5383
926.138	5288
926.245	5357
926.352	5265
926.459	5383
926.566	5341
926.673	5166
926.779	5121
926.886	5151
926.993	5056
927.099	4965
927.206	5003
927.312	4991
927.419	5075
927.525	5006
927.631	4968
927.737	4896
927.843	4889
927.95	4805
928.056	4843
928.162	4793
928.267	4843
928.373	5265
928.479	4862
928.585	4694
928.69	4824
928.796	4771
928.901	4683
929.007	4630
929.112	4664
929.218	4618
929.323	4660
929.428	4550
929.533	4706
929.638	4493
929.743	4569
929.848	4584
929.953	4527
930.058	4466
930.163	4348
930.267	4348
930.372	4447
930.477	4333
930.581	4512
930.685	4367
930.79	4242
930.894	4261
930.998	4257
931.103	4371
931.207	4120
931.311	4090
931.415	4063
931.519	3975
931.623	3930
