Data from glass_V78500241_2305.txt Node
Date: Wed Sep 01 19:30:28 CST 2021
User: usil
Spectrometer: V785-0024
Trigger mode: 0
Integration Time (sec): 4.000000E-1
Scans to average: 1
Nonlinearity correction enabled: false
Boxcar width: 0
Storing dark spectrum: false
XAxis mode: Wavelengths
Number of Pixels in Spectrum: 1024
>>>>>Begin Spectral Data<<<<<
801.071	3709
801.214	3766
801.356	3709
801.499	3732
801.641	3762
801.783	3774
801.926	3861
802.068	3827
802.211	3842
802.353	3892
802.496	3819
802.638	3861
802.78	3880
802.923	3903
803.065	3892
803.208	3880
803.35	3846
803.492	3907
803.635	3907
803.777	3804
803.919	3861
804.061	4131
804.204	3899
804.346	3960
804.488	3907
804.63	4055
804.773	3941
804.915	4010
805.057	4124
805.199	4032
805.341	4086
805.483	4139
805.626	4166
805.768	4074
805.91	4230
806.052	4257
806.194	4204
806.336	4383
806.478	4219
806.62	4154
806.762	4169
806.904	4242
807.046	4310
807.188	4169
807.33	4169
807.472	4246
807.614	4185
807.756	4295
807.898	4268
808.04	4207
808.182	4325
808.324	4337
808.465	4417
808.607	4447
808.749	4428
808.891	4440
809.033	4504
809.174	4402
809.316	4257
809.458	4196
809.6	4124
809.741	4139
809.883	4158
810.025	4169
810.166	4147
810.308	4196
810.45	4219
810.591	4238
810.733	4249
810.875	4493
811.016	4820
811.158	5117
811.299	5258
811.441	5273
811.582	5056
811.724	4691
811.865	4424
812.007	4542
812.148	4413
812.29	4409
812.431	4417
812.573	4402
812.714	4371
812.855	4386
812.997	4424
813.138	4489
813.279	4390
813.421	4421
813.562	4375
813.703	4322
813.845	4333
813.986	4257
814.127	4253
814.268	4207
814.41	4337
814.551	4223
814.692	4284
814.833	4246
814.974	4325
815.115	4318
815.256	4188
815.397	4219
815.539	4227
815.68	4185
815.821	4211
815.962	4265
816.103	4303
816.244	4227
816.385	4253
816.526	4265
816.666	4204
816.807	4147
816.948	4223
817.089	4169
817.23	4105
817.371	4044
817.512	4036
817.653	4067
817.793	4063
817.934	4002
818.075	4101
818.216	4059
818.356	4036
818.497	3975
818.638	3899
818.778	3922
818.919	3915
819.06	3876
819.2	3896
819.341	3842
819.481	3861
819.622	3915
819.762	4021
819.903	3930
820.043	3846
820.184	3812
820.324	3774
820.465	3842
820.605	3838
820.746	3800
820.886	3747
821.026	3896
821.167	3934
821.307	3975
821.447	4025
821.588	3972
821.728	3941
821.868	3911
822.008	3827
822.149	3888
822.289	3922
822.429	3785
822.569	3793
822.709	3770
822.849	3713
822.99	3724
823.13	3705
823.27	3789
823.41	3740
823.55	3766
823.69	3724
823.83	3713
823.97	3663
824.11	3591
824.25	3584
824.389	3637
824.529	3618
824.669	3629
824.809	3732
824.949	3732
825.089	3701
825.228	3675
825.368	3599
825.508	3542
825.648	3561
825.787	3591
825.927	3606
826.067	3595
826.206	3648
826.346	3812
826.485	3804
826.625	3850
826.765	3983
826.904	3812
827.044	3591
827.183	3511
827.323	3393
827.462	3450
827.601	3412
827.741	3378
827.88	3409
828.02	3389
828.159	3405
828.298	3507
828.437	3523
828.577	3492
828.716	3618
828.855	3443
828.994	3428
829.134	3344
829.273	3401
829.412	3363
829.551	3355
829.69	3367
829.829	3389
829.968	3515
830.107	3405
830.246	3439
830.385	3389
830.524	3367
830.663	3298
830.802	3287
830.941	3199
831.08	3192
831.219	3241
831.357	3256
831.496	3420
831.635	3245
831.774	3199
831.913	3192
832.051	3119
832.19	3142
832.329	3214
832.467	3138
832.606	3104
832.744	3161
832.883	3169
833.022	3173
833.16	3226
833.299	3283
833.437	3340
833.576	3340
833.714	3363
833.852	3412
833.991	3412
834.129	3469
834.267	3401
834.406	3412
834.544	3416
834.682	3389
834.821	3412
834.959	3561
835.097	3439
835.235	3530
835.373	3488
835.511	3507
835.65	3466
835.788	3492
835.926	3363
836.064	3405
836.202	3412
836.34	3591
836.478	3557
836.615	3523
836.753	3576
836.891	3610
837.029	3595
837.167	3591
837.305	3542
837.443	3549
837.58	3507
837.718	3606
837.856	3549
837.993	3534
838.131	3603
838.269	3561
838.406	3584
838.544	3564
838.681	3488
838.819	3420
838.956	3348
839.094	3409
839.231	3431
839.369	3450
839.506	3686
839.643	3618
839.781	3477
839.918	3450
840.055	3561
840.193	3523
840.33	3485
840.467	3572
840.604	3580
840.742	3755
840.879	3530
841.016	3561
841.153	3572
841.29	3751
841.427	3713
841.564	3709
841.701	3728
841.838	3701
841.975	3625
842.112	3667
842.249	3637
842.385	3599
842.522	3808
842.659	3675
842.796	3644
842.933	3732
843.069	3720
843.206	3652
843.343	3808
843.479	3751
843.616	3793
843.752	3679
843.889	3698
844.025	3842
844.162	3762
844.298	3831
844.435	3819
844.571	3728
844.708	3903
844.844	3964
844.98	4025
845.117	3987
845.253	3918
845.389	3892
845.525	3968
845.661	3949
845.798	3907
845.934	3994
846.07	3945
846.206	4051
846.342	4071
846.478	4029
846.614	3960
846.75	3896
846.886	3903
847.022	4025
847.158	3918
847.294	3975
847.429	4074
847.565	3991
847.701	4276
847.837	3873
847.972	3854
848.108	3949
848.244	3937
848.379	3869
848.515	3835
848.65	3812
848.786	3842
848.921	3884
849.057	3930
849.192	3960
849.328	3876
849.463	3899
849.598	3884
849.734	3838
849.869	3850
850.004	3816
850.14	3808
850.275	3736
850.41	3755
850.545	3789
850.68	3789
850.815	3762
850.95	3812
851.085	3956
851.22	3846
851.355	3819
851.49	3766
851.625	3740
851.76	3770
851.895	3743
852.03	3747
852.165	3774
852.299	3812
852.434	3876
852.569	3835
852.703	3880
852.838	3907
852.973	3994
853.107	3945
853.242	3857
853.376	3835
853.511	3774
853.645	3857
853.78	3949
853.914	3892
854.048	3857
854.183	3884
854.317	3888
854.451	4086
854.585	3918
854.72	3899
854.854	4010
854.988	3899
855.122	3998
855.256	3930
855.39	4032
855.524	4116
855.658	4090
855.792	4048
855.926	4139
856.06	4150
856.194	4227
856.327	4116
856.461	4086
856.595	4131
856.729	4124
856.862	4284
856.996	4223
857.13	4268
857.263	4325
857.397	4344
857.53	4284
857.664	4310
857.797	4405
857.931	4428
858.064	4379
858.197	4443
858.331	4417
858.464	4383
858.597	4306
858.731	4443
858.864	4459
858.997	4466
859.13	4504
859.263	4481
859.396	4584
859.529	4542
859.662	4523
859.795	4531
859.928	4592
860.061	4649
860.194	4683
860.327	4679
860.46	4683
860.592	4759
860.725	4736
860.858	4752
860.99	4649
861.123	4706
861.256	4668
861.388	4729
861.521	5406
861.653	4653
861.786	4679
861.918	4752
862.05	4774
862.183	4847
862.315	4892
862.447	4934
862.58	4942
862.712	4812
862.844	4721
862.976	4778
863.108	4805
863.24	5170
863.372	4793
863.504	4885
863.636	4919
863.768	4919
863.9	5006
864.032	4908
864.164	4949
864.296	5006
864.428	5048
864.559	5109
864.691	5128
864.823	5094
864.954	5064
865.086	5132
865.217	5117
865.349	5105
865.48	5189
865.612	5159
865.743	5307
865.875	5155
866.006	5094
866.137	5178
866.269	5197
866.4	5261
866.531	5193
866.662	5212
866.793	5273
866.924	5277
867.055	5311
867.186	5360
867.317	5322
867.448	5307
867.579	5360
867.71	5368
867.841	5376
867.972	5478
868.103	5459
868.233	5410
868.364	5490
868.495	5505
868.625	5619
868.756	5760
868.886	5691
869.017	5710
869.147	5805
869.278	5836
869.408	5870
869.539	5794
869.669	5939
869.799	5870
869.929	5977
870.06	6034
870.19	6163
870.32	6194
870.45	6243
870.58	6319
870.71	6395
870.84	6452
870.97	6441
871.1	6391
871.23	6654
871.36	6711
871.489	6673
871.619	6700
871.749	6798
871.879	6837
872.008	6985
872.138	7008
872.267	6970
872.397	6970
872.526	7008
872.656	7084
872.785	7225
872.915	7331
873.044	7487
873.173	7586
873.303	7681
873.432	7727
873.561	7852
873.69	7936
873.819	8050
873.948	8176
874.077	8233
874.206	8400
874.335	8450
874.464	8632
874.593	8811
874.722	8914
874.851	9116
874.979	9298
875.108	9355
875.237	9443
875.365	9462
875.494	9637
875.623	9842
875.751	9800
875.88	9998
876.008	10082
876.136	10367
876.265	10432
876.393	10656
876.521	10698
876.65	10797
876.778	10816
876.906	10911
877.034	10953
877.162	11132
877.29	11086
877.418	11273
877.546	11395
877.674	11509
877.802	11452
877.93	11535
878.058	11448
878.185	11459
878.313	11615
878.441	11729
878.568	11699
878.696	11794
878.824	11866
878.951	11893
879.079	12030
879.206	12133
879.333	12076
879.461	12091
879.588	12083
879.715	12083
879.842	12155
879.97	12091
880.097	11889
880.224	11802
880.351	11874
880.478	11935
880.605	11851
880.732	11855
880.859	12011
880.986	11828
881.112	11843
881.239	11661
881.366	11577
881.493	11638
881.619	11547
881.746	11509
881.872	11570
881.999	11562
882.125	11482
882.252	11585
882.378	11528
882.505	11501
882.631	11406
882.757	11353
882.883	11315
883.01	11235
883.136	11166
883.262	11113
883.388	11075
883.514	11242
883.64	11147
883.766	11132
883.892	10984
884.018	11037
884.143	11105
884.269	11124
884.395	10767
884.52	10714
884.646	10786
884.772	10744
884.897	10675
885.023	10698
885.148	10748
885.274	10736
885.399	10630
885.524	10588
885.65	10573
885.775	10592
885.9	10531
886.025	10561
886.15	10474
886.275	10421
886.4	10344
886.525	10390
886.65	10356
886.775	10306
886.9	10497
887.025	10550
887.149	10394
887.274	10196
887.399	10169
887.523	10181
887.648	10120
887.773	10071
887.897	10204
888.021	10204
888.146	10166
888.27	10219
888.395	10177
888.519	10135
888.643	10169
888.767	10131
888.891	10017
889.015	9991
889.139	10036
889.263	10013
889.387	10044
889.511	10051
889.635	10090
889.759	9972
889.883	9979
890.006	9994
890.13	10139
890.254	9915
890.377	9994
890.501	9800
890.624	9873
890.748	9922
890.871	9747
890.995	9728
891.118	9713
891.241	9835
891.364	9701
891.488	9823
891.611	9690
891.734	9762
891.857	9789
891.98	9747
892.103	9778
892.226	9751
892.349	9629
892.471	9584
892.594	9595
892.717	9584
892.839	9545
892.962	9561
893.085	9595
893.207	9507
893.33	9450
893.452	9587
893.575	9591
893.697	9530
893.819	9652
893.941	9595
894.064	9606
894.186	9492
894.308	9408
894.43	9515
894.552	9515
894.674	9492
894.796	9336
894.918	9348
895.04	9351
895.161	9382
895.283	9370
895.405	9222
895.526	9264
895.648	9150
895.769	9249
895.891	9233
896.012	9306
896.134	9218
896.255	9150
896.376	9104
896.498	9112
896.619	9161
896.74	9062
896.861	9043
896.982	9188
897.103	9268
897.224	9161
897.345	9081
897.466	9020
897.587	9032
897.708	9104
897.828	9028
897.949	8918
898.07	8842
898.19	8902
898.311	8967
898.431	8933
898.552	8929
898.672	9001
898.792	8929
898.913	8887
899.033	8804
899.153	8743
899.273	8625
899.393	8727
899.513	8788
899.633	8724
899.753	8697
899.873	8693
899.993	8735
900.113	8644
900.232	8727
900.352	8659
900.472	8537
900.591	8549
900.711	8579
900.83	8590
900.95	8674
901.069	8693
901.189	8503
901.308	8415
901.427	8465
901.546	8423
901.665	8454
901.784	8499
901.904	8381
902.023	8374
902.141	8221
902.26	8252
902.379	8256
902.498	8218
902.617	8214
902.735	8362
902.854	8313
902.973	8191
903.091	8172
903.21	8161
903.328	8138
903.446	8092
903.565	8043
903.683	8088
903.801	8062
903.919	8069
904.038	8168
904.156	8024
904.274	8111
904.392	8050
904.51	8035
904.627	8058
904.745	8062
904.863	8115
904.981	7898
905.098	7811
905.216	7845
905.334	7875
905.451	7841
905.569	7921
905.686	7868
905.803	7841
905.921	7772
906.038	7818
906.155	7780
906.272	7715
906.389	7689
906.506	7651
906.623	7624
906.74	7616
906.857	7578
906.974	7575
907.091	7708
907.208	7795
907.324	7609
907.441	7601
907.557	7472
907.674	7445
907.79	7445
907.907	7422
908.023	7472
908.139	7407
908.256	7362
908.372	7426
908.488	7369
908.604	7247
908.72	7198
908.836	7259
908.952	7126
909.068	7194
909.184	7293
909.3	7263
909.415	7247
909.531	7297
909.647	7149
909.762	7072
909.878	7095
909.993	7133
910.108	7057
910.224	7122
910.339	7080
910.454	6993
910.57	7034
910.685	6939
910.8	7149
910.915	7114
911.03	7012
911.145	6985
911.259	6859
911.374	6886
911.489	6897
911.604	6829
911.718	6684
911.833	6738
911.947	6665
912.062	6623
912.176	6703
912.291	6715
912.405	6696
912.519	6749
912.633	6833
912.748	6707
912.862	6719
912.976	6620
913.09	6460
913.204	6509
913.318	6589
913.431	6681
913.545	6734
913.659	6681
913.772	6608
913.886	6593
914	6570
914.113	6639
914.226	6627
914.34	6528
914.453	6506
914.566	6589
914.68	6513
914.793	6483
914.906	6388
915.019	6410
915.132	6296
915.245	6365
915.358	6410
915.47	6414
915.583	6479
915.696	6483
915.809	6532
915.921	6559
916.034	6437
916.146	6369
916.259	6388
916.371	6460
916.483	6471
916.595	6369
916.708	6380
916.82	6361
916.932	6338
917.044	6422
917.156	6327
917.268	6376
917.38	6388
917.491	6323
917.603	6319
917.715	6410
917.826	6384
917.938	6311
918.049	6296
918.161	6262
918.272	6388
918.384	6376
918.495	6311
918.606	6258
918.717	6220
918.828	6292
918.939	6224
919.05	6209
919.161	6239
919.272	6110
919.383	6144
919.494	6273
919.604	6433
919.715	6273
919.826	6224
919.936	6228
920.047	6308
920.157	6258
920.267	6407
920.378	6346
920.488	6266
920.598	6403
920.708	6483
920.818	6448
920.928	6483
921.038	6612
921.148	6551
921.258	6342
921.368	6277
921.477	6148
921.587	6197
921.697	6076
921.806	6144
921.916	6068
922.025	5950
922.134	5961
922.244	5863
922.353	5935
922.462	5847
922.571	5783
922.68	5714
922.789	5680
922.898	5657
923.007	5573
923.116	5714
923.224	5703
923.333	5653
923.442	5573
923.55	5573
923.659	5600
923.767	5623
923.876	5551
923.984	5604
924.092	5524
924.201	5501
924.309	5570
924.417	5532
924.525	5471
924.633	5471
924.741	6300
924.849	5379
924.956	5448
925.064	5383
925.172	5299
925.279	5299
925.387	5395
925.494	5376
925.602	5395
925.709	5402
925.816	5318
925.924	5288
926.031	5376
926.138	5265
926.245	5345
926.352	5166
926.459	5303
926.566	5246
926.673	5185
926.779	5105
926.886	5079
926.993	5052
927.099	4968
927.206	4972
927.312	4949
927.419	4949
927.525	4957
927.631	4968
927.737	4900
927.843	4831
927.95	4736
928.056	4793
928.162	4839
928.267	4831
928.373	5353
928.479	4801
928.585	4706
928.69	4706
928.796	4797
928.901	4691
929.007	4615
929.112	4717
929.218	4630
929.323	4588
929.428	4523
929.533	4660
929.638	4489
929.743	4523
929.848	4554
929.953	4504
930.058	4386
930.163	4337
930.267	4360
930.372	4405
930.477	4322
930.581	4474
930.685	4337
930.79	4265
930.894	4291
930.998	4287
931.103	4428
931.207	4116
931.311	4105
931.415	4044
931.519	3941
931.623	3953
