Data from glass_V78500241_1238.txt Node
Date: Wed Sep 01 19:23:04 CST 2021
User: usil
Spectrometer: V785-0024
Trigger mode: 0
Integration Time (sec): 4.000000E-1
Scans to average: 1
Nonlinearity correction enabled: false
Boxcar width: 0
Storing dark spectrum: false
XAxis mode: Wavelengths
Number of Pixels in Spectrum: 1024
>>>>>Begin Spectral Data<<<<<
801.071	3717
801.214	3751
801.356	3690
801.499	3709
801.641	3724
801.783	3804
801.926	3903
802.068	3838
802.211	3861
802.353	3907
802.496	3854
802.638	3896
802.78	3899
802.923	3949
803.065	3884
803.208	3884
803.35	3854
803.492	3899
803.635	3918
803.777	3774
803.919	3873
804.061	4215
804.204	3934
804.346	3953
804.488	3907
804.63	4040
804.773	3994
804.915	4036
805.057	4143
805.199	4036
805.341	4082
805.483	4139
805.626	4131
805.768	4173
805.91	4204
806.052	4246
806.194	4211
806.336	4360
806.478	4230
806.62	4169
806.762	4188
806.904	4280
807.046	4383
807.188	4253
807.33	4173
807.472	4219
807.614	4204
807.756	4295
807.898	4177
808.04	4227
808.182	4272
808.324	4341
808.465	4352
808.607	4440
808.749	4459
808.891	4443
809.033	4508
809.174	4409
809.316	4268
809.458	4238
809.6	4162
809.741	4188
809.883	4120
810.025	4291
810.166	4169
810.308	4200
810.45	4242
810.591	4249
810.733	4223
810.875	4588
811.016	4839
811.158	5094
811.299	5280
811.441	5296
811.582	5094
811.724	4717
811.865	4508
812.007	4462
812.148	4470
812.29	4417
812.431	4409
812.573	4424
812.714	4386
812.855	4417
812.997	4428
813.138	4489
813.279	4402
813.421	4436
813.562	4390
813.703	4344
813.845	4299
813.986	4268
814.127	4246
814.268	4276
814.41	4291
814.551	4253
814.692	4325
814.833	4303
814.974	4318
815.115	4356
815.256	4295
815.397	4265
815.539	4280
815.68	4227
815.821	4242
815.962	4341
816.103	4333
816.244	4261
816.385	4223
816.526	4303
816.666	4227
816.807	4097
816.948	4173
817.089	4158
817.23	4154
817.371	4067
817.512	4059
817.653	4059
817.793	4063
817.934	4036
818.075	4078
818.216	4090
818.356	4090
818.497	3960
818.638	3899
818.778	3941
818.919	3846
819.06	3884
819.2	3907
819.341	3854
819.481	3842
819.622	3915
819.762	4032
819.903	3941
820.043	3857
820.184	3850
820.324	3816
820.465	3876
820.605	3918
820.746	3869
820.886	3797
821.026	3945
821.167	3956
821.307	4010
821.447	3987
821.588	3949
821.728	3983
821.868	3960
822.008	3918
822.149	3941
822.289	3937
822.429	3793
822.569	3781
822.709	3800
822.849	3694
822.99	3728
823.13	3751
823.27	3831
823.41	3698
823.55	3762
823.69	3713
823.83	3743
823.97	3648
824.11	3629
824.25	3644
824.389	3637
824.529	3610
824.669	3610
824.809	3694
824.949	3759
825.089	3743
825.228	3724
825.368	3580
825.508	3572
825.648	3587
825.787	3580
825.927	3648
826.067	3648
826.206	3622
826.346	3789
826.485	3842
826.625	3854
826.765	3930
826.904	3876
827.044	3595
827.183	3523
827.323	3447
827.462	3473
827.601	3454
827.741	3412
827.88	3447
828.02	3370
828.159	3462
828.298	3523
828.437	3542
828.577	3477
828.716	3591
828.855	3500
828.994	3405
829.134	3386
829.273	3424
829.412	3378
829.551	3332
829.69	3367
829.829	3443
829.968	3564
830.107	3450
830.246	3462
830.385	3370
830.524	3367
830.663	3321
830.802	3256
830.941	3180
831.08	3203
831.219	3245
831.357	3275
831.496	3412
831.635	3249
831.774	3199
831.913	3203
832.051	3146
832.19	3123
832.329	3226
832.467	3165
832.606	3138
832.744	3192
832.883	3161
833.022	3192
833.16	3268
833.299	3275
833.437	3344
833.576	3397
833.714	3401
833.852	3466
833.991	3439
834.129	3534
834.267	3416
834.406	3431
834.544	3409
834.682	3458
834.821	3447
834.959	3610
835.097	3424
835.235	3526
835.373	3488
835.511	3515
835.65	3488
835.788	3485
835.926	3363
836.064	3386
836.202	3443
836.34	3599
836.478	3622
836.615	3599
836.753	3618
836.891	3694
837.029	3644
837.167	3591
837.305	3587
837.443	3542
837.58	3511
837.718	3625
837.856	3591
837.993	3469
838.131	3618
838.269	3622
838.406	3542
838.544	3564
838.681	3473
838.819	3481
838.956	3397
839.094	3401
839.231	3492
839.369	3538
839.506	3698
839.643	3629
839.781	3519
839.918	3500
840.055	3526
840.193	3530
840.33	3526
840.467	3542
840.604	3618
840.742	3823
840.879	3526
841.016	3557
841.153	3584
841.29	3747
841.427	3751
841.564	3709
841.701	3743
841.838	3671
841.975	3648
842.112	3740
842.249	3663
842.385	3644
842.522	3827
842.659	3671
842.796	3667
842.933	3717
843.069	3690
843.206	3705
843.343	3831
843.479	3819
843.616	3778
843.752	3644
843.889	3686
844.025	3888
844.162	3705
844.298	3850
844.435	3865
844.571	3816
844.708	3854
844.844	3953
844.98	4006
845.117	4051
845.253	3937
845.389	3918
845.525	3987
845.661	3979
845.798	3899
845.934	3994
846.07	3949
846.206	4048
846.342	4150
846.478	4112
846.614	3953
846.75	3934
846.886	3934
847.022	3968
847.158	3956
847.294	3975
847.429	4074
847.565	4006
847.701	4230
847.837	3876
847.972	3907
848.108	4029
848.244	3983
848.379	3831
848.515	3854
848.65	3812
848.786	3854
848.921	3880
849.057	3941
849.192	3972
849.328	3873
849.463	3922
849.598	3861
849.734	3884
849.869	3861
850.004	3789
850.14	3816
850.275	3793
850.41	3724
850.545	3785
850.68	3789
850.815	3846
850.95	3789
851.085	3945
851.22	3876
851.355	3831
851.49	3812
851.625	3770
851.76	3736
851.895	3743
852.03	3755
852.165	3819
852.299	3876
852.434	3918
852.569	3922
852.703	3865
852.838	3930
852.973	4010
853.107	4013
853.242	3884
853.376	3846
853.511	3816
853.645	3861
853.78	4010
853.914	3934
854.048	3907
854.183	3873
854.317	3953
854.451	4032
854.585	3937
854.72	3930
854.854	4055
854.988	3979
855.122	3994
855.256	3937
855.39	4032
855.524	4071
855.658	4086
855.792	4086
855.926	4131
856.06	4177
856.194	4230
856.327	4139
856.461	4173
856.595	4150
856.729	4169
856.862	4318
856.996	4230
857.13	4344
857.263	4329
857.397	4333
857.53	4325
857.664	4379
857.797	4428
857.931	4409
858.064	4417
858.197	4440
858.331	4428
858.464	4432
858.597	4306
858.731	4485
858.864	4466
858.997	4436
859.13	4470
859.263	4523
859.396	4561
859.529	4519
859.662	4497
859.795	4546
859.928	4592
860.061	4736
860.194	4767
860.327	4664
860.46	4694
860.592	4729
860.725	4771
860.858	4763
860.99	4710
861.123	4691
861.256	4668
861.388	4778
861.521	5288
861.653	4702
861.786	4744
861.918	4710
862.05	4812
862.183	4847
862.315	4911
862.447	4892
862.58	4892
862.712	4790
862.844	4774
862.976	4908
863.108	4854
863.24	5254
863.372	4797
863.504	4908
863.636	4938
863.768	4980
863.9	4961
864.032	4927
864.164	4991
864.296	5018
864.428	5109
864.559	5124
864.691	5143
864.823	5143
864.954	5140
865.086	5143
865.217	5132
865.349	5090
865.48	5155
865.612	5181
865.743	5269
865.875	5223
866.006	5204
866.137	5231
866.269	5284
866.4	5277
866.531	5227
866.662	5303
866.793	5315
866.924	5212
867.055	5303
867.186	5334
867.317	5341
867.448	5277
867.579	5425
867.71	5326
867.841	5425
867.972	5452
868.103	5452
868.233	5482
868.364	5570
868.495	5516
868.625	5699
868.756	5832
868.886	5665
869.017	5710
869.147	5885
869.278	5874
869.408	5794
869.539	5844
869.669	5882
869.799	5927
869.929	5961
870.06	6026
870.19	6155
870.32	6175
870.45	6289
870.58	6331
870.71	6452
870.84	6460
870.97	6437
871.1	6429
871.23	6616
871.36	6730
871.489	6612
871.619	6741
871.749	6837
871.879	6844
872.008	6973
872.138	7019
872.267	7008
872.397	7019
872.526	7091
872.656	7122
872.785	7168
872.915	7346
873.044	7571
873.173	7506
873.303	7628
873.432	7750
873.561	7864
873.69	7871
873.819	7959
873.948	8237
874.077	8252
874.206	8305
874.335	8465
874.464	8617
874.593	8868
874.722	8929
874.851	9077
874.979	9329
875.108	9401
875.237	9477
875.365	9523
875.494	9709
875.623	9861
875.751	9808
875.88	10059
876.008	10246
876.136	10272
876.265	10451
876.393	10694
876.521	10801
876.65	10835
876.778	10881
876.906	10957
877.034	11014
877.162	11037
877.29	11185
877.418	11311
877.546	11368
877.674	11440
877.802	11474
877.93	11471
878.058	11512
878.185	11577
878.313	11592
878.441	11726
878.568	11657
878.696	11882
878.824	11847
878.951	11920
879.079	12049
879.206	12117
879.333	12117
879.461	12038
879.588	12129
879.715	12095
879.842	12213
879.97	12038
880.097	11908
880.224	11927
880.351	11821
880.478	11851
880.605	11851
880.732	11863
880.859	12072
880.986	11870
881.112	11828
881.239	11748
881.366	11707
881.493	11596
881.619	11558
881.746	11535
881.872	11551
881.999	11509
882.125	11383
882.252	11642
882.378	11490
882.505	11547
882.631	11501
882.757	11273
882.883	11303
883.01	11360
883.136	11151
883.262	11128
883.388	11109
883.514	11201
883.64	11140
883.766	11045
883.892	11075
884.018	10980
884.143	11014
884.269	11124
884.395	10847
884.52	10786
884.646	10793
884.772	10729
884.897	10683
885.023	10782
885.148	10797
885.274	10759
885.399	10744
885.524	10599
885.65	10554
885.775	10641
885.9	10584
886.025	10622
886.15	10527
886.275	10459
886.4	10386
886.525	10409
886.65	10344
886.775	10402
886.9	10443
887.025	10500
887.149	10405
887.274	10249
887.399	10192
887.523	10257
887.648	10074
887.773	10154
887.897	10238
888.021	10265
888.146	10173
888.27	10257
888.395	10120
888.519	10295
888.643	10253
888.767	10196
888.891	10086
889.015	10032
889.139	10051
889.263	9964
889.387	10025
889.511	10116
889.635	10029
889.759	10013
889.883	10021
890.006	9953
890.13	10109
890.254	9987
890.377	9968
890.501	9808
890.624	9926
890.748	9869
890.871	9899
890.995	9751
891.118	9755
891.241	9869
891.364	9766
891.488	9808
891.611	9766
891.734	9808
891.857	9819
891.98	9751
892.103	9774
892.226	9755
892.349	9652
892.471	9515
892.594	9595
892.717	9614
892.839	9534
892.962	9610
893.085	9793
893.207	9568
893.33	9561
893.452	9496
893.575	9591
893.697	9435
893.819	9584
893.941	9606
894.064	9599
894.186	9466
894.308	9431
894.43	9507
894.552	9587
894.674	9534
894.796	9393
894.918	9367
895.04	9431
895.161	9348
895.283	9344
895.405	9180
895.526	9401
895.648	9222
895.769	9272
895.891	9313
896.012	9249
896.134	9260
896.255	9173
896.376	9112
896.498	9161
896.619	9169
896.74	9093
896.861	9138
896.982	9279
897.103	9287
897.224	9146
897.345	9051
897.466	9070
897.587	9001
897.708	9119
897.828	9001
897.949	8929
898.07	8880
898.19	8929
898.311	9051
898.431	8899
898.552	8887
898.672	8986
898.792	8880
898.913	8921
899.033	8762
899.153	8766
899.273	8670
899.393	8823
899.513	8750
899.633	8712
899.753	8678
899.873	8648
899.993	8750
900.113	8754
900.232	8746
900.352	8640
900.472	8606
900.591	8617
900.711	8594
900.83	8583
900.95	8644
901.069	8766
901.189	8514
901.308	8488
901.427	8469
901.546	8450
901.665	8488
901.784	8511
901.904	8389
902.023	8336
902.141	8290
902.26	8248
902.379	8290
902.498	8244
902.617	8244
902.735	8324
902.854	8256
902.973	8282
903.091	8092
903.21	8119
903.328	8187
903.446	8134
903.565	8084
903.683	8172
903.801	8065
903.919	8123
904.038	8214
904.156	8088
904.274	8077
904.392	8039
904.51	8054
904.627	8027
904.745	8111
904.863	8119
904.981	7989
905.098	7841
905.216	7868
905.334	7951
905.451	7860
905.569	7887
905.686	7921
905.803	7925
905.921	7845
906.038	7822
906.155	7841
906.272	7719
906.389	7693
906.506	7658
906.623	7624
906.74	7575
906.857	7537
906.974	7563
907.091	7696
907.208	7746
907.324	7658
907.441	7548
907.557	7491
907.674	7415
907.79	7403
907.907	7392
908.023	7419
908.139	7346
908.256	7373
908.372	7407
908.488	7362
908.604	7278
908.72	7217
908.836	7327
908.952	7247
909.068	7278
909.184	7354
909.3	7320
909.415	7327
909.531	7293
909.647	7137
909.762	7129
909.878	7061
909.993	7103
910.108	7091
910.224	7110
910.339	7133
910.454	7031
910.57	7057
910.685	6993
910.8	7118
910.915	7137
911.03	7015
911.145	6932
911.259	6840
911.374	6913
911.489	6844
911.604	6833
911.718	6719
911.833	6783
911.947	6639
912.062	6658
912.176	6730
912.291	6722
912.405	6654
912.519	6798
912.633	6814
912.748	6745
912.862	6726
912.976	6570
913.09	6525
913.204	6631
913.318	6578
913.431	6635
913.545	6722
913.659	6711
913.772	6650
913.886	6563
914	6578
914.113	6597
914.226	6662
914.34	6604
914.453	6532
914.566	6616
914.68	6528
914.793	6498
914.906	6433
915.019	6403
915.132	6346
915.245	6422
915.358	6437
915.47	6498
915.583	6445
915.696	6494
915.809	6563
915.921	6563
916.034	6422
916.146	6391
916.259	6346
916.371	6521
916.483	6464
916.595	6418
916.708	6414
916.82	6448
916.932	6365
917.044	6331
917.156	6384
917.268	6342
917.38	6327
917.491	6361
917.603	6331
917.715	6429
917.826	6422
917.938	6365
918.049	6220
918.161	6304
918.272	6418
918.384	6498
918.495	6369
918.606	6296
918.717	6178
918.828	6213
918.939	6311
919.05	6209
919.161	6270
919.272	6076
919.383	6182
919.494	6327
919.604	6464
919.715	6300
919.826	6251
919.936	6209
920.047	6357
920.157	6323
920.267	6456
920.378	6327
920.488	6308
920.598	6418
920.708	6620
920.818	6452
920.928	6490
921.038	6642
921.148	6631
921.258	6395
921.368	6243
921.477	6209
921.587	6194
921.697	6072
921.806	6152
921.916	6091
922.025	5908
922.134	5889
922.244	5908
922.353	5912
922.462	5847
922.571	5844
922.68	5718
922.789	5695
922.898	5726
923.007	5608
923.116	5748
923.224	5699
923.333	5649
923.442	5611
923.55	5615
923.659	5646
923.767	5672
923.876	5562
923.984	5642
924.092	5467
924.201	5539
924.309	5589
924.417	5547
924.525	5493
924.633	5528
924.741	6251
924.849	5372
924.956	5501
925.064	5398
925.172	5307
925.279	5337
925.387	5353
925.494	5307
925.602	5421
925.709	5349
925.816	5269
925.924	5315
926.031	5330
926.138	5258
926.245	5330
926.352	5258
926.459	5353
926.566	5334
926.673	5265
926.779	5212
926.886	5189
926.993	5033
927.099	5014
927.206	5003
927.312	5003
927.419	5048
927.525	4972
927.631	4995
927.737	4847
927.843	4839
927.95	4793
928.056	4812
928.162	4828
928.267	4835
928.373	5368
928.479	4870
928.585	4710
928.69	4733
928.796	4771
928.901	4664
929.007	4573
929.112	4710
929.218	4637
929.323	4603
929.428	4565
929.533	4702
929.638	4561
929.743	4561
929.848	4569
929.953	4470
930.058	4459
930.163	4306
930.267	4375
930.372	4478
930.477	4329
930.581	4493
930.685	4344
930.79	4272
930.894	4272
930.998	4295
931.103	4367
931.207	4158
931.311	4093
931.415	4055
931.519	3941
931.623	3949
