Data from glass_V78500241_2028.txt Node
Date: Wed Sep 01 19:28:33 CST 2021
User: usil
Spectrometer: V785-0024
Trigger mode: 0
Integration Time (sec): 4.000000E-1
Scans to average: 1
Nonlinearity correction enabled: false
Boxcar width: 0
Storing dark spectrum: false
XAxis mode: Wavelengths
Number of Pixels in Spectrum: 1024
>>>>>Begin Spectral Data<<<<<
801.071	3743
801.214	3724
801.356	3690
801.499	3728
801.641	3743
801.783	3793
801.926	3854
802.068	3808
802.211	3835
802.353	3930
802.496	3861
802.638	3926
802.78	3899
802.923	3873
803.065	3846
803.208	3857
803.35	3835
803.492	3922
803.635	3869
803.777	3793
803.919	3899
804.061	4109
804.204	3922
804.346	3960
804.488	3945
804.63	4063
804.773	3915
804.915	4002
805.057	4154
805.199	4029
805.341	4090
805.483	4158
805.626	4109
805.768	4116
805.91	4215
806.052	4265
806.194	4177
806.336	4356
806.478	4211
806.62	4196
806.762	4211
806.904	4257
807.046	4344
807.188	4207
807.33	4173
807.472	4227
807.614	4185
807.756	4276
807.898	4200
808.04	4215
808.182	4261
808.324	4295
808.465	4325
808.607	4451
808.749	4478
808.891	4409
809.033	4497
809.174	4375
809.316	4246
809.458	4204
809.6	4158
809.741	4158
809.883	4188
810.025	4219
810.166	4230
810.308	4219
810.45	4265
810.591	4230
810.733	4299
810.875	4516
811.016	4812
811.158	5140
811.299	5239
811.441	5269
811.582	5014
811.724	4717
811.865	4470
812.007	4447
812.148	4405
812.29	4443
812.431	4421
812.573	4409
812.714	4341
812.855	4405
812.997	4390
813.138	4474
813.279	4443
813.421	4409
813.562	4417
813.703	4303
813.845	4348
813.986	4234
814.127	4227
814.268	4287
814.41	4268
814.551	4261
814.692	4348
814.833	4246
814.974	4333
815.115	4348
815.256	4265
815.397	4242
815.539	4219
815.68	4131
815.821	4215
815.962	4287
816.103	4310
816.244	4287
816.385	4227
816.526	4291
816.666	4215
816.807	4078
816.948	4181
817.089	4200
817.23	4105
817.371	4055
817.512	4044
817.653	4101
817.793	3987
817.934	4048
818.075	4059
818.216	4086
818.356	4074
818.497	3994
818.638	3896
818.778	3945
818.919	3907
819.06	3846
819.2	3896
819.341	3865
819.481	3831
819.622	3903
819.762	4002
819.903	3945
820.043	3854
820.184	3819
820.324	3812
820.465	3869
820.605	3884
820.746	3827
820.886	3770
821.026	3918
821.167	3854
821.307	3953
821.447	3987
821.588	3926
821.728	3934
821.868	3922
822.008	3865
822.149	3918
822.289	3899
822.429	3827
822.569	3736
822.709	3804
822.849	3690
822.99	3751
823.13	3778
823.27	3770
823.41	3705
823.55	3675
823.69	3701
823.83	3728
823.97	3660
824.11	3587
824.25	3564
824.389	3633
824.529	3660
824.669	3625
824.809	3686
824.949	3774
825.089	3747
825.228	3698
825.368	3553
825.508	3568
825.648	3584
825.787	3622
825.927	3679
826.067	3641
826.206	3629
826.346	3808
826.485	3793
826.625	3869
826.765	3937
826.904	3808
827.044	3625
827.183	3534
827.323	3420
827.462	3466
827.601	3469
827.741	3481
827.88	3443
828.02	3378
828.159	3439
828.298	3492
828.437	3526
828.577	3454
828.716	3629
828.855	3507
828.994	3363
829.134	3389
829.273	3378
829.412	3355
829.551	3325
829.69	3370
829.829	3416
829.968	3485
830.107	3420
830.246	3466
830.385	3397
830.524	3329
830.663	3332
830.802	3275
830.941	3192
831.08	3180
831.219	3256
831.357	3275
831.496	3389
831.635	3237
831.774	3195
831.913	3195
832.051	3157
832.19	3123
832.329	3230
832.467	3119
832.606	3112
832.744	3180
832.883	3173
833.022	3222
833.16	3260
833.299	3283
833.437	3351
833.576	3351
833.714	3431
833.852	3450
833.991	3462
834.129	3458
834.267	3462
834.406	3412
834.544	3428
834.682	3439
834.821	3401
834.959	3549
835.097	3428
835.235	3526
835.373	3507
835.511	3519
835.65	3435
835.788	3473
835.926	3389
836.064	3367
836.202	3405
836.34	3561
836.478	3587
836.615	3542
836.753	3576
836.891	3644
837.029	3587
837.167	3564
837.305	3561
837.443	3580
837.58	3511
837.718	3595
837.856	3553
837.993	3523
838.131	3587
838.269	3584
838.406	3576
838.544	3587
838.681	3450
838.819	3439
838.956	3359
839.094	3378
839.231	3416
839.369	3534
839.506	3728
839.643	3606
839.781	3534
839.918	3473
840.055	3538
840.193	3557
840.33	3511
840.467	3542
840.604	3595
840.742	3774
840.879	3580
841.016	3553
841.153	3534
841.29	3797
841.427	3705
841.564	3682
841.701	3751
841.838	3667
841.975	3682
842.112	3740
842.249	3644
842.385	3641
842.522	3823
842.659	3652
842.796	3671
842.933	3682
843.069	3694
843.206	3709
843.343	3819
843.479	3797
843.616	3816
843.752	3667
843.889	3686
844.025	3842
844.162	3732
844.298	3865
844.435	3766
844.571	3778
844.708	3930
844.844	3937
844.98	4002
845.117	3964
845.253	3937
845.389	3861
845.525	4006
845.661	3922
845.798	3922
845.934	3994
846.07	3953
846.206	4082
846.342	4147
846.478	4055
846.614	3975
846.75	3918
846.886	3949
847.022	4017
847.158	4010
847.294	4002
847.429	4017
847.565	3972
847.701	4238
847.837	3884
847.972	3842
848.108	3949
848.244	4006
848.379	3838
848.515	3816
848.65	3808
848.786	3812
848.921	3865
849.057	3876
849.192	3915
849.328	3907
849.463	3907
849.598	3903
849.734	3831
849.869	3816
850.004	3785
850.14	3800
850.275	3808
850.41	3751
850.545	3755
850.68	3785
850.815	3797
850.95	3793
851.085	3941
851.22	3884
851.355	3827
851.49	3770
851.625	3823
851.76	3774
851.895	3743
852.03	3701
852.165	3789
852.299	3827
852.434	3903
852.569	3838
852.703	3876
852.838	3907
852.973	3960
853.107	3949
853.242	3865
853.376	3827
853.511	3743
853.645	3846
853.78	3994
853.914	3880
854.048	3892
854.183	3907
854.317	3907
854.451	4067
854.585	3953
854.72	3949
854.854	4025
854.988	3926
855.122	3998
855.256	3907
855.39	3975
855.524	4093
855.658	4071
855.792	4090
855.926	4154
856.06	4154
856.194	4196
856.327	4147
856.461	4139
856.595	4109
856.729	4116
856.862	4284
856.996	4192
857.13	4242
857.263	4379
857.397	4348
857.53	4246
857.664	4306
857.797	4398
857.931	4417
858.064	4367
858.197	4455
858.331	4386
858.464	4363
858.597	4318
858.731	4432
858.864	4466
858.997	4436
859.13	4519
859.263	4538
859.396	4558
859.529	4508
859.662	4512
859.795	4546
859.928	4611
860.061	4714
860.194	4698
860.327	4611
860.46	4634
860.592	4729
860.725	4721
860.858	4740
860.99	4729
861.123	4672
861.256	4691
861.388	4752
861.521	5417
861.653	4748
861.786	4706
861.918	4725
862.05	4820
862.183	4816
862.315	4900
862.447	4908
862.58	4835
862.712	4801
862.844	4782
862.976	4854
863.108	4873
863.24	5235
863.372	4828
863.504	4892
863.636	4866
863.768	4984
863.9	4934
864.032	4904
864.164	4938
864.296	5064
864.428	5045
864.559	5117
864.691	5090
864.823	5159
864.954	5170
865.086	5181
865.217	5151
865.349	5102
865.48	5201
865.612	5193
865.743	5277
865.875	5197
866.006	5136
866.137	5292
866.269	5246
866.4	5254
866.531	5235
866.662	5220
866.793	5250
866.924	5280
867.055	5345
867.186	5337
867.317	5334
867.448	5360
867.579	5364
867.71	5417
867.841	5398
867.972	5410
868.103	5493
868.233	5429
868.364	5512
868.495	5535
868.625	5634
868.756	5805
868.886	5653
869.017	5718
869.147	5901
869.278	5923
869.408	5786
869.539	5870
869.669	5950
869.799	5908
869.929	5973
870.06	6064
870.19	6232
870.32	6220
870.45	6209
870.58	6319
870.71	6452
870.84	6528
870.97	6475
871.1	6426
871.23	6642
871.36	6669
871.489	6631
871.619	6741
871.749	6829
871.879	6852
872.008	6932
872.138	6981
872.267	7027
872.397	6985
872.526	6989
872.656	7053
872.785	7187
872.915	7411
873.044	7491
873.173	7510
873.303	7666
873.432	7719
873.561	7909
873.69	7947
873.819	8020
873.948	8138
874.077	8324
874.206	8336
874.335	8446
874.464	8648
874.593	8849
874.722	8849
874.851	9104
874.979	9245
875.108	9348
875.237	9336
875.365	9431
875.494	9610
875.623	9865
875.751	9888
875.88	9987
876.008	10211
876.136	10314
876.265	10554
876.393	10721
876.521	10691
876.65	10828
876.778	10889
876.906	10908
877.034	11060
877.162	11060
877.29	11159
877.418	11296
877.546	11318
877.674	11425
877.802	11433
877.93	11532
878.058	11516
878.185	11535
878.313	11634
878.441	11741
878.568	11718
878.696	11805
878.824	11920
878.951	11942
879.079	11973
879.206	12068
879.333	12015
879.461	12034
879.588	12102
879.715	12121
879.842	12251
879.97	12026
880.097	11950
880.224	11912
880.351	11847
880.478	11840
880.605	11874
880.732	11821
880.859	11939
880.986	11745
881.112	11870
881.239	11684
881.366	11608
881.493	11554
881.619	11577
881.746	11585
881.872	11490
881.999	11573
882.125	11448
882.252	11573
882.378	11516
882.505	11566
882.631	11322
882.757	11322
882.883	11410
883.01	11208
883.136	11242
883.262	11067
883.388	11094
883.514	11231
883.64	11075
883.766	11056
883.892	10885
884.018	10972
884.143	11064
884.269	11155
884.395	10862
884.52	10752
884.646	10843
884.772	10771
884.897	10645
885.023	10656
885.148	10717
885.274	10729
885.399	10710
885.524	10615
885.65	10615
885.775	10558
885.9	10573
886.025	10584
886.15	10542
886.275	10428
886.4	10390
886.525	10386
886.65	10367
886.775	10295
886.9	10500
887.025	10550
887.149	10363
887.274	10246
887.399	10257
887.523	10219
887.648	10074
887.773	10147
887.897	10329
888.021	10192
888.146	10147
888.27	10185
888.395	10196
888.519	10196
888.643	10211
888.767	10192
888.891	10090
889.015	10017
889.139	9994
889.263	9994
889.387	10071
889.511	10139
889.635	10032
889.759	10002
889.883	10010
890.006	9960
890.13	10105
890.254	10013
890.377	10002
890.501	9873
890.624	9949
890.748	9880
890.871	9846
890.995	9713
891.118	9694
891.241	9701
891.364	9755
891.488	9819
891.611	9698
891.734	9785
891.857	9766
891.98	9705
892.103	9766
892.226	9720
892.349	9614
892.471	9561
892.594	9526
892.717	9625
892.839	9625
892.962	9576
893.085	9663
893.207	9545
893.33	9458
893.452	9477
893.575	9553
893.697	9507
893.819	9663
893.941	9614
894.064	9686
894.186	9378
894.308	9386
894.43	9466
894.552	9633
894.674	9557
894.796	9386
894.918	9420
895.04	9310
895.161	9367
895.283	9336
895.405	9302
895.526	9291
895.648	9226
895.769	9264
895.891	9253
896.012	9173
896.134	9230
896.255	9135
896.376	9150
896.498	9146
896.619	9097
896.74	9138
896.861	9116
896.982	9245
897.103	9253
897.224	9104
897.345	9043
897.466	9005
897.587	9001
897.708	9161
897.828	9047
897.949	8842
898.07	8891
898.19	8921
898.311	9001
898.431	8891
898.552	8941
898.672	8975
898.792	8952
898.913	8887
899.033	8857
899.153	8705
899.273	8678
899.393	8701
899.513	8746
899.633	8754
899.753	8766
899.873	8640
899.993	8735
900.113	8701
900.232	8708
900.352	8636
900.472	8621
900.591	8530
900.711	8587
900.83	8511
900.95	8667
901.069	8667
901.189	8511
901.308	8461
901.427	8366
901.546	8431
901.665	8438
901.784	8469
901.904	8381
902.023	8355
902.141	8267
902.26	8271
902.379	8271
902.498	8206
902.617	8180
902.735	8290
902.854	8298
902.973	8191
903.091	8142
903.21	8145
903.328	8153
903.446	8130
903.565	8043
903.683	8119
903.801	7982
903.919	8164
904.038	8088
904.156	8050
904.274	8058
904.392	8054
904.51	8058
904.627	8035
904.745	8043
904.863	8065
904.981	7970
905.098	7780
905.216	7830
905.334	7871
905.451	7925
905.569	7890
905.686	7925
905.803	7928
905.921	7727
906.038	7826
906.155	7769
906.272	7719
906.389	7742
906.506	7658
906.623	7571
906.74	7609
906.857	7464
906.974	7521
907.091	7658
907.208	7719
907.324	7620
907.441	7552
907.557	7430
907.674	7403
907.79	7449
907.907	7369
908.023	7415
908.139	7388
908.256	7384
908.372	7362
908.488	7305
908.604	7228
908.72	7213
908.836	7266
908.952	7247
909.068	7247
909.184	7346
909.3	7278
909.415	7293
909.531	7289
909.647	7118
909.762	7114
909.878	7065
909.993	7088
910.108	7088
910.224	7107
910.339	7118
910.454	7080
910.57	6985
910.685	6920
910.8	7183
910.915	7137
911.03	7061
911.145	6867
911.259	6867
911.374	6875
911.489	6810
911.604	6779
911.718	6719
911.833	6753
911.947	6707
912.062	6650
912.176	6662
912.291	6688
912.405	6665
912.519	6840
912.633	6783
912.748	6719
912.862	6681
912.976	6646
913.09	6570
913.204	6574
913.318	6612
913.431	6703
913.545	6669
913.659	6711
913.772	6673
913.886	6616
914	6642
914.113	6589
914.226	6635
914.34	6563
914.453	6494
914.566	6559
914.68	6555
914.793	6494
914.906	6418
915.019	6464
915.132	6334
915.245	6452
915.358	6452
915.47	6395
915.583	6429
915.696	6486
915.809	6486
915.921	6540
916.034	6410
916.146	6399
916.259	6365
916.371	6452
916.483	6441
916.595	6410
916.708	6388
916.82	6369
916.932	6323
917.044	6361
917.156	6437
917.268	6315
917.38	6376
917.491	6308
917.603	6334
917.715	6410
917.826	6357
917.938	6361
918.049	6232
918.161	6372
918.272	6418
918.384	6391
918.495	6350
918.606	6224
918.717	6133
918.828	6258
918.939	6292
919.05	6152
919.161	6194
919.272	6117
919.383	6140
919.494	6243
919.604	6456
919.715	6292
919.826	6228
919.936	6243
920.047	6315
920.157	6289
920.267	6475
920.378	6315
920.488	6273
920.598	6433
920.708	6540
920.818	6464
920.928	6452
921.038	6620
921.148	6589
921.258	6395
921.368	6369
921.477	6213
921.587	6224
921.697	6083
921.806	6270
921.916	6072
922.025	5939
922.134	5923
922.244	5824
922.353	5942
922.462	5882
922.571	5760
922.68	5665
922.789	5649
922.898	5684
923.007	5596
923.116	5688
923.224	5653
923.333	5646
923.442	5535
923.55	5558
923.659	5589
923.767	5608
923.876	5509
923.984	5634
924.092	5474
924.201	5604
924.309	5543
924.417	5535
924.525	5486
924.633	5493
924.741	6220
924.849	5387
924.956	5486
925.064	5315
925.172	5322
925.279	5231
925.387	5311
925.494	5337
925.602	5391
925.709	5372
925.816	5280
925.924	5277
926.031	5292
926.138	5364
926.245	5341
926.352	5258
926.459	5269
926.566	5315
926.673	5140
926.779	5109
926.886	5083
926.993	5033
927.099	4987
927.206	4968
927.312	4911
927.419	4984
927.525	5006
927.631	4965
927.737	4930
927.843	4850
927.95	4748
928.056	4790
928.162	4793
928.267	4812
928.373	5235
928.479	4824
928.585	4637
928.69	4763
928.796	4771
928.901	4736
929.007	4569
929.112	4668
929.218	4580
929.323	4577
929.428	4542
929.533	4630
929.638	4527
929.743	4550
929.848	4527
929.953	4474
930.058	4462
930.163	4367
930.267	4341
930.372	4394
930.477	4314
930.581	4428
930.685	4360
930.79	4257
930.894	4272
930.998	4276
931.103	4367
931.207	4112
931.311	4051
931.415	4036
931.519	3899
931.623	3953
