Data from glass_V78500241_124.txt Node
Date: Wed Sep 01 19:15:21 CST 2021
User: usil
Spectrometer: V785-0024
Trigger mode: 0
Integration Time (sec): 4.000000E-1
Scans to average: 1
Nonlinearity correction enabled: false
Boxcar width: 0
Storing dark spectrum: false
XAxis mode: Wavelengths
Number of Pixels in Spectrum: 1024
>>>>>Begin Spectral Data<<<<<
801.071	3724
801.214	3804
801.356	3743
801.499	3778
801.641	3701
801.783	3762
801.926	3842
802.068	3808
802.211	3831
802.353	3899
802.496	3842
802.638	3884
802.78	3918
802.923	3934
803.065	3915
803.208	3846
803.35	3846
803.492	3949
803.635	3934
803.777	3797
803.919	3941
804.061	4207
804.204	3964
804.346	3934
804.488	3964
804.63	4036
804.773	3983
804.915	4071
805.057	4169
805.199	4101
805.341	4105
805.483	4112
805.626	4173
805.768	4166
805.91	4207
806.052	4223
806.194	4223
806.336	4322
806.478	4230
806.62	4238
806.762	4227
806.904	4227
807.046	4375
807.188	4227
807.33	4185
807.472	4246
807.614	4211
807.756	4257
807.898	4227
808.04	4200
808.182	4303
808.324	4344
808.465	4413
808.607	4481
808.749	4451
808.891	4485
809.033	4504
809.174	4421
809.316	4284
809.458	4295
809.6	4169
809.741	4196
809.883	4173
810.025	4261
810.166	4234
810.308	4249
810.45	4223
810.591	4265
810.733	4257
810.875	4519
811.016	4843
811.158	5166
811.299	5242
811.441	5307
811.582	5060
811.724	4740
811.865	4489
812.007	4489
812.148	4394
812.29	4379
812.431	4428
812.573	4405
812.714	4398
812.855	4436
812.997	4409
813.138	4512
813.279	4466
813.421	4440
813.562	4383
813.703	4348
813.845	4318
813.986	4276
814.127	4242
814.268	4253
814.41	4295
814.551	4314
814.692	4299
814.833	4303
814.974	4344
815.115	4344
815.256	4291
815.397	4207
815.539	4280
815.68	4238
815.821	4215
815.962	4352
816.103	4261
816.244	4280
816.385	4261
816.526	4272
816.666	4272
816.807	4078
816.948	4215
817.089	4188
817.23	4150
817.371	4105
817.512	4048
817.653	4086
817.793	4040
817.934	4078
818.075	4124
818.216	4109
818.356	4093
818.497	4017
818.638	3915
818.778	3926
818.919	3934
819.06	3865
819.2	3922
819.341	3823
819.481	3861
819.622	3918
819.762	4059
819.903	4013
820.043	3888
820.184	3876
820.324	3861
820.465	3876
820.605	3876
820.746	3873
820.886	3816
821.026	3964
821.167	3930
821.307	4006
821.447	3979
821.588	3994
821.728	3953
821.868	3926
822.008	3884
822.149	3956
822.289	3960
822.429	3766
822.569	3766
822.709	3846
822.849	3728
822.99	3701
823.13	3778
823.27	3774
823.41	3751
823.55	3740
823.69	3705
823.83	3747
823.97	3686
824.11	3603
824.25	3610
824.389	3663
824.529	3717
824.669	3622
824.809	3690
824.949	3736
825.089	3736
825.228	3736
825.368	3618
825.508	3576
825.648	3587
825.787	3595
825.927	3648
826.067	3648
826.206	3652
826.346	3762
826.485	3831
826.625	3850
826.765	3983
826.904	3888
827.044	3606
827.183	3534
827.323	3458
827.462	3496
827.601	3466
827.741	3431
827.88	3469
828.02	3393
828.159	3473
828.298	3511
828.437	3561
828.577	3523
828.716	3606
828.855	3496
828.994	3431
829.134	3424
829.273	3374
829.412	3397
829.551	3374
829.69	3370
829.829	3454
829.968	3504
830.107	3477
830.246	3443
830.385	3378
830.524	3397
830.663	3272
830.802	3279
830.941	3237
831.08	3203
831.219	3287
831.357	3272
831.496	3393
831.635	3222
831.774	3188
831.913	3188
832.051	3138
832.19	3173
832.329	3245
832.467	3127
832.606	3077
832.744	3161
832.883	3165
833.022	3245
833.16	3237
833.299	3340
833.437	3363
833.576	3389
833.714	3424
833.852	3435
833.991	3492
834.129	3485
834.267	3469
834.406	3447
834.544	3420
834.682	3435
834.821	3424
834.959	3618
835.097	3424
835.235	3530
835.373	3485
835.511	3458
835.65	3473
835.788	3549
835.926	3397
836.064	3359
836.202	3420
836.34	3637
836.478	3618
836.615	3538
836.753	3603
836.891	3667
837.029	3603
837.167	3603
837.305	3553
837.443	3584
837.58	3557
837.718	3637
837.856	3587
837.993	3534
838.131	3595
838.269	3580
838.406	3610
838.544	3610
838.681	3519
838.819	3458
838.956	3428
839.094	3412
839.231	3473
839.369	3519
839.506	3743
839.643	3675
839.781	3519
839.918	3488
840.055	3542
840.193	3561
840.33	3561
840.467	3572
840.604	3618
840.742	3857
840.879	3561
841.016	3591
841.153	3599
841.29	3770
841.427	3740
841.564	3701
841.701	3770
841.838	3724
841.975	3663
842.112	3755
842.249	3671
842.385	3671
842.522	3857
842.659	3732
842.796	3667
842.933	3728
843.069	3740
843.206	3743
843.343	3800
843.479	3797
843.616	3835
843.752	3671
843.889	3720
844.025	3884
844.162	3701
844.298	3892
844.435	3797
844.571	3816
844.708	3896
844.844	3987
844.98	4013
845.117	4059
845.253	3953
845.389	3907
845.525	3941
845.661	3975
845.798	3960
845.934	3994
846.07	3972
846.206	4051
846.342	4173
846.478	4086
846.614	3979
846.75	3926
846.886	3949
847.022	4082
847.158	3979
847.294	4025
847.429	4040
847.565	4044
847.701	4310
847.837	3884
847.972	3850
848.108	3994
848.244	3960
848.379	3869
848.515	3842
848.65	3850
848.786	3842
848.921	3896
849.057	3922
849.192	4010
849.328	3937
849.463	3915
849.598	3842
849.734	3865
849.869	3857
850.004	3781
850.14	3835
850.275	3812
850.41	3774
850.545	3759
850.68	3819
850.815	3804
850.95	3785
851.085	3968
851.22	3880
851.355	3869
851.49	3793
851.625	3774
851.76	3789
851.895	3774
852.03	3785
852.165	3816
852.299	3854
852.434	3918
852.569	3861
852.703	3873
852.838	3907
852.973	4051
853.107	3968
853.242	3941
853.376	3873
853.511	3797
853.645	3846
853.78	3983
853.914	3911
854.048	3861
854.183	3857
854.317	3983
854.451	4112
854.585	3998
854.72	3956
854.854	4059
854.988	3930
855.122	4010
855.256	3937
855.39	4032
855.524	4143
855.658	4109
855.792	4097
855.926	4147
856.06	4188
856.194	4211
856.327	4135
856.461	4158
856.595	4177
856.729	4215
856.862	4299
856.996	4257
857.13	4344
857.263	4337
857.397	4375
857.53	4306
857.664	4371
857.797	4386
857.931	4451
858.064	4413
858.197	4504
858.331	4443
858.464	4394
858.597	4306
858.731	4451
858.864	4466
858.997	4500
859.13	4538
859.263	4550
859.396	4615
859.529	4531
859.662	4546
859.795	4527
859.928	4634
860.061	4694
860.194	4725
860.327	4675
860.46	4660
860.592	4733
860.725	4774
860.858	4828
860.99	4683
861.123	4702
861.256	4714
861.388	4793
861.521	5512
861.653	4763
861.786	4740
861.918	4736
862.05	4782
862.183	4870
862.315	4854
862.447	4942
862.58	4904
862.712	4820
862.844	4805
862.976	4892
863.108	4892
863.24	5246
863.372	4843
863.504	4911
863.636	4930
863.768	5014
863.9	5022
864.032	4991
864.164	4968
864.296	5022
864.428	5083
864.559	5136
864.691	5109
864.823	5140
864.954	5136
865.086	5151
865.217	5117
865.349	5121
865.48	5185
865.612	5204
865.743	5284
865.875	5231
866.006	5178
866.137	5227
866.269	5235
866.4	5242
866.531	5307
866.662	5277
866.793	5220
866.924	5318
867.055	5345
867.186	5349
867.317	5311
867.448	5406
867.579	5379
867.71	5391
867.841	5368
867.972	5433
868.103	5482
868.233	5532
868.364	5516
868.495	5566
868.625	5729
868.756	5828
868.886	5619
869.017	5748
869.147	5828
869.278	5878
869.408	5889
869.539	5821
869.669	5889
869.799	5901
869.929	5999
870.06	6011
870.19	6243
870.32	6175
870.45	6292
870.58	6346
870.71	6410
870.84	6498
870.97	6441
871.1	6448
871.23	6703
871.36	6669
871.489	6658
871.619	6734
871.749	6814
871.879	6856
872.008	7004
872.138	6977
872.267	7012
872.397	7019
872.526	7088
872.656	7129
872.785	7209
872.915	7362
873.044	7548
873.173	7578
873.303	7658
873.432	7742
873.561	7898
873.69	7887
873.819	8005
873.948	8119
874.077	8282
874.206	8282
874.335	8499
874.464	8613
874.593	8906
874.722	8853
874.851	9058
874.979	9165
875.108	9332
875.237	9466
875.365	9435
875.494	9671
875.623	9819
875.751	9857
875.88	10059
876.008	10116
876.136	10306
876.265	10523
876.393	10679
876.521	10714
876.65	10862
876.778	10923
876.906	10968
877.034	10980
877.162	11010
877.29	11212
877.418	11288
877.546	11334
877.674	11471
877.802	11482
877.93	11516
878.058	11649
878.185	11493
878.313	11623
878.441	11729
878.568	11688
878.696	11855
878.824	11878
878.951	11920
879.079	11946
879.206	12209
879.333	11999
879.461	12057
879.588	12072
879.715	12140
879.842	12205
879.97	12083
880.097	11969
880.224	11840
880.351	11920
880.478	11882
880.605	11904
880.732	11817
880.859	12076
880.986	11790
881.112	11897
881.239	11748
881.366	11653
881.493	11596
881.619	11566
881.746	11642
881.872	11562
881.999	11452
882.125	11554
882.252	11581
882.378	11558
882.505	11554
882.631	11478
882.757	11296
882.883	11337
883.01	11235
883.136	11204
883.262	11098
883.388	11060
883.514	11159
883.64	11254
883.766	11109
883.892	10900
884.018	10961
884.143	11086
884.269	11083
884.395	10850
884.52	10771
884.646	10729
884.772	10694
884.897	10710
885.023	10710
885.148	10721
885.274	10763
885.399	10759
885.524	10687
885.65	10634
885.775	10626
885.9	10462
886.025	10596
886.15	10531
886.275	10493
886.4	10337
886.525	10417
886.65	10360
886.775	10337
886.9	10462
887.025	10596
887.149	10314
887.274	10234
887.399	10257
887.523	10109
887.648	10200
887.773	10109
887.897	10272
888.021	10238
888.146	10109
888.27	10188
888.395	10185
888.519	10181
888.643	10162
888.767	10246
888.891	10067
889.015	10078
889.139	10029
889.263	9930
889.387	9998
889.511	10105
889.635	10036
889.759	9922
889.883	10013
890.006	10051
890.13	10086
890.254	9922
890.377	10063
890.501	9915
890.624	9880
890.748	9865
890.871	9759
890.995	9823
891.118	9762
891.241	9732
891.364	9778
891.488	9827
891.611	9709
891.734	9751
891.857	9835
891.98	9694
892.103	9819
892.226	9724
892.349	9705
892.471	9576
892.594	9595
892.717	9587
892.839	9614
892.962	9644
893.085	9698
893.207	9625
893.33	9553
893.452	9549
893.575	9568
893.697	9504
893.819	9663
893.941	9724
894.064	9603
894.186	9443
894.308	9443
894.43	9610
894.552	9568
894.674	9572
894.796	9355
894.918	9408
895.04	9313
895.161	9405
895.283	9370
895.405	9230
895.526	9264
895.648	9283
895.769	9256
895.891	9233
896.012	9370
896.134	9199
896.255	9214
896.376	9085
896.498	9154
896.619	9146
896.74	9058
896.861	9074
896.982	9154
897.103	9378
897.224	9211
897.345	9058
897.466	8982
897.587	8994
897.708	9070
897.828	9066
897.949	9001
898.07	8899
898.19	8918
898.311	9009
898.431	8872
898.552	8994
898.672	8914
898.792	8914
898.913	8986
899.033	8876
899.153	8766
899.273	8663
899.393	8686
899.513	8735
899.633	8667
899.753	8826
899.873	8678
899.993	8743
900.113	8693
900.232	8720
900.352	8667
900.472	8598
900.591	8530
900.711	8655
900.83	8575
900.95	8705
901.069	8720
901.189	8549
901.308	8400
901.427	8419
901.546	8461
901.665	8431
901.784	8533
901.904	8362
902.023	8275
902.141	8210
902.26	8225
902.379	8305
902.498	8275
902.617	8248
902.735	8324
902.854	8309
902.973	8271
903.091	8123
903.21	8119
903.328	8180
903.446	8111
903.565	8100
903.683	8119
903.801	8092
903.919	8187
904.038	8195
904.156	8008
904.274	8107
904.392	7997
904.51	8096
904.627	8081
904.745	8069
904.863	8115
904.981	7959
905.098	7902
905.216	7906
905.334	7928
905.451	8012
905.569	7883
905.686	7963
905.803	7936
905.921	7795
906.038	7951
906.155	7826
906.272	7708
906.389	7727
906.506	7700
906.623	7708
906.74	7594
906.857	7578
906.974	7597
907.091	7750
907.208	7753
907.324	7597
907.441	7605
907.557	7472
907.674	7457
907.79	7400
907.907	7453
908.023	7403
908.139	7472
908.256	7392
908.372	7384
908.488	7354
908.604	7263
908.72	7240
908.836	7282
908.952	7236
909.068	7301
909.184	7301
909.3	7255
909.415	7282
909.531	7259
909.647	7069
909.762	7110
909.878	7088
909.993	7149
910.108	7126
910.224	7118
910.339	7110
910.454	7034
910.57	7034
910.685	6977
910.8	7171
910.915	7027
911.03	7038
911.145	6916
911.259	6871
911.374	6867
911.489	6894
911.604	6871
911.718	6787
911.833	6700
911.947	6650
912.062	6608
912.176	6669
912.291	6757
912.405	6715
912.519	6848
912.633	6856
912.748	6772
912.862	6730
912.976	6646
913.09	6528
913.204	6582
913.318	6616
913.431	6711
913.545	6696
913.659	6791
913.772	6631
913.886	6544
914	6547
914.113	6642
914.226	6635
914.34	6631
914.453	6490
914.566	6574
914.68	6585
914.793	6563
914.906	6403
915.019	6350
915.132	6414
915.245	6426
915.358	6418
915.47	6433
915.583	6483
915.696	6445
915.809	6574
915.921	6559
916.034	6460
916.146	6410
916.259	6365
916.371	6433
916.483	6471
916.595	6395
916.708	6429
916.82	6350
916.932	6350
917.044	6433
917.156	6403
917.268	6300
917.38	6376
917.491	6308
917.603	6369
917.715	6418
917.826	6403
917.938	6399
918.049	6300
918.161	6388
918.272	6414
918.384	6380
918.495	6384
918.606	6239
918.717	6251
918.828	6270
918.939	6239
919.05	6201
919.161	6311
919.272	6152
919.383	6182
919.494	6338
919.604	6418
919.715	6277
919.826	6247
919.936	6353
920.047	6369
920.157	6277
920.267	6483
920.378	6422
920.488	6273
920.598	6517
920.708	6574
920.818	6483
920.928	6460
921.038	6623
921.148	6574
921.258	6346
921.368	6277
921.477	6224
921.587	6175
921.697	6175
921.806	6213
921.916	6136
922.025	5954
922.134	6011
922.244	5893
922.353	5969
922.462	5794
922.571	5794
922.68	5707
922.789	5619
922.898	5722
923.007	5596
923.116	5741
923.224	5684
923.333	5726
923.442	5596
923.55	5554
923.659	5646
923.767	5649
923.876	5505
923.984	5630
924.092	5532
924.201	5558
924.309	5554
924.417	5535
924.525	5512
924.633	5520
924.741	6155
924.849	5425
924.956	5467
925.064	5357
925.172	5273
925.279	5364
925.387	5311
925.494	5417
925.602	5490
925.709	5383
925.816	5299
925.924	5299
926.031	5383
926.138	5315
926.245	5345
926.352	5220
926.459	5322
926.566	5318
926.673	5204
926.779	5132
926.886	5109
926.993	5006
927.099	5029
927.206	4980
927.312	5003
927.419	5014
927.525	4938
927.631	4984
927.737	4911
927.843	4835
927.95	4793
928.056	4847
928.162	4809
928.267	4892
928.373	5357
928.479	4835
928.585	4649
928.69	4782
928.796	4809
928.901	4710
929.007	4622
929.112	4679
929.218	4660
929.323	4622
929.428	4565
929.533	4702
929.638	4538
929.743	4580
929.848	4596
929.953	4538
930.058	4440
930.163	4352
930.267	4322
930.372	4459
930.477	4325
930.581	4493
930.685	4394
930.79	4249
930.894	4295
930.998	4219
931.103	4379
931.207	4147
931.311	4101
931.415	4051
931.519	3937
931.623	3968
