Data from glass_V78500241_2897.txt Node
Date: Wed Sep 01 19:34:34 CST 2021
User: usil
Spectrometer: V785-0024
Trigger mode: 0
Integration Time (sec): 4.000000E-1
Scans to average: 1
Nonlinearity correction enabled: false
Boxcar width: 0
Storing dark spectrum: false
XAxis mode: Wavelengths
Number of Pixels in Spectrum: 1024
>>>>>Begin Spectral Data<<<<<
801.071	3728
801.214	3766
801.356	3701
801.499	3743
801.641	3690
801.783	3713
801.926	3846
802.068	3819
802.211	3808
802.353	3838
802.496	3827
802.638	3846
802.78	3888
802.923	3918
803.065	3850
803.208	3854
803.35	3857
803.492	3888
803.635	3880
803.777	3850
803.919	3865
804.061	4147
804.204	3960
804.346	3926
804.488	3896
804.63	4002
804.773	3994
804.915	4002
805.057	4097
805.199	4017
805.341	4044
805.483	4128
805.626	4139
805.768	4074
805.91	4207
806.052	4230
806.194	4192
806.336	4299
806.478	4227
806.62	4173
806.762	4200
806.904	4207
807.046	4299
807.188	4181
807.33	4143
807.472	4188
807.614	4192
807.756	4265
807.898	4128
808.04	4166
808.182	4257
808.324	4276
808.465	4322
808.607	4421
808.749	4417
808.891	4417
809.033	4481
809.174	4363
809.316	4257
809.458	4219
809.6	4135
809.741	4120
809.883	4128
810.025	4181
810.166	4207
810.308	4162
810.45	4204
810.591	4207
810.733	4272
810.875	4497
811.016	4786
811.158	5086
811.299	5265
811.441	5250
811.582	5025
811.724	4691
811.865	4443
812.007	4409
812.148	4402
812.29	4356
812.431	4417
812.573	4432
812.714	4325
812.855	4379
812.997	4409
813.138	4417
813.279	4348
813.421	4329
813.562	4318
813.703	4310
813.845	4310
813.986	4276
814.127	4204
814.268	4234
814.41	4242
814.551	4207
814.692	4272
814.833	4249
814.974	4246
815.115	4325
815.256	4215
815.397	4215
815.539	4211
815.68	4185
815.821	4181
815.962	4284
816.103	4219
816.244	4188
816.385	4219
816.526	4272
816.666	4211
816.807	4051
816.948	4150
817.089	4131
817.23	4101
817.371	4006
817.512	4025
817.653	4067
817.793	4002
817.934	3960
818.075	4112
818.216	4093
818.356	4071
818.497	3960
818.638	3892
818.778	3896
818.919	3918
819.06	3873
819.2	3880
819.341	3827
819.481	3804
819.622	3857
819.762	4017
819.903	3941
820.043	3846
820.184	3861
820.324	3827
820.465	3869
820.605	3876
820.746	3857
820.886	3766
821.026	3930
821.167	3869
821.307	3892
821.447	3983
821.588	3896
821.728	3922
821.868	3922
822.008	3819
822.149	3915
822.289	3869
822.429	3785
822.569	3770
822.709	3778
822.849	3660
822.99	3682
823.13	3736
823.27	3747
823.41	3648
823.55	3720
823.69	3675
823.83	3732
823.97	3637
824.11	3610
824.25	3568
824.389	3637
824.529	3625
824.669	3584
824.809	3694
824.949	3736
825.089	3747
825.228	3671
825.368	3587
825.508	3526
825.648	3549
825.787	3549
825.927	3629
826.067	3568
826.206	3625
826.346	3724
826.485	3762
826.625	3793
826.765	3896
826.904	3759
827.044	3599
827.183	3454
827.323	3389
827.462	3443
827.601	3458
827.741	3393
827.88	3450
828.02	3355
828.159	3412
828.298	3481
828.437	3507
828.577	3393
828.716	3553
828.855	3504
828.994	3382
829.134	3378
829.273	3397
829.412	3302
829.551	3317
829.69	3355
829.829	3409
829.968	3469
830.107	3424
830.246	3439
830.385	3317
830.524	3313
830.663	3302
830.802	3241
830.941	3192
831.08	3169
831.219	3241
831.357	3317
831.496	3412
831.635	3233
831.774	3131
831.913	3188
832.051	3138
832.19	3119
832.329	3169
832.467	3119
832.606	3093
832.744	3165
832.883	3203
833.022	3169
833.16	3226
833.299	3279
833.437	3344
833.576	3344
833.714	3382
833.852	3409
833.991	3416
834.129	3462
834.267	3439
834.406	3367
834.544	3424
834.682	3454
834.821	3397
834.959	3545
835.097	3397
835.235	3504
835.373	3485
835.511	3466
835.65	3393
835.788	3477
835.926	3382
836.064	3348
836.202	3428
836.34	3561
836.478	3591
836.615	3549
836.753	3557
836.891	3606
837.029	3545
837.167	3561
837.305	3523
837.443	3523
837.58	3488
837.718	3526
837.856	3523
837.993	3530
838.131	3576
838.269	3568
838.406	3545
838.544	3549
838.681	3443
838.819	3401
838.956	3344
839.094	3374
839.231	3454
839.369	3466
839.506	3751
839.643	3576
839.781	3477
839.918	3420
840.055	3504
840.193	3538
840.33	3523
840.467	3530
840.604	3580
840.742	3808
840.879	3492
841.016	3530
841.153	3576
841.29	3701
841.427	3675
841.564	3686
841.701	3713
841.838	3637
841.975	3648
842.112	3713
842.249	3633
842.385	3633
842.522	3823
842.659	3713
842.796	3648
842.933	3663
843.069	3686
843.206	3717
843.343	3762
843.479	3747
843.616	3774
843.752	3667
843.889	3633
844.025	3835
844.162	3694
844.298	3816
844.435	3747
844.571	3808
844.708	3812
844.844	3949
844.98	3991
845.117	3975
845.253	3888
845.389	3899
845.525	3945
845.661	3934
845.798	3888
845.934	3972
846.07	3956
846.206	4051
846.342	4112
846.478	4063
846.614	3915
846.75	3922
846.886	3892
847.022	4063
847.158	3968
847.294	3994
847.429	4013
847.565	4002
847.701	4200
847.837	3865
847.972	3842
848.108	4002
848.244	3926
848.379	3838
848.515	3812
848.65	3778
848.786	3850
848.921	3835
849.057	3934
849.192	3907
849.328	3892
849.463	3869
849.598	3838
849.734	3850
849.869	3781
850.004	3759
850.14	3781
850.275	3778
850.41	3690
850.545	3713
850.68	3770
850.815	3816
850.95	3778
851.085	3937
851.22	3873
851.355	3812
851.49	3766
851.625	3751
851.76	3789
851.895	3713
852.03	3709
852.165	3766
852.299	3804
852.434	3903
852.569	3819
852.703	3884
852.838	3907
852.973	3968
853.107	3968
853.242	3876
853.376	3793
853.511	3732
853.645	3800
853.78	3968
853.914	3907
854.048	3880
854.183	3888
854.317	3941
854.451	4029
854.585	3926
854.72	3922
854.854	4048
854.988	3915
855.122	4010
855.256	3888
855.39	3953
855.524	4112
855.658	4048
855.792	4074
855.926	4071
856.06	4139
856.194	4158
856.327	4101
856.461	4071
856.595	4131
856.729	4196
856.862	4227
856.996	4200
857.13	4242
857.263	4276
857.397	4337
857.53	4261
857.664	4318
857.797	4360
857.931	4402
858.064	4325
858.197	4459
858.331	4398
858.464	4333
858.597	4318
858.731	4447
858.864	4462
858.997	4432
859.13	4474
859.263	4489
859.396	4550
859.529	4531
859.662	4500
859.795	4519
859.928	4603
860.061	4664
860.194	4683
860.327	4622
860.46	4584
860.592	4694
860.725	4725
860.858	4767
860.99	4694
861.123	4683
861.256	4668
861.388	4706
861.521	5425
861.653	4763
861.786	4706
861.918	4717
862.05	4797
862.183	4805
862.315	4812
862.447	4889
862.58	4870
862.712	4736
862.844	4740
862.976	4854
863.108	4839
863.24	5159
863.372	4824
863.504	4892
863.636	4904
863.768	4987
863.9	4976
864.032	4915
864.164	4885
864.296	5029
864.428	5079
864.559	5105
864.691	5136
864.823	5109
864.954	5079
865.086	5094
865.217	5121
865.349	5102
865.48	5105
865.612	5128
865.743	5288
865.875	5189
866.006	5159
866.137	5185
866.269	5208
866.4	5254
866.531	5201
866.662	5235
866.793	5231
866.924	5277
867.055	5318
867.186	5303
867.317	5246
867.448	5311
867.579	5372
867.71	5353
867.841	5379
867.972	5433
868.103	5497
868.233	5433
868.364	5455
868.495	5509
868.625	5661
868.756	5748
868.886	5672
869.017	5680
869.147	5767
869.278	5745
869.408	5844
869.539	5794
869.669	5874
869.799	5908
869.929	5996
870.06	5999
870.19	6159
870.32	6186
870.45	6209
870.58	6296
870.71	6407
870.84	6433
870.97	6410
871.1	6384
871.23	6604
871.36	6688
871.489	6646
871.619	6669
871.749	6760
871.879	6829
872.008	6935
872.138	6928
872.267	6981
872.397	6886
872.526	6951
872.656	7053
872.785	7228
872.915	7365
873.044	7495
873.173	7533
873.303	7632
873.432	7742
873.561	7875
873.69	7814
873.819	8016
873.948	8161
874.077	8172
874.206	8305
874.335	8404
874.464	8648
874.593	8826
874.722	8834
874.851	9119
874.979	9199
875.108	9325
875.237	9389
875.365	9374
875.494	9523
875.623	9888
875.751	9831
875.88	9911
876.008	10162
876.136	10204
876.265	10554
876.393	10710
876.521	10736
876.65	10774
876.778	10797
876.906	10869
877.034	11006
877.162	11075
877.29	11113
877.418	11254
877.546	11303
877.674	11455
877.802	11436
877.93	11589
878.058	11532
878.185	11474
878.313	11634
878.441	11733
878.568	11600
878.696	11710
878.824	11935
878.951	11927
879.079	11980
879.206	12159
879.333	12022
879.461	12049
879.588	12079
879.715	12034
879.842	12095
879.97	12011
880.097	11771
880.224	11874
880.351	11885
880.478	11885
880.605	11798
880.732	11817
880.859	12003
880.986	11764
881.112	11863
881.239	11722
881.366	11653
881.493	11608
881.619	11505
881.746	11482
881.872	11497
881.999	11459
882.125	11467
882.252	11570
882.378	11395
882.505	11528
882.631	11322
882.757	11330
882.883	11280
883.01	11265
883.136	11162
883.262	11045
883.388	11071
883.514	11201
883.64	11117
883.766	11094
883.892	11029
884.018	10995
884.143	11067
884.269	11102
884.395	10786
884.52	10736
884.646	10801
884.772	10615
884.897	10607
885.023	10717
885.148	10683
885.274	10820
885.399	10683
885.524	10573
885.65	10584
885.775	10523
885.9	10603
886.025	10489
886.15	10508
886.275	10531
886.4	10386
886.525	10363
886.65	10371
886.775	10322
886.9	10440
887.025	10459
887.149	10295
887.274	10166
887.399	10162
887.523	10147
887.648	10105
887.773	10074
887.897	10177
888.021	10177
888.146	10048
888.27	10204
888.395	10177
888.519	10128
888.643	10135
888.767	10090
888.891	10097
889.015	9994
889.139	10006
889.263	9892
889.387	10021
889.511	10101
889.635	9983
889.759	9941
889.883	9983
890.006	9884
890.13	10055
890.254	9884
890.377	9945
890.501	9880
890.624	9857
890.748	9850
890.871	9816
890.995	9774
891.118	9686
891.241	9755
891.364	9740
891.488	9789
891.611	9717
891.734	9747
891.857	9743
891.98	9690
892.103	9766
892.226	9717
892.349	9625
892.471	9564
892.594	9572
892.717	9584
892.839	9580
892.962	9587
893.085	9580
893.207	9553
893.33	9389
893.452	9507
893.575	9530
893.697	9462
893.819	9504
893.941	9557
894.064	9507
894.186	9500
894.308	9412
894.43	9488
894.552	9595
894.674	9458
894.796	9439
894.918	9397
895.04	9283
895.161	9310
895.283	9332
895.405	9226
895.526	9226
895.648	9230
895.769	9176
895.891	9188
896.012	9264
896.134	9195
896.255	9142
896.376	9085
896.498	9173
896.619	9081
896.74	9089
896.861	9085
896.982	9306
897.103	9245
897.224	9146
897.345	9005
897.466	8933
897.587	8971
897.708	9028
897.828	8960
897.949	8918
898.07	8864
898.19	8804
898.311	8990
898.431	8864
898.552	8880
898.672	8944
898.792	9001
898.913	8811
899.033	8815
899.153	8739
899.273	8629
899.393	8670
899.513	8670
899.633	8705
899.753	8712
899.873	8594
899.993	8705
900.113	8689
900.232	8667
900.352	8663
900.472	8571
900.591	8613
900.711	8594
900.83	8507
900.95	8610
901.069	8651
901.189	8606
901.308	8404
901.427	8404
901.546	8419
901.665	8454
901.784	8476
901.904	8370
902.023	8377
902.141	8157
902.26	8240
902.379	8218
902.498	8240
902.617	8195
902.735	8187
902.854	8290
902.973	8187
903.091	8119
903.21	8168
903.328	8210
903.446	8115
903.565	8050
903.683	8096
903.801	7993
903.919	8111
904.038	8096
904.156	8008
904.274	8058
904.392	7974
904.51	8012
904.627	8024
904.745	8103
904.863	8065
904.981	7906
905.098	7845
905.216	7830
905.334	7913
905.451	7879
905.569	7833
905.686	7955
905.803	7841
905.921	7696
906.038	7890
906.155	7807
906.272	7643
906.389	7677
906.506	7658
906.623	7677
906.74	7586
906.857	7556
906.974	7480
907.091	7666
907.208	7731
907.324	7636
907.441	7556
907.557	7388
907.674	7419
907.79	7392
907.907	7438
908.023	7407
908.139	7331
908.256	7320
908.372	7297
908.488	7354
908.604	7247
908.72	7171
908.836	7240
908.952	7198
909.068	7251
909.184	7305
909.3	7251
909.415	7266
909.531	7206
909.647	7023
909.762	7065
909.878	7069
909.993	7080
910.108	7038
910.224	7019
910.339	7076
910.454	7000
910.57	6996
910.685	6897
910.8	7118
910.915	7042
911.03	7038
911.145	6935
911.259	6783
911.374	6867
911.489	6776
911.604	6795
911.718	6665
911.833	6684
911.947	6547
912.062	6578
912.176	6681
912.291	6658
912.405	6719
912.519	6787
912.633	6783
912.748	6741
912.862	6627
912.976	6566
913.09	6467
913.204	6547
913.318	6608
913.431	6654
913.545	6578
913.659	6722
913.772	6597
913.886	6528
914	6513
914.113	6551
914.226	6646
914.34	6585
914.453	6441
914.566	6551
914.68	6528
914.793	6467
914.906	6445
915.019	6388
915.132	6369
915.245	6376
915.358	6426
915.47	6380
915.583	6426
915.696	6494
915.809	6502
915.921	6506
916.034	6372
916.146	6376
916.259	6334
916.371	6441
916.483	6433
916.595	6369
916.708	6407
916.82	6308
916.932	6346
917.044	6418
917.156	6342
917.268	6289
917.38	6285
917.491	6315
917.603	6327
917.715	6327
917.826	6410
917.938	6334
918.049	6262
918.161	6353
918.272	6319
918.384	6414
918.495	6361
918.606	6304
918.717	6213
918.828	6239
918.939	6262
919.05	6140
919.161	6220
919.272	6098
919.383	6205
919.494	6262
919.604	6388
919.715	6285
919.826	6205
919.936	6220
920.047	6292
920.157	6209
920.267	6410
920.378	6258
920.488	6201
920.598	6380
920.708	6563
920.818	6437
920.928	6418
921.038	6536
921.148	6452
921.258	6353
921.368	6262
921.477	6167
921.587	6190
921.697	6098
921.806	6197
921.916	6087
922.025	5931
922.134	5916
922.244	5889
922.353	5878
922.462	5908
922.571	5722
922.68	5615
922.789	5665
922.898	5688
923.007	5630
923.116	5642
923.224	5657
923.333	5570
923.442	5543
923.55	5509
923.659	5551
923.767	5638
923.876	5482
923.984	5577
924.092	5440
924.201	5539
924.309	5554
924.417	5501
924.525	5448
924.633	5501
924.741	6102
924.849	5292
924.956	5455
925.064	5357
925.172	5288
925.279	5311
925.387	5334
925.494	5311
925.602	5395
925.709	5391
925.816	5216
925.924	5269
926.031	5307
926.138	5277
926.245	5330
926.352	5159
926.459	5353
926.566	5277
926.673	5189
926.779	5151
926.886	5086
926.993	5041
927.099	4984
927.206	4953
927.312	4938
927.419	4999
927.525	4972
927.631	4942
927.737	4885
927.843	4809
927.95	4763
928.056	4771
928.162	4801
928.267	4816
928.373	5299
928.479	4824
928.585	4672
928.69	4759
928.796	4759
928.901	4694
929.007	4535
929.112	4656
929.218	4668
929.323	4554
929.428	4573
929.533	4649
929.638	4504
929.743	4523
929.848	4554
929.953	4516
930.058	4398
930.163	4291
930.267	4306
930.372	4428
930.477	4238
930.581	4440
930.685	4367
930.79	4215
930.894	4242
930.998	4230
931.103	4360
931.207	4059
931.311	4071
931.415	4021
931.519	3934
931.623	3922
