Data from glass_V78500241_166.txt Node
Date: Wed Sep 01 19:15:39 CST 2021
User: usil
Spectrometer: V785-0024
Trigger mode: 0
Integration Time (sec): 4.000000E-1
Scans to average: 1
Nonlinearity correction enabled: false
Boxcar width: 0
Storing dark spectrum: false
XAxis mode: Wavelengths
Number of Pixels in Spectrum: 1024
>>>>>Begin Spectral Data<<<<<
801.071	3720
801.214	3759
801.356	3751
801.499	3698
801.641	3755
801.783	3785
801.926	3854
802.068	3865
802.211	3884
802.353	3903
802.496	3861
802.638	3869
802.78	3907
802.923	3926
803.065	3941
803.208	3880
803.35	3880
803.492	3926
803.635	3934
803.777	3785
803.919	3911
804.061	4150
804.204	3994
804.346	3968
804.488	3941
804.63	4082
804.773	3998
804.915	4032
805.057	4150
805.199	4063
805.341	4097
805.483	4131
805.626	4116
805.768	4124
805.91	4261
806.052	4215
806.194	4219
806.336	4299
806.478	4192
806.62	4192
806.762	4192
806.904	4234
807.046	4371
807.188	4230
807.33	4219
807.472	4257
807.614	4185
807.756	4242
807.898	4192
808.04	4238
808.182	4310
808.324	4352
808.465	4375
808.607	4478
808.749	4485
808.891	4497
809.033	4489
809.174	4398
809.316	4284
809.458	4280
809.6	4139
809.741	4158
809.883	4158
810.025	4227
810.166	4169
810.308	4238
810.45	4306
810.591	4276
810.733	4314
810.875	4554
811.016	4828
811.158	5090
811.299	5311
811.441	5250
811.582	5064
811.724	4672
811.865	4504
812.007	4508
812.148	4489
812.29	4405
812.431	4424
812.573	4421
812.714	4402
812.855	4474
812.997	4481
813.138	4519
813.279	4474
813.421	4348
813.562	4348
813.703	4341
813.845	4379
813.986	4253
814.127	4219
814.268	4280
814.41	4276
814.551	4272
814.692	4329
814.833	4306
814.974	4325
815.115	4322
815.256	4303
815.397	4257
815.539	4276
815.68	4188
815.821	4223
815.962	4333
816.103	4341
816.244	4230
816.385	4207
816.526	4284
816.666	4238
816.807	4082
816.948	4204
817.089	4181
817.23	4097
817.371	4059
817.512	4059
817.653	4086
817.793	4040
817.934	4013
818.075	4109
818.216	4078
818.356	4150
818.497	4032
818.638	3892
818.778	3850
818.919	3941
819.06	3861
819.2	3956
819.341	3857
819.481	3850
819.622	3918
819.762	3998
819.903	3994
820.043	3884
820.184	3873
820.324	3831
820.465	3880
820.605	3888
820.746	3892
820.886	3755
821.026	3903
821.167	3922
821.307	3998
821.447	4032
821.588	3983
821.728	3998
821.868	3964
822.008	3850
822.149	3960
822.289	3937
822.429	3808
822.569	3770
822.709	3812
822.849	3694
822.99	3709
823.13	3770
823.27	3819
823.41	3751
823.55	3736
823.69	3720
823.83	3766
823.97	3705
824.11	3629
824.25	3641
824.389	3648
824.529	3660
824.669	3675
824.809	3759
824.949	3755
825.089	3713
825.228	3724
825.368	3576
825.508	3599
825.648	3591
825.787	3622
825.927	3641
826.067	3644
826.206	3629
826.346	3835
826.485	3857
826.625	3907
826.765	3945
826.904	3831
827.044	3610
827.183	3553
827.323	3428
827.462	3458
827.601	3466
827.741	3462
827.88	3454
828.02	3389
828.159	3439
828.298	3469
828.437	3549
828.577	3496
828.716	3572
828.855	3526
828.994	3393
829.134	3367
829.273	3397
829.412	3351
829.551	3382
829.69	3401
829.829	3382
829.968	3549
830.107	3485
830.246	3454
830.385	3359
830.524	3370
830.663	3313
830.802	3294
830.941	3218
831.08	3199
831.219	3237
831.357	3310
831.496	3386
831.635	3268
831.774	3195
831.913	3226
832.051	3161
832.19	3135
832.329	3226
832.467	3184
832.606	3123
832.744	3169
832.883	3180
833.022	3203
833.16	3298
833.299	3291
833.437	3351
833.576	3374
833.714	3435
833.852	3454
833.991	3458
834.129	3428
834.267	3477
834.406	3412
834.544	3454
834.682	3477
834.821	3466
834.959	3587
835.097	3431
835.235	3587
835.373	3473
835.511	3496
835.65	3473
835.788	3481
835.926	3401
836.064	3374
836.202	3435
836.34	3572
836.478	3618
836.615	3568
836.753	3625
836.891	3625
837.029	3629
837.167	3614
837.305	3553
837.443	3603
837.58	3462
837.718	3610
837.856	3545
837.993	3568
838.131	3584
838.269	3591
838.406	3587
838.544	3580
838.681	3492
838.819	3507
838.956	3397
839.094	3401
839.231	3450
839.369	3534
839.506	3751
839.643	3633
839.781	3481
839.918	3481
840.055	3584
840.193	3538
840.33	3545
840.467	3568
840.604	3644
840.742	3812
840.879	3576
841.016	3564
841.153	3618
841.29	3762
841.427	3747
841.564	3751
841.701	3724
841.838	3694
841.975	3709
842.112	3740
842.249	3675
842.385	3641
842.522	3823
842.659	3686
842.796	3694
842.933	3713
843.069	3682
843.206	3709
843.343	3819
843.479	3827
843.616	3823
843.752	3701
843.889	3667
844.025	3873
844.162	3747
844.298	3857
844.435	3831
844.571	3789
844.708	3945
844.844	4055
844.98	4063
845.117	4044
845.253	3934
845.389	3937
845.525	3960
845.661	3991
845.798	3918
845.934	4032
846.07	3945
846.206	4105
846.342	4116
846.478	4086
846.614	3975
846.75	3922
846.886	3903
847.022	4055
847.158	3991
847.294	4025
847.429	4059
847.565	4006
847.701	4223
847.837	3915
847.972	3880
848.108	3968
848.244	3991
848.379	3861
848.515	3857
848.65	3835
848.786	3823
848.921	3907
849.057	3930
849.192	3941
849.328	3892
849.463	3953
849.598	3934
849.734	3880
849.869	3854
850.004	3808
850.14	3842
850.275	3838
850.41	3766
850.545	3770
850.68	3816
850.815	3823
850.95	3793
851.085	3918
851.22	3857
851.355	3827
851.49	3789
851.625	3804
851.76	3827
851.895	3720
852.03	3740
852.165	3850
852.299	3861
852.434	3888
852.569	3880
852.703	3934
852.838	3964
852.973	3987
853.107	3994
853.242	3892
853.376	3911
853.511	3770
853.645	3835
853.78	3991
853.914	3926
854.048	3926
854.183	3892
854.317	3945
854.451	4131
854.585	3968
854.72	3972
854.854	4040
854.988	3956
855.122	4013
855.256	3945
855.39	3994
855.524	4147
855.658	4067
855.792	4101
855.926	4135
856.06	4158
856.194	4238
856.327	4173
856.461	4173
856.595	4124
856.729	4196
856.862	4284
856.996	4257
857.13	4318
857.263	4356
857.397	4322
857.53	4344
857.664	4394
857.797	4451
857.931	4405
858.064	4409
858.197	4489
858.331	4455
858.464	4421
858.597	4352
858.731	4474
858.864	4519
858.997	4462
859.13	4512
859.263	4592
859.396	4569
859.529	4519
859.662	4565
859.795	4527
859.928	4618
860.061	4679
860.194	4755
860.327	4672
860.46	4626
860.592	4729
860.725	4774
860.858	4812
860.99	4710
861.123	4683
861.256	4691
861.388	4793
861.521	5414
861.653	4744
861.786	4767
861.918	4755
862.05	4790
862.183	4831
862.315	4885
862.447	4972
862.58	4911
862.712	4839
862.844	4782
862.976	4923
863.108	4854
863.24	5258
863.372	4839
863.504	4896
863.636	4961
863.768	4984
863.9	5022
864.032	4946
864.164	4968
864.296	5003
864.428	5060
864.559	5121
864.691	5071
864.823	5193
864.954	5185
865.086	5170
865.217	5140
865.349	5094
865.48	5136
865.612	5185
865.743	5349
865.875	5208
866.006	5151
866.137	5239
866.269	5235
866.4	5311
866.531	5261
866.662	5216
866.793	5334
866.924	5311
867.055	5395
867.186	5360
867.317	5299
867.448	5341
867.579	5417
867.71	5395
867.841	5395
867.972	5516
868.103	5467
868.233	5512
868.364	5516
868.495	5600
868.625	5703
868.756	5786
868.886	5649
869.017	5710
869.147	5904
869.278	5893
869.408	5805
869.539	5859
869.669	5931
869.799	5901
869.929	5999
870.06	6034
870.19	6194
870.32	6194
870.45	6292
870.58	6380
870.71	6433
870.84	6502
870.97	6437
871.1	6445
871.23	6673
871.36	6681
871.489	6760
871.619	6779
871.749	6837
871.879	6821
872.008	7008
872.138	6977
872.267	6928
872.397	7008
872.526	7012
872.656	7095
872.785	7183
872.915	7419
873.044	7502
873.173	7476
873.303	7666
873.432	7780
873.561	7902
873.69	7887
873.819	8016
873.948	8210
874.077	8233
874.206	8320
874.335	8434
874.464	8636
874.593	8872
874.722	8925
874.851	9161
874.979	9176
875.108	9374
875.237	9420
875.365	9568
875.494	9614
875.623	9770
875.751	9774
875.88	9998
876.008	10177
876.136	10325
876.265	10588
876.393	10706
876.521	10763
876.65	10885
876.778	10927
876.906	10919
877.034	10957
877.162	11128
877.29	11178
877.418	11296
877.546	11307
877.674	11444
877.802	11452
877.93	11535
878.058	11608
878.185	11516
878.313	11699
878.441	11771
878.568	11630
878.696	11866
878.824	11859
878.951	11893
879.079	12114
879.206	12197
879.333	12060
879.461	12121
879.588	12102
879.715	12068
879.842	12186
879.97	12049
880.097	11916
880.224	11889
880.351	11855
880.478	11912
880.605	11828
880.732	11836
880.859	12053
880.986	11843
881.112	11851
881.239	11699
881.366	11741
881.493	11608
881.619	11581
881.746	11554
881.872	11551
881.999	11585
882.125	11467
882.252	11604
882.378	11497
882.505	11608
882.631	11398
882.757	11330
882.883	11250
883.01	11292
883.136	11227
883.262	11185
883.388	11075
883.514	11124
883.64	11178
883.766	11071
883.892	11048
884.018	11045
884.143	11064
884.269	11136
884.395	10961
884.52	10790
884.646	10721
884.772	10736
884.897	10626
885.023	10660
885.148	10839
885.274	10771
885.399	10679
885.524	10706
885.65	10569
885.775	10508
885.9	10561
886.025	10523
886.15	10622
886.275	10436
886.4	10382
886.525	10432
886.65	10421
886.775	10344
886.9	10428
887.025	10523
887.149	10402
887.274	10249
887.399	10143
887.523	10188
887.648	10116
887.773	10162
887.897	10276
888.021	10257
888.146	10173
888.27	10234
888.395	10219
888.519	10196
888.643	10238
888.767	10227
888.891	10090
889.015	10044
889.139	10025
889.263	9975
889.387	10109
889.511	10162
889.635	10109
889.759	9975
889.883	9972
890.006	10029
890.13	10017
890.254	9934
890.377	9960
890.501	9846
890.624	9922
890.748	9899
890.871	9884
890.995	9766
891.118	9766
891.241	9789
891.364	9686
891.488	9770
891.611	9736
891.734	9705
891.857	9751
891.98	9743
892.103	9766
892.226	9755
892.349	9717
892.471	9515
892.594	9663
892.717	9656
892.839	9618
892.962	9656
893.085	9671
893.207	9591
893.33	9534
893.452	9515
893.575	9538
893.697	9538
893.819	9599
893.941	9656
894.064	9633
894.186	9473
894.308	9389
894.43	9538
894.552	9629
894.674	9519
894.796	9397
894.918	9378
895.04	9325
895.161	9310
895.283	9298
895.405	9211
895.526	9310
895.648	9310
895.769	9233
895.891	9253
896.012	9344
896.134	9218
896.255	9188
896.376	9127
896.498	9119
896.619	9169
896.74	9077
896.861	9108
896.982	9245
897.103	9275
897.224	9249
897.345	9039
897.466	9017
897.587	9100
897.708	9039
897.828	9009
897.949	8986
898.07	8899
898.19	8982
898.311	8998
898.431	8944
898.552	9013
898.672	8891
898.792	8979
898.913	8994
899.033	8872
899.153	8727
899.273	8625
899.393	8693
899.513	8773
899.633	8655
899.753	8773
899.873	8632
899.993	8804
900.113	8739
900.232	8678
900.352	8716
900.472	8648
900.591	8655
900.711	8621
900.83	8621
900.95	8678
901.069	8708
901.189	8632
901.308	8457
901.427	8423
901.546	8393
901.665	8438
901.784	8488
901.904	8389
902.023	8351
902.141	8252
902.26	8130
902.379	8324
902.498	8225
902.617	8221
902.735	8305
902.854	8233
902.973	8290
903.091	8164
903.21	8199
903.328	8164
903.446	8096
903.565	8107
903.683	8069
903.801	8123
903.919	8065
904.038	8149
904.156	8050
904.274	8115
904.392	8005
904.51	8001
904.627	8027
904.745	8157
904.863	8084
904.981	7940
905.098	7849
905.216	7826
905.334	7970
905.451	7864
905.569	7898
905.686	7906
905.803	7921
905.921	7761
906.038	7917
906.155	7894
906.272	7727
906.389	7685
906.506	7689
906.623	7609
906.74	7613
906.857	7609
906.974	7521
907.091	7666
907.208	7712
907.324	7639
907.441	7575
907.557	7502
907.674	7460
907.79	7419
907.907	7400
908.023	7381
908.139	7476
908.256	7392
908.372	7369
908.488	7411
908.604	7278
908.72	7225
908.836	7240
908.952	7274
909.068	7308
909.184	7373
909.3	7270
909.415	7293
909.531	7225
909.647	7107
909.762	7099
909.878	7118
909.993	7114
910.108	7141
910.224	7053
910.339	7133
910.454	7084
910.57	7046
910.685	7023
910.8	7179
910.915	7103
911.03	7023
911.145	6901
911.259	6916
911.374	6909
911.489	6840
911.604	6798
911.718	6692
911.833	6787
911.947	6669
912.062	6654
912.176	6734
912.291	6719
912.405	6696
912.519	6795
912.633	6818
912.748	6772
912.862	6749
912.976	6604
913.09	6555
913.204	6585
913.318	6601
913.431	6681
913.545	6665
913.659	6734
913.772	6669
913.886	6654
914	6559
914.113	6593
914.226	6658
914.34	6646
914.453	6582
914.566	6662
914.68	6532
914.793	6566
914.906	6456
915.019	6376
915.132	6388
915.245	6418
915.358	6456
915.47	6467
915.583	6506
915.696	6517
915.809	6490
915.921	6612
916.034	6509
916.146	6448
916.259	6460
916.371	6456
916.483	6490
916.595	6437
916.708	6448
916.82	6426
916.932	6429
917.044	6357
917.156	6391
917.268	6331
917.38	6361
917.491	6350
917.603	6380
917.715	6422
917.826	6441
917.938	6372
918.049	6334
918.161	6331
918.272	6464
918.384	6403
918.495	6281
918.606	6311
918.717	6197
918.828	6239
918.939	6311
919.05	6235
919.161	6235
919.272	6152
919.383	6148
919.494	6311
919.604	6464
919.715	6296
919.826	6239
919.936	6270
920.047	6357
920.157	6323
920.267	6460
920.378	6376
920.488	6300
920.598	6521
920.708	6566
920.818	6433
920.928	6479
921.038	6612
921.148	6604
921.258	6342
921.368	6342
921.477	6251
921.587	6213
921.697	6121
921.806	6190
921.916	6091
922.025	5988
922.134	5935
922.244	5927
922.353	5980
922.462	5813
922.571	5790
922.68	5691
922.789	5668
922.898	5726
923.007	5676
923.116	5680
923.224	5672
923.333	5680
923.442	5642
923.55	5600
923.659	5589
923.767	5657
923.876	5554
923.984	5668
924.092	5528
924.201	5589
924.309	5577
924.417	5520
924.525	5490
924.633	5535
924.741	6148
924.849	5364
924.956	5482
925.064	5372
925.172	5315
925.279	5311
925.387	5398
925.494	5322
925.602	5448
925.709	5376
925.816	5326
925.924	5269
926.031	5387
926.138	5341
926.245	5337
926.352	5208
926.459	5345
926.566	5334
926.673	5258
926.779	5159
926.886	5162
926.993	5033
927.099	5018
927.206	5029
927.312	4961
927.419	5018
927.525	5052
927.631	5003
927.737	4881
927.843	4862
927.95	4805
928.056	4839
928.162	4790
928.267	4862
928.373	5318
928.479	4896
928.585	4675
928.69	4805
928.796	4790
928.901	4744
929.007	4641
929.112	4668
929.218	4668
929.323	4649
929.428	4599
929.533	4702
929.638	4519
929.743	4588
929.848	4542
929.953	4519
930.058	4443
930.163	4341
930.267	4318
930.372	4440
930.477	4360
930.581	4481
930.685	4413
930.79	4272
930.894	4295
930.998	4265
931.103	4432
931.207	4101
931.311	4112
931.415	4055
931.519	3911
931.623	3983
