Data from glass_V78500241_884.txt Node
Date: Wed Sep 01 19:20:37 CST 2021
User: usil
Spectrometer: V785-0024
Trigger mode: 0
Integration Time (sec): 4.000000E-1
Scans to average: 1
Nonlinearity correction enabled: false
Boxcar width: 0
Storing dark spectrum: false
XAxis mode: Wavelengths
Number of Pixels in Spectrum: 1024
>>>>>Begin Spectral Data<<<<<
801.071	3766
801.214	3778
801.356	3720
801.499	3789
801.641	3720
801.783	3797
801.926	3873
802.068	3857
802.211	3888
802.353	3884
802.496	3888
802.638	3888
802.78	3850
802.923	3953
803.065	3892
803.208	3876
803.35	3899
803.492	3873
803.635	3918
803.777	3797
803.919	3861
804.061	4169
804.204	3994
804.346	3945
804.488	3991
804.63	4013
804.773	3930
804.915	4017
805.057	4196
805.199	4021
805.341	4101
805.483	4131
805.626	4128
805.768	4116
805.91	4227
806.052	4238
806.194	4181
806.336	4394
806.478	4246
806.62	4219
806.762	4169
806.904	4234
807.046	4360
807.188	4211
807.33	4128
807.472	4242
807.614	4204
807.756	4280
807.898	4211
808.04	4234
808.182	4306
808.324	4310
808.465	4379
808.607	4481
808.749	4405
808.891	4459
809.033	4478
809.174	4424
809.316	4306
809.458	4207
809.6	4185
809.741	4185
809.883	4143
810.025	4207
810.166	4219
810.308	4192
810.45	4246
810.591	4265
810.733	4322
810.875	4550
811.016	4843
811.158	5174
811.299	5292
811.441	5299
811.582	5117
811.724	4759
811.865	4459
812.007	4455
812.148	4455
812.29	4417
812.431	4447
812.573	4398
812.714	4417
812.855	4398
812.997	4466
813.138	4500
813.279	4421
813.421	4394
813.562	4402
813.703	4303
813.845	4352
813.986	4249
814.127	4181
814.268	4291
814.41	4291
814.551	4299
814.692	4390
814.833	4318
814.974	4265
815.115	4341
815.256	4265
815.397	4249
815.539	4280
815.68	4200
815.821	4207
815.962	4287
816.103	4299
816.244	4219
816.385	4200
816.526	4329
816.666	4234
816.807	4097
816.948	4147
817.089	4223
817.23	4116
817.371	4105
817.512	4032
817.653	4109
817.793	4097
817.934	4032
818.075	4090
818.216	4063
818.356	4101
818.497	3987
818.638	3918
818.778	3937
818.919	3918
819.06	3876
819.2	3922
819.341	3884
819.481	3854
819.622	3964
819.762	4029
819.903	3968
820.043	3869
820.184	3857
820.324	3800
820.465	3888
820.605	3857
820.746	3846
820.886	3808
821.026	3903
821.167	3930
821.307	3964
821.447	3979
821.588	3960
821.728	3926
821.868	3930
822.008	3915
822.149	3865
822.289	3903
822.429	3740
822.569	3797
822.709	3800
822.849	3736
822.99	3698
823.13	3808
823.27	3797
823.41	3713
823.55	3774
823.69	3740
823.83	3743
823.97	3694
824.11	3641
824.25	3603
824.389	3660
824.529	3663
824.669	3633
824.809	3686
824.949	3732
825.089	3766
825.228	3751
825.368	3599
825.508	3595
825.648	3580
825.787	3618
825.927	3633
826.067	3625
826.206	3679
826.346	3842
826.485	3823
826.625	3880
826.765	3937
826.904	3823
827.044	3618
827.183	3545
827.323	3454
827.462	3519
827.601	3424
827.741	3454
827.88	3496
828.02	3405
828.159	3481
828.298	3466
828.437	3587
828.577	3473
828.716	3603
828.855	3538
828.994	3378
829.134	3374
829.273	3450
829.412	3351
829.551	3374
829.69	3389
829.829	3447
829.968	3530
830.107	3435
830.246	3454
830.385	3409
830.524	3336
830.663	3332
830.802	3302
830.941	3230
831.08	3188
831.219	3264
831.357	3253
831.496	3416
831.635	3245
831.774	3249
831.913	3214
832.051	3161
832.19	3157
832.329	3218
832.467	3135
832.606	3127
832.744	3154
832.883	3180
833.022	3214
833.16	3275
833.299	3310
833.437	3378
833.576	3382
833.714	3401
833.852	3424
833.991	3462
834.129	3481
834.267	3409
834.406	3424
834.544	3378
834.682	3443
834.821	3439
834.959	3599
835.097	3439
835.235	3542
835.373	3473
835.511	3519
835.65	3454
835.788	3488
835.926	3389
836.064	3397
836.202	3389
836.34	3587
836.478	3591
836.615	3561
836.753	3618
836.891	3656
837.029	3652
837.167	3576
837.305	3534
837.443	3511
837.58	3488
837.718	3584
837.856	3591
837.993	3564
838.131	3637
838.269	3584
838.406	3599
838.544	3542
838.681	3469
838.819	3454
838.956	3405
839.094	3447
839.231	3454
839.369	3545
839.506	3766
839.643	3633
839.781	3485
839.918	3507
840.055	3549
840.193	3553
840.33	3507
840.467	3549
840.604	3610
840.742	3812
840.879	3526
841.016	3553
841.153	3603
841.29	3755
841.427	3728
841.564	3724
841.701	3778
841.838	3713
841.975	3717
842.112	3713
842.249	3679
842.385	3633
842.522	3800
842.659	3713
842.796	3690
842.933	3709
843.069	3720
843.206	3701
843.343	3793
843.479	3800
843.616	3808
843.752	3625
843.889	3713
844.025	3850
844.162	3690
844.298	3892
844.435	3812
844.571	3785
844.708	3884
844.844	3975
844.98	3964
845.117	4055
845.253	3934
845.389	3892
845.525	4021
845.661	3941
845.798	3956
845.934	3983
846.07	4010
846.206	4044
846.342	4162
846.478	4093
846.614	3964
846.75	3945
846.886	3964
847.022	4025
847.158	4002
847.294	4029
847.429	4040
847.565	3968
847.701	4211
847.837	3873
847.972	3953
848.108	3991
848.244	4013
848.379	3911
848.515	3808
848.65	3827
848.786	3804
848.921	3865
849.057	3907
849.192	3934
849.328	3930
849.463	3911
849.598	3880
849.734	3892
849.869	3857
850.004	3789
850.14	3808
850.275	3781
850.41	3743
850.545	3766
850.68	3823
850.815	3778
850.95	3812
851.085	3960
851.22	3888
851.355	3823
851.49	3812
851.625	3781
851.76	3785
851.895	3755
852.03	3743
852.165	3804
852.299	3865
852.434	3937
852.569	3869
852.703	3907
852.838	3937
852.973	3964
853.107	4021
853.242	3937
853.376	3907
853.511	3720
853.645	3800
853.78	3979
853.914	3934
854.048	3934
854.183	3907
854.317	3972
854.451	4105
854.585	3983
854.72	3972
854.854	4044
854.988	3991
855.122	4021
855.256	3930
855.39	4071
855.524	4158
855.658	4086
855.792	4158
855.926	4143
856.06	4139
856.194	4223
856.327	4166
856.461	4154
856.595	4143
856.729	4200
856.862	4303
856.996	4280
857.13	4287
857.263	4371
857.397	4333
857.53	4295
857.664	4363
857.797	4459
857.931	4436
858.064	4375
858.197	4451
858.331	4394
858.464	4356
858.597	4360
858.731	4432
858.864	4474
858.997	4485
859.13	4516
859.263	4546
859.396	4603
859.529	4554
859.662	4569
859.795	4542
859.928	4615
860.061	4691
860.194	4733
860.327	4721
860.46	4637
860.592	4698
860.725	4778
860.858	4774
860.99	4717
861.123	4694
861.256	4755
861.388	4763
861.521	5520
861.653	4748
861.786	4729
861.918	4786
862.05	4866
862.183	4904
862.315	4885
862.447	4949
862.58	4889
862.712	4812
862.844	4812
862.976	4877
863.108	4892
863.24	5189
863.372	4854
863.504	4908
863.636	4923
863.768	4961
863.9	4923
864.032	4911
864.164	5003
864.296	5003
864.428	5094
864.559	5083
864.691	5136
864.823	5105
864.954	5147
865.086	5147
865.217	5117
865.349	5117
865.48	5128
865.612	5201
865.743	5315
865.875	5181
866.006	5216
866.137	5269
866.269	5185
866.4	5307
866.531	5231
866.662	5261
866.793	5250
866.924	5288
867.055	5311
867.186	5337
867.317	5296
867.448	5353
867.579	5379
867.71	5372
867.841	5387
867.972	5505
868.103	5467
868.233	5490
868.364	5512
868.495	5543
868.625	5695
868.756	5824
868.886	5703
869.017	5699
869.147	5866
869.278	5878
869.408	5813
869.539	5859
869.669	5866
869.799	5935
869.929	5999
870.06	6091
870.19	6136
870.32	6209
870.45	6304
870.58	6353
870.71	6372
870.84	6467
870.97	6437
871.1	6460
871.23	6677
871.36	6707
871.489	6673
871.619	6787
871.749	6768
871.879	6856
872.008	6973
872.138	6920
872.267	7034
872.397	7050
872.526	7076
872.656	7012
872.785	7129
872.915	7392
873.044	7540
873.173	7567
873.303	7651
873.432	7731
873.561	7830
873.69	7818
873.819	8016
873.948	8149
874.077	8286
874.206	8309
874.335	8408
874.464	8617
874.593	8811
874.722	8921
874.851	9161
874.979	9272
875.108	9393
875.237	9412
875.365	9439
875.494	9614
875.623	9831
875.751	9873
875.88	9968
876.008	10131
876.136	10303
876.265	10481
876.393	10687
876.521	10717
876.65	10858
876.778	10858
876.906	10828
877.034	10987
877.162	11064
877.29	11113
877.418	11303
877.546	11383
877.674	11528
877.802	11467
877.93	11585
878.058	11619
878.185	11512
878.313	11672
878.441	11726
878.568	11661
878.696	11798
878.824	11832
878.951	11901
879.079	11992
879.206	12144
879.333	12068
879.461	11969
879.588	12110
879.715	12049
879.842	12190
879.97	12064
880.097	11836
880.224	11897
880.351	11882
880.478	11866
880.605	11828
880.732	11874
880.859	11942
880.986	11832
881.112	11904
881.239	11771
881.366	11638
881.493	11703
881.619	11539
881.746	11581
881.872	11554
881.999	11440
882.125	11543
882.252	11573
882.378	11532
882.505	11630
882.631	11421
882.757	11383
882.883	11334
883.01	11212
883.136	11277
883.262	11181
883.388	11147
883.514	11136
883.64	11250
883.766	11083
883.892	10965
884.018	11041
884.143	11060
884.269	11025
884.395	10805
884.52	10820
884.646	10763
884.772	10752
884.897	10649
885.023	10675
885.148	10771
885.274	10797
885.399	10786
885.524	10675
885.65	10516
885.775	10603
885.9	10630
886.025	10618
886.15	10462
886.275	10386
886.4	10447
886.525	10398
886.65	10402
886.775	10417
886.9	10546
887.025	10512
887.149	10363
887.274	10215
887.399	10196
887.523	10158
887.648	10173
887.773	10116
887.897	10265
888.021	10219
888.146	10109
888.27	10299
888.395	10219
888.519	10211
888.643	10181
888.767	10154
888.891	10124
889.015	10055
889.139	10032
889.263	9964
889.387	10086
889.511	10158
889.635	9998
889.759	9956
889.883	10067
890.006	10029
890.13	10086
890.254	9953
890.377	10032
890.501	9831
890.624	9850
890.748	9960
890.871	9827
890.995	9705
891.118	9720
891.241	9751
891.364	9709
891.488	9823
891.611	9823
891.734	9713
891.857	9781
891.98	9740
892.103	9789
892.226	9728
892.349	9724
892.471	9473
892.594	9568
892.717	9584
892.839	9637
892.962	9538
893.085	9584
893.207	9599
893.33	9488
893.452	9580
893.575	9648
893.697	9534
893.819	9557
893.941	9656
894.064	9610
894.186	9443
894.308	9424
894.43	9587
894.552	9606
894.674	9519
894.796	9450
894.918	9397
895.04	9374
895.161	9389
895.283	9374
895.405	9241
895.526	9306
895.648	9199
895.769	9264
895.891	9313
896.012	9325
896.134	9199
896.255	9218
896.376	9173
896.498	9142
896.619	9203
896.74	9074
896.861	9119
896.982	9226
897.103	9268
897.224	9142
897.345	9074
897.466	8990
897.587	9089
897.708	9138
897.828	9032
897.949	8956
898.07	8925
898.19	8883
898.311	9039
898.431	8918
898.552	8956
898.672	9017
898.792	8956
898.913	8902
899.033	8807
899.153	8762
899.273	8731
899.393	8686
899.513	8800
899.633	8739
899.753	8819
899.873	8716
899.993	8800
900.113	8667
900.232	8724
900.352	8659
900.472	8613
900.591	8541
900.711	8587
900.83	8480
900.95	8667
901.069	8724
901.189	8518
901.308	8450
901.427	8370
901.546	8370
901.665	8533
901.784	8526
901.904	8377
902.023	8362
902.141	8244
902.26	8225
902.379	8263
902.498	8267
902.617	8256
902.735	8343
902.854	8233
902.973	8256
903.091	8149
903.21	8100
903.328	8191
903.446	8157
903.565	8145
903.683	8126
903.801	8027
903.919	8172
904.038	8157
904.156	8111
904.274	8054
904.392	8020
904.51	8123
904.627	8100
904.745	8016
904.863	8126
904.981	7970
905.098	7833
905.216	7921
905.334	7989
905.451	7902
905.569	7871
905.686	7959
905.803	7925
905.921	7788
906.038	7898
906.155	7757
906.272	7731
906.389	7643
906.506	7651
906.623	7681
906.74	7636
906.857	7506
906.974	7571
907.091	7651
907.208	7765
907.324	7677
907.441	7578
907.557	7483
907.674	7480
907.79	7377
907.907	7392
908.023	7476
908.139	7464
908.256	7392
908.372	7422
908.488	7305
908.604	7335
908.72	7217
908.836	7251
908.952	7232
909.068	7240
909.184	7365
909.3	7225
909.415	7327
909.531	7327
909.647	7088
909.762	7221
909.878	7091
909.993	7129
910.108	7118
910.224	7065
910.339	7050
910.454	7072
910.57	7015
910.685	6989
910.8	7145
910.915	7183
911.03	6993
911.145	6886
911.259	6863
911.374	6958
911.489	6875
911.604	6810
911.718	6783
911.833	6703
911.947	6703
912.062	6585
912.176	6738
912.291	6688
912.405	6715
912.519	6757
912.633	6760
912.748	6776
912.862	6715
912.976	6635
913.09	6502
913.204	6612
913.318	6585
913.431	6681
913.545	6684
913.659	6738
913.772	6665
913.886	6566
914	6506
914.113	6593
914.226	6669
914.34	6612
914.453	6460
914.566	6597
914.68	6551
914.793	6532
914.906	6407
915.019	6384
915.132	6338
915.245	6502
915.358	6471
915.47	6517
915.583	6502
915.696	6498
915.809	6544
915.921	6642
916.034	6445
916.146	6479
916.259	6407
916.371	6559
916.483	6494
916.595	6437
916.708	6426
916.82	6395
916.932	6422
917.044	6445
917.156	6376
917.268	6338
917.38	6399
917.491	6327
917.603	6403
917.715	6410
917.826	6441
917.938	6338
918.049	6281
918.161	6323
918.272	6422
918.384	6418
918.495	6331
918.606	6292
918.717	6224
918.828	6254
918.939	6273
919.05	6171
919.161	6239
919.272	6114
919.383	6190
919.494	6308
919.604	6403
919.715	6273
919.826	6197
919.936	6281
920.047	6365
920.157	6266
920.267	6441
920.378	6281
920.488	6315
920.598	6467
920.708	6532
920.818	6471
920.928	6448
921.038	6597
921.148	6570
921.258	6384
921.368	6311
921.477	6197
921.587	6235
921.697	6091
921.806	6133
921.916	6098
922.025	5935
922.134	5946
922.244	5878
922.353	5973
922.462	5855
922.571	5866
922.68	5722
922.789	5695
922.898	5745
923.007	5665
923.116	5745
923.224	5672
923.333	5699
923.442	5558
923.55	5619
923.659	5642
923.767	5615
923.876	5532
923.984	5657
924.092	5474
924.201	5573
924.309	5562
924.417	5512
924.525	5414
924.633	5471
924.741	6152
924.849	5402
924.956	5471
925.064	5349
925.172	5372
925.279	5357
925.387	5341
925.494	5357
925.602	5406
925.709	5379
925.816	5269
925.924	5292
926.031	5360
926.138	5277
926.245	5318
926.352	5174
926.459	5376
926.566	5315
926.673	5288
926.779	5193
926.886	5117
926.993	5041
927.099	5010
927.206	5014
927.312	4930
927.419	5010
927.525	4984
927.631	5033
927.737	4904
927.843	4854
927.95	4786
928.056	4801
928.162	4854
928.267	4866
928.373	5387
928.479	4862
928.585	4717
928.69	4786
928.796	4797
928.901	4641
929.007	4641
929.112	4706
929.218	4672
929.323	4626
929.428	4596
929.533	4683
929.638	4516
929.743	4531
929.848	4573
929.953	4500
930.058	4398
930.163	4329
930.267	4356
930.372	4398
930.477	4295
930.581	4493
930.685	4367
930.79	4284
930.894	4325
930.998	4310
931.103	4379
931.207	4082
931.311	4074
931.415	4032
931.519	3960
931.623	3975
