Data from glass_V78500241_2207.txt Node
Date: Wed Sep 01 19:29:48 CST 2021
User: usil
Spectrometer: V785-0024
Trigger mode: 0
Integration Time (sec): 4.000000E-1
Scans to average: 1
Nonlinearity correction enabled: false
Boxcar width: 0
Storing dark spectrum: false
XAxis mode: Wavelengths
Number of Pixels in Spectrum: 1024
>>>>>Begin Spectral Data<<<<<
801.071	3679
801.214	3747
801.356	3690
801.499	3759
801.641	3717
801.783	3789
801.926	3842
802.068	3869
802.211	3869
802.353	3865
802.496	3831
802.638	3823
802.78	3861
802.923	3926
803.065	3903
803.208	3857
803.35	3857
803.492	3880
803.635	3869
803.777	3857
803.919	3899
804.061	4135
804.204	3975
804.346	3979
804.488	3861
804.63	4059
804.773	3964
804.915	4021
805.057	4150
805.199	4013
805.341	4090
805.483	4139
805.626	4124
805.768	4128
805.91	4200
806.052	4185
806.194	4173
806.336	4341
806.478	4200
806.62	4173
806.762	4196
806.904	4284
807.046	4322
807.188	4215
807.33	4177
807.472	4211
807.614	4185
807.756	4280
807.898	4196
808.04	4150
808.182	4265
808.324	4337
808.465	4356
808.607	4459
808.749	4455
808.891	4455
809.033	4497
809.174	4375
809.316	4242
809.458	4257
809.6	4143
809.741	4154
809.883	4185
810.025	4188
810.166	4207
810.308	4215
810.45	4249
810.591	4249
810.733	4276
810.875	4481
811.016	4786
811.158	5143
811.299	5258
811.441	5303
811.582	5052
811.724	4691
811.865	4451
812.007	4474
812.148	4428
812.29	4402
812.431	4428
812.573	4371
812.714	4375
812.855	4417
812.997	4363
813.138	4440
813.279	4348
813.421	4424
813.562	4417
813.703	4299
813.845	4344
813.986	4238
814.127	4215
814.268	4219
814.41	4276
814.551	4253
814.692	4318
814.833	4246
814.974	4284
815.115	4329
815.256	4238
815.397	4242
815.539	4272
815.68	4177
815.821	4200
815.962	4318
816.103	4234
816.244	4219
816.385	4207
816.526	4261
816.666	4234
816.807	4093
816.948	4185
817.089	4147
817.23	4131
817.371	4055
817.512	4036
817.653	4082
817.793	4002
817.934	4051
818.075	4074
818.216	4090
818.356	4093
818.497	3975
818.638	3922
818.778	3896
818.919	3915
819.06	3842
819.2	3892
819.341	3876
819.481	3842
819.622	3899
819.762	4032
819.903	3983
820.043	3850
820.184	3816
820.324	3827
820.465	3865
820.605	3861
820.746	3861
820.886	3797
821.026	3975
821.167	3899
821.307	3968
821.447	3964
821.588	3994
821.728	3930
821.868	3918
822.008	3842
822.149	3892
822.289	3888
822.429	3759
822.569	3762
822.709	3759
822.849	3732
822.99	3713
823.13	3770
823.27	3793
823.41	3751
823.55	3747
823.69	3724
823.83	3755
823.97	3637
824.11	3625
824.25	3595
824.389	3648
824.529	3622
824.669	3667
824.809	3743
824.949	3732
825.089	3740
825.228	3675
825.368	3576
825.508	3530
825.648	3561
825.787	3568
825.927	3656
826.067	3622
826.206	3694
826.346	3797
826.485	3804
826.625	3861
826.765	3930
826.904	3797
827.044	3591
827.183	3504
827.323	3420
827.462	3507
827.601	3462
827.741	3389
827.88	3462
828.02	3340
828.159	3401
828.298	3466
828.437	3519
828.577	3488
828.716	3587
828.855	3450
828.994	3344
829.134	3348
829.273	3363
829.412	3355
829.551	3332
829.69	3374
829.829	3439
829.968	3504
830.107	3458
830.246	3416
830.385	3382
830.524	3344
830.663	3332
830.802	3260
830.941	3207
831.08	3192
831.219	3222
831.357	3260
831.496	3389
831.635	3241
831.774	3207
831.913	3211
832.051	3108
832.19	3119
832.329	3245
832.467	3112
832.606	3085
832.744	3161
832.883	3199
833.022	3150
833.16	3249
833.299	3279
833.437	3348
833.576	3351
833.714	3378
833.852	3412
833.991	3431
834.129	3462
834.267	3473
834.406	3386
834.544	3420
834.682	3409
834.821	3389
834.959	3572
835.097	3416
835.235	3454
835.373	3477
835.511	3545
835.65	3428
835.788	3424
835.926	3370
836.064	3393
836.202	3405
836.34	3549
836.478	3599
836.615	3496
836.753	3561
836.891	3610
837.029	3591
837.167	3587
837.305	3526
837.443	3511
837.58	3511
837.718	3572
837.856	3587
837.993	3545
838.131	3584
838.269	3564
838.406	3580
838.544	3572
838.681	3466
838.819	3439
838.956	3363
839.094	3370
839.231	3431
839.369	3545
839.506	3698
839.643	3629
839.781	3496
839.918	3439
840.055	3481
840.193	3519
840.33	3519
840.467	3523
840.604	3629
840.742	3755
840.879	3564
841.016	3564
841.153	3568
841.29	3728
841.427	3713
841.564	3720
841.701	3717
841.838	3671
841.975	3667
842.112	3694
842.249	3663
842.385	3633
842.522	3838
842.659	3660
842.796	3648
842.933	3679
843.069	3705
843.206	3671
843.343	3812
843.479	3793
843.616	3808
843.752	3633
843.889	3671
844.025	3865
844.162	3671
844.298	3850
844.435	3778
844.571	3774
844.708	3876
844.844	3960
844.98	3987
845.117	4002
845.253	3888
845.389	3857
845.525	3968
845.661	3979
845.798	3972
845.934	3960
846.07	3949
846.206	3972
846.342	4139
846.478	4029
846.614	3975
846.75	3941
846.886	3949
847.022	4059
847.158	3998
847.294	4002
847.429	4029
847.565	3975
847.701	4219
847.837	3869
847.972	3846
848.108	3945
848.244	3968
848.379	3865
848.515	3797
848.65	3831
848.786	3800
848.921	3850
849.057	3903
849.192	3896
849.328	3945
849.463	3907
849.598	3842
849.734	3846
849.869	3797
850.004	3793
850.14	3808
850.275	3778
850.41	3694
850.545	3762
850.68	3751
850.815	3838
850.95	3797
851.085	3949
851.22	3842
851.355	3808
851.49	3793
851.625	3770
851.76	3743
851.895	3774
852.03	3713
852.165	3831
852.299	3800
852.434	3850
852.569	3857
852.703	3857
852.838	3937
852.973	4013
853.107	3949
853.242	3869
853.376	3873
853.511	3770
853.645	3857
853.78	4002
853.914	3888
854.048	3827
854.183	3812
854.317	3972
854.451	4078
854.585	3953
854.72	3972
854.854	4116
854.988	3941
855.122	3983
855.256	3945
855.39	4002
855.524	4101
855.658	4101
855.792	4082
855.926	4128
856.06	4147
856.194	4211
856.327	4135
856.461	4105
856.595	4131
856.729	4147
856.862	4268
856.996	4181
857.13	4284
857.263	4322
857.397	4390
857.53	4280
857.664	4306
857.797	4390
857.931	4367
858.064	4341
858.197	4424
858.331	4424
858.464	4402
858.597	4371
858.731	4409
858.864	4493
858.997	4489
859.13	4569
859.263	4508
859.396	4558
859.529	4550
859.662	4512
859.795	4504
859.928	4558
860.061	4683
860.194	4763
860.327	4687
860.46	4649
860.592	4725
860.725	4771
860.858	4752
860.99	4717
861.123	4691
861.256	4702
861.388	4771
861.521	5452
861.653	4755
861.786	4694
861.918	4767
862.05	4843
862.183	4847
862.315	4896
862.447	4919
862.58	4889
862.712	4805
862.844	4771
862.976	4885
863.108	4900
863.24	5124
863.372	4828
863.504	4870
863.636	4862
863.768	4927
863.9	4934
864.032	4896
864.164	4938
864.296	5018
864.428	5060
864.559	5151
864.691	5056
864.823	5121
864.954	5071
865.086	5124
865.217	5147
865.349	5105
865.48	5155
865.612	5201
865.743	5296
865.875	5178
866.006	5151
866.137	5235
866.269	5242
866.4	5239
866.531	5208
866.662	5239
866.793	5246
866.924	5357
867.055	5330
867.186	5326
867.317	5315
867.448	5315
867.579	5341
867.71	5357
867.841	5398
867.972	5436
868.103	5467
868.233	5482
868.364	5452
868.495	5551
868.625	5630
868.756	5817
868.886	5684
869.017	5722
869.147	5863
869.278	5878
869.408	5767
869.539	5897
869.669	5939
869.799	5885
869.929	5954
870.06	6030
870.19	6152
870.32	6167
870.45	6224
870.58	6327
870.71	6391
870.84	6521
870.97	6391
871.1	6350
871.23	6631
871.36	6673
871.489	6658
871.619	6791
871.749	6791
871.879	6882
872.008	6985
872.138	6878
872.267	6993
872.397	6943
872.526	7015
872.656	7012
872.785	7206
872.915	7365
873.044	7483
873.173	7540
873.303	7662
873.432	7826
873.561	7792
873.69	7974
873.819	8035
873.948	8157
874.077	8267
874.206	8271
874.335	8396
874.464	8644
874.593	8834
874.722	8990
874.851	9161
874.979	9203
875.108	9393
875.237	9412
875.365	9473
875.494	9656
875.623	9819
875.751	9857
875.88	9937
876.008	10173
876.136	10272
876.265	10573
876.393	10706
876.521	10668
876.65	10843
876.778	10881
876.906	10820
877.034	10930
877.162	11128
877.29	11166
877.418	11349
877.546	11261
877.674	11482
877.802	11452
877.93	11474
878.058	11467
878.185	11558
878.313	11611
878.441	11748
878.568	11688
878.696	11851
878.824	11783
878.951	12007
879.079	11996
879.206	12049
879.333	12045
879.461	11950
879.588	12030
879.715	12117
879.842	12232
879.97	12041
880.097	11783
880.224	11832
880.351	11889
880.478	11840
880.605	11790
880.732	11832
880.859	11961
880.986	11824
881.112	11863
881.239	11661
881.366	11619
881.493	11745
881.619	11512
881.746	11520
881.872	11436
881.999	11535
882.125	11486
882.252	11547
882.378	11528
882.505	11589
882.631	11474
882.757	11258
882.883	11261
883.01	11147
883.136	11159
883.262	11124
883.388	11098
883.514	11136
883.64	11162
883.766	11079
883.892	10881
884.018	10946
884.143	11067
884.269	11132
884.395	10786
884.52	10858
884.646	10866
884.772	10706
884.897	10717
885.023	10729
885.148	10774
885.274	10744
885.399	10694
885.524	10679
885.65	10607
885.775	10577
885.9	10561
886.025	10622
886.15	10538
886.275	10413
886.4	10371
886.525	10405
886.65	10379
886.775	10295
886.9	10470
887.025	10504
887.149	10360
887.274	10169
887.399	10177
887.523	10128
887.648	10093
887.773	10086
887.897	10276
888.021	10207
888.146	10105
888.27	10238
888.395	10185
888.519	10188
888.643	10185
888.767	10150
888.891	10143
889.015	10105
889.139	10071
889.263	10013
889.387	10097
889.511	10074
889.635	10063
889.759	9934
889.883	9953
890.006	10063
890.13	10059
890.254	9895
890.377	10021
890.501	9781
890.624	9854
890.748	9819
890.871	9785
890.995	9713
891.118	9717
891.241	9728
891.364	9747
891.488	9888
891.611	9751
891.734	9789
891.857	9812
891.98	9701
892.103	9728
892.226	9781
892.349	9648
892.471	9515
892.594	9534
892.717	9648
892.839	9557
892.962	9618
893.085	9663
893.207	9561
893.33	9511
893.452	9469
893.575	9553
893.697	9466
893.819	9618
893.941	9595
894.064	9603
894.186	9439
894.308	9397
894.43	9492
894.552	9584
894.674	9542
894.796	9359
894.918	9424
895.04	9348
895.161	9439
895.283	9287
895.405	9260
895.526	9329
895.648	9321
895.769	9268
895.891	9310
896.012	9283
896.134	9268
896.255	9123
896.376	9070
896.498	9100
896.619	9176
896.74	9077
896.861	9085
896.982	9272
897.103	9233
897.224	9218
897.345	9093
897.466	9028
897.587	9024
897.708	9058
897.828	9070
897.949	8906
898.07	8842
898.19	8842
898.311	9066
898.431	8823
898.552	8941
898.672	9013
898.792	8986
898.913	8971
899.033	8876
899.153	8739
899.273	8708
899.393	8731
899.513	8746
899.633	8746
899.753	8807
899.873	8769
899.993	8735
900.113	8712
900.232	8739
900.352	8674
900.472	8575
900.591	8518
900.711	8537
900.83	8541
900.95	8670
901.069	8689
901.189	8575
901.308	8434
901.427	8385
901.546	8412
901.665	8465
901.784	8473
901.904	8374
902.023	8286
902.141	8164
902.26	8229
902.379	8290
902.498	8221
902.617	8221
902.735	8290
902.854	8279
902.973	8168
903.091	8164
903.21	8126
903.328	8103
903.446	8130
903.565	8100
903.683	8069
903.801	8035
903.919	8103
904.038	8058
904.156	7997
904.274	8027
904.392	8046
904.51	8054
904.627	7986
904.745	8069
904.863	8050
904.981	7970
905.098	7902
905.216	7856
905.334	7883
905.451	7883
905.569	7890
905.686	7890
905.803	7947
905.921	7734
906.038	7845
906.155	7704
906.272	7662
906.389	7700
906.506	7609
906.623	7655
906.74	7601
906.857	7487
906.974	7518
907.091	7674
907.208	7772
907.324	7632
907.441	7571
907.557	7453
907.674	7438
907.79	7358
907.907	7415
908.023	7411
908.139	7388
908.256	7377
908.372	7346
908.488	7316
908.604	7255
908.72	7217
908.836	7240
908.952	7221
909.068	7225
909.184	7381
909.3	7266
909.415	7221
909.531	7270
909.647	7118
909.762	7069
909.878	7069
909.993	7091
910.108	7042
910.224	7061
910.339	7091
910.454	7072
910.57	6973
910.685	6993
910.8	7160
910.915	7076
911.03	7008
911.145	6928
911.259	6852
911.374	6867
911.489	6837
911.604	6837
911.718	6707
911.833	6711
911.947	6749
912.062	6585
912.176	6662
912.291	6700
912.405	6681
912.519	6852
912.633	6825
912.748	6795
912.862	6677
912.976	6665
913.09	6566
913.204	6544
913.318	6612
913.431	6658
913.545	6631
913.659	6722
913.772	6703
913.886	6627
914	6559
914.113	6608
914.226	6597
914.34	6623
914.453	6483
914.566	6604
914.68	6589
914.793	6525
914.906	6399
915.019	6441
915.132	6350
915.245	6448
915.358	6388
915.47	6490
915.583	6467
915.696	6456
915.809	6574
915.921	6551
916.034	6403
916.146	6426
916.259	6376
916.371	6464
916.483	6528
916.595	6380
916.708	6422
916.82	6372
916.932	6353
917.044	6410
917.156	6331
917.268	6308
917.38	6346
917.491	6300
917.603	6270
917.715	6395
917.826	6422
917.938	6289
918.049	6277
918.161	6410
918.272	6395
918.384	6445
918.495	6369
918.606	6254
918.717	6220
918.828	6247
918.939	6315
919.05	6197
919.161	6228
919.272	6144
919.383	6167
919.494	6323
919.604	6433
919.715	6216
919.826	6163
919.936	6205
920.047	6311
920.157	6254
920.267	6410
920.378	6395
920.488	6262
920.598	6433
920.708	6498
920.818	6422
920.928	6460
921.038	6620
921.148	6570
921.258	6376
921.368	6296
921.477	6186
921.587	6209
921.697	6060
921.806	6209
921.916	6034
922.025	5969
922.134	5931
922.244	5840
922.353	5950
922.462	5798
922.571	5790
922.68	5703
922.789	5630
922.898	5688
923.007	5661
923.116	5657
923.224	5615
923.333	5653
923.442	5551
923.55	5543
923.659	5592
923.767	5627
923.876	5581
923.984	5592
924.092	5474
924.201	5539
924.309	5532
924.417	5554
924.525	5497
924.633	5520
924.741	6270
924.849	5410
924.956	5463
925.064	5414
925.172	5334
925.279	5315
925.387	5345
925.494	5307
925.602	5383
925.709	5395
925.816	5265
925.924	5292
926.031	5337
926.138	5277
926.245	5330
926.352	5227
926.459	5280
926.566	5345
926.673	5174
926.779	5201
926.886	5174
926.993	5010
927.099	4987
927.206	4949
927.312	4965
927.419	4976
927.525	4980
927.631	5018
927.737	4892
927.843	4858
927.95	4763
928.056	4801
928.162	4801
928.267	4843
928.373	5364
928.479	4839
928.585	4698
928.69	4748
928.796	4782
928.901	4694
929.007	4611
929.112	4687
929.218	4649
929.323	4527
929.428	4542
929.533	4630
929.638	4523
929.743	4554
929.848	4531
929.953	4523
930.058	4462
930.163	4314
930.267	4329
930.372	4386
930.477	4303
930.581	4470
930.685	4341
930.79	4219
930.894	4276
930.998	4219
931.103	4409
931.207	4143
931.311	4044
931.415	4074
931.519	3922
931.623	3991
