Data from glass_V78500241_2296.txt Node
Date: Wed Sep 01 19:30:25 CST 2021
User: usil
Spectrometer: V785-0024
Trigger mode: 0
Integration Time (sec): 4.000000E-1
Scans to average: 1
Nonlinearity correction enabled: false
Boxcar width: 0
Storing dark spectrum: false
XAxis mode: Wavelengths
Number of Pixels in Spectrum: 1024
>>>>>Begin Spectral Data<<<<<
801.071	3686
801.214	3766
801.356	3675
801.499	3751
801.641	3736
801.783	3823
801.926	3823
802.068	3827
802.211	3865
802.353	3800
802.496	3808
802.638	3861
802.78	3937
802.923	3937
803.065	3842
803.208	3857
803.35	3842
803.492	3842
803.635	3937
803.777	3816
803.919	3850
804.061	4135
804.204	3987
804.346	3941
804.488	3896
804.63	4006
804.773	3956
804.915	4021
805.057	4139
805.199	4044
805.341	4101
805.483	4116
805.626	4143
805.768	4131
805.91	4162
806.052	4230
806.194	4158
806.336	4303
806.478	4246
806.62	4177
806.762	4188
806.904	4272
807.046	4276
807.188	4227
807.33	4177
807.472	4242
807.614	4166
807.756	4234
807.898	4215
808.04	4249
808.182	4295
808.324	4344
808.465	4394
808.607	4500
808.749	4440
808.891	4432
809.033	4466
809.174	4367
809.316	4299
809.458	4204
809.6	4101
809.741	4112
809.883	4139
810.025	4238
810.166	4173
810.308	4268
810.45	4154
810.591	4227
810.733	4284
810.875	4493
811.016	4839
811.158	5113
811.299	5292
811.441	5204
811.582	5052
811.724	4714
811.865	4447
812.007	4432
812.148	4455
812.29	4390
812.431	4428
812.573	4405
812.714	4386
812.855	4394
812.997	4436
813.138	4519
813.279	4329
813.421	4367
813.562	4318
813.703	4295
813.845	4356
813.986	4242
814.127	4181
814.268	4261
814.41	4276
814.551	4306
814.692	4291
814.833	4287
814.974	4291
815.115	4348
815.256	4246
815.397	4238
815.539	4246
815.68	4219
815.821	4207
815.962	4379
816.103	4314
816.244	4223
816.385	4230
816.526	4280
816.666	4230
816.807	4067
816.948	4177
817.089	4131
817.23	4120
817.371	4078
817.512	4040
817.653	4067
817.793	4059
817.934	3991
818.075	4093
818.216	4048
818.356	4093
818.497	4013
818.638	3899
818.778	3888
818.919	3876
819.06	3842
819.2	3869
819.341	3892
819.481	3861
819.622	3899
819.762	4040
819.903	3918
820.043	3865
820.184	3808
820.324	3819
820.465	3880
820.605	3876
820.746	3857
820.886	3808
821.026	3896
821.167	3896
821.307	3991
821.447	3968
821.588	3937
821.728	3949
821.868	3930
822.008	3854
822.149	3915
822.289	3907
822.429	3793
822.569	3808
822.709	3785
822.849	3690
822.99	3713
823.13	3728
823.27	3766
823.41	3747
823.55	3694
823.69	3690
823.83	3732
823.97	3629
824.11	3606
824.25	3591
824.389	3644
824.529	3679
824.669	3622
824.809	3705
824.949	3789
825.089	3740
825.228	3675
825.368	3599
825.508	3576
825.648	3587
825.787	3587
825.927	3599
826.067	3610
826.206	3679
826.346	3804
826.485	3819
826.625	3857
826.765	3880
826.904	3819
827.044	3591
827.183	3507
827.323	3428
827.462	3481
827.601	3409
827.741	3409
827.88	3443
828.02	3363
828.159	3435
828.298	3473
828.437	3519
828.577	3466
828.716	3584
828.855	3481
828.994	3359
829.134	3374
829.273	3386
829.412	3313
829.551	3340
829.69	3348
829.829	3469
829.968	3500
830.107	3435
830.246	3454
830.385	3355
830.524	3363
830.663	3302
830.802	3233
830.941	3195
831.08	3165
831.219	3256
831.357	3245
831.496	3363
831.635	3233
831.774	3180
831.913	3188
832.051	3100
832.19	3150
832.329	3233
832.467	3123
832.606	3085
832.744	3157
832.883	3218
833.022	3195
833.16	3256
833.299	3340
833.437	3367
833.576	3355
833.714	3409
833.852	3431
833.991	3439
834.129	3504
834.267	3447
834.406	3443
834.544	3401
834.682	3416
834.821	3370
834.959	3572
835.097	3420
835.235	3553
835.373	3443
835.511	3469
835.65	3450
835.788	3454
835.926	3401
836.064	3382
836.202	3378
836.34	3584
836.478	3610
836.615	3568
836.753	3580
836.891	3580
837.029	3606
837.167	3584
837.305	3561
837.443	3515
837.58	3507
837.718	3622
837.856	3511
837.993	3526
838.131	3564
838.269	3538
838.406	3584
838.544	3564
838.681	3443
838.819	3450
838.956	3332
839.094	3363
839.231	3511
839.369	3519
839.506	3717
839.643	3629
839.781	3488
839.918	3443
840.055	3534
840.193	3530
840.33	3545
840.467	3568
840.604	3549
840.742	3823
840.879	3549
841.016	3564
841.153	3557
841.29	3743
841.427	3686
841.564	3701
841.701	3694
841.838	3679
841.975	3652
842.112	3679
842.249	3629
842.385	3629
842.522	3785
842.659	3709
842.796	3625
842.933	3743
843.069	3701
843.206	3686
843.343	3823
843.479	3762
843.616	3823
843.752	3671
843.889	3675
844.025	3804
844.162	3686
844.298	3838
844.435	3740
844.571	3804
844.708	3896
844.844	4017
844.98	3998
845.117	4021
845.253	3930
845.389	3956
845.525	3941
845.661	3975
845.798	3903
845.934	3975
846.07	3930
846.206	4044
846.342	4063
846.478	4086
846.614	3949
846.75	3960
846.886	3926
847.022	4040
847.158	3941
847.294	4002
847.429	4010
847.565	3960
847.701	4249
847.837	3899
847.972	3888
848.108	3964
848.244	3941
848.379	3842
848.515	3808
848.65	3857
848.786	3827
848.921	3880
849.057	3922
849.192	3972
849.328	3907
849.463	3934
849.598	3899
849.734	3854
849.869	3800
850.004	3778
850.14	3816
850.275	3762
850.41	3728
850.545	3724
850.68	3781
850.815	3724
850.95	3751
851.085	3941
851.22	3907
851.355	3816
851.49	3728
851.625	3785
851.76	3797
851.895	3732
852.03	3709
852.165	3793
852.299	3816
852.434	3930
852.569	3846
852.703	3861
852.838	3918
852.973	4032
853.107	4044
853.242	3850
853.376	3850
853.511	3774
853.645	3808
853.78	3960
853.914	3865
854.048	3884
854.183	3831
854.317	3994
854.451	4059
854.585	3956
854.72	3956
854.854	4032
854.988	3953
855.122	4021
855.256	3934
855.39	4013
855.524	4105
855.658	4086
855.792	4055
855.926	4143
856.06	4139
856.194	4227
856.327	4109
856.461	4116
856.595	4128
856.729	4154
856.862	4272
856.996	4238
857.13	4306
857.263	4341
857.397	4325
857.53	4291
857.664	4303
857.797	4405
857.931	4424
858.064	4409
858.197	4390
858.331	4390
858.464	4394
858.597	4413
858.731	4459
858.864	4455
858.997	4512
859.13	4535
859.263	4538
859.396	4596
859.529	4504
859.662	4500
859.795	4485
859.928	4603
860.061	4736
860.194	4714
860.327	4656
860.46	4622
860.592	4672
860.725	4763
860.858	4744
860.99	4679
861.123	4706
861.256	4691
861.388	4759
861.521	5448
861.653	4717
861.786	4691
861.918	4759
862.05	4774
862.183	4850
862.315	4881
862.447	4957
862.58	4873
862.712	4771
862.844	4752
862.976	4881
863.108	4866
863.24	5113
863.372	4828
863.504	4904
863.636	4930
863.768	4961
863.9	4942
864.032	4896
864.164	4930
864.296	5018
864.428	5041
864.559	5083
864.691	5060
864.823	5136
864.954	5109
865.086	5113
865.217	5117
865.349	5094
865.48	5128
865.612	5140
865.743	5299
865.875	5197
866.006	5212
866.137	5227
866.269	5250
866.4	5280
866.531	5204
866.662	5231
866.793	5296
866.924	5261
867.055	5372
867.186	5330
867.317	5303
867.448	5299
867.579	5387
867.71	5349
867.841	5372
867.972	5425
868.103	5421
868.233	5463
868.364	5474
868.495	5570
868.625	5642
868.756	5809
868.886	5627
869.017	5672
869.147	5882
869.278	5878
869.408	5760
869.539	5840
869.669	5904
869.799	5916
869.929	5980
870.06	6015
870.19	6197
870.32	6186
870.45	6239
870.58	6327
870.71	6395
870.84	6464
870.97	6460
871.1	6460
871.23	6582
871.36	6696
871.489	6722
871.619	6802
871.749	6825
871.879	6894
872.008	6977
872.138	6962
872.267	6966
872.397	6989
872.526	7015
872.656	7126
872.785	7187
872.915	7335
873.044	7521
873.173	7472
873.303	7613
873.432	7757
873.561	7795
873.69	7913
873.819	8043
873.948	8115
874.077	8214
874.206	8362
874.335	8400
874.464	8655
874.593	8838
874.722	8868
874.851	9100
874.979	9253
875.108	9298
875.237	9428
875.365	9386
875.494	9637
875.623	9823
875.751	9785
875.88	9873
876.008	10177
876.136	10344
876.265	10523
876.393	10778
876.521	10675
876.65	10767
876.778	10923
876.906	10885
877.034	11037
877.162	11181
877.29	11067
877.418	11341
877.546	11379
877.674	11467
877.802	11467
877.93	11444
878.058	11649
878.185	11581
878.313	11638
878.441	11703
878.568	11680
878.696	11817
878.824	11863
878.951	11916
879.079	12034
879.206	12220
879.333	12064
879.461	12015
879.588	12079
879.715	12057
879.842	12213
879.97	11996
880.097	11916
880.224	11916
880.351	11901
880.478	11870
880.605	11912
880.732	11790
880.859	11897
880.986	11790
881.112	11874
881.239	11703
881.366	11619
881.493	11630
881.619	11532
881.746	11573
881.872	11528
881.999	11520
882.125	11452
882.252	11573
882.378	11490
882.505	11589
882.631	11391
882.757	11345
882.883	11303
883.01	11140
883.136	11242
883.262	11102
883.388	11086
883.514	11254
883.64	11151
883.766	11124
883.892	10961
884.018	10999
884.143	11075
884.269	11022
884.395	10847
884.52	10759
884.646	10793
884.772	10691
884.897	10679
885.023	10675
885.148	10755
885.274	10736
885.399	10698
885.524	10569
885.65	10569
885.775	10531
885.9	10615
886.025	10550
886.15	10527
886.275	10470
886.4	10409
886.525	10402
886.65	10390
886.775	10341
886.9	10523
887.025	10603
887.149	10287
887.274	10166
887.399	10150
887.523	10135
887.648	10139
887.773	10090
887.897	10143
888.021	10204
888.146	10093
888.27	10268
888.395	10162
888.519	10234
888.643	10120
888.767	10227
888.891	10071
889.015	9991
889.139	9956
889.263	10063
889.387	10059
889.511	10063
889.635	10124
889.759	10006
889.883	9994
890.006	9968
890.13	10048
890.254	9964
890.377	9918
890.501	9888
890.624	9838
890.748	9934
890.871	9819
890.995	9751
891.118	9728
891.241	9705
891.364	9694
891.488	9800
891.611	9701
891.734	9751
891.857	9675
891.98	9667
892.103	9690
892.226	9736
892.349	9622
892.471	9485
892.594	9523
892.717	9618
892.839	9507
892.962	9595
893.085	9694
893.207	9610
893.33	9534
893.452	9542
893.575	9530
893.697	9500
893.819	9542
893.941	9599
894.064	9584
894.186	9454
894.308	9374
894.43	9466
894.552	9633
894.674	9526
894.796	9359
894.918	9348
895.04	9317
895.161	9348
895.283	9329
895.405	9226
895.526	9294
895.648	9176
895.769	9222
895.891	9192
896.012	9317
896.134	9245
896.255	9142
896.376	9112
896.498	9154
896.619	9211
896.74	9066
896.861	8998
896.982	9184
897.103	9329
897.224	9127
897.345	9112
897.466	8937
897.587	8998
897.708	9093
897.828	9009
897.949	8960
898.07	8853
898.19	8815
898.311	8971
898.431	8868
898.552	8891
898.672	8986
898.792	8956
898.913	8906
899.033	8819
899.153	8682
899.273	8655
899.393	8708
899.513	8769
899.633	8701
899.753	8800
899.873	8640
899.993	8705
900.113	8697
900.232	8716
900.352	8678
900.472	8655
900.591	8530
900.711	8587
900.83	8583
900.95	8697
901.069	8693
901.189	8579
901.308	8457
901.427	8434
901.546	8377
901.665	8480
901.784	8541
901.904	8476
902.023	8271
902.141	8259
902.26	8161
902.379	8294
902.498	8259
902.617	8290
902.735	8275
902.854	8263
902.973	8267
903.091	8088
903.21	8123
903.328	8153
903.446	8096
903.565	8024
903.683	8100
903.801	7993
903.919	8149
904.038	8138
904.156	8039
904.274	8103
904.392	7997
904.51	8005
904.627	8050
904.745	8058
904.863	8134
904.981	7906
905.098	7902
905.216	7883
905.334	7849
905.451	7951
905.569	7864
905.686	7925
905.803	7902
905.921	7784
906.038	7898
906.155	7772
906.272	7700
906.389	7666
906.506	7582
906.623	7544
906.74	7639
906.857	7559
906.974	7601
907.091	7674
907.208	7658
907.324	7708
907.441	7487
907.557	7483
907.674	7430
907.79	7403
907.907	7441
908.023	7419
908.139	7369
908.256	7419
908.372	7327
908.488	7327
908.604	7263
908.72	7232
908.836	7240
908.952	7244
909.068	7190
909.184	7263
909.3	7274
909.415	7297
909.531	7247
909.647	7076
909.762	7133
909.878	7091
909.993	7099
910.108	7072
910.224	7004
910.339	7118
910.454	7057
910.57	6970
910.685	6954
910.8	7149
910.915	7053
911.03	7000
911.145	6821
911.259	6829
911.374	6935
911.489	6818
911.604	6760
911.718	6642
911.833	6768
911.947	6608
912.062	6551
912.176	6726
912.291	6715
912.405	6707
912.519	6795
912.633	6844
912.748	6669
912.862	6715
912.976	6616
913.09	6532
913.204	6608
913.318	6604
913.431	6635
913.545	6639
913.659	6757
913.772	6646
913.886	6597
914	6528
914.113	6616
914.226	6642
914.34	6566
914.453	6486
914.566	6616
914.68	6540
914.793	6464
914.906	6445
915.019	6372
915.132	6357
915.245	6433
915.358	6384
915.47	6464
915.583	6452
915.696	6467
915.809	6589
915.921	6490
916.034	6410
916.146	6388
916.259	6357
916.371	6441
916.483	6391
916.595	6357
916.708	6376
916.82	6388
916.932	6304
917.044	6353
917.156	6346
917.268	6350
917.38	6315
917.491	6289
917.603	6331
917.715	6422
917.826	6391
917.938	6357
918.049	6258
918.161	6346
918.272	6388
918.384	6388
918.495	6311
918.606	6247
918.717	6167
918.828	6254
918.939	6239
919.05	6171
919.161	6251
919.272	6091
919.383	6140
919.494	6292
919.604	6391
919.715	6270
919.826	6182
919.936	6216
920.047	6258
920.157	6281
920.267	6460
920.378	6331
920.488	6247
920.598	6426
920.708	6525
920.818	6441
920.928	6391
921.038	6544
921.148	6570
921.258	6331
921.368	6304
921.477	6201
921.587	6232
921.697	6038
921.806	6213
921.916	6057
922.025	5950
922.134	5984
922.244	5805
922.353	5866
922.462	5840
922.571	5805
922.68	5665
922.789	5680
922.898	5729
923.007	5642
923.116	5718
923.224	5672
923.333	5672
923.442	5566
923.55	5566
923.659	5592
923.767	5668
923.876	5509
923.984	5630
924.092	5493
924.201	5573
924.309	5520
924.417	5554
924.525	5524
924.633	5478
924.741	6289
924.849	5364
924.956	5463
925.064	5337
925.172	5299
925.279	5284
925.387	5322
925.494	5322
925.602	5482
925.709	5341
925.816	5273
925.924	5307
926.031	5376
926.138	5265
926.245	5330
926.352	5166
926.459	5353
926.566	5265
926.673	5178
926.779	5140
926.886	5090
926.993	5003
927.099	5003
927.206	4934
927.312	4915
927.419	4991
927.525	4968
927.631	4965
927.737	4911
927.843	4877
927.95	4797
928.056	4828
928.162	4812
928.267	4877
928.373	5341
928.479	4828
928.585	4683
928.69	4717
928.796	4774
928.901	4683
929.007	4641
929.112	4653
929.218	4607
929.323	4542
929.428	4550
929.533	4717
929.638	4516
929.743	4497
929.848	4493
929.953	4519
930.058	4440
930.163	4329
930.267	4375
930.372	4440
930.477	4284
930.581	4417
930.685	4386
930.79	4234
930.894	4280
930.998	4230
931.103	4390
931.207	4063
931.311	4063
931.415	3987
931.519	3911
931.623	3953
