Data from glass_V78500241_245.txt Node
Date: Wed Sep 01 19:16:11 CST 2021
User: usil
Spectrometer: V785-0024
Trigger mode: 0
Integration Time (sec): 4.000000E-1
Scans to average: 1
Nonlinearity correction enabled: false
Boxcar width: 0
Storing dark spectrum: false
XAxis mode: Wavelengths
Number of Pixels in Spectrum: 1024
>>>>>Begin Spectral Data<<<<<
801.071	3728
801.214	3755
801.356	3720
801.499	3785
801.641	3724
801.783	3781
801.926	3896
802.068	3865
802.211	3816
802.353	3876
802.496	3865
802.638	3888
802.78	3896
802.923	3934
803.065	3930
803.208	3846
803.35	3865
803.492	3899
803.635	3964
803.777	3819
803.919	3918
804.061	4181
804.204	3960
804.346	3964
804.488	3941
804.63	4044
804.773	3983
804.915	4017
805.057	4131
805.199	4105
805.341	4105
805.483	4147
805.626	4116
805.768	4071
805.91	4192
806.052	4265
806.194	4211
806.336	4318
806.478	4223
806.62	4192
806.762	4219
806.904	4249
807.046	4386
807.188	4234
807.33	4196
807.472	4268
807.614	4169
807.756	4295
807.898	4230
808.04	4234
808.182	4314
808.324	4322
808.465	4363
808.607	4462
808.749	4500
808.891	4428
809.033	4527
809.174	4436
809.316	4333
809.458	4257
809.6	4192
809.741	4185
809.883	4131
810.025	4280
810.166	4207
810.308	4227
810.45	4272
810.591	4272
810.733	4306
810.875	4535
811.016	4858
811.158	5128
811.299	5299
811.441	5330
811.582	5128
811.724	4752
811.865	4489
812.007	4466
812.148	4443
812.29	4455
812.431	4409
812.573	4424
812.714	4352
812.855	4421
812.997	4436
813.138	4542
813.279	4436
813.421	4352
813.562	4375
813.703	4352
813.845	4367
813.986	4276
814.127	4261
814.268	4310
814.41	4287
814.551	4268
814.692	4341
814.833	4276
814.974	4318
815.115	4341
815.256	4284
815.397	4249
815.539	4287
815.68	4249
815.821	4230
815.962	4306
816.103	4352
816.244	4261
816.385	4253
816.526	4310
816.666	4227
816.807	4169
816.948	4173
817.089	4192
817.23	4150
817.371	4002
817.512	4093
817.653	4093
817.793	4051
817.934	4082
818.075	4131
818.216	4143
818.356	4097
818.497	3975
818.638	3892
818.778	3926
818.919	3861
819.06	3838
819.2	3945
819.341	3903
819.481	3835
819.622	3945
819.762	4051
819.903	3991
820.043	3876
820.184	3865
820.324	3842
820.465	3934
820.605	3907
820.746	3922
820.886	3838
821.026	3987
821.167	3926
821.307	3998
821.447	4002
821.588	3987
821.728	4006
821.868	3903
822.008	3896
822.149	3926
822.289	3983
822.429	3816
822.569	3766
822.709	3785
822.849	3724
822.99	3732
823.13	3747
823.27	3816
823.41	3698
823.55	3732
823.69	3755
823.83	3728
823.97	3717
824.11	3637
824.25	3652
824.389	3660
824.529	3663
824.669	3618
824.809	3732
824.949	3778
825.089	3709
825.228	3736
825.368	3591
825.508	3591
825.648	3553
825.787	3644
825.927	3652
826.067	3641
826.206	3679
826.346	3827
826.485	3819
826.625	3854
826.765	3964
826.904	3865
827.044	3644
827.183	3572
827.323	3435
827.462	3515
827.601	3443
827.741	3450
827.88	3462
828.02	3420
828.159	3447
828.298	3481
828.437	3572
828.577	3500
828.716	3633
828.855	3507
828.994	3393
829.134	3370
829.273	3382
829.412	3401
829.551	3367
829.69	3420
829.829	3450
829.968	3561
830.107	3462
830.246	3450
830.385	3401
830.524	3374
830.663	3321
830.802	3268
830.941	3237
831.08	3233
831.219	3268
831.357	3279
831.496	3424
831.635	3264
831.774	3165
831.913	3272
832.051	3150
832.19	3157
832.329	3222
832.467	3184
832.606	3131
832.744	3203
832.883	3157
833.022	3192
833.16	3260
833.299	3275
833.437	3344
833.576	3420
833.714	3393
833.852	3420
833.991	3447
834.129	3492
834.267	3439
834.406	3401
834.544	3435
834.682	3416
834.821	3401
834.959	3580
835.097	3401
835.235	3526
835.373	3477
835.511	3496
835.65	3431
835.788	3511
835.926	3435
836.064	3393
836.202	3428
836.34	3572
836.478	3595
836.615	3526
836.753	3641
836.891	3663
837.029	3644
837.167	3603
837.305	3595
837.443	3538
837.58	3507
837.718	3641
837.856	3576
837.993	3564
838.131	3629
838.269	3584
838.406	3633
838.544	3603
838.681	3488
838.819	3443
838.956	3409
839.094	3431
839.231	3454
839.369	3519
839.506	3774
839.643	3694
839.781	3492
839.918	3473
840.055	3572
840.193	3534
840.33	3557
840.467	3599
840.604	3644
840.742	3835
840.879	3557
841.016	3599
841.153	3610
841.29	3728
841.427	3717
841.564	3785
841.701	3778
841.838	3743
841.975	3667
842.112	3701
842.249	3671
842.385	3633
842.522	3827
842.659	3679
842.796	3660
842.933	3686
843.069	3698
843.206	3720
843.343	3865
843.479	3812
843.616	3823
843.752	3648
843.889	3682
844.025	3918
844.162	3736
844.298	3838
844.435	3789
844.571	3781
844.708	3915
844.844	4010
844.98	4017
845.117	4021
845.253	3960
845.389	3949
845.525	4002
845.661	3987
845.798	3899
845.934	4010
846.07	3956
846.206	4074
846.342	4139
846.478	4124
846.614	3994
846.75	3960
846.886	3945
847.022	4086
847.158	4006
847.294	4044
847.429	4101
847.565	4036
847.701	4261
847.837	3903
847.972	3842
848.108	4074
848.244	3953
848.379	3880
848.515	3846
848.65	3827
848.786	3827
848.921	3857
849.057	3941
849.192	3968
849.328	3918
849.463	3979
849.598	3922
849.734	3861
849.869	3835
850.004	3835
850.14	3816
850.275	3816
850.41	3793
850.545	3770
850.68	3800
850.815	3823
850.95	3797
851.085	3960
851.22	3854
851.355	3831
851.49	3823
851.625	3766
851.76	3781
851.895	3793
852.03	3736
852.165	3823
852.299	3873
852.434	3934
852.569	3869
852.703	3903
852.838	3956
852.973	3998
853.107	4010
853.242	3915
853.376	3861
853.511	3759
853.645	3869
853.78	3964
853.914	3956
854.048	3953
854.183	3930
854.317	3968
854.451	4090
854.585	3994
854.72	3945
854.854	4044
854.988	3941
855.122	4006
855.256	3949
855.39	4032
855.524	4131
855.658	4109
855.792	4093
855.926	4154
856.06	4162
856.194	4253
856.327	4188
856.461	4112
856.595	4128
856.729	4211
856.862	4280
856.996	4284
857.13	4318
857.263	4367
857.397	4360
857.53	4318
857.664	4371
857.797	4371
857.931	4466
858.064	4386
858.197	4474
858.331	4421
858.464	4443
858.597	4371
858.731	4478
858.864	4489
858.997	4462
859.13	4538
859.263	4516
859.396	4656
859.529	4523
859.662	4550
859.795	4569
859.928	4573
860.061	4740
860.194	4752
860.327	4710
860.46	4630
860.592	4744
860.725	4809
860.858	4786
860.99	4721
861.123	4721
861.256	4729
861.388	4793
861.521	5421
861.653	4778
861.786	4706
861.918	4733
862.05	4752
862.183	4835
862.315	4881
862.447	4949
862.58	4896
862.712	4782
862.844	4812
862.976	4896
863.108	4858
863.24	5299
863.372	4862
863.504	4946
863.636	4885
863.768	4904
863.9	4949
864.032	4942
864.164	4949
864.296	5033
864.428	5067
864.559	5124
864.691	5109
864.823	5117
864.954	5140
865.086	5132
865.217	5094
865.349	5090
865.48	5147
865.612	5223
865.743	5299
865.875	5227
866.006	5246
866.137	5223
866.269	5254
866.4	5239
866.531	5223
866.662	5261
866.793	5292
866.924	5288
867.055	5368
867.186	5379
867.317	5372
867.448	5322
867.579	5349
867.71	5425
867.841	5406
867.972	5478
868.103	5497
868.233	5436
868.364	5463
868.495	5493
868.625	5729
868.756	5741
868.886	5703
869.017	5752
869.147	5821
869.278	5904
869.408	5809
869.539	5889
869.669	5946
869.799	5912
869.929	5988
870.06	6034
870.19	6220
870.32	6178
870.45	6273
870.58	6353
870.71	6460
870.84	6506
870.97	6414
871.1	6471
871.23	6658
871.36	6692
871.489	6627
871.619	6764
871.749	6837
871.879	6848
872.008	6970
872.138	6993
872.267	7000
872.397	7038
872.526	7015
872.656	7103
872.785	7240
872.915	7365
873.044	7571
873.173	7594
873.303	7666
873.432	7738
873.561	7856
873.69	7959
873.819	8001
873.948	8164
874.077	8259
874.206	8404
874.335	8450
874.464	8644
874.593	8872
874.722	8975
874.851	9051
874.979	9203
875.108	9416
875.237	9462
875.365	9553
875.494	9591
875.623	9827
875.751	9842
875.88	10013
876.008	10131
876.136	10257
876.265	10531
876.393	10698
876.521	10706
876.65	10801
876.778	10862
876.906	10900
877.034	10957
877.162	11083
877.29	11136
877.418	11258
877.546	11395
877.674	11417
877.802	11444
877.93	11573
878.058	11604
878.185	11524
878.313	11726
878.441	11813
878.568	11657
878.696	11851
878.824	11882
878.951	11916
879.079	12053
879.206	12064
879.333	12053
879.461	11954
879.588	11984
879.715	12049
879.842	12277
879.97	12049
880.097	11882
880.224	11954
880.351	11927
880.478	11920
880.605	11843
880.732	11737
880.859	11996
880.986	11840
881.112	11786
881.239	11783
881.366	11638
881.493	11600
881.619	11573
881.746	11528
881.872	11493
881.999	11471
882.125	11459
882.252	11604
882.378	11478
882.505	11551
882.631	11414
882.757	11353
882.883	11265
883.01	11208
883.136	11162
883.262	11033
883.388	11147
883.514	11239
883.64	11181
883.766	11128
883.892	10987
884.018	11010
884.143	11105
884.269	11162
884.395	10774
884.52	10824
884.646	10744
884.772	10752
884.897	10694
885.023	10672
885.148	10771
885.274	10748
885.399	10683
885.524	10656
885.65	10565
885.775	10679
885.9	10592
886.025	10588
886.15	10554
886.275	10462
886.4	10379
886.525	10474
886.65	10451
886.775	10356
886.9	10409
887.025	10618
887.149	10344
887.274	10223
887.399	10196
887.523	10223
887.648	10181
887.773	10086
887.897	10219
888.021	10166
888.146	10101
888.27	10249
888.395	10219
888.519	10211
888.643	10223
888.767	10215
888.891	10181
889.015	10124
889.139	10044
889.263	10067
889.387	10051
889.511	10154
889.635	10055
889.759	10025
889.883	9994
890.006	9937
890.13	10120
890.254	9956
890.377	9968
890.501	9926
890.624	9850
890.748	9960
890.871	9831
890.995	9762
891.118	9701
891.241	9804
891.364	9728
891.488	9838
891.611	9755
891.734	9812
891.857	9865
891.98	9800
892.103	9778
892.226	9713
892.349	9690
892.471	9534
892.594	9641
892.717	9652
892.839	9553
892.962	9580
893.085	9633
893.207	9618
893.33	9545
893.452	9431
893.575	9561
893.697	9477
893.819	9698
893.941	9648
894.064	9705
894.186	9469
894.308	9325
894.43	9526
894.552	9603
894.674	9545
894.796	9321
894.918	9302
895.04	9382
895.161	9302
895.283	9401
895.405	9218
895.526	9294
895.648	9321
895.769	9260
895.891	9233
896.012	9329
896.134	9294
896.255	9131
896.376	9089
896.498	9211
896.619	9154
896.74	9176
896.861	9108
896.982	9260
897.103	9374
897.224	9218
897.345	9104
897.466	9028
897.587	8998
897.708	9127
897.828	9032
897.949	9051
898.07	8853
898.19	8899
898.311	9089
898.431	8902
898.552	9013
898.672	8956
898.792	8963
898.913	8933
899.033	8819
899.153	8739
899.273	8735
899.393	8724
899.513	8804
899.633	8735
899.753	8727
899.873	8689
899.993	8758
900.113	8781
900.232	8731
900.352	8648
900.472	8594
900.591	8545
900.711	8594
900.83	8568
900.95	8655
901.069	8697
901.189	8594
901.308	8419
901.427	8393
901.546	8461
901.665	8431
901.784	8587
901.904	8374
902.023	8366
902.141	8313
902.26	8240
902.379	8294
902.498	8210
902.617	8221
902.735	8301
902.854	8248
902.973	8286
903.091	8065
903.21	8126
903.328	8130
903.446	8161
903.565	8043
903.683	8123
903.801	8062
903.919	8115
904.038	8172
904.156	8016
904.274	8077
904.392	8103
904.51	8119
904.627	8077
904.745	8100
904.863	8119
904.981	7921
905.098	7849
905.216	7814
905.334	7906
905.451	7887
905.569	7879
905.686	7936
905.803	7917
905.921	7833
906.038	7841
906.155	7788
906.272	7765
906.389	7727
906.506	7670
906.623	7651
906.74	7571
906.857	7575
906.974	7639
907.091	7727
907.208	7746
907.324	7655
907.441	7639
907.557	7403
907.674	7472
907.79	7415
907.907	7438
908.023	7403
908.139	7388
908.256	7362
908.372	7373
908.488	7403
908.604	7350
908.72	7217
908.836	7331
908.952	7278
909.068	7259
909.184	7411
909.3	7331
909.415	7327
909.531	7350
909.647	7114
909.762	7069
909.878	7072
909.993	7126
910.108	7069
910.224	7099
910.339	7080
910.454	7046
910.57	7046
910.685	6954
910.8	7190
910.915	7103
911.03	7023
911.145	6951
911.259	6897
911.374	6894
911.489	6814
911.604	6829
911.718	6749
911.833	6768
911.947	6669
912.062	6658
912.176	6741
912.291	6711
912.405	6696
912.519	6859
912.633	6825
912.748	6760
912.862	6730
912.976	6616
913.09	6532
913.204	6631
913.318	6620
913.431	6703
913.545	6673
913.659	6707
913.772	6639
913.886	6627
914	6559
914.113	6589
914.226	6696
914.34	6631
914.453	6479
914.566	6623
914.68	6559
914.793	6563
914.906	6433
915.019	6441
915.132	6365
915.245	6464
915.358	6486
915.47	6509
915.583	6410
915.696	6441
915.809	6582
915.921	6559
916.034	6433
916.146	6414
916.259	6399
916.371	6536
916.483	6422
916.595	6414
916.708	6464
916.82	6418
916.932	6338
917.044	6422
917.156	6414
917.268	6346
917.38	6365
917.491	6327
917.603	6353
917.715	6391
917.826	6399
917.938	6331
918.049	6273
918.161	6357
918.272	6452
918.384	6426
918.495	6369
918.606	6270
918.717	6159
918.828	6300
918.939	6338
919.05	6167
919.161	6213
919.272	6148
919.383	6110
919.494	6311
919.604	6448
919.715	6331
919.826	6205
919.936	6289
920.047	6319
920.157	6247
920.267	6498
920.378	6304
920.488	6258
920.598	6448
920.708	6532
920.818	6479
920.928	6506
921.038	6608
921.148	6570
921.258	6304
921.368	6331
921.477	6175
921.587	6197
921.697	6125
921.806	6178
921.916	6102
922.025	6045
922.134	5939
922.244	5878
922.353	5950
922.462	5863
922.571	5821
922.68	5737
922.789	5672
922.898	5699
923.007	5619
923.116	5707
923.224	5703
923.333	5665
923.442	5627
923.55	5634
923.659	5604
923.767	5646
923.876	5535
923.984	5653
924.092	5493
924.201	5577
924.309	5532
924.417	5611
924.525	5478
924.633	5505
924.741	6270
924.849	5353
924.956	5478
925.064	5402
925.172	5330
925.279	5341
925.387	5436
925.494	5307
925.602	5471
925.709	5425
925.816	5299
925.924	5334
926.031	5357
926.138	5315
926.245	5311
926.352	5227
926.459	5299
926.566	5414
926.673	5239
926.779	5147
926.886	5143
926.993	5090
927.099	5003
927.206	4957
927.312	4976
927.419	4980
927.525	5025
927.631	5041
927.737	4946
927.843	4873
927.95	4790
928.056	4847
928.162	4873
928.267	4877
928.373	5204
928.479	4850
928.585	4748
928.69	4801
928.796	4782
928.901	4694
929.007	4580
929.112	4733
929.218	4664
929.323	4596
929.428	4588
929.533	4675
929.638	4580
929.743	4493
929.848	4565
929.953	4523
930.058	4455
930.163	4341
930.267	4352
930.372	4428
930.477	4276
930.581	4466
930.685	4402
930.79	4325
930.894	4303
930.998	4284
931.103	4394
931.207	4131
931.311	4090
931.415	4074
931.519	3941
931.623	3949
