Data from glass_V78500241_285.txt Node
Date: Wed Sep 01 19:16:28 CST 2021
User: usil
Spectrometer: V785-0024
Trigger mode: 0
Integration Time (sec): 4.000000E-1
Scans to average: 1
Nonlinearity correction enabled: false
Boxcar width: 0
Storing dark spectrum: false
XAxis mode: Wavelengths
Number of Pixels in Spectrum: 1024
>>>>>Begin Spectral Data<<<<<
801.071	3755
801.214	3785
801.356	3747
801.499	3770
801.641	3759
801.783	3789
801.926	3846
802.068	3869
802.211	3896
802.353	3884
802.496	3835
802.638	3865
802.78	3857
802.923	3960
803.065	3918
803.208	3865
803.35	3876
803.492	3918
803.635	3937
803.777	3785
803.919	3880
804.061	4120
804.204	4017
804.346	3972
804.488	3930
804.63	4048
804.773	3968
804.915	4032
805.057	4109
805.199	4063
805.341	4105
805.483	4120
805.626	4139
805.768	4116
805.91	4276
806.052	4246
806.194	4162
806.336	4348
806.478	4177
806.62	4227
806.762	4261
806.904	4280
807.046	4329
807.188	4177
807.33	4192
807.472	4249
807.614	4249
807.756	4238
807.898	4238
808.04	4272
808.182	4306
808.324	4375
808.465	4398
808.607	4481
808.749	4504
808.891	4508
809.033	4527
809.174	4451
809.316	4219
809.458	4284
809.6	4173
809.741	4135
809.883	4158
810.025	4223
810.166	4211
810.308	4211
810.45	4246
810.591	4211
810.733	4272
810.875	4542
811.016	4847
811.158	5181
811.299	5258
811.441	5318
811.582	5113
811.724	4767
811.865	4508
812.007	4455
812.148	4451
812.29	4436
812.431	4436
812.573	4421
812.714	4394
812.855	4436
812.997	4379
813.138	4459
813.279	4443
813.421	4390
813.562	4394
813.703	4363
813.845	4394
813.986	4299
814.127	4227
814.268	4249
814.41	4322
814.551	4306
814.692	4329
814.833	4261
814.974	4333
815.115	4367
815.256	4291
815.397	4257
815.539	4246
815.68	4192
815.821	4200
815.962	4325
816.103	4314
816.244	4204
816.385	4261
816.526	4276
816.666	4181
816.807	4131
816.948	4200
817.089	4192
817.23	4139
817.371	4086
817.512	4051
817.653	4124
817.793	4013
817.934	4059
818.075	4124
818.216	4071
818.356	4143
818.497	4040
818.638	3918
818.778	3899
818.919	3899
819.06	3899
819.2	3922
819.341	3918
819.481	3819
819.622	3907
819.762	4074
819.903	3968
820.043	3838
820.184	3838
820.324	3857
820.465	3892
820.605	3880
820.746	3857
820.886	3861
821.026	3960
821.167	3930
821.307	3979
821.447	3991
821.588	3972
821.728	3987
821.868	4010
822.008	3888
822.149	3922
822.289	3926
822.429	3778
822.569	3785
822.709	3797
822.849	3743
822.99	3743
823.13	3743
823.27	3808
823.41	3747
823.55	3766
823.69	3774
823.83	3770
823.97	3694
824.11	3610
824.25	3614
824.389	3675
824.529	3667
824.669	3690
824.809	3732
824.949	3759
825.089	3740
825.228	3724
825.368	3591
825.508	3534
825.648	3568
825.787	3610
825.927	3652
826.067	3614
826.206	3694
826.346	3827
826.485	3865
826.625	3907
826.765	3949
826.904	3797
827.044	3599
827.183	3526
827.323	3458
827.462	3526
827.601	3492
827.741	3435
827.88	3492
828.02	3378
828.159	3454
828.298	3485
828.437	3477
828.577	3504
828.716	3625
828.855	3488
828.994	3420
829.134	3397
829.273	3363
829.412	3344
829.551	3355
829.69	3370
829.829	3386
829.968	3553
830.107	3462
830.246	3431
830.385	3393
830.524	3351
830.663	3359
830.802	3256
830.941	3241
831.08	3237
831.219	3272
831.357	3275
831.496	3416
831.635	3233
831.774	3207
831.913	3237
832.051	3131
832.19	3157
832.329	3226
832.467	3146
832.606	3112
832.744	3188
832.883	3211
833.022	3226
833.16	3317
833.299	3283
833.437	3344
833.576	3374
833.714	3443
833.852	3454
833.991	3416
834.129	3481
834.267	3492
834.406	3420
834.544	3439
834.682	3401
834.821	3477
834.959	3534
835.097	3405
835.235	3580
835.373	3504
835.511	3496
835.65	3473
835.788	3488
835.926	3458
836.064	3386
836.202	3435
836.34	3618
836.478	3572
836.615	3572
836.753	3614
836.891	3606
837.029	3633
837.167	3557
837.305	3534
837.443	3557
837.58	3545
837.718	3633
837.856	3576
837.993	3564
838.131	3629
838.269	3644
838.406	3595
838.544	3564
838.681	3469
838.819	3458
838.956	3405
839.094	3428
839.231	3477
839.369	3534
839.506	3736
839.643	3679
839.781	3523
839.918	3481
840.055	3515
840.193	3561
840.33	3568
840.467	3564
840.604	3610
840.742	3804
840.879	3561
841.016	3603
841.153	3644
841.29	3762
841.427	3728
841.564	3724
841.701	3709
841.838	3740
841.975	3701
842.112	3728
842.249	3644
842.385	3648
842.522	3880
842.659	3701
842.796	3667
842.933	3698
843.069	3728
843.206	3694
843.343	3857
843.479	3819
843.616	3846
843.752	3686
843.889	3690
844.025	3842
844.162	3766
844.298	3896
844.435	3854
844.571	3762
844.708	3937
844.844	3998
844.98	3994
845.117	3960
845.253	3922
845.389	3884
845.525	3941
845.661	3987
845.798	3918
845.934	3953
846.07	3983
846.206	4017
846.342	4166
846.478	4048
846.614	3964
846.75	3941
846.886	3903
847.022	4013
847.158	4002
847.294	3991
847.429	4021
847.565	4040
847.701	4276
847.837	3888
847.972	3857
848.108	3998
848.244	3960
848.379	3888
848.515	3827
848.65	3819
848.786	3861
848.921	3838
849.057	3964
849.192	3975
849.328	3930
849.463	3937
849.598	3896
849.734	3899
849.869	3827
850.004	3797
850.14	3854
850.275	3789
850.41	3740
850.545	3774
850.68	3812
850.815	3842
850.95	3800
851.085	3975
851.22	3876
851.355	3838
851.49	3823
851.625	3800
851.76	3854
851.895	3762
852.03	3743
852.165	3823
852.299	3873
852.434	3869
852.569	3827
852.703	3937
852.838	3911
852.973	4006
853.107	4044
853.242	3892
853.376	3857
853.511	3827
853.645	3812
853.78	3998
853.914	3892
854.048	3899
854.183	3846
854.317	3953
854.451	4051
854.585	3972
854.72	3945
854.854	3994
854.988	3937
855.122	4029
855.256	3915
855.39	4048
855.524	4112
855.658	4067
855.792	4116
855.926	4188
856.06	4211
856.194	4234
856.327	4211
856.461	4112
856.595	4215
856.729	4166
856.862	4310
856.996	4249
857.13	4284
857.263	4318
857.397	4356
857.53	4310
857.664	4375
857.797	4402
857.931	4428
858.064	4405
858.197	4436
858.331	4447
858.464	4394
858.597	4360
858.731	4432
858.864	4497
858.997	4466
859.13	4535
859.263	4546
859.396	4599
859.529	4531
859.662	4512
859.795	4550
859.928	4615
860.061	4763
860.194	4782
860.327	4660
860.46	4607
860.592	4729
860.725	4801
860.858	4782
860.99	4710
861.123	4653
861.256	4687
861.388	4778
861.521	5227
861.653	4771
861.786	4656
861.918	4790
862.05	4820
862.183	4866
862.315	4889
862.447	4919
862.58	4896
862.712	4843
862.844	4812
862.976	4892
863.108	4885
863.24	5288
863.372	4873
863.504	4923
863.636	4953
863.768	4961
863.9	4949
864.032	4877
864.164	5014
864.296	5037
864.428	5075
864.559	5083
864.691	5098
864.823	5155
864.954	5159
865.086	5128
865.217	5136
865.349	5109
865.48	5170
865.612	5117
865.743	5292
865.875	5216
866.006	5223
866.137	5277
866.269	5223
866.4	5258
866.531	5303
866.662	5212
866.793	5315
866.924	5307
867.055	5334
867.186	5296
867.317	5315
867.448	5353
867.579	5387
867.71	5376
867.841	5452
867.972	5471
868.103	5509
868.233	5551
868.364	5516
868.495	5547
868.625	5699
868.756	5775
868.886	5733
869.017	5703
869.147	5851
869.278	5878
869.408	5798
869.539	5817
869.669	5927
869.799	5878
869.929	5969
870.06	5999
870.19	6216
870.32	6243
870.45	6254
870.58	6395
870.71	6456
870.84	6479
870.97	6456
871.1	6391
871.23	6692
871.36	6700
871.489	6601
871.619	6795
871.749	6825
871.879	6890
872.008	7019
872.138	6981
872.267	7012
872.397	6985
872.526	7046
872.656	7084
872.785	7244
872.915	7381
873.044	7575
873.173	7571
873.303	7746
873.432	7723
873.561	7845
873.69	7890
873.819	8005
873.948	8164
874.077	8180
874.206	8267
874.335	8461
874.464	8712
874.593	8952
874.722	8971
874.851	9173
874.979	9287
875.108	9473
875.237	9439
875.365	9500
875.494	9606
875.623	9892
875.751	9762
875.88	10006
876.008	10173
876.136	10268
876.265	10577
876.393	10729
876.521	10748
876.65	10831
876.778	10858
876.906	10908
877.034	10919
877.162	11079
877.29	11185
877.418	11326
877.546	11433
877.674	11535
877.802	11600
877.93	11539
878.058	11532
878.185	11520
878.313	11676
878.441	11794
878.568	11737
878.696	11817
878.824	11805
878.951	11942
879.079	12015
879.206	12098
879.333	12076
879.461	11958
879.588	12098
879.715	12053
879.842	12224
879.97	12030
880.097	11893
880.224	11912
880.351	11843
880.478	11916
880.605	11885
880.732	11843
880.859	11969
880.986	11832
881.112	11775
881.239	11859
881.366	11684
881.493	11627
881.619	11512
881.746	11535
881.872	11577
881.999	11440
882.125	11448
882.252	11490
882.378	11581
882.505	11600
882.631	11425
882.757	11258
882.883	11318
883.01	11379
883.136	11197
883.262	11201
883.388	11018
883.514	11181
883.64	11220
883.766	11151
883.892	11064
884.018	10995
884.143	11060
884.269	11071
884.395	10850
884.52	10801
884.646	10744
884.772	10653
884.897	10687
885.023	10630
885.148	10809
885.274	10774
885.399	10786
885.524	10599
885.65	10599
885.775	10599
885.9	10573
886.025	10679
886.15	10588
886.275	10447
886.4	10382
886.525	10379
886.65	10417
886.775	10325
886.9	10481
887.025	10531
887.149	10405
887.274	10211
887.399	10310
887.523	10188
887.648	10093
887.773	10040
887.897	10303
888.021	10242
888.146	10150
888.27	10196
888.395	10257
888.519	10207
888.643	10242
888.767	10196
888.891	10078
889.015	10025
889.139	10147
889.263	9937
889.387	10086
889.511	10177
889.635	10055
889.759	9949
889.883	9964
890.006	10059
890.13	10086
890.254	9953
890.377	9953
890.501	9888
890.624	9911
890.748	9869
890.871	9785
890.995	9781
891.118	9671
891.241	9755
891.364	9713
891.488	9907
891.611	9785
891.734	9762
891.857	9778
891.98	9663
892.103	9762
892.226	9679
892.349	9682
892.471	9572
892.594	9564
892.717	9644
892.839	9641
892.962	9603
893.085	9663
893.207	9606
893.33	9481
893.452	9477
893.575	9599
893.697	9431
893.819	9641
893.941	9641
894.064	9618
894.186	9473
894.308	9462
894.43	9469
894.552	9553
894.674	9553
894.796	9340
894.918	9439
895.04	9412
895.161	9420
895.283	9370
895.405	9249
895.526	9279
895.648	9222
895.769	9207
895.891	9370
896.012	9283
896.134	9306
896.255	9237
896.376	9112
896.498	9218
896.619	9218
896.74	9165
896.861	9043
896.982	9378
897.103	9351
897.224	9112
897.345	9070
897.466	8979
897.587	9074
897.708	9123
897.828	9036
897.949	8975
898.07	8800
898.19	8914
898.311	9020
898.431	8948
898.552	8887
898.672	9005
898.792	8960
898.913	8910
899.033	8842
899.153	8750
899.273	8735
899.393	8754
899.513	8708
899.633	8739
899.753	8735
899.873	8674
899.993	8731
900.113	8674
900.232	8705
900.352	8648
900.472	8632
900.591	8530
900.711	8640
900.83	8587
900.95	8651
901.069	8678
901.189	8575
901.308	8461
901.427	8412
901.546	8465
901.665	8442
901.784	8484
901.904	8408
902.023	8351
902.141	8206
902.26	8225
902.379	8275
902.498	8218
902.617	8252
902.735	8294
902.854	8320
902.973	8248
903.091	8024
903.21	8123
903.328	8134
903.446	8153
903.565	8107
903.683	8084
903.801	7989
903.919	8107
904.038	8130
904.156	8031
904.274	8107
904.392	8084
904.51	8035
904.627	8050
904.745	8145
904.863	8035
904.981	7970
905.098	7849
905.216	7898
905.334	7936
905.451	7883
905.569	7868
905.686	7902
905.803	7928
905.921	7742
906.038	7868
906.155	7807
906.272	7746
906.389	7734
906.506	7681
906.623	7616
906.74	7681
906.857	7518
906.974	7609
907.091	7658
907.208	7693
907.324	7658
907.441	7590
907.557	7460
907.674	7468
907.79	7468
907.907	7434
908.023	7411
908.139	7392
908.256	7362
908.372	7441
908.488	7392
908.604	7297
908.72	7194
908.836	7270
908.952	7293
909.068	7232
909.184	7285
909.3	7221
909.415	7259
909.531	7293
909.647	7103
909.762	7122
909.878	7103
909.993	7133
910.108	7110
910.224	7072
910.339	7084
910.454	7042
910.57	7027
910.685	6932
910.8	7137
910.915	7179
911.03	6970
911.145	6939
911.259	6882
911.374	6901
911.489	6859
911.604	6852
911.718	6711
911.833	6764
911.947	6673
912.062	6642
912.176	6665
912.291	6665
912.405	6741
912.519	6856
912.633	6757
912.748	6768
912.862	6696
912.976	6703
913.09	6559
913.204	6616
913.318	6620
913.431	6722
913.545	6612
913.659	6745
913.772	6639
913.886	6563
914	6563
914.113	6658
914.226	6646
914.34	6578
914.453	6513
914.566	6635
914.68	6551
914.793	6509
914.906	6479
915.019	6452
915.132	6361
915.245	6441
915.358	6483
915.47	6490
915.583	6483
915.696	6486
915.809	6532
915.921	6570
916.034	6403
916.146	6422
916.259	6429
916.371	6464
916.483	6509
916.595	6407
916.708	6418
916.82	6395
916.932	6380
917.044	6429
917.156	6433
917.268	6342
917.38	6350
917.491	6319
917.603	6323
917.715	6422
917.826	6471
917.938	6319
918.049	6270
918.161	6353
918.272	6486
918.384	6456
918.495	6338
918.606	6304
918.717	6251
918.828	6243
918.939	6251
919.05	6285
919.161	6228
919.272	6155
919.383	6140
919.494	6296
919.604	6483
919.715	6334
919.826	6220
919.936	6201
920.047	6334
920.157	6311
920.267	6502
920.378	6338
920.488	6289
920.598	6464
920.708	6582
920.818	6479
920.928	6498
921.038	6627
921.148	6483
921.258	6342
921.368	6308
921.477	6205
921.587	6220
921.697	6121
921.806	6201
921.916	6148
922.025	5980
922.134	5946
922.244	5885
922.353	5973
922.462	5882
922.571	5847
922.68	5733
922.789	5733
922.898	5764
923.007	5657
923.116	5646
923.224	5680
923.333	5653
923.442	5592
923.55	5566
923.659	5608
923.767	5577
923.876	5543
923.984	5585
924.092	5486
924.201	5596
924.309	5566
924.417	5573
924.525	5528
924.633	5562
924.741	6270
924.849	5391
924.956	5474
925.064	5376
925.172	5318
925.279	5311
925.387	5395
925.494	5345
925.602	5459
925.709	5360
925.816	5242
925.924	5360
926.031	5379
926.138	5372
926.245	5341
926.352	5265
926.459	5337
926.566	5402
926.673	5254
926.779	5174
926.886	5105
926.993	5064
927.099	5056
927.206	5014
927.312	5029
927.419	5037
927.525	5018
927.631	5018
927.737	4839
927.843	4877
927.95	4763
928.056	4843
928.162	4801
928.267	4873
928.373	5261
928.479	4892
928.585	4668
928.69	4778
928.796	4828
928.901	4748
929.007	4626
929.112	4679
929.218	4691
929.323	4649
929.428	4618
929.533	4672
929.638	4481
929.743	4565
929.848	4580
929.953	4459
930.058	4474
930.163	4322
930.267	4344
930.372	4409
930.477	4333
930.581	4478
930.685	4363
930.79	4265
930.894	4284
930.998	4223
931.103	4421
931.207	4188
931.311	4120
931.415	4021
931.519	3945
931.623	3960
