Data from glass_V78500241_2391.txt Node
Date: Wed Sep 01 19:31:04 CST 2021
User: usil
Spectrometer: V785-0024
Trigger mode: 0
Integration Time (sec): 4.000000E-1
Scans to average: 1
Nonlinearity correction enabled: false
Boxcar width: 0
Storing dark spectrum: false
XAxis mode: Wavelengths
Number of Pixels in Spectrum: 1024
>>>>>Begin Spectral Data<<<<<
801.071	3740
801.214	3762
801.356	3663
801.499	3724
801.641	3720
801.783	3747
801.926	3880
802.068	3766
802.211	3838
802.353	3888
802.496	3842
802.638	3854
802.78	3865
802.923	3922
803.065	3884
803.208	3850
803.35	3842
803.492	3865
803.635	3918
803.777	3789
803.919	3869
804.061	4147
804.204	3960
804.346	3934
804.488	3892
804.63	4002
804.773	3975
804.915	4017
805.057	4067
805.199	4025
805.341	4044
805.483	4086
805.626	4090
805.768	4090
805.91	4185
806.052	4223
806.194	4261
806.336	4318
806.478	4223
806.62	4177
806.762	4207
806.904	4200
807.046	4337
807.188	4223
807.33	4196
807.472	4230
807.614	4169
807.756	4249
807.898	4173
808.04	4169
808.182	4246
808.324	4310
808.465	4394
808.607	4428
808.749	4409
808.891	4493
809.033	4516
809.174	4409
809.316	4215
809.458	4280
809.6	4169
809.741	4124
809.883	4150
810.025	4158
810.166	4234
810.308	4139
810.45	4200
810.591	4215
810.733	4257
810.875	4516
811.016	4790
811.158	5098
811.299	5261
811.441	5254
811.582	5025
811.724	4698
811.865	4478
812.007	4481
812.148	4417
812.29	4386
812.431	4394
812.573	4436
812.714	4341
812.855	4379
812.997	4394
813.138	4485
813.279	4386
813.421	4386
813.562	4394
813.703	4310
813.845	4314
813.986	4238
814.127	4230
814.268	4249
814.41	4318
814.551	4230
814.692	4341
814.833	4253
814.974	4276
815.115	4337
815.256	4253
815.397	4227
815.539	4188
815.68	4211
815.821	4227
815.962	4310
816.103	4265
816.244	4249
816.385	4192
816.526	4276
816.666	4204
816.807	4112
816.948	4196
817.089	4177
817.23	4090
817.371	4051
817.512	4036
817.653	4078
817.793	4006
817.934	4067
818.075	4074
818.216	4078
818.356	4059
818.497	3953
818.638	3903
818.778	3907
818.919	3880
819.06	3857
819.2	3896
819.341	3876
819.481	3838
819.622	3888
819.762	3994
819.903	3926
820.043	3873
820.184	3797
820.324	3793
820.465	3861
820.605	3876
820.746	3876
820.886	3785
821.026	3899
821.167	3888
821.307	3949
821.447	3975
821.588	3979
821.728	3930
821.868	3911
822.008	3850
822.149	3915
822.289	3915
822.429	3759
822.569	3743
822.709	3778
822.849	3751
822.99	3709
823.13	3724
823.27	3755
823.41	3728
823.55	3732
823.69	3717
823.83	3751
823.97	3667
824.11	3572
824.25	3595
824.389	3648
824.529	3698
824.669	3648
824.809	3728
824.949	3709
825.089	3755
825.228	3709
825.368	3618
825.508	3553
825.648	3553
825.787	3564
825.927	3641
826.067	3603
826.206	3633
826.346	3781
826.485	3797
826.625	3785
826.765	3941
826.904	3831
827.044	3591
827.183	3511
827.323	3439
827.462	3488
827.601	3431
827.741	3428
827.88	3420
828.02	3363
828.159	3435
828.298	3454
828.437	3496
828.577	3530
828.716	3599
828.855	3496
828.994	3378
829.134	3313
829.273	3389
829.412	3367
829.551	3359
829.69	3378
829.829	3397
829.968	3526
830.107	3435
830.246	3450
830.385	3397
830.524	3340
830.663	3253
830.802	3230
830.941	3218
831.08	3211
831.219	3256
831.357	3249
831.496	3378
831.635	3230
831.774	3199
831.913	3180
832.051	3119
832.19	3146
832.329	3165
832.467	3154
832.606	3123
832.744	3203
832.883	3180
833.022	3207
833.16	3218
833.299	3321
833.437	3294
833.576	3405
833.714	3370
833.852	3416
833.991	3450
834.129	3458
834.267	3420
834.406	3386
834.544	3416
834.682	3409
834.821	3409
834.959	3557
835.097	3401
835.235	3500
835.373	3519
835.511	3504
835.65	3466
835.788	3534
835.926	3367
836.064	3367
836.202	3409
836.34	3580
836.478	3564
836.615	3511
836.753	3580
836.891	3641
837.029	3618
837.167	3587
837.305	3549
837.443	3526
837.58	3526
837.718	3549
837.856	3542
837.993	3530
838.131	3610
838.269	3572
838.406	3549
838.544	3553
838.681	3469
838.819	3485
838.956	3367
839.094	3359
839.231	3447
839.369	3485
839.506	3720
839.643	3629
839.781	3462
839.918	3439
840.055	3538
840.193	3549
840.33	3507
840.467	3576
840.604	3561
840.742	3827
840.879	3542
841.016	3610
841.153	3622
841.29	3755
841.427	3724
841.564	3720
841.701	3709
841.838	3679
841.975	3629
842.112	3720
842.249	3618
842.385	3606
842.522	3800
842.659	3701
842.796	3648
842.933	3709
843.069	3720
843.206	3694
843.343	3800
843.479	3823
843.616	3800
843.752	3675
843.889	3686
844.025	3819
844.162	3720
844.298	3884
844.435	3770
844.571	3804
844.708	3896
844.844	3983
844.98	4013
845.117	4002
845.253	3930
845.389	3911
845.525	3960
845.661	3934
845.798	3930
845.934	3987
846.07	3930
846.206	4067
846.342	4116
846.478	4101
846.614	3934
846.75	3903
846.886	3903
847.022	3983
847.158	3953
847.294	3956
847.429	4002
847.565	3994
847.701	4215
847.837	3823
847.972	3850
848.108	3968
848.244	3987
848.379	3892
848.515	3846
848.65	3804
848.786	3846
848.921	3854
849.057	3945
849.192	3907
849.328	3926
849.463	3892
849.598	3869
849.734	3827
849.869	3808
850.004	3770
850.14	3831
850.275	3755
850.41	3720
850.545	3743
850.68	3762
850.815	3770
850.95	3785
851.085	3903
851.22	3861
851.355	3797
851.49	3812
851.625	3724
851.76	3804
851.895	3724
852.03	3717
852.165	3819
852.299	3857
852.434	3888
852.569	3838
852.703	3876
852.838	3926
852.973	3968
853.107	3983
853.242	3865
853.376	3831
853.511	3766
853.645	3850
853.78	3979
853.914	3861
854.048	3884
854.183	3876
854.317	3934
854.451	4051
854.585	3930
854.72	3922
854.854	4044
854.988	3922
855.122	4017
855.256	3918
855.39	4032
855.524	4109
855.658	4082
855.792	4059
855.926	4101
856.06	4154
856.194	4192
856.327	4116
856.461	4090
856.595	4131
856.729	4177
856.862	4314
856.996	4215
857.13	4306
857.263	4333
857.397	4325
857.53	4287
857.664	4356
857.797	4341
857.931	4451
858.064	4375
858.197	4402
858.331	4398
858.464	4352
858.597	4348
858.731	4428
858.864	4447
858.997	4474
859.13	4474
859.263	4538
859.396	4558
859.529	4497
859.662	4542
859.795	4489
859.928	4546
860.061	4714
860.194	4721
860.327	4637
860.46	4641
860.592	4793
860.725	4801
860.858	4744
860.99	4668
861.123	4683
861.256	4744
861.388	4786
861.521	5505
861.653	4736
861.786	4675
861.918	4752
862.05	4767
862.183	4847
862.315	4877
862.447	4938
862.58	4858
862.712	4759
862.844	4771
862.976	4873
863.108	4854
863.24	5231
863.372	4828
863.504	4839
863.636	4908
863.768	4949
863.9	4949
864.032	4896
864.164	4927
864.296	5045
864.428	5064
864.559	5079
864.691	5098
864.823	5117
864.954	5162
865.086	5124
865.217	5083
865.349	5105
865.48	5181
865.612	5174
865.743	5231
865.875	5170
866.006	5197
866.137	5204
866.269	5242
866.4	5216
866.531	5193
866.662	5204
866.793	5246
866.924	5261
867.055	5311
867.186	5292
867.317	5334
867.448	5288
867.579	5322
867.71	5398
867.841	5353
867.972	5429
868.103	5467
868.233	5509
868.364	5516
868.495	5551
868.625	5676
868.756	5726
868.886	5623
869.017	5745
869.147	5863
869.278	5916
869.408	5855
869.539	5790
869.669	5931
869.799	5939
869.929	6003
870.06	5988
870.19	6159
870.32	6171
870.45	6262
870.58	6338
870.71	6380
870.84	6395
870.97	6395
871.1	6437
871.23	6681
871.36	6631
871.489	6635
871.619	6738
871.749	6795
871.879	6875
872.008	7027
872.138	6939
872.267	6996
872.397	6947
872.526	7061
872.656	7076
872.785	7160
872.915	7354
873.044	7552
873.173	7556
873.303	7537
873.432	7795
873.561	7841
873.69	7944
873.819	8050
873.948	8180
874.077	8244
874.206	8320
874.335	8492
874.464	8632
874.593	8861
874.722	8960
874.851	9150
874.979	9218
875.108	9348
875.237	9363
875.365	9511
875.494	9610
875.623	9785
875.751	9869
875.88	9987
876.008	10131
876.136	10329
876.265	10497
876.393	10664
876.521	10733
876.65	10771
876.778	10896
876.906	10858
877.034	10987
877.162	11090
877.29	11136
877.418	11288
877.546	11292
877.674	11467
877.802	11509
877.93	11471
878.058	11566
878.185	11512
878.313	11729
878.441	11737
878.568	11611
878.696	11821
878.824	11866
878.951	11965
879.079	12076
879.206	12064
879.333	12022
879.461	12019
879.588	12125
879.715	12117
879.842	12209
879.97	12026
880.097	11931
880.224	11855
880.351	11920
880.478	11859
880.605	11756
880.732	11828
880.859	11901
880.986	11790
881.112	11866
881.239	11760
881.366	11688
881.493	11592
881.619	11497
881.746	11493
881.872	11585
881.999	11547
882.125	11505
882.252	11528
882.378	11547
882.505	11611
882.631	11436
882.757	11322
882.883	11246
883.01	11197
883.136	11197
883.262	11178
883.388	11132
883.514	11151
883.64	11147
883.766	11064
883.892	10965
884.018	10942
884.143	11048
884.269	11071
884.395	10881
884.52	10771
884.646	10782
884.772	10706
884.897	10542
885.023	10645
885.148	10710
885.274	10816
885.399	10717
885.524	10649
885.65	10409
885.775	10527
885.9	10538
886.025	10569
886.15	10580
886.275	10531
886.4	10371
886.525	10371
886.65	10428
886.775	10246
886.9	10508
887.025	10592
887.149	10360
887.274	10325
887.399	10200
887.523	10215
887.648	10192
887.773	10177
887.897	10280
888.021	10280
888.146	10116
888.27	10276
888.395	10295
888.519	10143
888.643	10223
888.767	10147
888.891	10067
889.015	10017
889.139	9983
889.263	9899
889.387	10059
889.511	10082
889.635	10036
889.759	9945
889.883	9994
890.006	10017
890.13	10105
890.254	9930
890.377	9949
890.501	9770
890.624	9899
890.748	9842
890.871	9876
890.995	9793
891.118	9660
891.241	9759
891.364	9732
891.488	9778
891.611	9717
891.734	9675
891.857	9755
891.98	9736
892.103	9816
892.226	9622
892.349	9694
892.471	9523
892.594	9523
892.717	9584
892.839	9610
892.962	9526
893.085	9625
893.207	9492
893.33	9477
893.452	9545
893.575	9606
893.697	9477
893.819	9614
893.941	9584
894.064	9564
894.186	9424
894.308	9435
894.43	9485
894.552	9568
894.674	9564
894.796	9344
894.918	9386
895.04	9348
895.161	9348
895.283	9374
895.405	9230
895.526	9264
895.648	9241
895.769	9233
895.891	9302
896.012	9306
896.134	9188
896.255	9112
896.376	9055
896.498	9138
896.619	9039
896.74	9043
896.861	9036
896.982	9241
897.103	9298
897.224	9146
897.345	9055
897.466	9043
897.587	8967
897.708	9020
897.828	9028
897.949	8918
898.07	8861
898.19	8902
898.311	8998
898.431	8834
898.552	8963
898.672	9009
898.792	8918
898.913	8872
899.033	8701
899.153	8678
899.273	8632
899.393	8697
899.513	8777
899.633	8769
899.753	8731
899.873	8735
899.993	8743
900.113	8579
900.232	8712
900.352	8602
900.472	8571
900.591	8503
900.711	8552
900.83	8507
900.95	8636
901.069	8712
901.189	8518
901.308	8499
901.427	8415
901.546	8450
901.665	8412
901.784	8427
901.904	8415
902.023	8317
902.141	8263
902.26	8145
902.379	8259
902.498	8298
902.617	8279
902.735	8393
902.854	8290
902.973	8248
903.091	8115
903.21	8119
903.328	8119
903.446	8073
903.565	8126
903.683	8100
903.801	8069
903.919	8100
904.038	8103
904.156	8001
904.274	8084
904.392	7963
904.51	8027
904.627	7993
904.745	8065
904.863	8134
904.981	7898
905.098	7906
905.216	7814
905.334	7932
905.451	7909
905.569	7898
905.686	7936
905.803	7917
905.921	7776
906.038	7822
906.155	7738
906.272	7689
906.389	7670
906.506	7636
906.623	7609
906.74	7616
906.857	7563
906.974	7548
907.091	7643
907.208	7696
907.324	7643
907.441	7529
907.557	7464
907.674	7476
907.79	7381
907.907	7377
908.023	7460
908.139	7403
908.256	7403
908.372	7324
908.488	7358
908.604	7247
908.72	7244
908.836	7228
908.952	7240
909.068	7232
909.184	7282
909.3	7175
909.415	7324
909.531	7247
909.647	7122
909.762	7126
909.878	7095
909.993	7095
910.108	7038
910.224	7050
910.339	7084
910.454	7023
910.57	7004
910.685	6928
910.8	7107
910.915	7080
911.03	7012
911.145	6863
911.259	6890
911.374	6897
911.489	6818
911.604	6886
911.718	6722
911.833	6688
911.947	6669
912.062	6612
912.176	6677
912.291	6627
912.405	6677
912.519	6821
912.633	6844
912.748	6722
912.862	6654
912.976	6551
913.09	6532
913.204	6570
913.318	6612
913.431	6673
913.545	6692
913.659	6711
913.772	6665
913.886	6604
914	6532
914.113	6620
914.226	6631
914.34	6593
914.453	6452
914.566	6566
914.68	6555
914.793	6559
914.906	6395
915.019	6433
915.132	6327
915.245	6395
915.358	6452
915.47	6448
915.583	6426
915.696	6422
915.809	6547
915.921	6521
916.034	6414
916.146	6410
916.259	6384
916.371	6467
916.483	6433
916.595	6327
916.708	6376
916.82	6410
916.932	6331
917.044	6315
917.156	6391
917.268	6308
917.38	6384
917.491	6311
917.603	6342
917.715	6433
917.826	6452
917.938	6357
918.049	6243
918.161	6384
918.272	6403
918.384	6418
918.495	6350
918.606	6292
918.717	6235
918.828	6258
918.939	6285
919.05	6175
919.161	6262
919.272	6076
919.383	6129
919.494	6289
919.604	6391
919.715	6247
919.826	6216
919.936	6273
920.047	6300
920.157	6270
920.267	6460
920.378	6315
920.488	6247
920.598	6426
920.708	6574
920.818	6437
920.928	6467
921.038	6635
921.148	6509
921.258	6357
921.368	6327
921.477	6220
921.587	6155
921.697	6102
921.806	6159
921.916	6114
922.025	5923
922.134	5920
922.244	5851
922.353	5923
922.462	5794
922.571	5756
922.68	5752
922.789	5676
922.898	5684
923.007	5596
923.116	5676
923.224	5699
923.333	5672
923.442	5570
923.55	5608
923.659	5539
923.767	5649
923.876	5535
923.984	5554
924.092	5486
924.201	5524
924.309	5547
924.417	5558
924.525	5467
924.633	5497
924.741	6228
924.849	5337
924.956	5448
925.064	5334
925.172	5303
925.279	5284
925.387	5337
925.494	5357
925.602	5406
925.709	5383
925.816	5242
925.924	5318
926.031	5334
926.138	5273
926.245	5341
926.352	5227
926.459	5250
926.566	5360
926.673	5178
926.779	5075
926.886	5113
926.993	5052
927.099	4957
927.206	4927
927.312	4957
927.419	4995
927.525	4949
927.631	4938
927.737	4900
927.843	4900
927.95	4786
928.056	4816
928.162	4790
928.267	4824
928.373	5220
928.479	4820
928.585	4687
928.69	4710
928.796	4767
928.901	4702
929.007	4618
929.112	4637
929.218	4599
929.323	4573
929.428	4588
929.533	4679
929.638	4519
929.743	4516
929.848	4523
929.953	4493
930.058	4466
930.163	4303
930.267	4329
930.372	4462
930.477	4261
930.581	4462
930.685	4341
930.79	4246
930.894	4253
930.998	4246
931.103	4379
931.207	4071
931.311	4082
931.415	4025
931.519	3915
931.623	3953
