Data from glass_V78500241_1848.txt Node
Date: Wed Sep 01 19:27:18 CST 2021
User: usil
Spectrometer: V785-0024
Trigger mode: 0
Integration Time (sec): 4.000000E-1
Scans to average: 1
Nonlinearity correction enabled: false
Boxcar width: 0
Storing dark spectrum: false
XAxis mode: Wavelengths
Number of Pixels in Spectrum: 1024
>>>>>Begin Spectral Data<<<<<
801.071	3740
801.214	3774
801.356	3720
801.499	3724
801.641	3709
801.783	3755
801.926	3850
802.068	3823
802.211	3876
802.353	3911
802.496	3812
802.638	3861
802.78	3930
802.923	3899
803.065	3941
803.208	3823
803.35	3876
803.492	3892
803.635	3896
803.777	3808
803.919	3903
804.061	4150
804.204	3983
804.346	3934
804.488	3926
804.63	4025
804.773	3956
804.915	4036
805.057	4162
805.199	4013
805.341	4090
805.483	4147
805.626	4120
805.768	4101
805.91	4204
806.052	4238
806.194	4223
806.336	4325
806.478	4207
806.62	4131
806.762	4223
806.904	4261
807.046	4310
807.188	4230
807.33	4181
807.472	4261
807.614	4211
807.756	4265
807.898	4234
808.04	4162
808.182	4249
808.324	4280
808.465	4363
808.607	4447
808.749	4443
808.891	4440
809.033	4546
809.174	4398
809.316	4284
809.458	4261
809.6	4128
809.741	4128
809.883	4139
810.025	4200
810.166	4257
810.308	4246
810.45	4257
810.591	4188
810.733	4246
810.875	4535
811.016	4793
811.158	5117
811.299	5265
811.441	5231
811.582	5071
811.724	4759
811.865	4470
812.007	4466
812.148	4451
812.29	4386
812.431	4409
812.573	4409
812.714	4322
812.855	4379
812.997	4348
813.138	4470
813.279	4390
813.421	4375
813.562	4375
813.703	4337
813.845	4383
813.986	4303
814.127	4207
814.268	4268
814.41	4303
814.551	4306
814.692	4329
814.833	4242
814.974	4318
815.115	4341
815.256	4272
815.397	4253
815.539	4207
815.68	4204
815.821	4204
815.962	4314
816.103	4287
816.244	4204
816.385	4219
816.526	4234
816.666	4162
816.807	4051
816.948	4185
817.089	4181
817.23	4128
817.371	4010
817.512	4036
817.653	4082
817.793	4013
817.934	4048
818.075	4067
818.216	4071
818.356	4029
818.497	3975
818.638	3953
818.778	3934
818.919	3888
819.06	3873
819.2	3926
819.341	3850
819.481	3842
819.622	3907
819.762	4013
819.903	3911
820.043	3903
820.184	3793
820.324	3808
820.465	3846
820.605	3857
820.746	3880
820.886	3797
821.026	3926
821.167	3915
821.307	3991
821.447	3941
821.588	3975
821.728	3937
821.868	3918
822.008	3835
822.149	3876
822.289	3918
822.429	3789
822.569	3774
822.709	3827
822.849	3698
822.99	3732
823.13	3747
823.27	3797
823.41	3694
823.55	3720
823.69	3713
823.83	3720
823.97	3644
824.11	3595
824.25	3595
824.389	3614
824.529	3641
824.669	3610
824.809	3686
824.949	3759
825.089	3698
825.228	3736
825.368	3591
825.508	3576
825.648	3584
825.787	3572
825.927	3610
826.067	3603
826.206	3652
826.346	3751
826.485	3865
826.625	3838
826.765	3903
826.904	3819
827.044	3584
827.183	3542
827.323	3454
827.462	3435
827.601	3443
827.741	3405
827.88	3462
828.02	3389
828.159	3431
828.298	3481
828.437	3530
828.577	3443
828.716	3587
828.855	3507
828.994	3397
829.134	3363
829.273	3378
829.412	3367
829.551	3321
829.69	3336
829.829	3439
829.968	3488
830.107	3447
830.246	3462
830.385	3397
830.524	3363
830.663	3275
830.802	3302
830.941	3199
831.08	3214
831.219	3207
831.357	3256
831.496	3416
831.635	3287
831.774	3199
831.913	3207
832.051	3127
832.19	3150
832.329	3184
832.467	3123
832.606	3119
832.744	3146
832.883	3146
833.022	3173
833.16	3245
833.299	3287
833.437	3321
833.576	3382
833.714	3412
833.852	3412
833.991	3439
834.129	3443
834.267	3450
834.406	3416
834.544	3428
834.682	3450
834.821	3393
834.959	3572
835.097	3412
835.235	3530
835.373	3481
835.511	3507
835.65	3462
835.788	3485
835.926	3393
836.064	3382
836.202	3420
836.34	3580
836.478	3614
836.615	3557
836.753	3637
836.891	3648
837.029	3595
837.167	3580
837.305	3523
837.443	3523
837.58	3500
837.718	3599
837.856	3534
837.993	3530
838.131	3599
838.269	3610
838.406	3591
838.544	3557
838.681	3488
838.819	3454
838.956	3363
839.094	3405
839.231	3431
839.369	3511
839.506	3686
839.643	3603
839.781	3481
839.918	3458
840.055	3523
840.193	3534
840.33	3485
840.467	3542
840.604	3580
840.742	3835
840.879	3545
841.016	3557
841.153	3595
841.29	3713
841.427	3690
841.564	3766
841.701	3751
841.838	3686
841.975	3679
842.112	3759
842.249	3644
842.385	3603
842.522	3838
842.659	3701
842.796	3633
842.933	3698
843.069	3743
843.206	3705
843.343	3804
843.479	3743
843.616	3812
843.752	3652
843.889	3667
844.025	3865
844.162	3679
844.298	3838
844.435	3766
844.571	3770
844.708	3899
844.844	3983
844.98	4017
845.117	4029
845.253	3930
845.389	3903
845.525	3926
845.661	3949
845.798	3876
845.934	3987
846.07	3941
846.206	4093
846.342	4120
846.478	4063
846.614	3945
846.75	3953
846.886	3899
847.022	4021
847.158	3956
847.294	4013
847.429	4021
847.565	3975
847.701	4196
847.837	3880
847.972	3888
848.108	3983
848.244	3930
848.379	3842
848.515	3838
848.65	3800
848.786	3850
848.921	3819
849.057	3918
849.192	3945
849.328	3876
849.463	3934
849.598	3896
849.734	3835
849.869	3819
850.004	3759
850.14	3842
850.275	3804
850.41	3724
850.545	3732
850.68	3774
850.815	3766
850.95	3770
851.085	3941
851.22	3846
851.355	3838
851.49	3804
851.625	3793
851.76	3808
851.895	3755
852.03	3751
852.165	3808
852.299	3854
852.434	3907
852.569	3899
852.703	3835
852.838	3918
852.973	3975
853.107	4017
853.242	3903
853.376	3846
853.511	3766
853.645	3804
853.78	3964
853.914	3899
854.048	3911
854.183	3880
854.317	4006
854.451	4059
854.585	3930
854.72	3926
854.854	4051
854.988	3926
855.122	3987
855.256	3960
855.39	3975
855.524	4090
855.658	4120
855.792	4078
855.926	4131
856.06	4166
856.194	4181
856.327	4135
856.461	4116
856.595	4112
856.729	4188
856.862	4276
856.996	4242
857.13	4272
857.263	4322
857.397	4371
857.53	4284
857.664	4379
857.797	4379
857.931	4478
858.064	4417
858.197	4413
858.331	4375
858.464	4386
858.597	4306
858.731	4421
858.864	4504
858.997	4478
859.13	4531
859.263	4577
859.396	4588
859.529	4535
859.662	4531
859.795	4504
859.928	4626
860.061	4672
860.194	4763
860.327	4599
860.46	4630
860.592	4736
860.725	4744
860.858	4763
860.99	4694
861.123	4694
861.256	4675
861.388	4774
861.521	5395
861.653	4752
861.786	4714
861.918	4778
862.05	4805
862.183	4892
862.315	4896
862.447	4892
862.58	4896
862.712	4790
862.844	4797
862.976	4896
863.108	4828
863.24	5250
863.372	4805
863.504	4965
863.636	4866
863.768	4987
863.9	5022
864.032	4927
864.164	4965
864.296	4965
864.428	5098
864.559	5121
864.691	5067
864.823	5121
864.954	5197
865.086	5159
865.217	5094
865.349	5060
865.48	5147
865.612	5189
865.743	5311
865.875	5193
866.006	5162
866.137	5185
866.269	5242
866.4	5250
866.531	5212
866.662	5246
866.793	5250
866.924	5280
867.055	5330
867.186	5334
867.317	5261
867.448	5315
867.579	5364
867.71	5364
867.841	5391
867.972	5471
868.103	5459
868.233	5505
868.364	5509
868.495	5573
868.625	5642
868.756	5783
868.886	5653
869.017	5748
869.147	5828
869.278	5824
869.408	5764
869.539	5760
869.669	5916
869.799	5893
869.929	5961
870.06	6076
870.19	6171
870.32	6178
870.45	6285
870.58	6395
870.71	6429
870.84	6448
870.97	6418
871.1	6475
871.23	6658
871.36	6688
871.489	6642
871.619	6665
871.749	6776
871.879	6848
872.008	6905
872.138	6928
872.267	7008
872.397	6920
872.526	7004
872.656	7069
872.785	7213
872.915	7346
873.044	7499
873.173	7552
873.303	7605
873.432	7788
873.561	7951
873.69	7951
873.819	8012
873.948	8195
874.077	8282
874.206	8339
874.335	8438
874.464	8670
874.593	8883
874.722	8941
874.851	9138
874.979	9294
875.108	9329
875.237	9408
875.365	9488
875.494	9690
875.623	9827
875.751	9797
875.88	9991
876.008	10166
876.136	10234
876.265	10554
876.393	10702
876.521	10672
876.65	10854
876.778	10816
876.906	10820
877.034	10923
877.162	11086
877.29	11162
877.418	11315
877.546	11360
877.674	11509
877.802	11474
877.93	11520
878.058	11501
878.185	11532
878.313	11695
878.441	11771
878.568	11813
878.696	11863
878.824	11893
878.951	11901
879.079	12015
879.206	12125
879.333	12068
879.461	11977
879.588	12079
879.715	12026
879.842	12201
879.97	12121
880.097	11901
880.224	11764
880.351	11878
880.478	11851
880.605	11855
880.732	11866
880.859	12019
880.986	11828
881.112	11805
881.239	11707
881.366	11695
881.493	11638
881.619	11543
881.746	11570
881.872	11543
881.999	11547
882.125	11467
882.252	11570
882.378	11505
882.505	11558
882.631	11387
882.757	11235
882.883	11330
883.01	11269
883.136	11197
883.262	11079
883.388	11136
883.514	11220
883.64	11223
883.766	11121
883.892	10987
884.018	10980
884.143	11033
884.269	11045
884.395	10835
884.52	10748
884.646	10763
884.772	10622
884.897	10691
885.023	10725
885.148	10763
885.274	10752
885.399	10634
885.524	10577
885.65	10611
885.775	10691
885.9	10538
886.025	10626
886.15	10474
886.275	10489
886.4	10405
886.525	10386
886.65	10424
886.775	10333
886.9	10428
887.025	10466
887.149	10344
887.274	10257
887.399	10196
887.523	10166
887.648	10227
887.773	10078
887.897	10223
888.021	10227
888.146	10154
888.27	10234
888.395	10143
888.519	10120
888.643	10147
888.767	10131
888.891	10051
889.015	10017
889.139	10010
889.263	10078
889.387	10010
889.511	10044
889.635	10093
889.759	9994
889.883	9956
890.006	9956
890.13	10029
890.254	9960
890.377	9983
890.501	9838
890.624	9816
890.748	9960
890.871	9781
890.995	9705
891.118	9682
891.241	9781
891.364	9713
891.488	9827
891.611	9709
891.734	9747
891.857	9713
891.98	9732
892.103	9865
892.226	9736
892.349	9656
892.471	9534
892.594	9568
892.717	9610
892.839	9538
892.962	9572
893.085	9625
893.207	9534
893.33	9466
893.452	9511
893.575	9507
893.697	9523
893.819	9557
893.941	9652
894.064	9557
894.186	9428
894.308	9439
894.43	9542
894.552	9500
894.674	9462
894.796	9420
894.918	9329
895.04	9397
895.161	9458
895.283	9367
895.405	9188
895.526	9245
895.648	9214
895.769	9279
895.891	9302
896.012	9260
896.134	9283
896.255	9222
896.376	9100
896.498	9154
896.619	9150
896.74	9077
896.861	9043
896.982	9157
897.103	9253
897.224	9138
897.345	9043
897.466	8990
897.587	9055
897.708	9116
897.828	8990
897.949	8918
898.07	8857
898.19	8918
898.311	9066
898.431	8937
898.552	8944
898.672	8956
898.792	8971
898.913	8880
899.033	8849
899.153	8766
899.273	8754
899.393	8735
899.513	8724
899.633	8735
899.753	8762
899.873	8644
899.993	8743
900.113	8667
900.232	8716
900.352	8697
900.472	8587
900.591	8587
900.711	8621
900.83	8568
900.95	8674
901.069	8648
901.189	8522
901.308	8465
901.427	8396
901.546	8400
901.665	8423
901.784	8465
901.904	8298
902.023	8305
902.141	8225
902.26	8183
902.379	8282
902.498	8145
902.617	8195
902.735	8347
902.854	8282
902.973	8267
903.091	8172
903.21	8103
903.328	8111
903.446	8149
903.565	8130
903.683	8092
903.801	8001
903.919	8145
904.038	8100
904.156	8054
904.274	8107
904.392	7993
904.51	8065
904.627	8020
904.745	8062
904.863	8103
904.981	7826
905.098	7871
905.216	7830
905.334	7875
905.451	7890
905.569	7818
905.686	7932
905.803	7921
905.921	7772
906.038	7883
906.155	7795
906.272	7681
906.389	7708
906.506	7597
906.623	7567
906.74	7571
906.857	7521
906.974	7540
907.091	7655
907.208	7685
907.324	7670
907.441	7556
907.557	7365
907.674	7434
907.79	7422
907.907	7388
908.023	7453
908.139	7407
908.256	7354
908.372	7354
908.488	7373
908.604	7202
908.72	7164
908.836	7293
908.952	7270
909.068	7202
909.184	7308
909.3	7236
909.415	7312
909.531	7255
909.647	7118
909.762	7149
909.878	7141
909.993	7141
910.108	7076
910.224	7114
910.339	7118
910.454	7031
910.57	6996
910.685	6981
910.8	7149
910.915	7122
911.03	7126
911.145	6886
911.259	6859
911.374	6871
911.489	6837
911.604	6825
911.718	6722
911.833	6760
911.947	6631
912.062	6597
912.176	6707
912.291	6802
912.405	6646
912.519	6852
912.633	6871
912.748	6745
912.862	6734
912.976	6601
913.09	6566
913.204	6620
913.318	6608
913.431	6677
913.545	6719
913.659	6753
913.772	6620
913.886	6593
914	6547
914.113	6662
914.226	6665
914.34	6639
914.453	6471
914.566	6551
914.68	6502
914.793	6536
914.906	6486
915.019	6395
915.132	6346
915.245	6456
915.358	6422
915.47	6407
915.583	6426
915.696	6471
915.809	6578
915.921	6502
916.034	6460
916.146	6410
916.259	6365
916.371	6498
916.483	6521
916.595	6384
916.708	6448
916.82	6433
916.932	6380
917.044	6399
917.156	6357
917.268	6365
917.38	6334
917.491	6407
917.603	6308
917.715	6452
917.826	6380
917.938	6388
918.049	6300
918.161	6369
918.272	6467
918.384	6395
918.495	6388
918.606	6273
918.717	6216
918.828	6300
918.939	6292
919.05	6251
919.161	6251
919.272	6159
919.383	6159
919.494	6281
919.604	6464
919.715	6331
919.826	6190
919.936	6235
920.047	6315
920.157	6197
920.267	6395
920.378	6315
920.488	6300
920.598	6437
920.708	6525
920.818	6528
920.928	6460
921.038	6589
921.148	6536
921.258	6365
921.368	6338
921.477	6186
921.587	6194
921.697	6121
921.806	6186
921.916	6045
922.025	5927
922.134	5973
922.244	5897
922.353	5939
922.462	5828
922.571	5802
922.68	5707
922.789	5684
922.898	5695
923.007	5657
923.116	5722
923.224	5649
923.333	5672
923.442	5604
923.55	5535
923.659	5592
923.767	5577
923.876	5558
923.984	5581
924.092	5497
924.201	5562
924.309	5493
924.417	5543
924.525	5501
924.633	5532
924.741	6254
924.849	5357
924.956	5478
925.064	5311
925.172	5330
925.279	5292
925.387	5353
925.494	5372
925.602	5414
925.709	5391
925.816	5273
925.924	5296
926.031	5345
926.138	5376
926.245	5322
926.352	5185
926.459	5372
926.566	5357
926.673	5193
926.779	5170
926.886	5136
926.993	4999
927.099	5010
927.206	4934
927.312	4987
927.419	4995
927.525	5037
927.631	4972
927.737	4881
927.843	4862
927.95	4790
928.056	4839
928.162	4774
928.267	4828
928.373	5280
928.479	4839
928.585	4698
928.69	4786
928.796	4805
928.901	4691
929.007	4531
929.112	4656
929.218	4675
929.323	4588
929.428	4561
929.533	4653
929.638	4542
929.743	4558
929.848	4580
929.953	4500
930.058	4440
930.163	4287
930.267	4348
930.372	4443
930.477	4303
930.581	4440
930.685	4348
930.79	4249
930.894	4287
930.998	4253
931.103	4356
931.207	4135
931.311	4051
931.415	4048
931.519	3960
931.623	3926
