Data from glass_V78500241_257.txt Node
Date: Wed Sep 01 19:16:16 CST 2021
User: usil
Spectrometer: V785-0024
Trigger mode: 0
Integration Time (sec): 4.000000E-1
Scans to average: 1
Nonlinearity correction enabled: false
Boxcar width: 0
Storing dark spectrum: false
XAxis mode: Wavelengths
Number of Pixels in Spectrum: 1024
>>>>>Begin Spectral Data<<<<<
801.071	3747
801.214	3762
801.356	3743
801.499	3759
801.641	3747
801.783	3747
801.926	3880
802.068	3831
802.211	3896
802.353	3907
802.496	3854
802.638	3941
802.78	3964
802.923	3953
803.065	3899
803.208	3876
803.35	3915
803.492	3915
803.635	3979
803.777	3800
803.919	3934
804.061	4166
804.204	3994
804.346	3949
804.488	3964
804.63	4063
804.773	3972
804.915	4055
805.057	4162
805.199	4025
805.341	4055
805.483	4109
805.626	4166
805.768	4131
805.91	4234
806.052	4238
806.194	4249
806.336	4344
806.478	4219
806.62	4215
806.762	4230
806.904	4242
807.046	4367
807.188	4238
807.33	4200
807.472	4223
807.614	4223
807.756	4242
807.898	4215
808.04	4242
808.182	4318
808.324	4306
808.465	4360
808.607	4500
808.749	4451
808.891	4474
809.033	4558
809.174	4451
809.316	4322
809.458	4242
809.6	4169
809.741	4196
809.883	4192
810.025	4234
810.166	4211
810.308	4230
810.45	4265
810.591	4276
810.733	4306
810.875	4531
811.016	4790
811.158	5128
811.299	5284
811.441	5269
811.582	5098
811.724	4740
811.865	4443
812.007	4493
812.148	4440
812.29	4398
812.431	4394
812.573	4383
812.714	4402
812.855	4417
812.997	4440
813.138	4485
813.279	4394
813.421	4413
813.562	4390
813.703	4363
813.845	4318
813.986	4246
814.127	4242
814.268	4299
814.41	4344
814.551	4276
814.692	4295
814.833	4318
814.974	4299
815.115	4402
815.256	4265
815.397	4223
815.539	4234
815.68	4158
815.821	4249
815.962	4337
816.103	4268
816.244	4249
816.385	4234
816.526	4268
816.666	4265
816.807	4097
816.948	4162
817.089	4242
817.23	4139
817.371	4086
817.512	4112
817.653	4071
817.793	4048
817.934	4078
818.075	4128
818.216	4082
818.356	4131
818.497	4006
818.638	3899
818.778	3930
818.919	3926
819.06	3869
819.2	3911
819.341	3888
819.481	3823
819.622	3934
819.762	3987
819.903	3975
820.043	3915
820.184	3861
820.324	3816
820.465	3899
820.605	3892
820.746	3854
820.886	3808
821.026	3903
821.167	3922
821.307	4040
821.447	3994
821.588	3945
821.728	3987
821.868	3987
822.008	3899
822.149	3899
822.289	3930
822.429	3823
822.569	3759
822.709	3816
822.849	3701
822.99	3682
823.13	3793
823.27	3789
823.41	3755
823.55	3781
823.69	3762
823.83	3762
823.97	3682
824.11	3633
824.25	3580
824.389	3652
824.529	3736
824.669	3652
824.809	3705
824.949	3751
825.089	3740
825.228	3736
825.368	3595
825.508	3572
825.648	3564
825.787	3576
825.927	3625
826.067	3667
826.206	3686
826.346	3778
826.485	3846
826.625	3846
826.765	3956
826.904	3876
827.044	3641
827.183	3576
827.323	3507
827.462	3492
827.601	3435
827.741	3431
827.88	3485
828.02	3409
828.159	3443
828.298	3469
828.437	3572
828.577	3492
828.716	3622
828.855	3492
828.994	3382
829.134	3386
829.273	3389
829.412	3355
829.551	3359
829.69	3370
829.829	3424
829.968	3523
830.107	3462
830.246	3447
830.385	3405
830.524	3397
830.663	3348
830.802	3291
830.941	3218
831.08	3180
831.219	3287
831.357	3287
831.496	3405
831.635	3256
831.774	3195
831.913	3249
832.051	3123
832.19	3138
832.329	3230
832.467	3173
832.606	3100
832.744	3188
832.883	3222
833.022	3211
833.16	3283
833.299	3317
833.437	3370
833.576	3374
833.714	3428
833.852	3439
833.991	3469
834.129	3473
834.267	3469
834.406	3450
834.544	3443
834.682	3462
834.821	3405
834.959	3580
835.097	3450
835.235	3553
835.373	3564
835.511	3534
835.65	3481
835.788	3523
835.926	3401
836.064	3397
836.202	3401
836.34	3572
836.478	3622
836.615	3580
836.753	3568
836.891	3637
837.029	3633
837.167	3591
837.305	3576
837.443	3576
837.58	3542
837.718	3599
837.856	3584
837.993	3542
838.131	3595
838.269	3610
838.406	3599
838.544	3618
838.681	3477
838.819	3466
838.956	3386
839.094	3458
839.231	3428
839.369	3549
839.506	3766
839.643	3629
839.781	3534
839.918	3492
840.055	3534
840.193	3500
840.33	3553
840.467	3580
840.604	3648
840.742	3823
840.879	3584
841.016	3603
841.153	3561
841.29	3785
841.427	3755
841.564	3755
841.701	3762
841.838	3705
841.975	3709
842.112	3747
842.249	3625
842.385	3629
842.522	3850
842.659	3720
842.796	3675
842.933	3701
843.069	3690
843.206	3720
843.343	3831
843.479	3778
843.616	3850
843.752	3663
843.889	3736
844.025	3888
844.162	3709
844.298	3865
844.435	3785
844.571	3781
844.708	3888
844.844	4013
844.98	4032
845.117	3998
845.253	3934
845.389	3892
845.525	3934
845.661	3972
845.798	3941
845.934	4036
846.07	3941
846.206	4059
846.342	4139
846.478	4120
846.614	3979
846.75	3949
846.886	3964
847.022	4013
847.158	4010
847.294	4006
847.429	3983
847.565	4063
847.701	4257
847.837	3911
847.972	3876
848.108	3937
848.244	3945
848.379	3876
848.515	3842
848.65	3793
848.786	3869
848.921	3892
849.057	3941
849.192	3945
849.328	3960
849.463	3960
849.598	3922
849.734	3873
849.869	3869
850.004	3835
850.14	3819
850.275	3800
850.41	3766
850.545	3770
850.68	3823
850.815	3842
850.95	3778
851.085	3979
851.22	3903
851.355	3816
851.49	3785
851.625	3789
851.76	3781
851.895	3762
852.03	3736
852.165	3770
852.299	3835
852.434	3998
852.569	3854
852.703	3899
852.838	3941
852.973	4017
853.107	3998
853.242	3899
853.376	3831
853.511	3770
853.645	3884
853.78	3953
853.914	3934
854.048	3907
854.183	3899
854.317	3930
854.451	4090
854.585	3975
854.72	3941
854.854	4093
854.988	3945
855.122	3994
855.256	3945
855.39	4032
855.524	4154
855.658	4090
855.792	4131
855.926	4169
856.06	4169
856.194	4238
856.327	4200
856.461	4109
856.595	4139
856.729	4204
856.862	4272
856.996	4246
857.13	4291
857.263	4325
857.397	4398
857.53	4299
857.664	4344
857.797	4436
857.931	4459
858.064	4440
858.197	4451
858.331	4398
858.464	4337
858.597	4352
858.731	4485
858.864	4451
858.997	4443
859.13	4569
859.263	4516
859.396	4588
859.529	4538
859.662	4512
859.795	4561
859.928	4622
860.061	4740
860.194	4721
860.327	4706
860.46	4679
860.592	4786
860.725	4759
860.858	4778
860.99	4645
861.123	4706
861.256	4675
861.388	4801
861.521	5284
861.653	4740
861.786	4755
861.918	4759
862.05	4809
862.183	4858
862.315	4908
862.447	4946
862.58	4908
862.712	4816
862.844	4729
862.976	4892
863.108	4877
863.24	5315
863.372	4866
863.504	4942
863.636	4911
863.768	4953
863.9	4984
864.032	4896
864.164	4984
864.296	5048
864.428	5048
864.559	5094
864.691	5102
864.823	5166
864.954	5086
865.086	5117
865.217	5136
865.349	5155
865.48	5136
865.612	5235
865.743	5307
865.875	5174
866.006	5227
866.137	5280
866.269	5208
866.4	5250
866.531	5296
866.662	5250
866.793	5269
866.924	5330
867.055	5391
867.186	5353
867.317	5322
867.448	5376
867.579	5398
867.71	5398
867.841	5376
867.972	5478
868.103	5520
868.233	5493
868.364	5524
868.495	5520
868.625	5722
868.756	5817
868.886	5680
869.017	5798
869.147	5874
869.278	5889
869.408	5771
869.539	5836
869.669	5939
869.799	5885
869.929	6026
870.06	6015
870.19	6194
870.32	6167
870.45	6239
870.58	6331
870.71	6407
870.84	6528
870.97	6399
871.1	6479
871.23	6658
871.36	6745
871.489	6642
871.619	6730
871.749	6791
871.879	6871
872.008	7004
872.138	6985
872.267	7053
872.397	7038
872.526	7057
872.656	7091
872.785	7255
872.915	7453
873.044	7495
873.173	7616
873.303	7689
873.432	7769
873.561	7906
873.69	7887
873.819	7982
873.948	8157
874.077	8267
874.206	8366
874.335	8457
874.464	8659
874.593	8849
874.722	8956
874.851	9100
874.979	9294
875.108	9443
875.237	9481
875.365	9481
875.494	9675
875.623	9846
875.751	9899
875.88	9983
876.008	10177
876.136	10360
876.265	10443
876.393	10702
876.521	10793
876.65	10869
876.778	10839
876.906	10953
877.034	11083
877.162	11022
877.29	11201
877.418	11311
877.546	11379
877.674	11455
877.802	11436
877.93	11638
878.058	11539
878.185	11634
878.313	11684
878.441	11703
878.568	11665
878.696	11805
878.824	11832
878.951	11935
879.079	11942
879.206	12114
879.333	12049
879.461	11980
879.588	12076
879.715	12049
879.842	12140
879.97	12079
880.097	11912
880.224	11851
880.351	11904
880.478	11916
880.605	11866
880.732	11870
880.859	12083
880.986	11798
881.112	11821
881.239	11703
881.366	11627
881.493	11577
881.619	11551
881.746	11543
881.872	11566
881.999	11455
882.125	11615
882.252	11554
882.378	11520
882.505	11509
882.631	11421
882.757	11311
882.883	11315
883.01	11299
883.136	11197
883.262	11140
883.388	11086
883.514	11220
883.64	11170
883.766	11166
883.892	11045
884.018	11060
884.143	11067
884.269	11022
884.395	10850
884.52	10774
884.646	10812
884.772	10744
884.897	10618
885.023	10664
885.148	10672
885.274	10782
885.399	10702
885.524	10649
885.65	10569
885.775	10645
885.9	10508
886.025	10603
886.15	10561
886.275	10440
886.4	10398
886.525	10360
886.65	10409
886.775	10333
886.9	10500
887.025	10523
887.149	10314
887.274	10341
887.399	10188
887.523	10185
887.648	10109
887.773	10169
887.897	10177
888.021	10215
888.146	10112
888.27	10227
888.395	10306
888.519	10173
888.643	10173
888.767	10227
888.891	10040
889.015	10067
889.139	10040
889.263	10002
889.387	10048
889.511	10150
889.635	10105
889.759	9991
889.883	10002
890.006	10048
890.13	10105
890.254	9941
890.377	9979
890.501	9926
890.624	9892
890.748	9926
890.871	9751
890.995	9781
891.118	9762
891.241	9713
891.364	9743
891.488	9915
891.611	9781
891.734	9766
891.857	9728
891.98	9717
892.103	9717
892.226	9743
892.349	9663
892.471	9511
892.594	9603
892.717	9584
892.839	9663
892.962	9564
893.085	9603
893.207	9641
893.33	9504
893.452	9568
893.575	9622
893.697	9466
893.819	9675
893.941	9701
894.064	9641
894.186	9405
894.308	9378
894.43	9507
894.552	9587
894.674	9485
894.796	9325
894.918	9363
895.04	9317
895.161	9458
895.283	9378
895.405	9325
895.526	9317
895.648	9272
895.769	9272
895.891	9218
896.012	9351
896.134	9176
896.255	9203
896.376	9142
896.498	9211
896.619	9192
896.74	9135
896.861	9157
896.982	9325
897.103	9275
897.224	9226
897.345	9100
897.466	8929
897.587	9089
897.708	9123
897.828	9058
897.949	8956
898.07	8883
898.19	8944
898.311	9032
898.431	8834
898.552	8899
898.672	8979
898.792	8914
898.913	8910
899.033	8785
899.153	8826
899.273	8716
899.393	8788
899.513	8716
899.633	8766
899.753	8781
899.873	8743
899.993	8689
900.113	8701
900.232	8724
900.352	8682
900.472	8682
900.591	8499
900.711	8632
900.83	8518
900.95	8689
901.069	8785
901.189	8579
901.308	8404
901.427	8332
901.546	8484
901.665	8461
901.784	8499
901.904	8434
902.023	8282
902.141	8248
902.26	8183
902.379	8317
902.498	8233
902.617	8298
902.735	8225
902.854	8313
902.973	8271
903.091	8161
903.21	8107
903.328	8164
903.446	8142
903.565	8092
903.683	8191
903.801	8016
903.919	8176
904.038	8244
904.156	8058
904.274	8107
904.392	8043
904.51	8008
904.627	8065
904.745	8138
904.863	8088
904.981	7913
905.098	7864
905.216	7883
905.334	7936
905.451	7898
905.569	7868
905.686	8001
905.803	7902
905.921	7826
906.038	7849
906.155	7780
906.272	7792
906.389	7738
906.506	7647
906.623	7658
906.74	7594
906.857	7586
906.974	7559
907.091	7651
907.208	7772
907.324	7662
907.441	7597
907.557	7445
907.674	7407
907.79	7388
907.907	7438
908.023	7441
908.139	7449
908.256	7419
908.372	7388
908.488	7350
908.604	7312
908.72	7255
908.836	7255
908.952	7316
909.068	7270
909.184	7327
909.3	7232
909.415	7346
909.531	7278
909.647	7164
909.762	7091
909.878	7099
909.993	7156
910.108	7152
910.224	7099
910.339	7145
910.454	7122
910.57	7027
910.685	7031
910.8	7202
910.915	7110
911.03	7038
911.145	6951
911.259	6878
911.374	6905
911.489	6829
911.604	6859
911.718	6757
911.833	6722
911.947	6677
912.062	6604
912.176	6764
912.291	6757
912.405	6715
912.519	6768
912.633	6859
912.748	6760
912.862	6730
912.976	6585
913.09	6513
913.204	6578
913.318	6616
913.431	6669
913.545	6734
913.659	6738
913.772	6639
913.886	6551
914	6536
914.113	6578
914.226	6620
914.34	6616
914.453	6502
914.566	6593
914.68	6532
914.793	6494
914.906	6445
915.019	6422
915.132	6414
915.245	6426
915.358	6437
915.47	6437
915.583	6475
915.696	6551
915.809	6528
915.921	6570
916.034	6490
916.146	6441
916.259	6448
916.371	6464
916.483	6509
916.595	6388
916.708	6410
916.82	6418
916.932	6388
917.044	6388
917.156	6395
917.268	6289
917.38	6365
917.491	6311
917.603	6376
917.715	6372
917.826	6391
917.938	6350
918.049	6266
918.161	6311
918.272	6422
918.384	6456
918.495	6399
918.606	6239
918.717	6243
918.828	6281
918.939	6270
919.05	6247
919.161	6292
919.272	6182
919.383	6228
919.494	6251
919.604	6410
919.715	6296
919.826	6251
919.936	6285
920.047	6334
920.157	6289
920.267	6486
920.378	6342
920.488	6296
920.598	6426
920.708	6551
920.818	6525
920.928	6521
921.038	6582
921.148	6597
921.258	6395
921.368	6327
921.477	6232
921.587	6209
921.697	6110
921.806	6175
921.916	6110
922.025	5897
922.134	5961
922.244	5920
922.353	5999
922.462	5866
922.571	5794
922.68	5764
922.789	5691
922.898	5710
923.007	5592
923.116	5729
923.224	5665
923.333	5657
923.442	5634
923.55	5566
923.659	5539
923.767	5646
923.876	5547
923.984	5608
924.092	5528
924.201	5543
924.309	5558
924.417	5558
924.525	5512
924.633	5532
924.741	6315
924.849	5391
924.956	5539
925.064	5341
925.172	5307
925.279	5330
925.387	5337
925.494	5334
925.602	5448
925.709	5406
925.816	5280
925.924	5334
926.031	5353
926.138	5349
926.245	5326
926.352	5178
926.459	5379
926.566	5296
926.673	5239
926.779	5162
926.886	5113
926.993	5056
927.099	5060
927.206	4953
927.312	4923
927.419	5045
927.525	4995
927.631	4972
927.737	4877
927.843	4881
927.95	4740
928.056	4805
928.162	4862
928.267	4835
928.373	5311
928.479	4900
928.585	4672
928.69	4778
928.796	4820
928.901	4721
929.007	4599
929.112	4687
929.218	4611
929.323	4615
929.428	4615
929.533	4668
929.638	4554
929.743	4523
929.848	4592
929.953	4558
930.058	4462
930.163	4341
930.267	4314
930.372	4367
930.477	4314
930.581	4516
930.685	4360
930.79	4215
930.894	4280
930.998	4295
931.103	4413
931.207	4143
931.311	4105
931.415	4086
931.519	3934
931.623	3953
