Data from glass_V78500241_807.txt Node
Date: Wed Sep 01 19:20:05 CST 2021
User: usil
Spectrometer: V785-0024
Trigger mode: 0
Integration Time (sec): 4.000000E-1
Scans to average: 1
Nonlinearity correction enabled: false
Boxcar width: 0
Storing dark spectrum: false
XAxis mode: Wavelengths
Number of Pixels in Spectrum: 1024
>>>>>Begin Spectral Data<<<<<
801.071	3686
801.214	3778
801.356	3736
801.499	3743
801.641	3755
801.783	3793
801.926	3888
802.068	3854
802.211	3838
802.353	3892
802.496	3812
802.638	3861
802.78	3926
802.923	3926
803.065	3873
803.208	3869
803.35	3880
803.492	3861
803.635	3892
803.777	3808
803.919	3903
804.061	4131
804.204	3987
804.346	3941
804.488	3930
804.63	4025
804.773	3934
804.915	4082
805.057	4143
805.199	4074
805.341	4082
805.483	4181
805.626	4143
805.768	4131
805.91	4253
806.052	4291
806.194	4188
806.336	4348
806.478	4204
806.62	4154
806.762	4200
806.904	4265
807.046	4337
807.188	4223
807.33	4211
807.472	4253
807.614	4207
807.756	4253
807.898	4230
808.04	4242
808.182	4322
808.324	4341
808.465	4432
808.607	4489
808.749	4436
808.891	4440
809.033	4508
809.174	4459
809.316	4299
809.458	4284
809.6	4200
809.741	4143
809.883	4185
810.025	4242
810.166	4181
810.308	4276
810.45	4276
810.591	4234
810.733	4314
810.875	4561
811.016	4831
811.158	5147
811.299	5273
811.441	5265
811.582	5102
811.724	4687
811.865	4493
812.007	4516
812.148	4466
812.29	4379
812.431	4470
812.573	4424
812.714	4367
812.855	4398
812.997	4428
813.138	4504
813.279	4466
813.421	4383
813.562	4383
813.703	4341
813.845	4337
813.986	4261
814.127	4265
814.268	4322
814.41	4284
814.551	4287
814.692	4322
814.833	4322
814.974	4348
815.115	4344
815.256	4291
815.397	4227
815.539	4310
815.68	4196
815.821	4234
815.962	4295
816.103	4291
816.244	4272
816.385	4207
816.526	4306
816.666	4242
816.807	4090
816.948	4246
817.089	4192
817.23	4097
817.371	4040
817.512	4059
817.653	4105
817.793	4059
817.934	4086
818.075	4101
818.216	4135
818.356	4090
818.497	3975
818.638	3941
818.778	3915
818.919	3896
819.06	3861
819.2	3945
819.341	3918
819.481	3850
819.622	3876
819.762	3998
819.903	3915
820.043	3884
820.184	3846
820.324	3838
820.465	3899
820.605	3857
820.746	3873
820.886	3808
821.026	3949
821.167	3941
821.307	4002
821.447	4013
821.588	3987
821.728	3960
821.868	3918
822.008	3892
822.149	3896
822.289	3899
822.429	3797
822.569	3808
822.709	3812
822.849	3720
822.99	3759
823.13	3770
823.27	3812
823.41	3747
823.55	3717
823.69	3720
823.83	3766
823.97	3682
824.11	3572
824.25	3633
824.389	3701
824.529	3671
824.669	3652
824.809	3717
824.949	3732
825.089	3755
825.228	3705
825.368	3595
825.508	3587
825.648	3614
825.787	3663
825.927	3622
826.067	3671
826.206	3644
826.346	3800
826.485	3888
826.625	3835
826.765	3975
826.904	3846
827.044	3633
827.183	3523
827.323	3439
827.462	3538
827.601	3424
827.741	3393
827.88	3450
828.02	3401
828.159	3458
828.298	3488
828.437	3561
828.577	3435
828.716	3599
828.855	3458
828.994	3409
829.134	3454
829.273	3420
829.412	3355
829.551	3294
829.69	3393
829.829	3401
829.968	3515
830.107	3469
830.246	3466
830.385	3386
830.524	3367
830.663	3283
830.802	3283
830.941	3218
831.08	3199
831.219	3291
831.357	3279
831.496	3389
831.635	3260
831.774	3203
831.913	3192
832.051	3142
832.19	3154
832.329	3214
832.467	3112
832.606	3131
832.744	3188
832.883	3180
833.022	3222
833.16	3287
833.299	3340
833.437	3363
833.576	3382
833.714	3405
833.852	3428
833.991	3477
834.129	3462
834.267	3447
834.406	3409
834.544	3412
834.682	3416
834.821	3420
834.959	3606
835.097	3428
835.235	3545
835.373	3485
835.511	3507
835.65	3454
835.788	3500
835.926	3409
836.064	3344
836.202	3393
836.34	3545
836.478	3584
836.615	3561
836.753	3606
836.891	3622
837.029	3667
837.167	3622
837.305	3576
837.443	3599
837.58	3530
837.718	3595
837.856	3553
837.993	3561
838.131	3625
838.269	3572
838.406	3564
838.544	3614
838.681	3492
838.819	3431
838.956	3348
839.094	3386
839.231	3485
839.369	3515
839.506	3774
839.643	3622
839.781	3507
839.918	3485
840.055	3564
840.193	3553
840.33	3545
840.467	3545
840.604	3648
840.742	3797
840.879	3538
841.016	3625
841.153	3595
841.29	3762
841.427	3724
841.564	3705
841.701	3743
841.838	3694
841.975	3690
842.112	3717
842.249	3682
842.385	3652
842.522	3850
842.659	3728
842.796	3686
842.933	3705
843.069	3713
843.206	3690
843.343	3816
843.479	3812
843.616	3854
843.752	3713
843.889	3720
844.025	3896
844.162	3724
844.298	3861
844.435	3774
844.571	3793
844.708	3918
844.844	4006
844.98	3991
845.117	4040
845.253	3922
845.389	3937
845.525	3983
845.661	3964
845.798	3964
845.934	4036
846.07	3956
846.206	4021
846.342	4158
846.478	4044
846.614	3968
846.75	3953
846.886	3922
847.022	4017
847.158	3994
847.294	3994
847.429	4025
847.565	4059
847.701	4265
847.837	3903
847.972	3896
848.108	3972
848.244	3964
848.379	3831
848.515	3819
848.65	3823
848.786	3884
848.921	3873
849.057	3945
849.192	3945
849.328	3911
849.463	3911
849.598	3960
849.734	3873
849.869	3800
850.004	3781
850.14	3827
850.275	3797
850.41	3766
850.545	3766
850.68	3819
850.815	3804
850.95	3823
851.085	3922
851.22	3876
851.355	3865
851.49	3819
851.625	3766
851.76	3831
851.895	3728
852.03	3709
852.165	3831
852.299	3876
852.434	3892
852.569	3903
852.703	3903
852.838	3918
852.973	3945
853.107	4017
853.242	3903
853.376	3896
853.511	3785
853.645	3812
853.78	3964
853.914	3873
854.048	3911
854.183	3915
854.317	3941
854.451	4105
854.585	3937
854.72	4013
854.854	4071
854.988	3972
855.122	3975
855.256	3911
855.39	4074
855.524	4120
855.658	4143
855.792	4124
855.926	4162
856.06	4154
856.194	4177
856.327	4200
856.461	4166
856.595	4188
856.729	4154
856.862	4249
856.996	4291
857.13	4318
857.263	4360
857.397	4360
857.53	4303
857.664	4386
857.797	4409
857.931	4394
858.064	4409
858.197	4447
858.331	4390
858.464	4394
858.597	4341
858.731	4459
858.864	4462
858.997	4459
859.13	4527
859.263	4546
859.396	4645
859.529	4535
859.662	4550
859.795	4523
859.928	4607
860.061	4698
860.194	4752
860.327	4603
860.46	4653
860.592	4771
860.725	4801
860.858	4774
860.99	4717
861.123	4675
861.256	4717
861.388	4801
861.521	5410
861.653	4755
861.786	4683
861.918	4790
862.05	4820
862.183	4854
862.315	4934
862.447	4965
862.58	4908
862.712	4812
862.844	4793
862.976	4889
863.108	4870
863.24	5288
863.372	4862
863.504	4938
863.636	4908
863.768	4999
863.9	4957
864.032	4942
864.164	4991
864.296	5052
864.428	5075
864.559	5117
864.691	5193
864.823	5147
864.954	5121
865.086	5124
865.217	5166
865.349	5128
865.48	5162
865.612	5231
865.743	5284
865.875	5208
866.006	5181
866.137	5273
866.269	5220
866.4	5201
866.531	5292
866.662	5277
866.793	5273
866.924	5322
867.055	5345
867.186	5360
867.317	5345
867.448	5326
867.579	5455
867.71	5341
867.841	5410
867.972	5440
868.103	5493
868.233	5459
868.364	5497
868.495	5608
868.625	5699
868.756	5764
868.886	5653
869.017	5745
869.147	5817
869.278	5920
869.408	5783
869.539	5771
869.669	5920
869.799	5893
869.929	6026
870.06	6015
870.19	6197
870.32	6239
870.45	6277
870.58	6365
870.71	6441
870.84	6456
870.97	6452
871.1	6471
871.23	6669
871.36	6726
871.489	6646
871.619	6734
871.749	6840
871.879	6920
872.008	6962
872.138	6970
872.267	7031
872.397	7069
872.526	7015
872.656	7099
872.785	7232
872.915	7377
873.044	7548
873.173	7571
873.303	7647
873.432	7727
873.561	7845
873.69	7940
873.819	8050
873.948	8134
874.077	8183
874.206	8358
874.335	8415
874.464	8651
874.593	8883
874.722	8941
874.851	9161
874.979	9253
875.108	9405
875.237	9386
875.365	9416
875.494	9606
875.623	9926
875.751	9823
875.88	9979
876.008	10135
876.136	10169
876.265	10584
876.393	10740
876.521	10714
876.65	10873
876.778	10873
876.906	10923
877.034	10984
877.162	11102
877.29	11159
877.418	11326
877.546	11269
877.674	11482
877.802	11467
877.93	11444
878.058	11623
878.185	11585
878.313	11668
878.441	11714
878.568	11642
878.696	11794
878.824	11866
878.951	12015
879.079	11946
879.206	12072
879.333	12152
879.461	11999
879.588	12110
879.715	12057
879.842	12239
879.97	12106
880.097	11863
880.224	11908
880.351	11870
880.478	11809
880.605	11958
880.732	11805
880.859	12049
880.986	11828
881.112	11840
881.239	11695
881.366	11729
881.493	11619
881.619	11501
881.746	11562
881.872	11497
881.999	11539
882.125	11509
882.252	11649
882.378	11512
882.505	11528
882.631	11387
882.757	11376
882.883	11322
883.01	11220
883.136	11121
883.262	11105
883.388	11083
883.514	11242
883.64	11181
883.766	11121
883.892	10984
884.018	10984
884.143	11075
884.269	11071
884.395	10828
884.52	10805
884.646	10824
884.772	10683
884.897	10672
885.023	10664
885.148	10698
885.274	10714
885.399	10668
885.524	10725
885.65	10558
885.775	10535
885.9	10527
886.025	10615
886.15	10573
886.275	10474
886.4	10485
886.525	10428
886.65	10382
886.775	10375
886.9	10421
887.025	10531
887.149	10455
887.274	10185
887.399	10268
887.523	10185
887.648	10109
887.773	10101
887.897	10242
888.021	10287
888.146	10082
888.27	10219
888.395	10158
888.519	10211
888.643	10135
888.767	10188
888.891	10188
889.015	10010
889.139	10074
889.263	9956
889.387	10067
889.511	10063
889.635	10025
889.759	9945
889.883	10013
890.006	9987
890.13	10112
890.254	9941
890.377	10021
890.501	9785
890.624	9994
890.748	9903
890.871	9831
890.995	9751
891.118	9736
891.241	9812
891.364	9766
891.488	9842
891.611	9804
891.734	9850
891.857	9717
891.98	9694
892.103	9766
892.226	9694
892.349	9736
892.471	9523
892.594	9584
892.717	9614
892.839	9561
892.962	9564
893.085	9587
893.207	9523
893.33	9523
893.452	9584
893.575	9576
893.697	9492
893.819	9644
893.941	9625
894.064	9644
894.186	9401
894.308	9397
894.43	9511
894.552	9667
894.674	9545
894.796	9336
894.918	9321
895.04	9355
895.161	9435
895.283	9374
895.405	9302
895.526	9249
895.648	9211
895.769	9222
895.891	9237
896.012	9317
896.134	9256
896.255	9127
896.376	9138
896.498	9112
896.619	9218
896.74	9055
896.861	9112
896.982	9218
897.103	9317
897.224	9157
897.345	9009
897.466	9055
897.587	9055
897.708	9043
897.828	9001
897.949	8975
898.07	8994
898.19	8929
898.311	9116
898.431	8921
898.552	8933
898.672	8941
898.792	8941
898.913	8906
899.033	8880
899.153	8739
899.273	8724
899.393	8667
899.513	8693
899.633	8712
899.753	8769
899.873	8697
899.993	8788
900.113	8766
900.232	8727
900.352	8686
900.472	8651
900.591	8602
900.711	8541
900.83	8530
900.95	8648
901.069	8644
901.189	8590
901.308	8442
901.427	8408
901.546	8355
901.665	8522
901.784	8495
901.904	8438
902.023	8400
902.141	8225
902.26	8195
902.379	8301
902.498	8237
902.617	8252
902.735	8355
902.854	8286
902.973	8225
903.091	8153
903.21	8126
903.328	8145
903.446	8100
903.565	8058
903.683	8126
903.801	8058
903.919	8172
904.038	8161
904.156	8084
904.274	8035
904.392	8027
904.51	8039
904.627	8073
904.745	8092
904.863	8111
904.981	7906
905.098	7894
905.216	7868
905.334	7955
905.451	7871
905.569	7909
905.686	7974
905.803	7898
905.921	7761
906.038	7894
906.155	7803
906.272	7727
906.389	7712
906.506	7632
906.623	7636
906.74	7636
906.857	7571
906.974	7510
907.091	7681
907.208	7727
907.324	7643
907.441	7525
907.557	7434
907.674	7472
907.79	7365
907.907	7388
908.023	7457
908.139	7460
908.256	7438
908.372	7373
908.488	7343
908.604	7312
908.72	7270
908.836	7285
908.952	7251
909.068	7297
909.184	7373
909.3	7255
909.415	7293
909.531	7327
909.647	7091
909.762	7091
909.878	7126
909.993	7133
910.108	7091
910.224	7088
910.339	7110
910.454	7050
910.57	7023
910.685	6970
910.8	7152
910.915	7137
911.03	7061
911.145	6932
911.259	6886
911.374	6909
911.489	6852
911.604	6844
911.718	6692
911.833	6741
911.947	6696
912.062	6593
912.176	6711
912.291	6677
912.405	6749
912.519	6787
912.633	6909
912.748	6749
912.862	6696
912.976	6570
913.09	6521
913.204	6544
913.318	6601
913.431	6703
913.545	6684
913.659	6688
913.772	6612
913.886	6593
914	6582
914.113	6650
914.226	6673
914.34	6658
914.453	6498
914.566	6612
914.68	6506
914.793	6509
914.906	6464
915.019	6391
915.132	6414
915.245	6403
915.358	6475
915.47	6407
915.583	6429
915.696	6498
915.809	6585
915.921	6627
916.034	6433
916.146	6479
916.259	6365
916.371	6414
916.483	6445
916.595	6422
916.708	6391
916.82	6418
916.932	6380
917.044	6346
917.156	6399
917.268	6338
917.38	6289
917.491	6311
917.603	6369
917.715	6414
917.826	6433
917.938	6384
918.049	6292
918.161	6323
918.272	6391
918.384	6441
918.495	6372
918.606	6331
918.717	6178
918.828	6315
918.939	6304
919.05	6232
919.161	6277
919.272	6117
919.383	6171
919.494	6338
919.604	6452
919.715	6289
919.826	6270
919.936	6273
920.047	6365
920.157	6342
920.267	6490
920.378	6315
920.488	6346
920.598	6448
920.708	6593
920.818	6452
920.928	6437
921.038	6665
921.148	6604
921.258	6331
921.368	6331
921.477	6182
921.587	6232
921.697	6064
921.806	6190
921.916	6060
922.025	5901
922.134	5942
922.244	5901
922.353	5927
922.462	5855
922.571	5813
922.68	5714
922.789	5638
922.898	5676
923.007	5642
923.116	5748
923.224	5676
923.333	5665
923.442	5520
923.55	5592
923.659	5619
923.767	5676
923.876	5551
923.984	5615
924.092	5497
924.201	5592
924.309	5592
924.417	5577
924.525	5455
924.633	5520
924.741	6129
924.849	5395
924.956	5581
925.064	5414
925.172	5322
925.279	5341
925.387	5307
925.494	5330
925.602	5376
925.709	5372
925.816	5303
925.924	5277
926.031	5410
926.138	5265
926.245	5322
926.352	5223
926.459	5368
926.566	5349
926.673	5189
926.779	5159
926.886	5143
926.993	5037
927.099	4972
927.206	4980
927.312	5018
927.419	4965
927.525	5006
927.631	5033
927.737	4866
927.843	4892
927.95	4805
928.056	4850
928.162	4820
928.267	4862
928.373	5364
928.479	4858
928.585	4721
928.69	4831
928.796	4801
928.901	4687
929.007	4580
929.112	4679
929.218	4668
929.323	4599
929.428	4558
929.533	4687
929.638	4554
929.743	4565
929.848	4527
929.953	4519
930.058	4459
930.163	4337
930.267	4352
930.372	4451
930.477	4352
930.581	4485
930.685	4356
930.79	4284
930.894	4299
930.998	4249
931.103	4409
931.207	4090
931.311	4105
931.415	4059
931.519	3892
931.623	3949
