Data from glass_V78500241_1494.txt Node
Date: Wed Sep 01 19:24:51 CST 2021
User: usil
Spectrometer: V785-0024
Trigger mode: 0
Integration Time (sec): 4.000000E-1
Scans to average: 1
Nonlinearity correction enabled: false
Boxcar width: 0
Storing dark spectrum: false
XAxis mode: Wavelengths
Number of Pixels in Spectrum: 1024
>>>>>Begin Spectral Data<<<<<
801.071	3759
801.214	3732
801.356	3747
801.499	3747
801.641	3762
801.783	3759
801.926	3861
802.068	3865
802.211	3873
802.353	3892
802.496	3854
802.638	3930
802.78	3888
802.923	3941
803.065	3987
803.208	3827
803.35	3857
803.492	3903
803.635	3949
803.777	3800
803.919	3888
804.061	4181
804.204	3972
804.346	3945
804.488	3918
804.63	4040
804.773	4013
804.915	3987
805.057	4147
805.199	4067
805.341	4074
805.483	4105
805.626	4109
805.768	4116
805.91	4246
806.052	4238
806.194	4169
806.336	4390
806.478	4181
806.62	4131
806.762	4249
806.904	4238
807.046	4322
807.188	4207
807.33	4181
807.472	4261
807.614	4200
807.756	4238
807.898	4215
808.04	4230
808.182	4322
808.324	4306
808.465	4360
808.607	4421
808.749	4462
808.891	4440
809.033	4489
809.174	4363
809.316	4261
809.458	4246
809.6	4124
809.741	4181
809.883	4147
810.025	4230
810.166	4188
810.308	4253
810.45	4223
810.591	4246
810.733	4299
810.875	4466
811.016	4790
811.158	5121
811.299	5326
811.441	5284
811.582	5060
811.724	4729
811.865	4481
812.007	4451
812.148	4413
812.29	4424
812.431	4428
812.573	4371
812.714	4383
812.855	4375
812.997	4413
813.138	4466
813.279	4432
813.421	4394
813.562	4383
813.703	4341
813.845	4360
813.986	4257
814.127	4223
814.268	4291
814.41	4333
814.551	4242
814.692	4352
814.833	4234
814.974	4303
815.115	4325
815.256	4246
815.397	4234
815.539	4257
815.68	4227
815.821	4234
815.962	4356
816.103	4272
816.244	4230
816.385	4215
816.526	4265
816.666	4204
816.807	4120
816.948	4128
817.089	4154
817.23	4120
817.371	4101
817.512	4040
817.653	4105
817.793	4086
817.934	4078
818.075	4120
818.216	4082
818.356	4051
818.497	3991
818.638	3896
818.778	3903
818.919	3838
819.06	3892
819.2	3896
819.341	3903
819.481	3819
819.622	3896
819.762	4006
819.903	3926
820.043	3850
820.184	3842
820.324	3785
820.465	3880
820.605	3857
820.746	3869
820.886	3789
821.026	3922
821.167	3930
821.307	3991
821.447	3968
821.588	3941
821.728	3907
821.868	3903
822.008	3869
822.149	3892
822.289	3907
822.429	3808
822.569	3759
822.709	3808
822.849	3686
822.99	3751
823.13	3724
823.27	3831
823.41	3709
823.55	3781
823.69	3713
823.83	3724
823.97	3694
824.11	3629
824.25	3599
824.389	3660
824.529	3701
824.669	3663
824.809	3713
824.949	3709
825.089	3717
825.228	3709
825.368	3603
825.508	3561
825.648	3580
825.787	3618
825.927	3641
826.067	3656
826.206	3667
826.346	3766
826.485	3846
826.625	3880
826.765	3934
826.904	3789
827.044	3599
827.183	3530
827.323	3439
827.462	3462
827.601	3443
827.741	3401
827.88	3500
828.02	3397
828.159	3439
828.298	3477
828.437	3526
828.577	3469
828.716	3576
828.855	3481
828.994	3428
829.134	3370
829.273	3344
829.412	3382
829.551	3306
829.69	3363
829.829	3462
829.968	3504
830.107	3454
830.246	3431
830.385	3420
830.524	3355
830.663	3302
830.802	3260
830.941	3203
831.08	3207
831.219	3279
831.357	3268
831.496	3393
831.635	3226
831.774	3214
831.913	3176
832.051	3116
832.19	3165
832.329	3233
832.467	3150
832.606	3131
832.744	3138
832.883	3138
833.022	3180
833.16	3287
833.299	3298
833.437	3329
833.576	3378
833.714	3405
833.852	3439
833.991	3458
834.129	3485
834.267	3488
834.406	3389
834.544	3443
834.682	3420
834.821	3389
834.959	3545
835.097	3439
835.235	3504
835.373	3511
835.511	3485
835.65	3450
835.788	3496
835.926	3382
836.064	3378
836.202	3378
836.34	3572
836.478	3622
836.615	3545
836.753	3614
836.891	3614
837.029	3614
837.167	3576
837.305	3572
837.443	3545
837.58	3523
837.718	3622
837.856	3545
837.993	3572
838.131	3633
838.269	3561
838.406	3549
838.544	3568
838.681	3477
838.819	3477
838.956	3363
839.094	3397
839.231	3462
839.369	3561
839.506	3690
839.643	3652
839.781	3477
839.918	3466
840.055	3523
840.193	3530
840.33	3511
840.467	3534
840.604	3549
840.742	3789
840.879	3557
841.016	3553
841.153	3637
841.29	3755
841.427	3705
841.564	3759
841.701	3736
841.838	3720
841.975	3728
842.112	3675
842.249	3652
842.385	3595
842.522	3835
842.659	3698
842.796	3682
842.933	3709
843.069	3720
843.206	3713
843.343	3812
843.479	3823
843.616	3816
843.752	3633
843.889	3641
844.025	3831
844.162	3679
844.298	3835
844.435	3781
844.571	3789
844.708	3918
844.844	3979
844.98	4013
845.117	3994
845.253	3975
845.389	3888
845.525	3956
845.661	3979
845.798	3915
845.934	4021
846.07	3968
846.206	4059
846.342	4109
846.478	4067
846.614	3960
846.75	3926
846.886	3911
847.022	4010
847.158	3930
847.294	4002
847.429	4021
847.565	4002
847.701	4230
847.837	3884
847.972	3907
848.108	3979
848.244	3983
848.379	3911
848.515	3838
848.65	3823
848.786	3880
848.921	3846
849.057	3915
849.192	3937
849.328	3934
849.463	3915
849.598	3884
849.734	3846
849.869	3823
850.004	3804
850.14	3789
850.275	3785
850.41	3781
850.545	3740
850.68	3766
850.815	3827
850.95	3827
851.085	3903
851.22	3915
851.355	3774
851.49	3850
851.625	3800
851.76	3819
851.895	3766
852.03	3740
852.165	3781
852.299	3880
852.434	3873
852.569	3831
852.703	3915
852.838	3960
852.973	4010
853.107	4013
853.242	3880
853.376	3819
853.511	3766
853.645	3831
853.78	3987
853.914	3915
854.048	3876
854.183	3899
854.317	3918
854.451	4063
854.585	3960
854.72	3979
854.854	4025
854.988	3956
855.122	4013
855.256	3896
855.39	4067
855.524	4063
855.658	4101
855.792	4086
855.926	4147
856.06	4196
856.194	4204
856.327	4147
856.461	4147
856.595	4150
856.729	4211
856.862	4265
856.996	4215
857.13	4337
857.263	4310
857.397	4356
857.53	4246
857.664	4325
857.797	4367
857.931	4462
858.064	4455
858.197	4455
858.331	4371
858.464	4402
858.597	4325
858.731	4428
858.864	4440
858.997	4462
859.13	4527
859.263	4523
859.396	4558
859.529	4554
859.662	4546
859.795	4599
859.928	4615
860.061	4702
860.194	4755
860.327	4668
860.46	4630
860.592	4710
860.725	4706
860.858	4706
860.99	4687
861.123	4752
861.256	4698
861.388	4755
861.521	5444
861.653	4721
861.786	4672
861.918	4767
862.05	4793
862.183	4782
862.315	4904
862.447	4908
862.58	4870
862.712	4790
862.844	4820
862.976	4904
863.108	4870
863.24	5254
863.372	4828
863.504	4862
863.636	4889
863.768	4942
863.9	4923
864.032	4930
864.164	4934
864.296	4980
864.428	5071
864.559	5113
864.691	5102
864.823	5113
864.954	5132
865.086	5117
865.217	5136
865.349	5151
865.48	5159
865.612	5220
865.743	5269
865.875	5212
866.006	5181
866.137	5239
866.269	5239
866.4	5269
866.531	5220
866.662	5246
866.793	5273
866.924	5307
867.055	5292
867.186	5334
867.317	5311
867.448	5273
867.579	5372
867.71	5417
867.841	5429
867.972	5455
868.103	5440
868.233	5486
868.364	5474
868.495	5554
868.625	5615
868.756	5802
868.886	5680
869.017	5745
869.147	5882
869.278	5870
869.408	5760
869.539	5874
869.669	5904
869.799	5927
869.929	6015
870.06	6003
870.19	6205
870.32	6228
870.45	6277
870.58	6334
870.71	6437
870.84	6460
870.97	6445
871.1	6460
871.23	6612
871.36	6696
871.489	6677
871.619	6776
871.749	6795
871.879	6825
872.008	6962
872.138	7000
872.267	6981
872.397	7019
872.526	7053
872.656	7088
872.785	7247
872.915	7422
873.044	7491
873.173	7605
873.303	7662
873.432	7674
873.561	7826
873.69	7917
873.819	8088
873.948	8164
874.077	8290
874.206	8415
874.335	8480
874.464	8720
874.593	8902
874.722	8914
874.851	9165
874.979	9283
875.108	9329
875.237	9389
875.365	9534
875.494	9572
875.623	9789
875.751	9861
875.88	9998
876.008	10150
876.136	10253
876.265	10485
876.393	10672
876.521	10767
876.65	10824
876.778	10911
876.906	10942
877.034	10942
877.162	11105
877.29	11162
877.418	11303
877.546	11345
877.674	11524
877.802	11539
877.93	11516
878.058	11520
878.185	11592
878.313	11577
878.441	11771
878.568	11665
878.696	11821
878.824	11767
878.951	11927
879.079	12041
879.206	12049
879.333	12068
879.461	11931
879.588	12049
879.715	12114
879.842	12171
879.97	11992
880.097	11931
880.224	11916
880.351	11851
880.478	11961
880.605	11855
880.732	11824
880.859	11977
880.986	11859
881.112	11832
881.239	11672
881.366	11596
881.493	11649
881.619	11562
881.746	11589
881.872	11672
881.999	11539
882.125	11414
882.252	11566
882.378	11497
882.505	11592
882.631	11368
882.757	11258
882.883	11296
883.01	11296
883.136	11151
883.262	11147
883.388	11128
883.514	11159
883.64	11170
883.766	11067
883.892	11025
884.018	11018
884.143	11041
884.269	11041
884.395	10843
884.52	10793
884.646	10820
884.772	10729
884.897	10599
885.023	10710
885.148	10714
885.274	10786
885.399	10733
885.524	10535
885.65	10561
885.775	10542
885.9	10500
886.025	10603
886.15	10542
886.275	10413
886.4	10398
886.525	10394
886.65	10398
886.775	10295
886.9	10428
887.025	10512
887.149	10363
887.274	10181
887.399	10124
887.523	10215
887.648	10105
887.773	10082
887.897	10276
888.021	10207
888.146	10101
888.27	10169
888.395	10200
888.519	10124
888.643	10124
888.767	10181
888.891	10048
889.015	10021
889.139	10063
889.263	9987
889.387	10017
889.511	10120
889.635	10006
889.759	10044
889.883	10025
890.006	10044
890.13	10055
890.254	10025
890.377	10010
890.501	9968
890.624	9880
890.748	9903
890.871	9793
890.995	9728
891.118	9679
891.241	9751
891.364	9781
891.488	9808
891.611	9751
891.734	9713
891.857	9766
891.98	9663
892.103	9766
892.226	9660
892.349	9603
892.471	9542
892.594	9622
892.717	9610
892.839	9580
892.962	9629
893.085	9709
893.207	9549
893.33	9538
893.452	9584
893.575	9542
893.697	9447
893.819	9530
893.941	9606
894.064	9599
894.186	9363
894.308	9389
894.43	9572
894.552	9599
894.674	9530
894.796	9359
894.918	9389
895.04	9405
895.161	9420
895.283	9405
895.405	9268
895.526	9291
895.648	9306
895.769	9275
895.891	9291
896.012	9287
896.134	9211
896.255	9150
896.376	9138
896.498	9169
896.619	9112
896.74	9108
896.861	9058
896.982	9272
897.103	9332
897.224	9195
897.345	9100
897.466	9077
897.587	8990
897.708	9108
897.828	9043
897.949	8990
898.07	8838
898.19	8921
898.311	8986
898.431	8895
898.552	8902
898.672	8937
898.792	8990
898.913	8883
899.033	8804
899.153	8716
899.273	8705
899.393	8743
899.513	8830
899.633	8705
899.753	8701
899.873	8678
899.993	8754
900.113	8667
900.232	8735
900.352	8705
900.472	8617
900.591	8568
900.711	8587
900.83	8560
900.95	8670
901.069	8670
901.189	8537
901.308	8503
901.427	8351
901.546	8374
901.665	8450
901.784	8511
901.904	8377
902.023	8358
902.141	8176
902.26	8240
902.379	8275
902.498	8225
902.617	8240
902.735	8282
902.854	8294
902.973	8263
903.091	8111
903.21	8111
903.328	8202
903.446	8073
903.565	8058
903.683	8107
903.801	8081
903.919	8123
904.038	8103
904.156	8065
904.274	8119
904.392	8088
904.51	8050
904.627	8016
904.745	8100
904.863	8065
904.981	7894
905.098	7875
905.216	7864
905.334	7906
905.451	7860
905.569	7868
905.686	7940
905.803	7925
905.921	7719
906.038	7902
906.155	7761
906.272	7681
906.389	7742
906.506	7616
906.623	7601
906.74	7628
906.857	7472
906.974	7586
907.091	7734
907.208	7700
907.324	7685
907.441	7529
907.557	7468
907.674	7438
907.79	7373
907.907	7419
908.023	7434
908.139	7384
908.256	7388
908.372	7388
908.488	7339
908.604	7259
908.72	7187
908.836	7305
908.952	7278
909.068	7255
909.184	7232
909.3	7270
909.415	7312
909.531	7282
909.647	7133
909.762	7129
909.878	7141
909.993	7145
910.108	7031
910.224	7103
910.339	7133
910.454	7008
910.57	7000
910.685	6996
910.8	7183
910.915	7110
911.03	7027
911.145	6856
911.259	6863
911.374	6875
911.489	6859
911.604	6802
911.718	6757
911.833	6700
911.947	6665
912.062	6616
912.176	6688
912.291	6688
912.405	6684
912.519	6764
912.633	6829
912.748	6798
912.862	6665
912.976	6650
913.09	6574
913.204	6593
913.318	6623
913.431	6681
913.545	6623
913.659	6734
913.772	6620
913.886	6608
914	6517
914.113	6707
914.226	6673
914.34	6616
914.453	6490
914.566	6601
914.68	6513
914.793	6494
914.906	6418
915.019	6422
915.132	6338
915.245	6445
915.358	6407
915.47	6418
915.583	6532
915.696	6532
915.809	6536
915.921	6521
916.034	6414
916.146	6483
916.259	6426
916.371	6486
916.483	6498
916.595	6334
916.708	6490
916.82	6479
916.932	6414
917.044	6372
917.156	6414
917.268	6300
917.38	6342
917.491	6338
917.603	6391
917.715	6388
917.826	6350
917.938	6369
918.049	6254
918.161	6338
918.272	6384
918.384	6445
918.495	6323
918.606	6224
918.717	6247
918.828	6216
918.939	6270
919.05	6171
919.161	6216
919.272	6121
919.383	6163
919.494	6319
919.604	6429
919.715	6273
919.826	6232
919.936	6273
920.047	6308
920.157	6243
920.267	6448
920.378	6350
920.488	6277
920.598	6407
920.708	6570
920.818	6452
920.928	6399
921.038	6593
921.148	6574
921.258	6361
921.368	6331
921.477	6277
921.587	6148
921.697	6125
921.806	6209
921.916	6102
922.025	5961
922.134	5912
922.244	5904
922.353	5965
922.462	5874
922.571	5844
922.68	5733
922.789	5665
922.898	5649
923.007	5657
923.116	5707
923.224	5699
923.333	5634
923.442	5592
923.55	5581
923.659	5562
923.767	5615
923.876	5558
923.984	5554
924.092	5509
924.201	5539
924.309	5528
924.417	5539
924.525	5524
924.633	5493
924.741	6095
924.849	5406
924.956	5478
925.064	5337
925.172	5284
925.279	5311
925.387	5372
925.494	5387
925.602	5448
925.709	5406
925.816	5265
925.924	5311
926.031	5402
926.138	5277
926.245	5387
926.352	5322
926.459	5288
926.566	5368
926.673	5189
926.779	5170
926.886	5079
926.993	5033
927.099	5006
927.206	4972
927.312	4946
927.419	4999
927.525	5029
927.631	4938
927.737	4904
927.843	4831
927.95	4759
928.056	4797
928.162	4847
928.267	4854
928.373	5269
928.479	4843
928.585	4736
928.69	4778
928.796	4736
928.901	4630
929.007	4607
929.112	4694
929.218	4622
929.323	4584
929.428	4565
929.533	4698
929.638	4500
929.743	4558
929.848	4558
929.953	4493
930.058	4440
930.163	4314
930.267	4344
930.372	4421
930.477	4310
930.581	4504
930.685	4367
930.79	4253
930.894	4333
930.998	4192
931.103	4390
931.207	4131
931.311	4082
931.415	4040
931.519	3918
931.623	3941
