Data from glass_V78500241_899.txt Node
Date: Wed Sep 01 19:20:43 CST 2021
User: usil
Spectrometer: V785-0024
Trigger mode: 0
Integration Time (sec): 4.000000E-1
Scans to average: 1
Nonlinearity correction enabled: false
Boxcar width: 0
Storing dark spectrum: false
XAxis mode: Wavelengths
Number of Pixels in Spectrum: 1024
>>>>>Begin Spectral Data<<<<<
801.071	3728
801.214	3778
801.356	3698
801.499	3728
801.641	3728
801.783	3747
801.926	3876
802.068	3850
802.211	3911
802.353	3926
802.496	3869
802.638	3892
802.78	3918
802.923	3972
803.065	3934
803.208	3911
803.35	3903
803.492	3907
803.635	3896
803.777	3823
803.919	3907
804.061	4135
804.204	4017
804.346	3918
804.488	3987
804.63	4048
804.773	3934
804.915	4040
805.057	4166
805.199	4074
805.341	4090
805.483	4131
805.626	4078
805.768	4139
805.91	4253
806.052	4246
806.194	4204
806.336	4329
806.478	4230
806.62	4204
806.762	4207
806.904	4287
807.046	4322
807.188	4234
807.33	4181
807.472	4227
807.614	4185
807.756	4234
807.898	4249
808.04	4246
808.182	4257
808.324	4341
808.465	4375
808.607	4466
808.749	4451
808.891	4466
809.033	4455
809.174	4424
809.316	4280
809.458	4265
809.6	4139
809.741	4177
809.883	4158
810.025	4238
810.166	4242
810.308	4211
810.45	4230
810.591	4249
810.733	4284
810.875	4538
811.016	4824
811.158	5124
811.299	5250
811.441	5334
811.582	5128
811.724	4714
811.865	4489
812.007	4470
812.148	4417
812.29	4394
812.431	4428
812.573	4398
812.714	4371
812.855	4424
812.997	4417
813.138	4485
813.279	4409
813.421	4390
813.562	4375
813.703	4341
813.845	4352
813.986	4310
814.127	4253
814.268	4310
814.41	4287
814.551	4265
814.692	4314
814.833	4276
814.974	4348
815.115	4383
815.256	4280
815.397	4265
815.539	4253
815.68	4207
815.821	4219
815.962	4348
816.103	4310
816.244	4265
816.385	4257
816.526	4284
816.666	4177
816.807	4109
816.948	4185
817.089	4177
817.23	4105
817.371	4086
817.512	4082
817.653	4082
817.793	4036
817.934	4082
818.075	4131
818.216	4090
818.356	4082
818.497	4051
818.638	3922
818.778	3945
818.919	3911
819.06	3911
819.2	3911
819.341	3865
819.481	3838
819.622	3941
819.762	4013
819.903	3941
820.043	3873
820.184	3823
820.324	3812
820.465	3865
820.605	3873
820.746	3884
820.886	3827
821.026	3930
821.167	3884
821.307	3994
821.447	3949
821.588	3975
821.728	3953
821.868	3949
822.008	3888
822.149	3926
822.289	3899
822.429	3759
822.569	3800
822.709	3793
822.849	3717
822.99	3713
823.13	3774
823.27	3797
823.41	3736
823.55	3770
823.69	3728
823.83	3762
823.97	3686
824.11	3606
824.25	3633
824.389	3660
824.529	3686
824.669	3644
824.809	3728
824.949	3762
825.089	3740
825.228	3694
825.368	3603
825.508	3580
825.648	3576
825.787	3591
825.927	3625
826.067	3641
826.206	3663
826.346	3785
826.485	3827
826.625	3884
826.765	3926
826.904	3808
827.044	3610
827.183	3580
827.323	3439
827.462	3526
827.601	3431
827.741	3492
827.88	3500
828.02	3359
828.159	3481
828.298	3496
828.437	3591
828.577	3511
828.716	3564
828.855	3477
828.994	3401
829.134	3355
829.273	3397
829.412	3367
829.551	3367
829.69	3435
829.829	3428
829.968	3466
830.107	3466
830.246	3458
830.385	3367
830.524	3351
830.663	3329
830.802	3264
830.941	3218
831.08	3218
831.219	3264
831.357	3287
831.496	3416
831.635	3245
831.774	3195
831.913	3218
832.051	3093
832.19	3146
832.329	3207
832.467	3176
832.606	3104
832.744	3176
832.883	3169
833.022	3192
833.16	3253
833.299	3313
833.437	3359
833.576	3420
833.714	3424
833.852	3439
833.991	3450
834.129	3477
834.267	3485
834.406	3393
834.544	3462
834.682	3462
834.821	3389
834.959	3549
835.097	3416
835.235	3545
835.373	3492
835.511	3534
835.65	3458
835.788	3469
835.926	3424
836.064	3359
836.202	3424
836.34	3599
836.478	3595
836.615	3534
836.753	3545
836.891	3637
837.029	3599
837.167	3614
837.305	3568
837.443	3587
837.58	3504
837.718	3606
837.856	3599
837.993	3530
838.131	3622
838.269	3595
838.406	3614
838.544	3572
838.681	3485
838.819	3477
838.956	3359
839.094	3389
839.231	3477
839.369	3523
839.506	3751
839.643	3637
839.781	3488
839.918	3458
840.055	3511
840.193	3534
840.33	3576
840.467	3515
840.604	3622
840.742	3800
840.879	3519
841.016	3595
841.153	3618
841.29	3747
841.427	3705
841.564	3728
841.701	3717
841.838	3713
841.975	3736
842.112	3724
842.249	3694
842.385	3648
842.522	3835
842.659	3709
842.796	3720
842.933	3751
843.069	3759
843.206	3690
843.343	3850
843.479	3816
843.616	3812
843.752	3682
843.889	3660
844.025	3861
844.162	3720
844.298	3812
844.435	3797
844.571	3823
844.708	3880
844.844	4006
844.98	4017
845.117	4017
845.253	3953
845.389	3857
845.525	3998
845.661	3994
845.798	3934
845.934	3998
846.07	3987
846.206	4105
846.342	4124
846.478	4086
846.614	3918
846.75	3945
846.886	3865
847.022	4029
847.158	3998
847.294	4032
847.429	3998
847.565	4017
847.701	4234
847.837	3869
847.972	3903
848.108	3972
848.244	4032
848.379	3888
848.515	3835
848.65	3800
848.786	3842
848.921	3854
849.057	3968
849.192	3975
849.328	3934
849.463	3937
849.598	3918
849.734	3896
849.869	3850
850.004	3808
850.14	3827
850.275	3800
850.41	3732
850.545	3724
850.68	3861
850.815	3816
850.95	3793
851.085	3953
851.22	3873
851.355	3854
851.49	3793
851.625	3823
851.76	3804
851.895	3743
852.03	3747
852.165	3835
852.299	3842
852.434	3930
852.569	3899
852.703	3857
852.838	3960
852.973	4025
853.107	4006
853.242	3926
853.376	3816
853.511	3838
853.645	3846
853.78	3991
853.914	3918
854.048	3941
854.183	3861
854.317	3926
854.451	4093
854.585	3975
854.72	3941
854.854	4055
854.988	3907
855.122	4017
855.256	3922
855.39	4013
855.524	4101
855.658	4139
855.792	4074
855.926	4116
856.06	4196
856.194	4196
856.327	4109
856.461	4090
856.595	4124
856.729	4185
856.862	4303
856.996	4253
857.13	4280
857.263	4367
857.397	4367
857.53	4325
857.664	4390
857.797	4360
857.931	4470
858.064	4440
858.197	4466
858.331	4398
858.464	4383
858.597	4371
858.731	4459
858.864	4436
858.997	4424
859.13	4504
859.263	4592
859.396	4596
859.529	4558
859.662	4535
859.795	4535
859.928	4622
860.061	4698
860.194	4774
860.327	4656
860.46	4656
860.592	4736
860.725	4793
860.858	4774
860.99	4736
861.123	4649
861.256	4698
861.388	4786
861.521	5558
861.653	4702
861.786	4748
861.918	4771
862.05	4812
862.183	4873
862.315	4900
862.447	4953
862.58	4930
862.712	4828
862.844	4782
862.976	4847
863.108	4873
863.24	5155
863.372	4835
863.504	4866
863.636	4885
863.768	4927
863.9	5003
864.032	4930
864.164	4968
864.296	5014
864.428	5132
864.559	5136
864.691	5124
864.823	5113
864.954	5151
865.086	5105
865.217	5193
865.349	5166
865.48	5170
865.612	5197
865.743	5280
865.875	5178
866.006	5220
866.137	5201
866.269	5261
866.4	5250
866.531	5246
866.662	5242
866.793	5258
866.924	5292
867.055	5372
867.186	5349
867.317	5395
867.448	5318
867.579	5391
867.71	5417
867.841	5387
867.972	5425
868.103	5463
868.233	5535
868.364	5486
868.495	5520
868.625	5672
868.756	5828
868.886	5649
869.017	5771
869.147	5851
869.278	5885
869.408	5771
869.539	5817
869.669	5988
869.799	5916
869.929	5999
870.06	6041
870.19	6220
870.32	6194
870.45	6247
870.58	6384
870.71	6410
870.84	6486
870.97	6460
871.1	6437
871.23	6620
871.36	6700
871.489	6601
871.619	6703
871.749	6825
871.879	6852
872.008	6970
872.138	7012
872.267	7031
872.397	6996
872.526	7046
872.656	7065
872.785	7217
872.915	7449
873.044	7529
873.173	7586
873.303	7643
873.432	7780
873.561	7898
873.69	7890
873.819	7986
873.948	8111
874.077	8301
874.206	8298
874.335	8507
874.464	8625
874.593	8883
874.722	8941
874.851	9135
874.979	9294
875.108	9431
875.237	9382
875.365	9477
875.494	9644
875.623	9835
875.751	9854
875.88	10036
876.008	10147
876.136	10310
876.265	10500
876.393	10672
876.521	10763
876.65	10824
876.778	10801
876.906	10873
877.034	11029
877.162	11064
877.29	11159
877.418	11322
877.546	11318
877.674	11448
877.802	11455
877.93	11539
878.058	11585
878.185	11562
878.313	11634
878.441	11786
878.568	11748
878.696	11840
878.824	11836
878.951	12045
879.079	12049
879.206	12117
879.333	12015
879.461	12060
879.588	12015
879.715	12114
879.842	12216
879.97	12057
880.097	11832
880.224	11851
880.351	11984
880.478	11935
880.605	11843
880.732	11726
880.859	12022
880.986	11843
881.112	11836
881.239	11760
881.366	11710
881.493	11615
881.619	11558
881.746	11577
881.872	11581
881.999	11535
882.125	11474
882.252	11558
882.378	11436
882.505	11581
882.631	11349
882.757	11337
882.883	11269
883.01	11299
883.136	11254
883.262	11075
883.388	11033
883.514	11201
883.64	11227
883.766	11121
883.892	11025
884.018	11037
884.143	11140
884.269	11178
884.395	10847
884.52	10824
884.646	10820
884.772	10725
884.897	10736
885.023	10740
885.148	10793
885.274	10740
885.399	10767
885.524	10607
885.65	10577
885.775	10603
885.9	10542
886.025	10630
886.15	10527
886.275	10451
886.4	10402
886.525	10386
886.65	10405
886.775	10413
886.9	10470
887.025	10470
887.149	10421
887.274	10246
887.399	10211
887.523	10154
887.648	10169
887.773	10143
887.897	10280
888.021	10261
888.146	10181
888.27	10299
888.395	10272
888.519	10227
888.643	10166
888.767	10227
888.891	10048
889.015	9983
889.139	10124
889.263	10013
889.387	10105
889.511	10086
889.635	10063
889.759	10029
889.883	9998
890.006	10082
890.13	10120
890.254	9994
890.377	9991
890.501	9892
890.624	9956
890.748	9789
890.871	9816
890.995	9686
891.118	9671
891.241	9781
891.364	9789
891.488	9835
891.611	9709
891.734	9751
891.857	9663
891.98	9709
892.103	9770
892.226	9759
892.349	9641
892.471	9545
892.594	9641
892.717	9652
892.839	9603
892.962	9641
893.085	9614
893.207	9549
893.33	9561
893.452	9568
893.575	9576
893.697	9477
893.819	9686
893.941	9648
894.064	9599
894.186	9431
894.308	9329
894.43	9519
894.552	9587
894.674	9576
894.796	9393
894.918	9325
895.04	9359
895.161	9370
895.283	9310
895.405	9294
895.526	9317
895.648	9245
895.769	9298
895.891	9241
896.012	9294
896.134	9218
896.255	9283
896.376	9154
896.498	9211
896.619	9180
896.74	9112
896.861	9070
896.982	9275
897.103	9321
897.224	9184
897.345	9001
897.466	8979
897.587	9020
897.708	9062
897.828	9066
897.949	8918
898.07	8937
898.19	8921
898.311	8971
898.431	8952
898.552	8895
898.672	9005
898.792	8956
898.913	8864
899.033	8800
899.153	8758
899.273	8701
899.393	8693
899.513	8712
899.633	8754
899.753	8743
899.873	8743
899.993	8712
900.113	8758
900.232	8708
900.352	8693
900.472	8590
900.591	8587
900.711	8648
900.83	8610
900.95	8701
901.069	8686
901.189	8575
901.308	8476
901.427	8431
901.546	8469
901.665	8457
901.784	8514
901.904	8446
902.023	8336
902.141	8237
902.26	8180
902.379	8252
902.498	8221
902.617	8252
902.735	8259
902.854	8298
902.973	8229
903.091	8084
903.21	8103
903.328	8126
903.446	8077
903.565	8058
903.683	8142
903.801	8103
903.919	8138
904.038	8161
904.156	7967
904.274	8073
904.392	8077
904.51	7982
904.627	8035
904.745	8107
904.863	8111
904.981	7932
905.098	7902
905.216	7871
905.334	7833
905.451	7974
905.569	7864
905.686	7928
905.803	7906
905.921	7765
906.038	7940
906.155	7765
906.272	7757
906.389	7727
906.506	7685
906.623	7643
906.74	7674
906.857	7643
906.974	7632
907.091	7662
907.208	7757
907.324	7601
907.441	7605
907.557	7499
907.674	7487
907.79	7388
907.907	7400
908.023	7438
908.139	7457
908.256	7377
908.372	7449
908.488	7316
908.604	7247
908.72	7270
908.836	7301
908.952	7274
909.068	7255
909.184	7346
909.3	7282
909.415	7289
909.531	7274
909.647	7217
909.762	7118
909.878	7137
909.993	7126
910.108	7065
910.224	7038
910.339	7103
910.454	7084
910.57	7042
910.685	6909
910.8	7118
910.915	7126
911.03	6970
911.145	6901
911.259	6924
911.374	6882
911.489	6837
911.604	6833
911.718	6741
911.833	6745
911.947	6669
912.062	6578
912.176	6722
912.291	6734
912.405	6703
912.519	6814
912.633	6791
912.748	6745
912.862	6722
912.976	6589
913.09	6597
913.204	6601
913.318	6627
913.431	6715
913.545	6738
913.659	6806
913.772	6692
913.886	6566
914	6525
914.113	6593
914.226	6631
914.34	6578
914.453	6494
914.566	6604
914.68	6551
914.793	6555
914.906	6353
915.019	6342
915.132	6391
915.245	6433
915.358	6426
915.47	6479
915.583	6437
915.696	6479
915.809	6494
915.921	6544
916.034	6361
916.146	6418
916.259	6372
916.371	6498
916.483	6448
916.595	6395
916.708	6410
916.82	6433
916.932	6403
917.044	6384
917.156	6429
917.268	6232
917.38	6384
917.491	6342
917.603	6357
917.715	6410
917.826	6456
917.938	6334
918.049	6254
918.161	6365
918.272	6486
918.384	6456
918.495	6365
918.606	6228
918.717	6213
918.828	6270
918.939	6334
919.05	6262
919.161	6235
919.272	6106
919.383	6140
919.494	6315
919.604	6399
919.715	6338
919.826	6228
919.936	6247
920.047	6361
920.157	6239
920.267	6464
920.378	6304
920.488	6308
920.598	6441
920.708	6532
920.818	6445
920.928	6486
921.038	6597
921.148	6620
921.258	6376
921.368	6334
921.477	6285
921.587	6251
921.697	6030
921.806	6228
921.916	6079
922.025	5965
922.134	5942
922.244	5863
922.353	5988
922.462	5874
922.571	5813
922.68	5710
922.789	5684
922.898	5722
923.007	5672
923.116	5714
923.224	5657
923.333	5604
923.442	5551
923.55	5570
923.659	5604
923.767	5634
923.876	5535
923.984	5615
924.092	5528
924.201	5638
924.309	5535
924.417	5520
924.525	5532
924.633	5505
924.741	6171
924.849	5391
924.956	5543
925.064	5357
925.172	5326
925.279	5303
925.387	5296
925.494	5337
925.602	5455
925.709	5379
925.816	5254
925.924	5273
926.031	5383
926.138	5318
926.245	5326
926.352	5223
926.459	5372
926.566	5326
926.673	5216
926.779	5181
926.886	5128
926.993	5060
927.099	5006
927.206	4942
927.312	4889
927.419	5018
927.525	4976
927.631	5010
927.737	4927
927.843	4839
927.95	4774
928.056	4843
928.162	4850
928.267	4908
928.373	5345
928.479	4847
928.585	4683
928.69	4752
928.796	4763
928.901	4702
929.007	4630
929.112	4653
929.218	4664
929.323	4611
929.428	4577
929.533	4706
929.638	4508
929.743	4504
929.848	4577
929.953	4493
930.058	4466
930.163	4333
930.267	4341
930.372	4421
930.477	4310
930.581	4421
930.685	4421
930.79	4249
930.894	4287
930.998	4272
931.103	4413
931.207	4135
931.311	4139
931.415	4048
931.519	3941
931.623	3968
