Data from glass_V78500241_2154.txt Node
Date: Wed Sep 01 19:29:25 CST 2021
User: usil
Spectrometer: V785-0024
Trigger mode: 0
Integration Time (sec): 4.000000E-1
Scans to average: 1
Nonlinearity correction enabled: false
Boxcar width: 0
Storing dark spectrum: false
XAxis mode: Wavelengths
Number of Pixels in Spectrum: 1024
>>>>>Begin Spectral Data<<<<<
801.071	3774
801.214	3713
801.356	3698
801.499	3728
801.641	3724
801.783	3736
801.926	3873
802.068	3842
802.211	3873
802.353	3896
802.496	3873
802.638	3884
802.78	3903
802.923	3922
803.065	3888
803.208	3842
803.35	3861
803.492	3918
803.635	3873
803.777	3774
803.919	3922
804.061	4128
804.204	3911
804.346	3915
804.488	3915
804.63	4055
804.773	3964
804.915	3979
805.057	4112
805.199	4032
805.341	4101
805.483	4105
805.626	4109
805.768	4124
805.91	4196
806.052	4219
806.194	4230
806.336	4344
806.478	4219
806.62	4200
806.762	4192
806.904	4253
807.046	4295
807.188	4204
807.33	4154
807.472	4253
807.614	4200
807.756	4276
807.898	4230
808.04	4200
808.182	4257
808.324	4318
808.465	4421
808.607	4462
808.749	4489
808.891	4451
809.033	4527
809.174	4363
809.316	4200
809.458	4230
809.6	4173
809.741	4105
809.883	4166
810.025	4223
810.166	4185
810.308	4200
810.45	4200
810.591	4272
810.733	4261
810.875	4493
811.016	4854
811.158	5086
811.299	5239
811.441	5307
811.582	5090
811.724	4714
811.865	4436
812.007	4478
812.148	4409
812.29	4405
812.431	4436
812.573	4390
812.714	4363
812.855	4367
812.997	4379
813.138	4459
813.279	4386
813.421	4405
813.562	4352
813.703	4325
813.845	4352
813.986	4188
814.127	4188
814.268	4261
814.41	4314
814.551	4276
814.692	4337
814.833	4253
814.974	4295
815.115	4322
815.256	4287
815.397	4223
815.539	4265
815.68	4200
815.821	4223
815.962	4295
816.103	4238
816.244	4238
816.385	4185
816.526	4246
816.666	4215
816.807	4090
816.948	4173
817.089	4166
817.23	4124
817.371	4044
817.512	4093
817.653	4074
817.793	4093
817.934	4059
818.075	4078
818.216	4078
818.356	4090
818.497	3968
818.638	3926
818.778	3865
818.919	3945
819.06	3835
819.2	3884
819.341	3888
819.481	3865
819.622	3869
819.762	3994
819.903	3972
820.043	3850
820.184	3816
820.324	3789
820.465	3873
820.605	3842
820.746	3842
820.886	3789
821.026	3903
821.167	3934
821.307	3960
821.447	4006
821.588	3975
821.728	3911
821.868	3896
822.008	3842
822.149	3873
822.289	3907
822.429	3819
822.569	3766
822.709	3766
822.849	3694
822.99	3762
823.13	3747
823.27	3789
823.41	3728
823.55	3766
823.69	3736
823.83	3728
823.97	3671
824.11	3603
824.25	3606
824.389	3625
824.529	3675
824.669	3641
824.809	3682
824.949	3743
825.089	3732
825.228	3686
825.368	3591
825.508	3549
825.648	3572
825.787	3622
825.927	3633
826.067	3599
826.206	3720
826.346	3762
826.485	3842
826.625	3835
826.765	3926
826.904	3816
827.044	3637
827.183	3542
827.323	3386
827.462	3481
827.601	3409
827.741	3447
827.88	3439
828.02	3363
828.159	3462
828.298	3504
828.437	3488
828.577	3466
828.716	3618
828.855	3488
828.994	3393
829.134	3355
829.273	3401
829.412	3374
829.551	3302
829.69	3367
829.829	3420
829.968	3515
830.107	3409
830.246	3450
830.385	3344
830.524	3325
830.663	3253
830.802	3264
830.941	3195
831.08	3211
831.219	3245
831.357	3245
831.496	3397
831.635	3222
831.774	3192
831.913	3195
832.051	3112
832.19	3154
832.329	3214
832.467	3154
832.606	3081
832.744	3135
832.883	3188
833.022	3176
833.16	3245
833.299	3310
833.437	3325
833.576	3401
833.714	3389
833.852	3458
833.991	3454
834.129	3443
834.267	3435
834.406	3401
834.544	3405
834.682	3409
834.821	3409
834.959	3564
835.097	3416
835.235	3515
835.373	3485
835.511	3557
835.65	3477
835.788	3488
835.926	3344
836.064	3336
836.202	3386
836.34	3568
836.478	3629
836.615	3538
836.753	3564
836.891	3690
837.029	3610
837.167	3614
837.305	3530
837.443	3561
837.58	3519
837.718	3595
837.856	3545
837.993	3526
838.131	3587
838.269	3572
838.406	3603
838.544	3564
838.681	3481
838.819	3447
838.956	3355
839.094	3386
839.231	3412
839.369	3549
839.506	3736
839.643	3618
839.781	3485
839.918	3447
840.055	3477
840.193	3515
840.33	3496
840.467	3545
840.604	3587
840.742	3838
840.879	3576
841.016	3561
841.153	3572
841.29	3751
841.427	3732
841.564	3713
841.701	3701
841.838	3690
841.975	3675
842.112	3713
842.249	3622
842.385	3660
842.522	3808
842.659	3690
842.796	3667
842.933	3709
843.069	3686
843.206	3675
843.343	3793
843.479	3778
843.616	3808
843.752	3713
843.889	3648
844.025	3842
844.162	3694
844.298	3850
844.435	3778
844.571	3743
844.708	3888
844.844	3975
844.98	3979
845.117	4021
845.253	3953
845.389	3880
845.525	3968
845.661	3937
845.798	3934
845.934	3964
846.07	3915
846.206	4032
846.342	4109
846.478	4067
846.614	3972
846.75	3915
846.886	3911
847.022	4013
847.158	4010
847.294	4002
847.429	3975
847.565	4010
847.701	4181
847.837	3869
847.972	3884
848.108	3975
848.244	3972
848.379	3850
848.515	3759
848.65	3842
848.786	3876
848.921	3888
849.057	3926
849.192	3896
849.328	3903
849.463	3915
849.598	3907
849.734	3838
849.869	3827
850.004	3778
850.14	3838
850.275	3789
850.41	3751
850.545	3717
850.68	3759
850.815	3778
850.95	3816
851.085	3922
851.22	3838
851.355	3835
851.49	3770
851.625	3785
851.76	3808
851.895	3751
852.03	3732
852.165	3797
852.299	3823
852.434	3922
852.569	3838
852.703	3880
852.838	3876
852.973	3991
853.107	3998
853.242	3907
853.376	3880
853.511	3774
853.645	3816
853.78	4002
853.914	3869
854.048	3911
854.183	3869
854.317	3956
854.451	4048
854.585	3960
854.72	3903
854.854	4040
854.988	3911
855.122	4002
855.256	3945
855.39	3964
855.524	4112
855.658	4097
855.792	4074
855.926	4135
856.06	4154
856.194	4188
856.327	4150
856.461	4147
856.595	4120
856.729	4131
856.862	4295
856.996	4257
857.13	4295
857.263	4325
857.397	4337
857.53	4303
857.664	4318
857.797	4398
857.931	4386
858.064	4459
858.197	4432
858.331	4379
858.464	4348
858.597	4322
858.731	4470
858.864	4481
858.997	4455
859.13	4489
859.263	4481
859.396	4599
859.529	4485
859.662	4531
859.795	4443
859.928	4618
860.061	4683
860.194	4698
860.327	4649
860.46	4622
860.592	4706
860.725	4782
860.858	4748
860.99	4706
861.123	4649
861.256	4725
861.388	4717
861.521	5436
861.653	4721
861.786	4694
861.918	4710
862.05	4786
862.183	4812
862.315	4904
862.447	4930
862.58	4850
862.712	4801
862.844	4778
862.976	4858
863.108	4839
863.24	5193
863.372	4889
863.504	4911
863.636	4915
863.768	5022
863.9	4968
864.032	4923
864.164	4976
864.296	5041
864.428	5079
864.559	5086
864.691	5140
864.823	5117
864.954	5102
865.086	5117
865.217	5147
865.349	5090
865.48	5155
865.612	5223
865.743	5261
865.875	5231
866.006	5140
866.137	5239
866.269	5216
866.4	5174
866.531	5201
866.662	5239
866.793	5227
866.924	5284
867.055	5311
867.186	5318
867.317	5303
867.448	5269
867.579	5341
867.71	5357
867.841	5349
867.972	5391
868.103	5440
868.233	5444
868.364	5486
868.495	5528
868.625	5642
868.756	5817
868.886	5657
869.017	5684
869.147	5824
869.278	5870
869.408	5832
869.539	5813
869.669	5844
869.799	5885
869.929	5954
870.06	6049
870.19	6201
870.32	6197
870.45	6296
870.58	6338
870.71	6483
870.84	6467
870.97	6433
871.1	6433
871.23	6570
871.36	6703
871.489	6559
871.619	6722
871.749	6795
871.879	6886
872.008	6970
872.138	6954
872.267	6993
872.397	6973
872.526	6970
872.656	7042
872.785	7206
872.915	7400
873.044	7514
873.173	7529
873.303	7632
873.432	7761
873.561	7894
873.69	7913
873.819	8001
873.948	8187
874.077	8180
874.206	8313
874.335	8495
874.464	8606
874.593	8826
874.722	8883
874.851	9146
874.979	9302
875.108	9317
875.237	9481
875.365	9504
875.494	9633
875.623	9812
875.751	9778
875.88	10051
876.008	10055
876.136	10268
876.265	10569
876.393	10736
876.521	10687
876.65	10892
876.778	10858
876.906	10923
877.034	11037
877.162	11178
877.29	11147
877.418	11372
877.546	11311
877.674	11425
877.802	11395
877.93	11577
878.058	11528
878.185	11573
878.313	11684
878.441	11733
878.568	11688
878.696	11843
878.824	11824
878.951	11939
879.079	12011
879.206	12144
879.333	12015
879.461	12003
879.588	12087
879.715	12011
879.842	12140
879.97	11999
880.097	11882
880.224	11923
880.351	11855
880.478	11878
880.605	11783
880.732	11767
880.859	11954
880.986	11828
881.112	11866
881.239	11756
881.366	11581
881.493	11619
881.619	11600
881.746	11600
881.872	11566
881.999	11532
882.125	11406
882.252	11524
882.378	11528
882.505	11554
882.631	11391
882.757	11292
882.883	11254
883.01	11265
883.136	11273
883.262	11162
883.388	11151
883.514	11090
883.64	11155
883.766	11128
883.892	11048
884.018	10938
884.143	11060
884.269	11056
884.395	10869
884.52	10748
884.646	10805
884.772	10672
884.897	10596
885.023	10637
885.148	10725
885.274	10812
885.399	10672
885.524	10626
885.65	10546
885.775	10618
885.9	10512
886.025	10626
886.15	10504
886.275	10432
886.4	10363
886.525	10409
886.65	10436
886.775	10341
886.9	10447
887.025	10538
887.149	10356
887.274	10215
887.399	10246
887.523	10181
887.648	10162
887.773	10090
887.897	10295
888.021	10223
888.146	10120
888.27	10169
888.395	10188
888.519	10173
888.643	10185
888.767	10200
888.891	10082
889.015	10010
889.139	10078
889.263	10002
889.387	10010
889.511	10063
889.635	10120
889.759	10021
889.883	9956
890.006	9975
890.13	10025
890.254	9930
890.377	9918
890.501	9835
890.624	9819
890.748	9922
890.871	9812
890.995	9713
891.118	9705
891.241	9762
891.364	9701
891.488	9724
891.611	9759
891.734	9743
891.857	9846
891.98	9736
892.103	9778
892.226	9724
892.349	9698
892.471	9481
892.594	9629
892.717	9606
892.839	9629
892.962	9568
893.085	9580
893.207	9682
893.33	9477
893.452	9572
893.575	9587
893.697	9568
893.819	9599
893.941	9656
894.064	9614
894.186	9466
894.308	9386
894.43	9515
894.552	9576
894.674	9485
894.796	9450
894.918	9401
895.04	9325
895.161	9336
895.283	9332
895.405	9203
895.526	9279
895.648	9275
895.769	9207
895.891	9222
896.012	9272
896.134	9226
896.255	9150
896.376	9081
896.498	9154
896.619	9123
896.74	9001
896.861	9070
896.982	9207
897.103	9313
897.224	9180
897.345	9055
897.466	8910
897.587	8937
897.708	9043
897.828	9051
897.949	8914
898.07	8781
898.19	8868
898.311	8990
898.431	8861
898.552	8872
898.672	8948
898.792	8933
898.913	8925
899.033	8842
899.153	8807
899.273	8651
899.393	8739
899.513	8746
899.633	8724
899.753	8708
899.873	8667
899.993	8724
900.113	8686
900.232	8735
900.352	8564
900.472	8571
900.591	8533
900.711	8587
900.83	8556
900.95	8705
901.069	8663
901.189	8556
901.308	8476
901.427	8355
901.546	8431
901.665	8431
901.784	8507
901.904	8381
902.023	8279
902.141	8199
902.26	8206
902.379	8263
902.498	8229
902.617	8229
902.735	8301
902.854	8259
902.973	8252
903.091	8138
903.21	8134
903.328	8145
903.446	8084
903.565	8062
903.683	8115
903.801	8096
903.919	8069
904.038	8058
904.156	8016
904.274	8069
904.392	8069
904.51	8027
904.627	8027
904.745	8107
904.863	8050
904.981	7898
905.098	7864
905.216	7849
905.334	7807
905.451	7852
905.569	7826
905.686	7936
905.803	7917
905.921	7830
906.038	7860
906.155	7837
906.272	7734
906.389	7696
906.506	7613
906.623	7571
906.74	7597
906.857	7518
906.974	7582
907.091	7719
907.208	7681
907.324	7632
907.441	7567
907.557	7480
907.674	7460
907.79	7354
907.907	7438
908.023	7434
908.139	7407
908.256	7346
908.372	7335
908.488	7343
908.604	7240
908.72	7225
908.836	7263
908.952	7232
909.068	7168
909.184	7324
909.3	7255
909.415	7343
909.531	7301
909.647	7118
909.762	7084
909.878	7084
909.993	7072
910.108	7099
910.224	7084
910.339	7126
910.454	7076
910.57	6954
910.685	6954
910.8	7164
910.915	7091
911.03	6905
911.145	6928
911.259	6810
911.374	6913
911.489	6776
911.604	6764
911.718	6635
911.833	6764
911.947	6677
912.062	6589
912.176	6662
912.291	6692
912.405	6665
912.519	6806
912.633	6802
912.748	6760
912.862	6768
912.976	6544
913.09	6517
913.204	6574
913.318	6540
913.431	6669
913.545	6604
913.659	6700
913.772	6665
913.886	6604
914	6555
914.113	6642
914.226	6650
914.34	6616
914.453	6460
914.566	6559
914.68	6502
914.793	6525
914.906	6391
915.019	6441
915.132	6426
915.245	6426
915.358	6429
915.47	6407
915.583	6426
915.696	6517
915.809	6494
915.921	6582
916.034	6410
916.146	6395
916.259	6391
916.371	6471
916.483	6426
916.595	6391
916.708	6399
916.82	6319
916.932	6369
917.044	6376
917.156	6388
917.268	6365
917.38	6308
917.491	6350
917.603	6357
917.715	6353
917.826	6429
917.938	6304
918.049	6232
918.161	6311
918.272	6441
918.384	6464
918.495	6441
918.606	6228
918.717	6216
918.828	6239
918.939	6334
919.05	6209
919.161	6266
919.272	6091
919.383	6155
919.494	6273
919.604	6380
919.715	6300
919.826	6243
919.936	6247
920.047	6327
920.157	6266
920.267	6456
920.378	6315
920.488	6273
920.598	6483
920.708	6506
920.818	6403
920.928	6494
921.038	6601
921.148	6555
921.258	6369
921.368	6300
921.477	6205
921.587	6159
921.697	6072
921.806	6186
921.916	6053
922.025	5954
922.134	5847
922.244	5885
922.353	5912
922.462	5817
922.571	5817
922.68	5733
922.789	5680
922.898	5726
923.007	5589
923.116	5703
923.224	5634
923.333	5688
923.442	5604
923.55	5501
923.659	5558
923.767	5581
923.876	5501
923.984	5592
924.092	5566
924.201	5558
924.309	5570
924.417	5577
924.525	5558
924.633	5444
924.741	6254
924.849	5448
924.956	5501
925.064	5349
925.172	5318
925.279	5273
925.387	5379
925.494	5379
925.602	5398
925.709	5376
925.816	5269
925.924	5311
926.031	5315
926.138	5318
926.245	5337
926.352	5235
926.459	5258
926.566	5307
926.673	5178
926.779	5117
926.886	5132
926.993	4999
927.099	5018
927.206	4904
927.312	4938
927.419	5025
927.525	4984
927.631	4953
927.737	4908
927.843	4873
927.95	4717
928.056	4771
928.162	4843
928.267	4828
928.373	5280
928.479	4850
928.585	4694
928.69	4744
928.796	4721
928.901	4641
929.007	4569
929.112	4679
929.218	4588
929.323	4603
929.428	4523
929.533	4660
929.638	4474
929.743	4550
929.848	4542
929.953	4558
930.058	4443
930.163	4367
930.267	4318
930.372	4459
930.477	4306
930.581	4466
930.685	4333
930.79	4185
930.894	4333
930.998	4242
931.103	4402
931.207	4093
931.311	4067
931.415	4029
931.519	3930
931.623	3915
