Data from glass_V78500241_148.txt Node
Date: Wed Sep 01 19:15:31 CST 2021
User: usil
Spectrometer: V785-0024
Trigger mode: 0
Integration Time (sec): 4.000000E-1
Scans to average: 1
Nonlinearity correction enabled: false
Boxcar width: 0
Storing dark spectrum: false
XAxis mode: Wavelengths
Number of Pixels in Spectrum: 1024
>>>>>Begin Spectral Data<<<<<
801.071	3755
801.214	3759
801.356	3705
801.499	3755
801.641	3717
801.783	3785
801.926	3880
802.068	3823
802.211	3865
802.353	3876
802.496	3880
802.638	3876
802.78	3892
802.923	3907
803.065	3903
803.208	3831
803.35	3918
803.492	3926
803.635	3918
803.777	3785
803.919	3945
804.061	4143
804.204	4006
804.346	3983
804.488	3930
804.63	4055
804.773	3983
804.915	4044
805.057	4188
805.199	4051
805.341	4074
805.483	4124
805.626	4128
805.768	4139
805.91	4211
806.052	4257
806.194	4257
806.336	4367
806.478	4207
806.62	4230
806.762	4207
806.904	4306
807.046	4352
807.188	4219
807.33	4173
807.472	4249
807.614	4238
807.756	4246
807.898	4253
808.04	4204
808.182	4291
808.324	4310
808.465	4413
808.607	4462
808.749	4516
808.891	4459
809.033	4516
809.174	4428
809.316	4291
809.458	4234
809.6	4169
809.741	4158
809.883	4166
810.025	4173
810.166	4242
810.308	4227
810.45	4261
810.591	4223
810.733	4303
810.875	4584
811.016	4873
811.158	5159
811.299	5296
811.441	5284
811.582	5079
811.724	4736
811.865	4451
812.007	4497
812.148	4481
812.29	4409
812.431	4424
812.573	4428
812.714	4443
812.855	4466
812.997	4462
813.138	4497
813.279	4409
813.421	4447
813.562	4383
813.703	4386
813.845	4348
813.986	4295
814.127	4227
814.268	4303
814.41	4306
814.551	4272
814.692	4295
814.833	4318
814.974	4325
815.115	4352
815.256	4238
815.397	4246
815.539	4234
815.68	4185
815.821	4249
815.962	4303
816.103	4314
816.244	4261
816.385	4242
816.526	4306
816.666	4207
816.807	4105
816.948	4188
817.089	4177
817.23	4150
817.371	4120
817.512	4093
817.653	4109
817.793	4036
817.934	4078
818.075	4097
818.216	4078
818.356	4128
818.497	4040
818.638	3915
818.778	3903
818.919	3911
819.06	3880
819.2	3930
819.341	3865
819.481	3865
819.622	3888
819.762	4036
819.903	3960
820.043	3873
820.184	3838
820.324	3835
820.465	3926
820.605	3850
820.746	3896
820.886	3778
821.026	3922
821.167	3987
821.307	3991
821.447	3979
821.588	4002
821.728	3934
821.868	3945
822.008	3857
822.149	3907
822.289	3907
822.429	3781
822.569	3732
822.709	3831
822.849	3743
822.99	3747
823.13	3789
823.27	3778
823.41	3720
823.55	3755
823.69	3793
823.83	3755
823.97	3720
824.11	3603
824.25	3633
824.389	3671
824.529	3701
824.669	3671
824.809	3736
824.949	3808
825.089	3751
825.228	3675
825.368	3595
825.508	3591
825.648	3599
825.787	3625
825.927	3671
826.067	3606
826.206	3701
826.346	3831
826.485	3842
826.625	3888
826.765	3937
826.904	3838
827.044	3644
827.183	3553
827.323	3473
827.462	3473
827.601	3454
827.741	3469
827.88	3458
828.02	3416
828.159	3458
828.298	3492
828.437	3564
828.577	3469
828.716	3584
828.855	3485
828.994	3405
829.134	3397
829.273	3469
829.412	3374
829.551	3389
829.69	3348
829.829	3431
829.968	3549
830.107	3458
830.246	3450
830.385	3405
830.524	3363
830.663	3325
830.802	3264
830.941	3230
831.08	3226
831.219	3264
831.357	3298
831.496	3405
831.635	3272
831.774	3180
831.913	3237
832.051	3176
832.19	3192
832.329	3253
832.467	3165
832.606	3131
832.744	3142
832.883	3165
833.022	3192
833.16	3260
833.299	3329
833.437	3359
833.576	3382
833.714	3389
833.852	3466
833.991	3496
834.129	3485
834.267	3454
834.406	3405
834.544	3435
834.682	3416
834.821	3393
834.959	3595
835.097	3397
835.235	3549
835.373	3515
835.511	3572
835.65	3450
835.788	3500
835.926	3409
836.064	3409
836.202	3428
836.34	3511
836.478	3629
836.615	3564
836.753	3580
836.891	3656
837.029	3637
837.167	3618
837.305	3584
837.443	3576
837.58	3492
837.718	3603
837.856	3557
837.993	3591
838.131	3603
838.269	3606
838.406	3614
838.544	3568
838.681	3519
838.819	3450
838.956	3393
839.094	3382
839.231	3443
839.369	3538
839.506	3740
839.643	3633
839.781	3496
839.918	3439
840.055	3526
840.193	3542
840.33	3542
840.467	3587
840.604	3614
840.742	3831
840.879	3557
841.016	3572
841.153	3637
841.29	3755
841.427	3717
841.564	3698
841.701	3766
841.838	3701
841.975	3701
842.112	3743
842.249	3660
842.385	3614
842.522	3831
842.659	3728
842.796	3728
842.933	3709
843.069	3709
843.206	3740
843.343	3857
843.479	3819
843.616	3846
843.752	3720
843.889	3701
844.025	3876
844.162	3709
844.298	3873
844.435	3812
844.571	3762
844.708	3896
844.844	4017
844.98	4036
845.117	4025
845.253	3968
845.389	3918
845.525	3983
845.661	4013
845.798	3892
845.934	4017
846.07	3998
846.206	4017
846.342	4154
846.478	4040
846.614	3987
846.75	3945
846.886	3896
847.022	4036
847.158	4013
847.294	3983
847.429	4029
847.565	4017
847.701	4249
847.837	3945
847.972	3911
848.108	4017
848.244	3956
848.379	3884
848.515	3827
848.65	3827
848.786	3842
848.921	3892
849.057	3880
849.192	3953
849.328	3930
849.463	3949
849.598	3896
849.734	3873
849.869	3804
850.004	3804
850.14	3838
850.275	3797
850.41	3751
850.545	3755
850.68	3816
850.815	3804
850.95	3816
851.085	3937
851.22	3884
851.355	3846
851.49	3781
851.625	3816
851.76	3778
851.895	3747
852.03	3732
852.165	3861
852.299	3861
852.434	3926
852.569	3854
852.703	3907
852.838	3934
852.973	4002
853.107	4002
853.242	3934
853.376	3888
853.511	3804
853.645	3835
853.78	3994
853.914	3888
854.048	3903
854.183	3915
854.317	3994
854.451	4116
854.585	3983
854.72	3960
854.854	4067
854.988	3972
855.122	4044
855.256	3922
855.39	4048
855.524	4074
855.658	4105
855.792	4143
855.926	4166
856.06	4188
856.194	4227
856.327	4177
856.461	4162
856.595	4192
856.729	4215
856.862	4325
856.996	4265
857.13	4325
857.263	4314
857.397	4356
857.53	4344
857.664	4322
857.797	4432
857.931	4428
858.064	4428
858.197	4466
858.331	4367
858.464	4383
858.597	4386
858.731	4424
858.864	4497
858.997	4474
859.13	4550
859.263	4569
859.396	4588
859.529	4516
859.662	4569
859.795	4474
859.928	4630
860.061	4702
860.194	4733
860.327	4710
860.46	4630
860.592	4790
860.725	4801
860.858	4778
860.99	4664
861.123	4710
861.256	4694
861.388	4778
861.521	5512
861.653	4706
861.786	4740
861.918	4759
862.05	4839
862.183	4877
862.315	4870
862.447	4896
862.58	4908
862.712	4854
862.844	4790
862.976	4885
863.108	4911
863.24	5303
863.372	4870
863.504	4938
863.636	4866
863.768	5010
863.9	5010
864.032	4919
864.164	5014
864.296	5029
864.428	5086
864.559	5105
864.691	5124
864.823	5090
864.954	5140
865.086	5117
865.217	5208
865.349	5102
865.48	5197
865.612	5178
865.743	5303
865.875	5197
866.006	5235
866.137	5277
866.269	5201
866.4	5269
866.531	5280
866.662	5265
866.793	5288
866.924	5284
867.055	5318
867.186	5337
867.317	5349
867.448	5368
867.579	5353
867.71	5414
867.841	5376
867.972	5448
868.103	5509
868.233	5455
868.364	5493
868.495	5539
868.625	5733
868.756	5836
868.886	5688
869.017	5726
869.147	5828
869.278	5817
869.408	5840
869.539	5904
869.669	5939
869.799	5958
869.929	6003
870.06	6041
870.19	6266
870.32	6190
870.45	6300
870.58	6350
870.71	6429
870.84	6479
870.97	6422
871.1	6456
871.23	6692
871.36	6700
871.489	6623
871.619	6749
871.749	6818
871.879	6878
872.008	6951
872.138	7042
872.267	7027
872.397	7023
872.526	7053
872.656	7080
872.785	7228
872.915	7422
873.044	7529
873.173	7548
873.303	7677
873.432	7753
873.561	7894
873.69	7909
873.819	8092
873.948	8206
874.077	8183
874.206	8328
874.335	8473
874.464	8648
874.593	8868
874.722	8971
874.851	9108
874.979	9241
875.108	9431
875.237	9374
875.365	9424
875.494	9682
875.623	9880
875.751	9884
875.88	10032
876.008	10147
876.136	10276
876.265	10584
876.393	10740
876.521	10706
876.65	10923
876.778	10809
876.906	10824
877.034	11071
877.162	11079
877.29	11121
877.418	11288
877.546	11311
877.674	11421
877.802	11455
877.93	11516
878.058	11524
878.185	11596
878.313	11630
878.441	11737
878.568	11729
878.696	11718
878.824	11802
878.951	11969
879.079	12121
879.206	12224
879.333	12083
879.461	11992
879.588	11977
879.715	12079
879.842	12216
879.97	12091
880.097	11798
880.224	11961
880.351	11882
880.478	11954
880.605	11813
880.732	11840
880.859	11977
880.986	11863
881.112	11866
881.239	11786
881.366	11745
881.493	11729
881.619	11608
881.746	11558
881.872	11558
881.999	11501
882.125	11547
882.252	11562
882.378	11573
882.505	11543
882.631	11280
882.757	11345
882.883	11330
883.01	11246
883.136	11212
883.262	11083
883.388	11014
883.514	11201
883.64	11178
883.766	11071
883.892	11018
884.018	10999
884.143	11143
884.269	11090
884.395	10873
884.52	10759
884.646	10793
884.772	10687
884.897	10664
885.023	10687
885.148	10740
885.274	10748
885.399	10668
885.524	10672
885.65	10702
885.775	10664
885.9	10519
886.025	10626
886.15	10565
886.275	10436
886.4	10386
886.525	10470
886.65	10337
886.775	10333
886.9	10531
887.025	10569
887.149	10402
887.274	10280
887.399	10261
887.523	10169
887.648	10147
887.773	10090
887.897	10265
888.021	10284
888.146	10101
888.27	10227
888.395	10230
888.519	10337
888.643	10150
888.767	10238
888.891	10074
889.015	10013
889.139	10013
889.263	9987
889.387	10036
889.511	10109
889.635	10147
889.759	9964
889.883	10021
890.006	9987
890.13	10086
890.254	10021
890.377	9922
890.501	9884
890.624	9865
890.748	9869
890.871	9857
890.995	9789
891.118	9713
891.241	9797
891.364	9740
891.488	9835
891.611	9743
891.734	9778
891.857	9724
891.98	9762
892.103	9743
892.226	9751
892.349	9675
892.471	9538
892.594	9538
892.717	9637
892.839	9587
892.962	9641
893.085	9660
893.207	9549
893.33	9504
893.452	9587
893.575	9625
893.697	9530
893.819	9709
893.941	9587
894.064	9629
894.186	9492
894.308	9477
894.43	9523
894.552	9584
894.674	9530
894.796	9454
894.918	9405
895.04	9363
895.161	9477
895.283	9321
895.405	9264
895.526	9279
895.648	9294
895.769	9264
895.891	9302
896.012	9294
896.134	9241
896.255	9241
896.376	9180
896.498	9176
896.619	9157
896.74	9081
896.861	9074
896.982	9272
897.103	9329
897.224	9207
897.345	9077
897.466	9028
897.587	8944
897.708	9112
897.828	9066
897.949	8933
898.07	8887
898.19	8979
898.311	9032
898.431	8925
898.552	8921
898.672	8998
898.792	8967
898.913	8963
899.033	8830
899.153	8762
899.273	8686
899.393	8781
899.513	8762
899.633	8705
899.753	8766
899.873	8716
899.993	8773
900.113	8743
900.232	8674
900.352	8602
900.472	8659
900.591	8499
900.711	8617
900.83	8560
900.95	8640
901.069	8712
901.189	8583
901.308	8484
901.427	8503
901.546	8370
901.665	8503
901.784	8522
901.904	8442
902.023	8362
902.141	8210
902.26	8202
902.379	8286
902.498	8199
902.617	8282
902.735	8339
902.854	8309
902.973	8305
903.091	8134
903.21	8111
903.328	8214
903.446	8157
903.565	8050
903.683	8157
903.801	8035
903.919	8077
904.038	8115
904.156	8062
904.274	8065
904.392	8024
904.51	8073
904.627	8058
904.745	8134
904.863	8092
904.981	8001
905.098	7894
905.216	7871
905.334	7925
905.451	7917
905.569	7902
905.686	7947
905.803	7970
905.921	7799
906.038	7871
906.155	7784
906.272	7719
906.389	7734
906.506	7655
906.623	7590
906.74	7658
906.857	7540
906.974	7624
907.091	7670
907.208	7727
907.324	7651
907.441	7590
907.557	7445
907.674	7373
907.79	7388
907.907	7392
908.023	7430
908.139	7419
908.256	7441
908.372	7373
908.488	7335
908.604	7316
908.72	7293
908.836	7255
908.952	7270
909.068	7247
909.184	7343
909.3	7263
909.415	7251
909.531	7396
909.647	7107
909.762	7164
909.878	7065
909.993	7171
910.108	7122
910.224	7088
910.339	7072
910.454	7027
910.57	6985
910.685	6973
910.8	7168
910.915	7164
911.03	7069
911.145	6909
911.259	6882
911.374	6882
911.489	6810
911.604	6844
911.718	6715
911.833	6772
911.947	6719
912.062	6631
912.176	6681
912.291	6703
912.405	6703
912.519	6825
912.633	6840
912.748	6726
912.862	6730
912.976	6608
913.09	6574
913.204	6608
913.318	6669
913.431	6681
913.545	6631
913.659	6757
913.772	6700
913.886	6612
914	6604
914.113	6616
914.226	6688
914.34	6601
914.453	6494
914.566	6631
914.68	6528
914.793	6593
914.906	6403
915.019	6426
915.132	6422
915.245	6445
915.358	6395
915.47	6464
915.583	6456
915.696	6486
915.809	6582
915.921	6532
916.034	6418
916.146	6479
916.259	6369
916.371	6452
916.483	6437
916.595	6418
916.708	6350
916.82	6372
916.932	6342
917.044	6429
917.156	6403
917.268	6311
917.38	6380
917.491	6395
917.603	6331
917.715	6376
917.826	6426
917.938	6308
918.049	6266
918.161	6331
918.272	6437
918.384	6445
918.495	6353
918.606	6247
918.717	6235
918.828	6277
918.939	6289
919.05	6186
919.161	6304
919.272	6148
919.383	6159
919.494	6315
919.604	6433
919.715	6308
919.826	6243
919.936	6239
920.047	6304
920.157	6300
920.267	6521
920.378	6365
920.488	6304
920.598	6395
920.708	6551
920.818	6486
920.928	6506
921.038	6604
921.148	6563
921.258	6388
921.368	6266
921.477	6194
921.587	6175
921.697	6102
921.806	6216
921.916	6045
922.025	5992
922.134	5954
922.244	5897
922.353	5973
922.462	5828
922.571	5821
922.68	5726
922.789	5680
922.898	5684
923.007	5653
923.116	5726
923.224	5718
923.333	5642
923.442	5630
923.55	5600
923.659	5608
923.767	5665
923.876	5615
923.984	5615
924.092	5520
924.201	5551
924.309	5619
924.417	5596
924.525	5520
924.633	5493
924.741	6171
924.849	5334
924.956	5471
925.064	5425
925.172	5364
925.279	5322
925.387	5349
925.494	5330
925.602	5433
925.709	5406
925.816	5296
925.924	5349
926.031	5383
926.138	5322
926.245	5357
926.352	5231
926.459	5292
926.566	5318
926.673	5254
926.779	5166
926.886	5178
926.993	5041
927.099	4991
927.206	4976
927.312	4919
927.419	5014
927.525	4995
927.631	5014
927.737	4919
927.843	4858
927.95	4797
928.056	4820
928.162	4858
928.267	4870
928.373	5349
928.479	4847
928.585	4721
928.69	4801
928.796	4755
928.901	4649
929.007	4626
929.112	4714
929.218	4622
929.323	4687
929.428	4516
929.533	4691
929.638	4519
929.743	4603
929.848	4603
929.953	4569
930.058	4451
930.163	4383
930.267	4333
930.372	4424
930.477	4318
930.581	4485
930.685	4375
930.79	4276
930.894	4333
930.998	4287
931.103	4398
931.207	4143
931.311	4059
931.415	4071
931.519	3956
931.623	3968
