Data from glass_V78500241_2460.txt Node
Date: Wed Sep 01 19:31:33 CST 2021
User: usil
Spectrometer: V785-0024
Trigger mode: 0
Integration Time (sec): 4.000000E-1
Scans to average: 1
Nonlinearity correction enabled: false
Boxcar width: 0
Storing dark spectrum: false
XAxis mode: Wavelengths
Number of Pixels in Spectrum: 1024
>>>>>Begin Spectral Data<<<<<
801.071	3747
801.214	3724
801.356	3682
801.499	3728
801.641	3698
801.783	3728
801.926	3850
802.068	3766
802.211	3850
802.353	3892
802.496	3846
802.638	3884
802.78	3922
802.923	3915
803.065	3865
803.208	3865
803.35	3812
803.492	3865
803.635	3884
803.777	3804
803.919	3899
804.061	4112
804.204	3979
804.346	3937
804.488	3960
804.63	4017
804.773	3983
804.915	4010
805.057	4135
805.199	4002
805.341	4078
805.483	4120
805.626	4147
805.768	4112
805.91	4185
806.052	4238
806.194	4207
806.336	4390
806.478	4169
806.62	4173
806.762	4150
806.904	4272
807.046	4329
807.188	4185
807.33	4150
807.472	4200
807.614	4143
807.756	4280
807.898	4185
808.04	4207
808.182	4287
808.324	4322
808.465	4367
808.607	4455
808.749	4440
808.891	4451
809.033	4470
809.174	4394
809.316	4268
809.458	4238
809.6	4143
809.741	4139
809.883	4158
810.025	4200
810.166	4173
810.308	4135
810.45	4215
810.591	4211
810.733	4280
810.875	4447
811.016	4850
811.158	5102
811.299	5273
811.441	5277
811.582	5090
811.724	4706
811.865	4440
812.007	4424
812.148	4405
812.29	4443
812.431	4379
812.573	4436
812.714	4386
812.855	4405
812.997	4405
813.138	4470
813.279	4424
813.421	4363
813.562	4383
813.703	4280
813.845	4333
813.986	4242
814.127	4219
814.268	4276
814.41	4272
814.551	4257
814.692	4280
814.833	4261
814.974	4261
815.115	4322
815.256	4223
815.397	4227
815.539	4249
815.68	4196
815.821	4219
815.962	4306
816.103	4295
816.244	4227
816.385	4219
816.526	4276
816.666	4204
816.807	4124
816.948	4150
817.089	4177
817.23	4090
817.371	4067
817.512	4040
817.653	4082
817.793	4010
817.934	4051
818.075	4097
818.216	4063
818.356	4063
818.497	3972
818.638	3926
818.778	3861
818.919	3869
819.06	3797
819.2	3934
819.341	3842
819.481	3838
819.622	3896
819.762	4032
819.903	3937
820.043	3808
820.184	3823
820.324	3766
820.465	3816
820.605	3846
820.746	3880
820.886	3774
821.026	3907
821.167	3949
821.307	3949
821.447	3979
821.588	3945
821.728	3968
821.868	3937
822.008	3835
822.149	3911
822.289	3915
822.429	3762
822.569	3736
822.709	3785
822.849	3743
822.99	3724
823.13	3747
823.27	3762
823.41	3686
823.55	3736
823.69	3701
823.83	3720
823.97	3656
824.11	3576
824.25	3580
824.389	3603
824.529	3629
824.669	3660
824.809	3717
824.949	3766
825.089	3720
825.228	3671
825.368	3622
825.508	3519
825.648	3488
825.787	3622
825.927	3610
826.067	3568
826.206	3641
826.346	3736
826.485	3797
826.625	3857
826.765	3934
826.904	3789
827.044	3557
827.183	3526
827.323	3439
827.462	3481
827.601	3454
827.741	3424
827.88	3431
828.02	3348
828.159	3439
828.298	3450
828.437	3530
828.577	3466
828.716	3595
828.855	3511
828.994	3405
829.134	3378
829.273	3355
829.412	3298
829.551	3321
829.69	3332
829.829	3405
829.968	3485
830.107	3450
830.246	3450
830.385	3397
830.524	3374
830.663	3313
830.802	3218
830.941	3173
831.08	3203
831.219	3260
831.357	3226
831.496	3378
831.635	3222
831.774	3188
831.913	3165
832.051	3135
832.19	3150
832.329	3180
832.467	3154
832.606	3116
832.744	3161
832.883	3188
833.022	3157
833.16	3268
833.299	3279
833.437	3329
833.576	3340
833.714	3370
833.852	3420
833.991	3409
834.129	3454
834.267	3450
834.406	3439
834.544	3409
834.682	3401
834.821	3344
834.959	3591
835.097	3401
835.235	3557
835.373	3511
835.511	3500
835.65	3450
835.788	3447
835.926	3363
836.064	3386
836.202	3397
836.34	3564
836.478	3591
836.615	3526
836.753	3572
836.891	3595
837.029	3564
837.167	3568
837.305	3538
837.443	3530
837.58	3500
837.718	3587
837.856	3553
837.993	3481
838.131	3572
838.269	3557
838.406	3557
838.544	3591
838.681	3504
838.819	3458
838.956	3378
839.094	3405
839.231	3428
839.369	3515
839.506	3709
839.643	3644
839.781	3538
839.918	3435
840.055	3519
840.193	3496
840.33	3561
840.467	3507
840.604	3576
840.742	3785
840.879	3492
841.016	3542
841.153	3595
841.29	3728
841.427	3682
841.564	3663
841.701	3701
841.838	3682
841.975	3690
842.112	3751
842.249	3629
842.385	3656
842.522	3823
842.659	3644
842.796	3652
842.933	3698
843.069	3667
843.206	3682
843.343	3778
843.479	3736
843.616	3835
843.752	3717
843.889	3648
844.025	3842
844.162	3663
844.298	3869
844.435	3770
844.571	3812
844.708	3934
844.844	3975
844.98	4017
845.117	4002
845.253	3915
845.389	3827
845.525	3956
845.661	3934
845.798	3876
845.934	4029
846.07	3937
846.206	4067
846.342	4124
846.478	4051
846.614	4010
846.75	3922
846.886	3937
847.022	4036
847.158	3972
847.294	3991
847.429	3975
847.565	4021
847.701	4188
847.837	3880
847.972	3861
848.108	3979
848.244	3975
848.379	3846
848.515	3827
848.65	3781
848.786	3800
848.921	3865
849.057	3930
849.192	3907
849.328	3857
849.463	3907
849.598	3899
849.734	3888
849.869	3812
850.004	3781
850.14	3762
850.275	3762
850.41	3755
850.545	3766
850.68	3808
850.815	3781
850.95	3797
851.085	3941
851.22	3869
851.355	3842
851.49	3804
851.625	3770
851.76	3778
851.895	3675
852.03	3705
852.165	3789
852.299	3831
852.434	3865
852.569	3831
852.703	3884
852.838	3907
852.973	3991
853.107	3964
853.242	3892
853.376	3850
853.511	3759
853.645	3861
853.78	3960
853.914	3907
854.048	3888
854.183	3876
854.317	3926
854.451	4051
854.585	3972
854.72	3873
854.854	4059
854.988	3915
855.122	3998
855.256	3918
855.39	3998
855.524	4071
855.658	4086
855.792	4097
855.926	4128
856.06	4154
856.194	4204
856.327	4158
856.461	4109
856.595	4139
856.729	4173
856.862	4249
856.996	4223
857.13	4276
857.263	4325
857.397	4371
857.53	4318
857.664	4337
857.797	4409
857.931	4344
858.064	4383
858.197	4455
858.331	4409
858.464	4356
858.597	4367
858.731	4409
858.864	4417
858.997	4413
859.13	4516
859.263	4538
859.396	4569
859.529	4531
859.662	4527
859.795	4504
859.928	4611
860.061	4714
860.194	4721
860.327	4668
860.46	4607
860.592	4675
860.725	4755
860.858	4744
860.99	4653
861.123	4694
861.256	4675
861.388	4725
861.521	5528
861.653	4656
861.786	4698
861.918	4786
862.05	4816
862.183	4850
862.315	4862
862.447	4877
862.58	4816
862.712	4790
862.844	4733
862.976	4828
863.108	4862
863.24	5250
863.372	4812
863.504	4858
863.636	4938
863.768	5025
863.9	4946
864.032	4976
864.164	4927
864.296	4987
864.428	5045
864.559	5136
864.691	5155
864.823	5048
864.954	5155
865.086	5136
865.217	5075
865.349	5105
865.48	5121
865.612	5178
865.743	5242
865.875	5193
866.006	5185
866.137	5254
866.269	5216
866.4	5220
866.531	5204
866.662	5258
866.793	5246
866.924	5303
867.055	5334
867.186	5322
867.317	5299
867.448	5265
867.579	5337
867.71	5334
867.841	5414
867.972	5463
868.103	5455
868.233	5509
868.364	5467
868.495	5543
868.625	5672
868.756	5741
868.886	5680
869.017	5722
869.147	5859
869.278	5783
869.408	5832
869.539	5824
869.669	5889
869.799	5916
869.929	5946
870.06	5988
870.19	6194
870.32	6182
870.45	6213
870.58	6372
870.71	6376
870.84	6433
870.97	6437
871.1	6372
871.23	6608
871.36	6681
871.489	6585
871.619	6730
871.749	6802
871.879	6878
872.008	6951
872.138	6958
872.267	6973
872.397	7019
872.526	7050
872.656	7091
872.785	7164
872.915	7377
873.044	7525
873.173	7506
873.303	7624
873.432	7784
873.561	7856
873.69	7909
873.819	7963
873.948	8225
874.077	8214
874.206	8328
874.335	8484
874.464	8648
874.593	8800
874.722	8910
874.851	9104
874.979	9226
875.108	9351
875.237	9412
875.365	9481
875.494	9564
875.623	9751
875.751	9812
875.88	10017
876.008	10059
876.136	10257
876.265	10535
876.393	10687
876.521	10630
876.65	10831
876.778	10816
876.906	10927
877.034	10999
877.162	11086
877.29	11216
877.418	11239
877.546	11433
877.674	11410
877.802	11368
877.93	11448
878.058	11490
878.185	11596
878.313	11623
878.441	11707
878.568	11615
878.696	11752
878.824	11843
878.951	11866
879.079	11999
879.206	12121
879.333	12102
879.461	11961
879.588	12053
879.715	12076
879.842	12266
879.97	12057
880.097	11882
880.224	11904
880.351	11916
880.478	11969
880.605	11874
880.732	11771
880.859	11942
880.986	11889
881.112	11764
881.239	11722
881.366	11611
881.493	11558
881.619	11581
881.746	11528
881.872	11463
881.999	11505
882.125	11433
882.252	11577
882.378	11433
882.505	11486
882.631	11334
882.757	11299
882.883	11353
883.01	11235
883.136	11178
883.262	11079
883.388	11045
883.514	11284
883.64	11140
883.766	11079
883.892	10999
884.018	11045
884.143	11060
884.269	11098
884.395	10744
884.52	10816
884.646	10740
884.772	10694
884.897	10702
885.023	10744
885.148	10675
885.274	10736
885.399	10679
885.524	10710
885.65	10599
885.775	10611
885.9	10599
886.025	10596
886.15	10592
886.275	10413
886.4	10386
886.525	10348
886.65	10360
886.775	10363
886.9	10462
887.025	10485
887.149	10272
887.274	10265
887.399	10185
887.523	10143
887.648	10116
887.773	10097
887.897	10272
888.021	10177
888.146	10109
888.27	10177
888.395	10158
888.519	10265
888.643	10181
888.767	10158
888.891	10059
889.015	9972
889.139	10055
889.263	9949
889.387	10044
889.511	10139
889.635	10071
889.759	9975
889.883	9953
890.006	9941
890.13	10078
890.254	9922
890.377	9934
890.501	9861
890.624	9922
890.748	9861
890.871	9778
890.995	9698
891.118	9690
891.241	9648
891.364	9694
891.488	9876
891.611	9762
891.734	9770
891.857	9728
891.98	9717
892.103	9751
892.226	9736
892.349	9652
892.471	9447
892.594	9538
892.717	9545
892.839	9618
892.962	9572
893.085	9713
893.207	9561
893.33	9519
893.452	9454
893.575	9644
893.697	9412
893.819	9614
893.941	9610
894.064	9549
894.186	9344
894.308	9393
894.43	9530
894.552	9538
894.674	9511
894.796	9363
894.918	9370
895.04	9359
895.161	9321
895.283	9332
895.405	9272
895.526	9264
895.648	9203
895.769	9195
895.891	9230
896.012	9275
896.134	9195
896.255	9241
896.376	9142
896.498	9203
896.619	9112
896.74	9058
896.861	9028
896.982	9226
897.103	9302
897.224	9123
897.345	9116
897.466	9032
897.587	9005
897.708	9047
897.828	9013
897.949	8960
898.07	8857
898.19	8861
898.311	8979
898.431	8895
898.552	8941
898.672	9001
898.792	8914
898.913	8876
899.033	8819
899.153	8762
899.273	8644
899.393	8792
899.513	8766
899.633	8735
899.753	8632
899.873	8667
899.993	8697
900.113	8686
900.232	8693
900.352	8648
900.472	8636
900.591	8571
900.711	8556
900.83	8503
900.95	8670
901.069	8659
901.189	8511
901.308	8465
901.427	8370
901.546	8457
901.665	8480
901.784	8465
901.904	8404
902.023	8374
902.141	8195
902.26	8225
902.379	8290
902.498	8244
902.617	8214
902.735	8294
902.854	8275
902.973	8305
903.091	8100
903.21	8058
903.328	8202
903.446	8088
903.565	8031
903.683	8092
903.801	8062
903.919	8149
904.038	8153
904.156	8039
904.274	8077
904.392	7936
904.51	8039
904.627	8039
904.745	8081
904.863	8084
904.981	7879
905.098	7860
905.216	7871
905.334	7845
905.451	7967
905.569	7852
905.686	7902
905.803	7898
905.921	7788
906.038	7818
906.155	7746
906.272	7772
906.389	7719
906.506	7575
906.623	7559
906.74	7624
906.857	7594
906.974	7556
907.091	7655
907.208	7727
907.324	7586
907.441	7601
907.557	7422
907.674	7457
907.79	7434
907.907	7358
908.023	7381
908.139	7426
908.256	7403
908.372	7339
908.488	7407
908.604	7339
908.72	7221
908.836	7263
908.952	7225
909.068	7247
909.184	7308
909.3	7285
909.415	7259
909.531	7247
909.647	7091
909.762	7091
909.878	7076
909.993	7133
910.108	7099
910.224	7133
910.339	7114
910.454	7061
910.57	7019
910.685	6905
910.8	7164
910.915	7114
911.03	7023
911.145	6882
911.259	6894
911.374	6920
911.489	6848
911.604	6764
911.718	6688
911.833	6719
911.947	6623
912.062	6566
912.176	6711
912.291	6684
912.405	6665
912.519	6840
912.633	6745
912.748	6673
912.862	6677
912.976	6585
913.09	6532
913.204	6555
913.318	6612
913.431	6639
913.545	6688
913.659	6692
913.772	6696
913.886	6616
914	6559
914.113	6616
914.226	6654
914.34	6639
914.453	6483
914.566	6566
914.68	6464
914.793	6559
914.906	6380
915.019	6399
915.132	6308
915.245	6395
915.358	6414
915.47	6464
915.583	6464
915.696	6437
915.809	6498
915.921	6498
916.034	6391
916.146	6399
916.259	6380
916.371	6525
916.483	6403
916.595	6388
916.708	6445
916.82	6410
916.932	6452
917.044	6376
917.156	6350
917.268	6289
917.38	6365
917.491	6247
917.603	6323
917.715	6384
917.826	6384
917.938	6289
918.049	6243
918.161	6277
918.272	6456
918.384	6426
918.495	6319
918.606	6224
918.717	6209
918.828	6292
918.939	6220
919.05	6155
919.161	6182
919.272	6064
919.383	6152
919.494	6205
919.604	6391
919.715	6266
919.826	6182
919.936	6258
920.047	6311
920.157	6300
920.267	6410
920.378	6315
920.488	6262
920.598	6437
920.708	6578
920.818	6475
920.928	6483
921.038	6620
921.148	6551
921.258	6338
921.368	6277
921.477	6205
921.587	6201
921.697	6106
921.806	6125
921.916	6041
922.025	5923
922.134	5863
922.244	5840
922.353	5920
922.462	5844
922.571	5779
922.68	5668
922.789	5699
922.898	5726
923.007	5615
923.116	5623
923.224	5699
923.333	5627
923.442	5554
923.55	5570
923.659	5581
923.767	5619
923.876	5547
923.984	5657
924.092	5532
924.201	5551
924.309	5554
924.417	5573
924.525	5452
924.633	5474
924.741	6110
924.849	5292
924.956	5474
925.064	5353
925.172	5337
925.279	5284
925.387	5296
925.494	5322
925.602	5429
925.709	5387
925.816	5273
925.924	5326
926.031	5326
926.138	5280
926.245	5303
926.352	5239
926.459	5288
926.566	5288
926.673	5220
926.779	5086
926.886	5079
926.993	5045
927.099	5014
927.206	4961
927.312	4911
927.419	4980
927.525	4949
927.631	4934
927.737	4850
927.843	4900
927.95	4767
928.056	4805
928.162	4786
928.267	4854
928.373	5235
928.479	4850
928.585	4706
928.69	4721
928.796	4801
928.901	4668
929.007	4512
929.112	4698
929.218	4577
929.323	4618
929.428	4573
929.533	4656
929.638	4512
929.743	4546
929.848	4573
929.953	4489
930.058	4447
930.163	4310
930.267	4295
930.372	4447
930.477	4318
930.581	4470
930.685	4322
930.79	4291
930.894	4268
930.998	4268
931.103	4375
931.207	4116
931.311	4082
931.415	4021
931.519	3964
931.623	3918
