Data from glass_V78500241_1961.txt Node
Date: Wed Sep 01 19:28:05 CST 2021
User: usil
Spectrometer: V785-0024
Trigger mode: 0
Integration Time (sec): 4.000000E-1
Scans to average: 1
Nonlinearity correction enabled: false
Boxcar width: 0
Storing dark spectrum: false
XAxis mode: Wavelengths
Number of Pixels in Spectrum: 1024
>>>>>Begin Spectral Data<<<<<
801.071	3701
801.214	3740
801.356	3747
801.499	3724
801.641	3709
801.783	3778
801.926	3857
802.068	3842
802.211	3835
802.353	3888
802.496	3854
802.638	3857
802.78	3896
802.923	3903
803.065	3899
803.208	3827
803.35	3888
803.492	3854
803.635	3922
803.777	3785
803.919	3907
804.061	4162
804.204	3953
804.346	3945
804.488	3918
804.63	4036
804.773	3983
804.915	4017
805.057	4116
805.199	4021
805.341	4067
805.483	4116
805.626	4101
805.768	4124
805.91	4120
806.052	4192
806.194	4177
806.336	4299
806.478	4230
806.62	4128
806.762	4204
806.904	4261
807.046	4322
807.188	4207
807.33	4185
807.472	4234
807.614	4169
807.756	4215
807.898	4234
808.04	4223
808.182	4284
808.324	4375
808.465	4337
808.607	4493
808.749	4409
808.891	4466
809.033	4478
809.174	4356
809.316	4253
809.458	4265
809.6	4135
809.741	4131
809.883	4147
810.025	4207
810.166	4223
810.308	4207
810.45	4215
810.591	4192
810.733	4249
810.875	4485
811.016	4805
811.158	5117
811.299	5223
811.441	5231
811.582	5056
811.724	4736
811.865	4478
812.007	4455
812.148	4478
812.29	4421
812.431	4417
812.573	4440
812.714	4383
812.855	4402
812.997	4481
813.138	4447
813.279	4394
813.421	4386
813.562	4394
813.703	4276
813.845	4276
813.986	4242
814.127	4192
814.268	4238
814.41	4337
814.551	4242
814.692	4265
814.833	4261
814.974	4265
815.115	4352
815.256	4219
815.397	4230
815.539	4268
815.68	4204
815.821	4253
815.962	4344
816.103	4314
816.244	4215
816.385	4219
816.526	4310
816.666	4223
816.807	4071
816.948	4124
817.089	4147
817.23	4078
817.371	4051
817.512	4071
817.653	4036
817.793	4025
817.934	4021
818.075	4067
818.216	4059
818.356	4078
818.497	4006
818.638	3884
818.778	3918
818.919	3857
819.06	3888
819.2	3926
819.341	3899
819.481	3804
819.622	3896
819.762	3998
819.903	3960
820.043	3857
820.184	3838
820.324	3816
820.465	3854
820.605	3854
820.746	3850
820.886	3823
821.026	3968
821.167	3922
821.307	3991
821.447	3968
821.588	3945
821.728	3941
821.868	3930
822.008	3876
822.149	3873
822.289	3953
822.429	3793
822.569	3759
822.709	3800
822.849	3671
822.99	3667
823.13	3762
823.27	3755
823.41	3732
823.55	3736
823.69	3720
823.83	3759
823.97	3675
824.11	3595
824.25	3614
824.389	3625
824.529	3690
824.669	3656
824.809	3740
824.949	3728
825.089	3694
825.228	3701
825.368	3584
825.508	3606
825.648	3530
825.787	3564
825.927	3610
826.067	3641
826.206	3686
826.346	3793
826.485	3808
826.625	3846
826.765	3968
826.904	3812
827.044	3599
827.183	3538
827.323	3443
827.462	3507
827.601	3397
827.741	3435
827.88	3412
828.02	3416
828.159	3428
828.298	3481
828.437	3507
828.577	3469
828.716	3606
828.855	3511
828.994	3355
829.134	3370
829.273	3355
829.412	3359
829.551	3340
829.69	3374
829.829	3443
829.968	3515
830.107	3443
830.246	3439
830.385	3355
830.524	3351
830.663	3298
830.802	3279
830.941	3195
831.08	3230
831.219	3230
831.357	3230
831.496	3374
831.635	3207
831.774	3188
831.913	3230
832.051	3112
832.19	3142
832.329	3207
832.467	3108
832.606	3097
832.744	3161
832.883	3176
833.022	3157
833.16	3249
833.299	3279
833.437	3321
833.576	3363
833.714	3374
833.852	3462
833.991	3439
834.129	3488
834.267	3458
834.406	3393
834.544	3462
834.682	3393
834.821	3443
834.959	3526
835.097	3393
835.235	3500
835.373	3523
835.511	3473
835.65	3504
835.788	3481
835.926	3382
836.064	3367
836.202	3439
836.34	3587
836.478	3633
836.615	3515
836.753	3591
836.891	3633
837.029	3625
837.167	3564
837.305	3553
837.443	3523
837.58	3504
837.718	3576
837.856	3557
837.993	3511
838.131	3595
838.269	3599
838.406	3561
838.544	3545
838.681	3473
838.819	3439
838.956	3355
839.094	3409
839.231	3412
839.369	3545
839.506	3713
839.643	3606
839.781	3477
839.918	3458
840.055	3492
840.193	3504
840.33	3507
840.467	3515
840.604	3538
840.742	3812
840.879	3557
841.016	3568
841.153	3561
841.29	3740
841.427	3698
841.564	3690
841.701	3698
841.838	3705
841.975	3641
842.112	3667
842.249	3610
842.385	3614
842.522	3861
842.659	3679
842.796	3656
842.933	3690
843.069	3705
843.206	3713
843.343	3793
843.479	3736
843.616	3797
843.752	3713
843.889	3686
844.025	3812
844.162	3656
844.298	3846
844.435	3781
844.571	3736
844.708	3888
844.844	4017
844.98	4002
845.117	3983
845.253	3922
845.389	3915
845.525	3937
845.661	3979
845.798	3899
845.934	4010
846.07	3983
846.206	4059
846.342	4082
846.478	4036
846.614	3975
846.75	3915
846.886	3896
847.022	4029
847.158	3968
847.294	4025
847.429	4032
847.565	3991
847.701	4249
847.837	3876
847.972	3831
848.108	3983
848.244	3968
848.379	3857
848.515	3797
848.65	3789
848.786	3842
848.921	3861
849.057	3918
849.192	3964
849.328	3937
849.463	3907
849.598	3850
849.734	3850
849.869	3831
850.004	3800
850.14	3800
850.275	3800
850.41	3755
850.545	3804
850.68	3804
850.815	3800
850.95	3778
851.085	3922
851.22	3869
851.355	3808
851.49	3781
851.625	3755
851.76	3751
851.895	3743
852.03	3728
852.165	3774
852.299	3846
852.434	3987
852.569	3876
852.703	3880
852.838	3979
852.973	3987
853.107	3972
853.242	3850
853.376	3884
853.511	3762
853.645	3816
853.78	3953
853.914	3888
854.048	3857
854.183	3850
854.317	3972
854.451	4071
854.585	3975
854.72	3926
854.854	4044
854.988	3918
855.122	3956
855.256	3911
855.39	4006
855.524	4105
855.658	4112
855.792	4162
855.926	4158
856.06	4147
856.194	4211
856.327	4139
856.461	4147
856.595	4227
856.729	4169
856.862	4303
856.996	4242
857.13	4291
857.263	4295
857.397	4352
857.53	4280
857.664	4329
857.797	4398
857.931	4417
858.064	4383
858.197	4451
858.331	4375
858.464	4383
858.597	4375
858.731	4455
858.864	4443
858.997	4424
859.13	4523
859.263	4538
859.396	4577
859.529	4481
859.662	4512
859.795	4527
859.928	4573
860.061	4694
860.194	4698
860.327	4641
860.46	4630
860.592	4771
860.725	4755
860.858	4752
860.99	4714
861.123	4641
861.256	4691
861.388	4790
861.521	5383
861.653	4729
861.786	4687
861.918	4744
862.05	4805
862.183	4854
862.315	4904
862.447	4923
862.58	4885
862.712	4805
862.844	4714
862.976	4915
863.108	4858
863.24	5189
863.372	4858
863.504	4877
863.636	4892
863.768	4961
863.9	4987
864.032	4919
864.164	4946
864.296	5006
864.428	5029
864.559	5109
864.691	5079
864.823	5174
864.954	5071
865.086	5083
865.217	5098
865.349	5136
865.48	5124
865.612	5185
865.743	5235
865.875	5231
866.006	5185
866.137	5258
866.269	5197
866.4	5280
866.531	5254
866.662	5227
866.793	5273
866.924	5231
867.055	5299
867.186	5349
867.317	5277
867.448	5334
867.579	5353
867.71	5357
867.841	5391
867.972	5478
868.103	5410
868.233	5459
868.364	5482
868.495	5558
868.625	5642
868.756	5767
868.886	5722
869.017	5722
869.147	5828
869.278	5844
869.408	5764
869.539	5794
869.669	5920
869.799	5882
869.929	5935
870.06	6026
870.19	6194
870.32	6197
870.45	6262
870.58	6319
870.71	6437
870.84	6486
870.97	6407
871.1	6426
871.23	6589
871.36	6688
871.489	6593
871.619	6779
871.749	6844
871.879	6890
872.008	7008
872.138	6935
872.267	6977
872.397	7012
872.526	7038
872.656	7057
872.785	7194
872.915	7388
873.044	7540
873.173	7563
873.303	7586
873.432	7738
873.561	7875
873.69	7898
873.819	7974
873.948	8142
874.077	8210
874.206	8347
874.335	8434
874.464	8670
874.593	8868
874.722	8925
874.851	9116
874.979	9253
875.108	9408
875.237	9477
875.365	9504
875.494	9606
875.623	9789
875.751	9778
875.88	9987
876.008	10093
876.136	10280
876.265	10523
876.393	10702
876.521	10733
876.65	10763
876.778	10877
876.906	10831
877.034	10934
877.162	11083
877.29	11197
877.418	11318
877.546	11337
877.674	11543
877.802	11459
877.93	11570
878.058	11539
878.185	11497
878.313	11615
878.441	11756
878.568	11688
878.696	11805
878.824	11897
878.951	11889
879.079	12053
879.206	12197
879.333	11961
879.461	11958
879.588	12095
879.715	12083
879.842	12178
879.97	12136
880.097	11916
880.224	11893
880.351	11893
880.478	11904
880.605	11832
880.732	11805
880.859	11996
880.986	11828
881.112	11790
881.239	11680
881.366	11566
881.493	11619
881.619	11505
881.746	11661
881.872	11486
881.999	11539
882.125	11535
882.252	11505
882.378	11600
882.505	11501
882.631	11383
882.757	11318
882.883	11307
883.01	11356
883.136	11185
883.262	11086
883.388	11041
883.514	11277
883.64	11197
883.766	11090
883.892	11014
884.018	10972
884.143	11003
884.269	11090
884.395	10850
884.52	10752
884.646	10771
884.772	10714
884.897	10672
885.023	10694
885.148	10721
885.274	10672
885.399	10611
885.524	10569
885.65	10592
885.775	10615
885.9	10573
886.025	10592
886.15	10558
886.275	10398
886.4	10314
886.525	10360
886.65	10371
886.775	10310
886.9	10443
887.025	10546
887.149	10329
887.274	10261
887.399	10246
887.523	10230
887.648	10097
887.773	10135
887.897	10280
888.021	10139
888.146	10071
888.27	10188
888.395	10215
888.519	10177
888.643	10166
888.767	10154
888.891	10044
889.015	10002
889.139	9991
889.263	9945
889.387	10048
889.511	10010
889.635	10059
889.759	9892
889.883	10017
890.006	9953
890.13	10074
890.254	9926
890.377	9941
890.501	9785
890.624	9915
890.748	9827
890.871	9785
890.995	9720
891.118	9793
891.241	9698
891.364	9740
891.488	9789
891.611	9686
891.734	9770
891.857	9812
891.98	9751
892.103	9781
892.226	9766
892.349	9701
892.471	9466
892.594	9576
892.717	9591
892.839	9603
892.962	9656
893.085	9599
893.207	9580
893.33	9462
893.452	9507
893.575	9641
893.697	9454
893.819	9599
893.941	9686
894.064	9633
894.186	9435
894.308	9466
894.43	9462
894.552	9599
894.674	9492
894.796	9283
894.918	9450
895.04	9329
895.161	9367
895.283	9310
895.405	9340
895.526	9199
895.648	9317
895.769	9237
895.891	9169
896.012	9272
896.134	9173
896.255	9184
896.376	9142
896.498	9077
896.619	9203
896.74	9058
896.861	9055
896.982	9245
897.103	9397
897.224	9157
897.345	9043
897.466	8918
897.587	9039
897.708	9085
897.828	9028
897.949	8952
898.07	8804
898.19	8883
898.311	8982
898.431	8914
898.552	8918
898.672	9009
898.792	9028
898.913	8864
899.033	8823
899.153	8750
899.273	8670
899.393	8743
899.513	8720
899.633	8750
899.753	8800
899.873	8720
899.993	8644
900.113	8606
900.232	8629
900.352	8648
900.472	8583
900.591	8530
900.711	8484
900.83	8583
900.95	8697
901.069	8590
901.189	8575
901.308	8370
901.427	8385
901.546	8362
901.665	8450
901.784	8495
901.904	8358
902.023	8317
902.141	8244
902.26	8176
902.379	8259
902.498	8191
902.617	8176
902.735	8240
902.854	8256
902.973	8279
903.091	8058
903.21	8096
903.328	8172
903.446	8115
903.565	8103
903.683	8081
903.801	8050
903.919	8092
904.038	8145
904.156	8062
904.274	8039
904.392	8008
904.51	8031
904.627	8088
904.745	8027
904.863	8103
904.981	7974
905.098	7871
905.216	7841
905.334	7879
905.451	7898
905.569	7883
905.686	7940
905.803	7947
905.921	7792
906.038	7902
906.155	7761
906.272	7658
906.389	7674
906.506	7613
906.623	7624
906.74	7624
906.857	7540
906.974	7571
907.091	7639
907.208	7757
907.324	7563
907.441	7529
907.557	7434
907.674	7400
907.79	7411
907.907	7422
908.023	7327
908.139	7430
908.256	7430
908.372	7354
908.488	7346
908.604	7187
908.72	7240
908.836	7278
908.952	7225
909.068	7274
909.184	7209
909.3	7209
909.415	7312
909.531	7251
909.647	7122
909.762	7114
909.878	7088
909.993	7114
910.108	7080
910.224	7080
910.339	7141
910.454	7042
910.57	6985
910.685	6947
910.8	7190
910.915	7072
911.03	7038
911.145	6871
911.259	6894
911.374	6886
911.489	6848
911.604	6818
911.718	6700
911.833	6715
911.947	6654
912.062	6639
912.176	6684
912.291	6749
912.405	6684
912.519	6825
912.633	6829
912.748	6703
912.862	6726
912.976	6578
913.09	6521
913.204	6528
913.318	6559
913.431	6620
913.545	6646
913.659	6696
913.772	6658
913.886	6536
914	6517
914.113	6673
914.226	6635
914.34	6574
914.453	6448
914.566	6574
914.68	6547
914.793	6509
914.906	6479
915.019	6441
915.132	6338
915.245	6422
915.358	6467
915.47	6407
915.583	6483
915.696	6506
915.809	6490
915.921	6536
916.034	6403
916.146	6426
916.259	6391
916.371	6486
916.483	6433
916.595	6388
916.708	6388
916.82	6376
916.932	6391
917.044	6418
917.156	6391
917.268	6270
917.38	6266
917.491	6357
917.603	6338
917.715	6448
917.826	6380
917.938	6289
918.049	6194
918.161	6342
918.272	6414
918.384	6414
918.495	6323
918.606	6205
918.717	6254
918.828	6251
918.939	6258
919.05	6194
919.161	6213
919.272	6159
919.383	6098
919.494	6254
919.604	6353
919.715	6289
919.826	6216
919.936	6228
920.047	6353
920.157	6304
920.267	6494
920.378	6289
920.488	6285
920.598	6464
920.708	6547
920.818	6448
920.928	6460
921.038	6635
921.148	6604
921.258	6346
921.368	6213
921.477	6224
921.587	6133
921.697	6034
921.806	6152
921.916	6076
922.025	5969
922.134	5950
922.244	5901
922.353	5874
922.462	5851
922.571	5771
922.68	5672
922.789	5665
922.898	5699
923.007	5649
923.116	5676
923.224	5642
923.333	5653
923.442	5611
923.55	5581
923.659	5615
923.767	5615
923.876	5478
923.984	5596
924.092	5547
924.201	5585
924.309	5524
924.417	5577
924.525	5467
924.633	5509
924.741	6300
924.849	5368
924.956	5493
925.064	5368
925.172	5273
925.279	5288
925.387	5345
925.494	5402
925.602	5440
925.709	5391
925.816	5284
925.924	5337
926.031	5318
926.138	5277
926.245	5311
926.352	5220
926.459	5269
926.566	5376
926.673	5269
926.779	5113
926.886	5124
926.993	5018
927.099	5067
927.206	4934
927.312	4904
927.419	4999
927.525	4991
927.631	4938
927.737	4896
927.843	4866
927.95	4763
928.056	4835
928.162	4790
928.267	4889
928.373	5299
928.479	4862
928.585	4691
928.69	4736
928.796	4748
928.901	4653
929.007	4584
929.112	4645
929.218	4577
929.323	4626
929.428	4577
929.533	4664
929.638	4516
929.743	4550
929.848	4550
929.953	4523
930.058	4413
930.163	4299
930.267	4341
930.372	4402
930.477	4310
930.581	4485
930.685	4314
930.79	4276
930.894	4249
930.998	4268
931.103	4356
931.207	4105
931.311	4101
931.415	4029
931.519	3918
931.623	3926
