Data from glass_V78500241_173.txt Node
Date: Wed Sep 01 19:15:41 CST 2021
User: usil
Spectrometer: V785-0024
Trigger mode: 0
Integration Time (sec): 4.000000E-1
Scans to average: 1
Nonlinearity correction enabled: false
Boxcar width: 0
Storing dark spectrum: false
XAxis mode: Wavelengths
Number of Pixels in Spectrum: 1024
>>>>>Begin Spectral Data<<<<<
801.071	3717
801.214	3797
801.356	3736
801.499	3717
801.641	3770
801.783	3770
801.926	3865
802.068	3869
802.211	3888
802.353	3907
802.496	3838
802.638	3896
802.78	3896
802.923	3998
803.065	3915
803.208	3865
803.35	3918
803.492	3926
803.635	3930
803.777	3816
803.919	3888
804.061	4185
804.204	3960
804.346	4002
804.488	3899
804.63	4040
804.773	3979
804.915	4071
805.057	4162
805.199	4055
805.341	4071
805.483	4124
805.626	4139
805.768	4112
805.91	4246
806.052	4238
806.194	4215
806.336	4394
806.478	4238
806.62	4154
806.762	4227
806.904	4230
807.046	4379
807.188	4261
807.33	4143
807.472	4257
807.614	4211
807.756	4257
807.898	4192
808.04	4185
808.182	4314
808.324	4344
808.465	4394
808.607	4478
808.749	4512
808.891	4485
809.033	4497
809.174	4443
809.316	4219
809.458	4268
809.6	4177
809.741	4154
809.883	4154
810.025	4211
810.166	4280
810.308	4192
810.45	4318
810.591	4234
810.733	4333
810.875	4546
811.016	4805
811.158	5162
811.299	5288
811.441	5334
811.582	5033
811.724	4664
811.865	4474
812.007	4470
812.148	4432
812.29	4363
812.431	4443
812.573	4443
812.714	4428
812.855	4421
812.997	4428
813.138	4508
813.279	4451
813.421	4405
813.562	4409
813.703	4390
813.845	4360
813.986	4287
814.127	4211
814.268	4284
814.41	4310
814.551	4295
814.692	4371
814.833	4276
814.974	4314
815.115	4360
815.256	4265
815.397	4287
815.539	4249
815.68	4200
815.821	4246
815.962	4379
816.103	4287
816.244	4246
816.385	4219
816.526	4303
816.666	4230
816.807	4109
816.948	4169
817.089	4188
817.23	4139
817.371	4097
817.512	4021
817.653	4124
817.793	4044
817.934	4013
818.075	4128
818.216	4105
818.356	4071
818.497	3991
818.638	3907
818.778	3869
818.919	3918
819.06	3884
819.2	3930
819.341	3880
819.481	3854
819.622	3956
819.762	4017
819.903	3979
820.043	3873
820.184	3838
820.324	3876
820.465	3892
820.605	3850
820.746	3907
820.886	3789
821.026	3953
821.167	3934
821.307	4017
821.447	3949
821.588	3968
821.728	3998
821.868	3968
822.008	3869
822.149	3941
822.289	3922
822.429	3781
822.569	3762
822.709	3827
822.849	3724
822.99	3732
823.13	3804
823.27	3808
823.41	3728
823.55	3774
823.69	3770
823.83	3728
823.97	3671
824.11	3614
824.25	3595
824.389	3660
824.529	3698
824.669	3667
824.809	3713
824.949	3762
825.089	3759
825.228	3682
825.368	3587
825.508	3557
825.648	3591
825.787	3606
825.927	3614
826.067	3614
826.206	3698
826.346	3797
826.485	3850
826.625	3876
826.765	3953
826.904	3880
827.044	3580
827.183	3584
827.323	3435
827.462	3515
827.601	3462
827.741	3431
827.88	3435
828.02	3409
828.159	3466
828.298	3507
828.437	3545
828.577	3473
828.716	3622
828.855	3545
828.994	3405
829.134	3378
829.273	3393
829.412	3412
829.551	3382
829.69	3367
829.829	3443
829.968	3500
830.107	3443
830.246	3450
830.385	3336
830.524	3374
830.663	3336
830.802	3249
830.941	3237
831.08	3245
831.219	3253
831.357	3294
831.496	3363
831.635	3260
831.774	3184
831.913	3207
832.051	3165
832.19	3150
832.329	3226
832.467	3180
832.606	3112
832.744	3188
832.883	3199
833.022	3195
833.16	3294
833.299	3291
833.437	3329
833.576	3378
833.714	3416
833.852	3443
833.991	3447
834.129	3504
834.267	3511
834.406	3435
834.544	3450
834.682	3447
834.821	3405
834.959	3542
835.097	3443
835.235	3557
835.373	3511
835.511	3526
835.65	3462
835.788	3450
835.926	3412
836.064	3409
836.202	3416
836.34	3603
836.478	3648
836.615	3538
836.753	3591
836.891	3667
837.029	3644
837.167	3603
837.305	3564
837.443	3553
837.58	3523
837.718	3595
837.856	3629
837.993	3576
838.131	3614
838.269	3603
838.406	3614
838.544	3591
838.681	3473
838.819	3496
838.956	3409
839.094	3435
839.231	3473
839.369	3549
839.506	3759
839.643	3633
839.781	3557
839.918	3450
840.055	3534
840.193	3545
840.33	3587
840.467	3553
840.604	3629
840.742	3789
840.879	3553
841.016	3584
841.153	3652
841.29	3774
841.427	3751
841.564	3751
841.701	3755
841.838	3732
841.975	3679
842.112	3740
842.249	3663
842.385	3633
842.522	3865
842.659	3667
842.796	3690
842.933	3705
843.069	3701
843.206	3701
843.343	3812
843.479	3800
843.616	3865
843.752	3720
843.889	3701
844.025	3880
844.162	3762
844.298	3873
844.435	3770
844.571	3827
844.708	3899
844.844	3979
844.98	4090
845.117	4021
845.253	3949
845.389	3911
845.525	3972
845.661	3960
845.798	3934
845.934	4021
846.07	3991
846.206	4078
846.342	4147
846.478	4101
846.614	3964
846.75	3960
846.886	3941
847.022	4048
847.158	3983
847.294	4006
847.429	4006
847.565	4032
847.701	4234
847.837	3945
847.972	3869
848.108	3972
848.244	3991
848.379	3865
848.515	3804
848.65	3823
848.786	3835
848.921	3869
849.057	3949
849.192	3972
849.328	3907
849.463	3907
849.598	3880
849.734	3865
849.869	3873
850.004	3793
850.14	3793
850.275	3800
850.41	3743
850.545	3766
850.68	3778
850.815	3793
850.95	3804
851.085	3941
851.22	3857
851.355	3854
851.49	3800
851.625	3838
851.76	3808
851.895	3728
852.03	3720
852.165	3789
852.299	3831
852.434	3956
852.569	3884
852.703	3880
852.838	3960
852.973	4013
853.107	4017
853.242	3945
853.376	3865
853.511	3751
853.645	3812
853.78	3998
853.914	3911
854.048	3880
854.183	3892
854.317	4002
854.451	4071
854.585	3983
854.72	3979
854.854	4074
854.988	3987
855.122	3998
855.256	3953
855.39	3972
855.524	4105
855.658	4147
855.792	4139
855.926	4147
856.06	4196
856.194	4207
856.327	4169
856.461	4150
856.595	4177
856.729	4219
856.862	4318
856.996	4314
857.13	4284
857.263	4333
857.397	4428
857.53	4261
857.664	4360
857.797	4462
857.931	4405
858.064	4390
858.197	4481
858.331	4402
858.464	4421
858.597	4367
858.731	4447
858.864	4485
858.997	4481
859.13	4523
859.263	4580
859.396	4626
859.529	4481
859.662	4542
859.795	4558
859.928	4618
860.061	4763
860.194	4752
860.327	4664
860.46	4702
860.592	4771
860.725	4793
860.858	4778
860.99	4710
861.123	4717
861.256	4702
861.388	4771
861.521	5436
861.653	4706
861.786	4752
861.918	4793
862.05	4786
862.183	4896
862.315	4904
862.447	5014
862.58	4919
862.712	4820
862.844	4839
862.976	4885
863.108	4870
863.24	5284
863.372	4835
863.504	4908
863.636	4915
863.768	4946
863.9	4965
864.032	4953
864.164	4961
864.296	5033
864.428	5010
864.559	5117
864.691	5113
864.823	5151
864.954	5128
865.086	5159
865.217	5159
865.349	5098
865.48	5223
865.612	5197
865.743	5296
865.875	5197
866.006	5162
866.137	5208
866.269	5273
866.4	5223
866.531	5284
866.662	5250
866.793	5265
866.924	5307
867.055	5326
867.186	5303
867.317	5345
867.448	5334
867.579	5455
867.71	5391
867.841	5421
867.972	5421
868.103	5471
868.233	5455
868.364	5562
868.495	5543
868.625	5688
868.756	5794
868.886	5726
869.017	5665
869.147	5828
869.278	5882
869.408	5885
869.539	5817
869.669	5923
869.799	5927
869.929	5984
870.06	6045
870.19	6197
870.32	6224
870.45	6304
870.58	6418
870.71	6479
870.84	6464
870.97	6483
871.1	6456
871.23	6608
871.36	6741
871.489	6677
871.619	6779
871.749	6825
871.879	6894
872.008	7031
872.138	7027
872.267	7012
872.397	6977
872.526	7080
872.656	7107
872.785	7312
872.915	7369
873.044	7567
873.173	7624
873.303	7689
873.432	7719
873.561	7875
873.69	7902
873.819	8054
873.948	8191
874.077	8279
874.206	8370
874.335	8450
874.464	8663
874.593	8849
874.722	8899
874.851	9116
874.979	9272
875.108	9393
875.237	9378
875.365	9473
875.494	9641
875.623	9869
875.751	9838
875.88	10010
876.008	10124
876.136	10314
876.265	10538
876.393	10736
876.521	10694
876.65	10866
876.778	10900
876.906	10889
877.034	10984
877.162	11037
877.29	11143
877.418	11292
877.546	11334
877.674	11493
877.802	11482
877.93	11482
878.058	11562
878.185	11562
878.313	11646
878.441	11737
878.568	11646
878.696	11786
878.824	11889
878.951	11916
879.079	11999
879.206	12129
879.333	12038
879.461	11980
879.588	12079
879.715	12102
879.842	12308
879.97	12053
880.097	11885
880.224	11885
880.351	11904
880.478	11779
880.605	11847
880.732	11786
880.859	11988
880.986	11802
881.112	11821
881.239	11722
881.366	11680
881.493	11615
881.619	11493
881.746	11589
881.872	11562
881.999	11440
882.125	11474
882.252	11520
882.378	11566
882.505	11482
882.631	11383
882.757	11337
882.883	11349
883.01	11231
883.136	11284
883.262	11121
883.388	11075
883.514	11094
883.64	11193
883.766	11086
883.892	11010
884.018	11098
884.143	11025
884.269	11010
884.395	10771
884.52	10816
884.646	10755
884.772	10740
884.897	10641
885.023	10656
885.148	10812
885.274	10729
885.399	10706
885.524	10607
885.65	10618
885.775	10607
885.9	10634
886.025	10660
886.15	10596
886.275	10421
886.4	10417
886.525	10470
886.65	10337
886.775	10325
886.9	10489
887.025	10561
887.149	10432
887.274	10265
887.399	10265
887.523	10265
887.648	10147
887.773	10109
887.897	10287
888.021	10219
888.146	10162
888.27	10265
888.395	10215
888.519	10219
888.643	10192
888.767	10196
888.891	10090
889.015	10071
889.139	10025
889.263	10002
889.387	10063
889.511	10040
889.635	10071
889.759	9975
889.883	10017
890.006	10036
890.13	10086
890.254	10025
890.377	9865
890.501	9888
890.624	9865
890.748	9926
890.871	9800
890.995	9865
891.118	9717
891.241	9724
891.364	9800
891.488	9842
891.611	9755
891.734	9823
891.857	9774
891.98	9686
892.103	9728
892.226	9778
892.349	9698
892.471	9538
892.594	9625
892.717	9606
892.839	9644
892.962	9652
893.085	9686
893.207	9625
893.33	9496
893.452	9507
893.575	9625
893.697	9530
893.819	9599
893.941	9701
894.064	9641
894.186	9458
894.308	9424
894.43	9538
894.552	9587
894.674	9534
894.796	9450
894.918	9458
895.04	9412
895.161	9355
895.283	9374
895.405	9268
895.526	9291
895.648	9325
895.769	9332
895.891	9279
896.012	9249
896.134	9245
896.255	9199
896.376	9085
896.498	9199
896.619	9104
896.74	9066
896.861	9020
896.982	9222
897.103	9359
897.224	9112
897.345	9051
897.466	9020
897.587	9020
897.708	9062
897.828	9017
897.949	8952
898.07	8899
898.19	8956
898.311	9017
898.431	8910
898.552	8899
898.672	8994
898.792	9013
898.913	8963
899.033	8727
899.153	8766
899.273	8651
899.393	8663
899.513	8769
899.633	8762
899.753	8743
899.873	8712
899.993	8674
900.113	8762
900.232	8693
900.352	8655
900.472	8632
900.591	8552
900.711	8636
900.83	8541
900.95	8682
901.069	8773
901.189	8598
901.308	8385
901.427	8393
901.546	8400
901.665	8488
901.784	8530
901.904	8351
902.023	8336
902.141	8267
902.26	8225
902.379	8279
902.498	8244
902.617	8199
902.735	8256
902.854	8343
902.973	8233
903.091	8115
903.21	8123
903.328	8161
903.446	8149
903.565	8103
903.683	8157
903.801	8111
903.919	8123
904.038	8126
904.156	8050
904.274	8134
904.392	8115
904.51	8035
904.627	8115
904.745	8115
904.863	8081
904.981	7951
905.098	7852
905.216	7856
905.334	7909
905.451	7959
905.569	7940
905.686	7894
905.803	8031
905.921	7776
906.038	7978
906.155	7799
906.272	7788
906.389	7772
906.506	7590
906.623	7647
906.74	7597
906.857	7548
906.974	7590
907.091	7696
907.208	7719
907.324	7594
907.441	7620
907.557	7514
907.674	7491
907.79	7339
907.907	7441
908.023	7369
908.139	7403
908.256	7396
908.372	7384
908.488	7388
908.604	7209
908.72	7206
908.836	7301
908.952	7221
909.068	7251
909.184	7362
909.3	7213
909.415	7305
909.531	7285
909.647	7110
909.762	7110
909.878	7080
909.993	7137
910.108	7015
910.224	7076
910.339	7118
910.454	7038
910.57	6958
910.685	6993
910.8	7095
910.915	7152
911.03	7050
911.145	6886
911.259	6878
911.374	6920
911.489	6943
911.604	6821
911.718	6665
911.833	6802
911.947	6673
912.062	6650
912.176	6696
912.291	6764
912.405	6764
912.519	6852
912.633	6791
912.748	6772
912.862	6677
912.976	6616
913.09	6574
913.204	6597
913.318	6604
913.431	6642
913.545	6700
913.659	6734
913.772	6658
913.886	6669
914	6574
914.113	6601
914.226	6707
914.34	6574
914.453	6506
914.566	6589
914.68	6544
914.793	6502
914.906	6414
915.019	6452
915.132	6376
915.245	6437
915.358	6410
915.47	6471
915.583	6437
915.696	6498
915.809	6555
915.921	6502
916.034	6399
916.146	6467
916.259	6384
916.371	6483
916.483	6483
916.595	6445
916.708	6334
916.82	6448
916.932	6452
917.044	6460
917.156	6403
917.268	6346
917.38	6289
917.491	6346
917.603	6338
917.715	6403
917.826	6483
917.938	6319
918.049	6292
918.161	6361
918.272	6445
918.384	6464
918.495	6414
918.606	6277
918.717	6285
918.828	6289
918.939	6277
919.05	6209
919.161	6315
919.272	6114
919.383	6171
919.494	6289
919.604	6448
919.715	6270
919.826	6197
919.936	6281
920.047	6369
920.157	6319
920.267	6437
920.378	6357
920.488	6342
920.598	6452
920.708	6525
920.818	6521
920.928	6467
921.038	6544
921.148	6593
921.258	6384
921.368	6365
921.477	6213
921.587	6216
921.697	6114
921.806	6178
921.916	6114
922.025	5980
922.134	5939
922.244	5870
922.353	6022
922.462	5828
922.571	5836
922.68	5699
922.789	5748
922.898	5710
923.007	5642
923.116	5733
923.224	5733
923.333	5646
923.442	5623
923.55	5585
923.659	5600
923.767	5615
923.876	5585
923.984	5608
924.092	5512
924.201	5535
924.309	5547
924.417	5630
924.525	5505
924.633	5509
924.741	6163
924.849	5341
924.956	5463
925.064	5360
925.172	5322
925.279	5326
925.387	5379
925.494	5398
925.602	5482
925.709	5398
925.816	5299
925.924	5273
926.031	5353
926.138	5299
926.245	5395
926.352	5254
926.459	5284
926.566	5391
926.673	5220
926.779	5121
926.886	5178
926.993	5022
927.099	5014
927.206	5006
927.312	4968
927.419	4999
927.525	5025
927.631	4949
927.737	4946
927.843	4915
927.95	4816
928.056	4820
928.162	4866
928.267	4919
928.373	5406
928.479	4843
928.585	4675
928.69	4820
928.796	4809
928.901	4698
929.007	4584
929.112	4668
929.218	4691
929.323	4630
929.428	4573
929.533	4691
929.638	4516
929.743	4535
929.848	4596
929.953	4558
930.058	4409
930.163	4375
930.267	4333
930.372	4409
930.477	4360
930.581	4440
930.685	4379
930.79	4291
930.894	4291
930.998	4261
931.103	4402
931.207	4139
931.311	4078
931.415	4036
931.519	3922
931.623	3983
