Data from glass_V78500241_318.txt Node
Date: Wed Sep 01 19:16:42 CST 2021
User: usil
Spectrometer: V785-0024
Trigger mode: 0
Integration Time (sec): 4.000000E-1
Scans to average: 1
Nonlinearity correction enabled: false
Boxcar width: 0
Storing dark spectrum: false
XAxis mode: Wavelengths
Number of Pixels in Spectrum: 1024
>>>>>Begin Spectral Data<<<<<
801.071	3713
801.214	3865
801.356	3720
801.499	3755
801.641	3736
801.783	3781
801.926	3838
802.068	3808
802.211	3899
802.353	3964
802.496	3884
802.638	3884
802.78	3880
802.923	3953
803.065	3876
803.208	3861
803.35	3892
803.492	3888
803.635	3922
803.777	3808
803.919	3911
804.061	4196
804.204	3949
804.346	3975
804.488	3884
804.63	4021
804.773	3991
804.915	4044
805.057	4112
805.199	4090
805.341	4101
805.483	4166
805.626	4166
805.768	4124
805.91	4242
806.052	4265
806.194	4234
806.336	4367
806.478	4261
806.62	4177
806.762	4242
806.904	4287
807.046	4325
807.188	4261
807.33	4173
807.472	4238
807.614	4215
807.756	4268
807.898	4253
808.04	4227
808.182	4310
808.324	4299
808.465	4413
808.607	4451
808.749	4466
808.891	4455
809.033	4516
809.174	4379
809.316	4306
809.458	4249
809.6	4147
809.741	4124
809.883	4131
810.025	4230
810.166	4192
810.308	4249
810.45	4268
810.591	4261
810.733	4337
810.875	4500
811.016	4839
811.158	5094
811.299	5277
811.441	5261
811.582	5121
811.724	4706
811.865	4542
812.007	4481
812.148	4447
812.29	4443
812.431	4447
812.573	4447
812.714	4402
812.855	4383
812.997	4443
813.138	4485
813.279	4436
813.421	4413
813.562	4398
813.703	4322
813.845	4356
813.986	4249
814.127	4261
814.268	4246
814.41	4325
814.551	4287
814.692	4325
814.833	4268
814.974	4322
815.115	4360
815.256	4287
815.397	4276
815.539	4261
815.68	4211
815.821	4177
815.962	4318
816.103	4299
816.244	4238
816.385	4230
816.526	4310
816.666	4265
816.807	4120
816.948	4154
817.089	4158
817.23	4131
817.371	4101
817.512	4032
817.653	4093
817.793	4051
817.934	4040
818.075	4139
818.216	4116
818.356	4131
818.497	3983
818.638	3926
818.778	3930
818.919	3896
819.06	3857
819.2	3918
819.341	3819
819.481	3846
819.622	3915
819.762	4013
819.903	3953
820.043	3880
820.184	3865
820.324	3827
820.465	3876
820.605	3869
820.746	3926
820.886	3774
821.026	3930
821.167	3934
821.307	3991
821.447	3991
821.588	3964
821.728	3987
821.868	3983
822.008	3907
822.149	3899
822.289	3899
822.429	3800
822.569	3797
822.709	3812
822.849	3682
822.99	3747
823.13	3759
823.27	3789
823.41	3728
823.55	3732
823.69	3747
823.83	3770
823.97	3698
824.11	3614
824.25	3633
824.389	3679
824.529	3713
824.669	3652
824.809	3728
824.949	3789
825.089	3743
825.228	3724
825.368	3614
825.508	3561
825.648	3606
825.787	3614
825.927	3679
826.067	3660
826.206	3701
826.346	3816
826.485	3865
826.625	3846
826.765	3964
826.904	3857
827.044	3606
827.183	3530
827.323	3454
827.462	3504
827.601	3412
827.741	3420
827.88	3523
828.02	3409
828.159	3462
828.298	3473
828.437	3530
828.577	3477
828.716	3641
828.855	3523
828.994	3435
829.134	3397
829.273	3412
829.412	3359
829.551	3340
829.69	3378
829.829	3412
829.968	3530
830.107	3477
830.246	3450
830.385	3389
830.524	3359
830.663	3348
830.802	3245
830.941	3211
831.08	3195
831.219	3310
831.357	3249
831.496	3431
831.635	3249
831.774	3211
831.913	3233
832.051	3116
832.19	3150
832.329	3233
832.467	3138
832.606	3070
832.744	3176
832.883	3218
833.022	3211
833.16	3306
833.299	3325
833.437	3351
833.576	3378
833.714	3393
833.852	3435
833.991	3431
834.129	3488
834.267	3439
834.406	3420
834.544	3443
834.682	3435
834.821	3439
834.959	3538
835.097	3412
835.235	3561
835.373	3500
835.511	3530
835.65	3485
835.788	3466
835.926	3420
836.064	3367
836.202	3428
836.34	3580
836.478	3614
836.615	3587
836.753	3603
836.891	3652
837.029	3637
837.167	3606
837.305	3549
837.443	3568
837.58	3545
837.718	3633
837.856	3557
837.993	3572
838.131	3576
838.269	3606
838.406	3629
838.544	3584
838.681	3462
838.819	3443
838.956	3386
839.094	3424
839.231	3450
839.369	3534
839.506	3740
839.643	3644
839.781	3500
839.918	3481
840.055	3526
840.193	3549
840.33	3534
840.467	3584
840.604	3660
840.742	3808
840.879	3511
841.016	3610
841.153	3633
841.29	3743
841.427	3743
841.564	3724
841.701	3778
841.838	3717
841.975	3694
842.112	3755
842.249	3663
842.385	3671
842.522	3808
842.659	3705
842.796	3701
842.933	3713
843.069	3709
843.206	3728
843.343	3861
843.479	3816
843.616	3846
843.752	3701
843.889	3686
844.025	3865
844.162	3743
844.298	3835
844.435	3812
844.571	3857
844.708	3926
844.844	3956
844.98	4036
845.117	3975
845.253	3903
845.389	3956
845.525	3987
845.661	3983
845.798	3922
845.934	4017
846.07	3941
846.206	4048
846.342	4135
846.478	4055
846.614	4002
846.75	3953
846.886	3934
847.022	4055
847.158	3991
847.294	4059
847.429	4082
847.565	3998
847.701	4223
847.837	3884
847.972	3869
848.108	3983
848.244	3953
848.379	3915
848.515	3873
848.65	3842
848.786	3892
848.921	3896
849.057	3953
849.192	3937
849.328	3873
849.463	3899
849.598	3896
849.734	3873
849.869	3880
850.004	3842
850.14	3819
850.275	3766
850.41	3717
850.545	3762
850.68	3774
850.815	3793
850.95	3774
851.085	3991
851.22	3854
851.355	3842
851.49	3827
851.625	3778
851.76	3816
851.895	3755
852.03	3781
852.165	3808
852.299	3869
852.434	3922
852.569	3907
852.703	3926
852.838	3922
852.973	3987
853.107	4025
853.242	3880
853.376	3831
853.511	3812
853.645	3823
853.78	3972
853.914	3941
854.048	3888
854.183	3926
854.317	3949
854.451	4040
854.585	3983
854.72	3987
854.854	4048
854.988	3937
855.122	4051
855.256	3953
855.39	4021
855.524	4143
855.658	4105
855.792	4120
855.926	4124
856.06	4230
856.194	4219
856.327	4097
856.461	4124
856.595	4169
856.729	4188
856.862	4242
856.996	4211
857.13	4295
857.263	4375
857.397	4344
857.53	4303
857.664	4405
857.797	4440
857.931	4379
858.064	4432
858.197	4500
858.331	4379
858.464	4417
858.597	4371
858.731	4432
858.864	4470
858.997	4512
859.13	4538
859.263	4527
859.396	4607
859.529	4535
859.662	4546
859.795	4542
859.928	4599
860.061	4706
860.194	4790
860.327	4698
860.46	4637
860.592	4759
860.725	4786
860.858	4782
860.99	4748
861.123	4649
861.256	4725
861.388	4820
861.521	5235
861.653	4717
861.786	4717
861.918	4816
862.05	4820
862.183	4824
862.315	4930
862.447	4953
862.58	4908
862.712	4797
862.844	4812
862.976	4831
863.108	4866
863.24	5296
863.372	4839
863.504	4911
863.636	4900
863.768	4972
863.9	4972
864.032	4919
864.164	4972
864.296	5029
864.428	5147
864.559	5151
864.691	5174
864.823	5140
864.954	5094
865.086	5109
865.217	5117
865.349	5128
865.48	5201
865.612	5250
865.743	5315
865.875	5254
866.006	5162
866.137	5261
866.269	5265
866.4	5201
866.531	5235
866.662	5258
866.793	5292
866.924	5292
867.055	5315
867.186	5341
867.317	5414
867.448	5288
867.579	5345
867.71	5402
867.841	5429
867.972	5429
868.103	5486
868.233	5497
868.364	5516
868.495	5562
868.625	5718
868.756	5752
868.886	5676
869.017	5710
869.147	5809
869.278	5885
869.408	5760
869.539	5805
869.669	5920
869.799	5923
869.929	6038
870.06	6076
870.19	6235
870.32	6270
870.45	6323
870.58	6319
870.71	6426
870.84	6426
870.97	6407
871.1	6475
871.23	6658
871.36	6707
871.489	6688
871.619	6757
871.749	6776
871.879	6920
872.008	6928
872.138	6970
872.267	7015
872.397	7019
872.526	7031
872.656	7149
872.785	7232
872.915	7400
873.044	7514
873.173	7620
873.303	7674
873.432	7753
873.561	7921
873.69	7852
873.819	8016
873.948	8172
874.077	8225
874.206	8263
874.335	8457
874.464	8613
874.593	8910
874.722	8929
874.851	9119
874.979	9226
875.108	9370
875.237	9485
875.365	9481
875.494	9629
875.623	9831
875.751	9876
875.88	9987
876.008	10143
876.136	10291
876.265	10531
876.393	10710
876.521	10824
876.65	10752
876.778	10889
876.906	10904
877.034	10942
877.162	11094
877.29	11261
877.418	11391
877.546	11341
877.674	11474
877.802	11436
877.93	11520
878.058	11585
878.185	11532
878.313	11684
878.441	11836
878.568	11570
878.696	11843
878.824	11923
878.951	11950
879.079	12022
879.206	12133
879.333	12022
879.461	11988
879.588	12125
879.715	12064
879.842	12273
879.97	12140
880.097	11946
880.224	11942
880.351	11885
880.478	11984
880.605	11836
880.732	11813
880.859	11996
880.986	11828
881.112	11920
881.239	11775
881.366	11691
881.493	11573
881.619	11532
881.746	11577
881.872	11558
881.999	11547
882.125	11509
882.252	11524
882.378	11474
882.505	11478
882.631	11402
882.757	11322
882.883	11326
883.01	11261
883.136	11197
883.262	11086
883.388	11060
883.514	11181
883.64	11064
883.766	11159
883.892	10946
884.018	10968
884.143	11048
884.269	11140
884.395	10911
884.52	10778
884.646	10763
884.772	10672
884.897	10710
885.023	10729
885.148	10771
885.274	10736
885.399	10645
885.524	10573
885.65	10653
885.775	10580
885.9	10569
886.025	10649
886.15	10607
886.275	10474
886.4	10413
886.525	10405
886.65	10394
886.775	10360
886.9	10432
887.025	10573
887.149	10379
887.274	10318
887.399	10219
887.523	10227
887.648	10169
887.773	10090
887.897	10249
888.021	10227
888.146	10139
888.27	10291
888.395	10227
888.519	10276
888.643	10230
888.767	10158
888.891	10135
889.015	10074
889.139	10013
889.263	10029
889.387	10128
889.511	10139
889.635	10063
889.759	10040
889.883	9949
890.006	10025
890.13	10124
890.254	9975
890.377	10021
890.501	9793
890.624	9850
890.748	9865
890.871	9785
890.995	9743
891.118	9663
891.241	9812
891.364	9743
891.488	9812
891.611	9766
891.734	9747
891.857	9857
891.98	9838
892.103	9762
892.226	9728
892.349	9633
892.471	9599
892.594	9553
892.717	9622
892.839	9591
892.962	9625
893.085	9629
893.207	9584
893.33	9587
893.452	9530
893.575	9633
893.697	9595
893.819	9679
893.941	9587
894.064	9538
894.186	9435
894.308	9424
894.43	9454
894.552	9561
894.674	9507
894.796	9401
894.918	9477
895.04	9332
895.161	9431
895.283	9462
895.405	9211
895.526	9268
895.648	9226
895.769	9294
895.891	9329
896.012	9272
896.134	9184
896.255	9207
896.376	9176
896.498	9173
896.619	9123
896.74	9085
896.861	9116
896.982	9233
897.103	9340
897.224	9161
897.345	9161
897.466	9005
897.587	9032
897.708	9157
897.828	9043
897.949	8971
898.07	8876
898.19	8941
898.311	8982
898.431	8910
898.552	8971
898.672	8948
898.792	8948
898.913	8971
899.033	8777
899.153	8735
899.273	8769
899.393	8663
899.513	8735
899.633	8686
899.753	8769
899.873	8693
899.993	8758
900.113	8754
900.232	8686
900.352	8629
900.472	8621
900.591	8522
900.711	8598
900.83	8549
900.95	8670
901.069	8708
901.189	8598
901.308	8431
901.427	8370
901.546	8442
901.665	8473
901.784	8575
901.904	8381
902.023	8396
902.141	8229
902.26	8240
902.379	8214
902.498	8218
902.617	8290
902.735	8267
902.854	8263
902.973	8294
903.091	8145
903.21	8164
903.328	8115
903.446	8092
903.565	8233
903.683	8103
903.801	8130
903.919	8134
904.038	8142
904.156	8050
904.274	8149
904.392	8065
904.51	8088
904.627	8005
904.745	8134
904.863	8123
904.981	7868
905.098	7871
905.216	7860
905.334	7875
905.451	7913
905.569	7898
905.686	7921
905.803	7890
905.921	7814
906.038	7871
906.155	7818
906.272	7761
906.389	7685
906.506	7628
906.623	7590
906.74	7616
906.857	7586
906.974	7559
907.091	7658
907.208	7753
907.324	7643
907.441	7643
907.557	7525
907.674	7441
907.79	7400
907.907	7491
908.023	7510
908.139	7415
908.256	7388
908.372	7396
908.488	7381
908.604	7297
908.72	7247
908.836	7285
908.952	7270
909.068	7179
909.184	7293
909.3	7244
909.415	7312
909.531	7266
909.647	7149
909.762	7084
909.878	7122
909.993	7133
910.108	7114
910.224	7091
910.339	7114
910.454	7133
910.57	7061
910.685	7015
910.8	7221
910.915	7099
911.03	7004
911.145	6924
911.259	6840
911.374	6924
911.489	6852
911.604	6814
911.718	6779
911.833	6722
911.947	6642
912.062	6612
912.176	6779
912.291	6688
912.405	6734
912.519	6829
912.633	6791
912.748	6677
912.862	6719
912.976	6627
913.09	6544
913.204	6623
913.318	6627
913.431	6631
913.545	6719
913.659	6719
913.772	6635
913.886	6623
914	6555
914.113	6738
914.226	6677
914.34	6582
914.453	6540
914.566	6601
914.68	6578
914.793	6525
914.906	6426
915.019	6410
915.132	6376
915.245	6475
915.358	6426
915.47	6452
915.583	6464
915.696	6521
915.809	6612
915.921	6506
916.034	6494
916.146	6460
916.259	6372
916.371	6506
916.483	6467
916.595	6376
916.708	6429
916.82	6414
916.932	6361
917.044	6350
917.156	6365
917.268	6395
917.38	6395
917.491	6277
917.603	6319
917.715	6350
917.826	6410
917.938	6262
918.049	6220
918.161	6346
918.272	6414
918.384	6414
918.495	6399
918.606	6270
918.717	6224
918.828	6243
918.939	6239
919.05	6209
919.161	6224
919.272	6117
919.383	6155
919.494	6277
919.604	6445
919.715	6311
919.826	6239
919.936	6273
920.047	6350
920.157	6338
920.267	6448
920.378	6315
920.488	6266
920.598	6528
920.708	6574
920.818	6483
920.928	6452
921.038	6555
921.148	6620
921.258	6407
921.368	6338
921.477	6232
921.587	6171
921.697	6095
921.806	6163
921.916	6136
922.025	5950
922.134	5897
922.244	5863
922.353	5908
922.462	5851
922.571	5817
922.68	5661
922.789	5676
922.898	5771
923.007	5638
923.116	5657
923.224	5699
923.333	5653
923.442	5615
923.55	5600
923.659	5573
923.767	5661
923.876	5570
923.984	5619
924.092	5558
924.201	5611
924.309	5551
924.417	5585
924.525	5524
924.633	5493
924.741	6197
924.849	5391
924.956	5474
925.064	5345
925.172	5296
925.279	5280
925.387	5334
925.494	5303
925.602	5425
925.709	5364
925.816	5299
925.924	5326
926.031	5345
926.138	5318
926.245	5379
926.352	5170
926.459	5345
926.566	5357
926.673	5197
926.779	5159
926.886	5151
926.993	5045
927.099	5033
927.206	4995
927.312	4942
927.419	5045
927.525	4953
927.631	4999
927.737	4953
927.843	4919
927.95	4744
928.056	4835
928.162	4858
928.267	4870
928.373	5261
928.479	4847
928.585	4721
928.69	4721
928.796	4782
928.901	4717
929.007	4626
929.112	4668
929.218	4634
929.323	4634
929.428	4584
929.533	4675
929.638	4535
929.743	4580
929.848	4573
929.953	4531
930.058	4466
930.163	4314
930.267	4375
930.372	4432
930.477	4348
930.581	4519
930.685	4417
930.79	4272
930.894	4306
930.998	4242
931.103	4390
931.207	4158
931.311	4074
931.415	4063
931.519	3896
931.623	3949
