Data from glass_V78500241_1162.txt Node
Date: Wed Sep 01 19:22:33 CST 2021
User: usil
Spectrometer: V785-0024
Trigger mode: 0
Integration Time (sec): 4.000000E-1
Scans to average: 1
Nonlinearity correction enabled: false
Boxcar width: 0
Storing dark spectrum: false
XAxis mode: Wavelengths
Number of Pixels in Spectrum: 1024
>>>>>Begin Spectral Data<<<<<
801.071	3717
801.214	3747
801.356	3713
801.499	3728
801.641	3694
801.783	3793
801.926	3876
802.068	3869
802.211	3918
802.353	3896
802.496	3812
802.638	3915
802.78	3922
802.923	3941
803.065	3922
803.208	3835
803.35	3857
803.492	3918
803.635	3880
803.777	3865
803.919	3888
804.061	4181
804.204	3975
804.346	3964
804.488	3911
804.63	4055
804.773	3968
804.915	4059
805.057	4158
805.199	4059
805.341	4101
805.483	4150
805.626	4109
805.768	4120
805.91	4166
806.052	4268
806.194	4211
806.336	4341
806.478	4268
806.62	4196
806.762	4234
806.904	4287
807.046	4287
807.188	4219
807.33	4154
807.472	4291
807.614	4204
807.756	4272
807.898	4215
808.04	4230
808.182	4306
808.324	4322
808.465	4352
808.607	4489
808.749	4516
808.891	4497
809.033	4497
809.174	4356
809.316	4287
809.458	4280
809.6	4135
809.741	4154
809.883	4154
810.025	4242
810.166	4219
810.308	4234
810.45	4253
810.591	4261
810.733	4280
810.875	4538
811.016	4831
811.158	5143
811.299	5239
811.441	5296
811.582	5060
811.724	4698
811.865	4493
812.007	4493
812.148	4402
812.29	4421
812.431	4413
812.573	4451
812.714	4409
812.855	4375
812.997	4409
813.138	4447
813.279	4447
813.421	4398
813.562	4371
813.703	4348
813.845	4367
813.986	4280
814.127	4162
814.268	4272
814.41	4257
814.551	4249
814.692	4341
814.833	4268
814.974	4322
815.115	4383
815.256	4249
815.397	4265
815.539	4265
815.68	4238
815.821	4181
815.962	4314
816.103	4325
816.244	4249
816.385	4188
816.526	4284
816.666	4261
816.807	4067
816.948	4192
817.089	4200
817.23	4097
817.371	4048
817.512	4074
817.653	4097
817.793	4040
817.934	4059
818.075	4116
818.216	4063
818.356	4124
818.497	3972
818.638	3915
818.778	3949
818.919	3918
819.06	3873
819.2	3949
819.341	3880
819.481	3865
819.622	3899
819.762	4010
819.903	3953
820.043	3911
820.184	3857
820.324	3827
820.465	3911
820.605	3884
820.746	3865
820.886	3835
821.026	3975
821.167	3926
821.307	3953
821.447	3998
821.588	3991
821.728	3949
821.868	3934
822.008	3907
822.149	3922
822.289	3930
822.429	3762
822.569	3743
822.709	3797
822.849	3728
822.99	3747
823.13	3797
823.27	3766
823.41	3740
823.55	3720
823.69	3751
823.83	3740
823.97	3709
824.11	3648
824.25	3549
824.389	3618
824.529	3652
824.669	3629
824.809	3682
824.949	3762
825.089	3740
825.228	3740
825.368	3606
825.508	3595
825.648	3606
825.787	3644
825.927	3625
826.067	3595
826.206	3682
826.346	3778
826.485	3838
826.625	3876
826.765	3949
826.904	3846
827.044	3606
827.183	3561
827.323	3447
827.462	3507
827.601	3450
827.741	3443
827.88	3450
828.02	3359
828.159	3466
828.298	3526
828.437	3526
828.577	3477
828.716	3599
828.855	3492
828.994	3412
829.134	3389
829.273	3370
829.412	3382
829.551	3344
829.69	3359
829.829	3454
829.968	3504
830.107	3401
830.246	3458
830.385	3355
830.524	3367
830.663	3298
830.802	3294
830.941	3199
831.08	3173
831.219	3272
831.357	3313
831.496	3412
831.635	3253
831.774	3157
831.913	3161
832.051	3142
832.19	3184
832.329	3207
832.467	3142
832.606	3108
832.744	3173
832.883	3165
833.022	3207
833.16	3268
833.299	3344
833.437	3306
833.576	3348
833.714	3447
833.852	3409
833.991	3485
834.129	3485
834.267	3454
834.406	3420
834.544	3488
834.682	3466
834.821	3405
834.959	3584
835.097	3443
835.235	3557
835.373	3515
835.511	3511
835.65	3511
835.788	3534
835.926	3416
836.064	3378
836.202	3443
836.34	3606
836.478	3606
836.615	3576
836.753	3587
836.891	3625
837.029	3587
837.167	3591
837.305	3557
837.443	3572
837.58	3481
837.718	3614
837.856	3568
837.993	3568
838.131	3610
838.269	3587
838.406	3591
838.544	3553
838.681	3507
838.819	3450
838.956	3428
839.094	3420
839.231	3431
839.369	3507
839.506	3781
839.643	3644
839.781	3492
839.918	3462
840.055	3492
840.193	3534
840.33	3504
840.467	3557
840.604	3599
840.742	3800
840.879	3595
841.016	3580
841.153	3580
841.29	3759
841.427	3709
841.564	3736
841.701	3774
841.838	3686
841.975	3701
842.112	3694
842.249	3629
842.385	3652
842.522	3838
842.659	3709
842.796	3633
842.933	3698
843.069	3709
843.206	3709
843.343	3816
843.479	3816
843.616	3846
843.752	3698
843.889	3698
844.025	3937
844.162	3732
844.298	3816
844.435	3800
844.571	3808
844.708	3934
844.844	4006
844.98	4017
845.117	4006
845.253	3975
845.389	3850
845.525	3975
845.661	3987
845.798	3892
845.934	4055
846.07	3953
846.206	4071
846.342	4090
846.478	4036
846.614	3994
846.75	3926
846.886	3903
847.022	4029
847.158	3979
847.294	3991
847.429	4013
847.565	4021
847.701	4242
847.837	3918
847.972	3831
848.108	3949
848.244	3998
848.379	3835
848.515	3793
848.65	3808
848.786	3861
848.921	3865
849.057	3964
849.192	3960
849.328	3911
849.463	3922
849.598	3892
849.734	3880
849.869	3869
850.004	3747
850.14	3819
850.275	3816
850.41	3728
850.545	3759
850.68	3793
850.815	3759
850.95	3819
851.085	3998
851.22	3850
851.355	3831
851.49	3781
851.625	3812
851.76	3766
851.895	3781
852.03	3759
852.165	3835
852.299	3884
852.434	3915
852.569	3876
852.703	3850
852.838	3956
852.973	4017
853.107	3972
853.242	3876
853.376	3838
853.511	3781
853.645	3880
853.78	3930
853.914	3899
854.048	3926
854.183	3876
854.317	3968
854.451	4086
854.585	3911
854.72	3941
854.854	4063
854.988	3949
855.122	3964
855.256	3907
855.39	4048
855.524	4135
855.658	4078
855.792	4120
855.926	4162
856.06	4181
856.194	4169
856.327	4131
856.461	4120
856.595	4173
856.729	4185
856.862	4280
856.996	4249
857.13	4341
857.263	4322
857.397	4337
857.53	4299
857.664	4360
857.797	4409
857.931	4409
858.064	4398
858.197	4474
858.331	4371
858.464	4394
858.597	4383
858.731	4466
858.864	4459
858.997	4462
859.13	4462
859.263	4569
859.396	4615
859.529	4519
859.662	4542
859.795	4527
859.928	4649
860.061	4755
860.194	4759
860.327	4683
860.46	4656
860.592	4748
860.725	4729
860.858	4820
860.99	4683
861.123	4691
861.256	4698
861.388	4782
861.521	5402
861.653	4729
861.786	4706
861.918	4755
862.05	4843
862.183	4816
862.315	4877
862.447	4980
862.58	4896
862.712	4824
862.844	4797
862.976	4930
863.108	4881
863.24	5197
863.372	4828
863.504	4873
863.636	4873
863.768	4991
863.9	4946
864.032	4968
864.164	4957
864.296	4987
864.428	5060
864.559	5064
864.691	5098
864.823	5132
864.954	5113
865.086	5124
865.217	5132
865.349	5083
865.48	5181
865.612	5121
865.743	5311
865.875	5201
866.006	5181
866.137	5246
866.269	5178
866.4	5235
866.531	5273
866.662	5227
866.793	5299
866.924	5307
867.055	5353
867.186	5330
867.317	5311
867.448	5246
867.579	5383
867.71	5383
867.841	5425
867.972	5448
868.103	5490
868.233	5482
868.364	5532
868.495	5524
868.625	5634
868.756	5817
868.886	5672
869.017	5737
869.147	5813
869.278	5916
869.408	5855
869.539	5840
869.669	5878
869.799	5916
869.929	6022
870.06	5939
870.19	6194
870.32	6136
870.45	6315
870.58	6308
870.71	6433
870.84	6498
870.97	6391
871.1	6426
871.23	6639
871.36	6650
871.489	6715
871.619	6734
871.749	6810
871.879	6837
872.008	6973
872.138	6962
872.267	7031
872.397	6985
872.526	7065
872.656	7095
872.785	7213
872.915	7457
873.044	7525
873.173	7495
873.303	7647
873.432	7837
873.561	7883
873.69	7898
873.819	8039
873.948	8237
874.077	8259
874.206	8362
874.335	8476
874.464	8655
874.593	8963
874.722	9005
874.851	9150
874.979	9230
875.108	9283
875.237	9466
875.365	9488
875.494	9641
875.623	9827
875.751	9751
875.88	10059
876.008	10105
876.136	10329
876.265	10481
876.393	10717
876.521	10812
876.65	10793
876.778	10866
876.906	10923
877.034	10980
877.162	11102
877.29	11189
877.418	11406
877.546	11368
877.674	11463
877.802	11566
877.93	11558
878.058	11573
878.185	11524
878.313	11733
878.441	11866
878.568	11585
878.696	11851
878.824	11878
878.951	11931
879.079	12030
879.206	12224
879.333	12053
879.461	11961
879.588	12182
879.715	12091
879.842	12262
879.97	12049
880.097	11958
880.224	11828
880.351	11931
880.478	11847
880.605	11939
880.732	11798
880.859	11935
880.986	11832
881.112	11950
881.239	11786
881.366	11680
881.493	11619
881.619	11535
881.746	11596
881.872	11558
881.999	11608
882.125	11402
882.252	11600
882.378	11551
882.505	11478
882.631	11433
882.757	11318
882.883	11311
883.01	11334
883.136	11242
883.262	11037
883.388	11105
883.514	11204
883.64	11250
883.766	11132
883.892	11025
884.018	10984
884.143	10957
884.269	11067
884.395	10862
884.52	10869
884.646	10793
884.772	10656
884.897	10748
885.023	10664
885.148	10683
885.274	10866
885.399	10691
885.524	10641
885.65	10611
885.775	10618
885.9	10561
886.025	10577
886.15	10565
886.275	10489
886.4	10402
886.525	10394
886.65	10352
886.775	10402
886.9	10554
887.025	10459
887.149	10375
887.274	10303
887.399	10124
887.523	10131
887.648	10120
887.773	10135
887.897	10284
888.021	10196
888.146	10063
888.27	10253
888.395	10276
888.519	10169
888.643	10162
888.767	10303
888.891	10162
889.015	9945
889.139	10067
889.263	9934
889.387	10048
889.511	10139
889.635	10078
889.759	9949
889.883	9895
890.006	10074
890.13	10188
890.254	9945
890.377	10029
890.501	9918
890.624	9972
890.748	9888
890.871	9789
890.995	9717
891.118	9789
891.241	9781
891.364	9751
891.488	9819
891.611	9709
891.734	9816
891.857	9774
891.98	9743
892.103	9812
892.226	9770
892.349	9698
892.471	9488
892.594	9576
892.717	9637
892.839	9652
892.962	9561
893.085	9663
893.207	9618
893.33	9500
893.452	9511
893.575	9648
893.697	9492
893.819	9606
893.941	9694
894.064	9603
894.186	9420
894.308	9496
894.43	9504
894.552	9603
894.674	9519
894.796	9439
894.918	9389
895.04	9321
895.161	9466
895.283	9382
895.405	9230
895.526	9313
895.648	9302
895.769	9245
895.891	9268
896.012	9363
896.134	9245
896.255	9260
896.376	9157
896.498	9184
896.619	9207
896.74	9138
896.861	9146
896.982	9272
897.103	9313
897.224	9207
897.345	9028
897.466	9013
897.587	9074
897.708	9077
897.828	9070
897.949	8975
898.07	8952
898.19	8891
898.311	9070
898.431	8929
898.552	8880
898.672	9036
898.792	8929
898.913	8937
899.033	8769
899.153	8644
899.273	8693
899.393	8689
899.513	8785
899.633	8796
899.753	8746
899.873	8727
899.993	8743
900.113	8724
900.232	8629
900.352	8629
900.472	8659
900.591	8560
900.711	8636
900.83	8556
900.95	8651
901.069	8758
901.189	8602
901.308	8465
901.427	8358
901.546	8412
901.665	8450
901.784	8465
901.904	8423
902.023	8404
902.141	8294
902.26	8172
902.379	8256
902.498	8244
902.617	8157
902.735	8256
902.854	8252
902.973	8282
903.091	8145
903.21	8161
903.328	8164
903.446	8126
903.565	8073
903.683	8084
903.801	8088
903.919	8115
904.038	8149
904.156	8039
904.274	8126
904.392	7959
904.51	8058
904.627	8088
904.745	8100
904.863	8092
904.981	7856
905.098	7909
905.216	7883
905.334	7864
905.451	7883
905.569	7898
905.686	7959
905.803	7944
905.921	7742
906.038	7890
906.155	7757
906.272	7742
906.389	7772
906.506	7666
906.623	7609
906.74	7628
906.857	7552
906.974	7590
907.091	7719
907.208	7784
907.324	7575
907.441	7609
907.557	7449
907.674	7422
907.79	7384
907.907	7396
908.023	7426
908.139	7392
908.256	7358
908.372	7396
908.488	7369
908.604	7305
908.72	7251
908.836	7285
908.952	7194
909.068	7247
909.184	7263
909.3	7266
909.415	7274
909.531	7316
909.647	7118
909.762	7110
909.878	7080
909.993	7175
910.108	7091
910.224	7103
910.339	7084
910.454	7065
910.57	6996
910.685	6985
910.8	7221
910.915	7122
911.03	7050
911.145	7000
911.259	6897
911.374	6924
911.489	6863
911.604	6833
911.718	6711
911.833	6783
911.947	6711
912.062	6635
912.176	6719
912.291	6768
912.405	6726
912.519	6798
912.633	6844
912.748	6749
912.862	6760
912.976	6688
913.09	6585
913.204	6642
913.318	6627
913.431	6707
913.545	6722
913.659	6730
913.772	6646
913.886	6582
914	6601
914.113	6639
914.226	6627
914.34	6654
914.453	6540
914.566	6604
914.68	6566
914.793	6532
914.906	6437
915.019	6365
915.132	6410
915.245	6426
915.358	6448
915.47	6471
915.583	6502
915.696	6498
915.809	6566
915.921	6532
916.034	6342
916.146	6433
916.259	6395
916.371	6521
916.483	6448
916.595	6441
916.708	6418
916.82	6372
916.932	6380
917.044	6426
917.156	6399
917.268	6319
917.38	6346
917.491	6327
917.603	6319
917.715	6422
917.826	6467
917.938	6331
918.049	6281
918.161	6372
918.272	6388
918.384	6414
918.495	6384
918.606	6262
918.717	6273
918.828	6296
918.939	6308
919.05	6216
919.161	6331
919.272	6121
919.383	6167
919.494	6304
919.604	6486
919.715	6296
919.826	6273
919.936	6254
920.047	6331
920.157	6296
920.267	6506
920.378	6361
920.488	6285
920.598	6422
920.708	6555
920.818	6429
920.928	6452
921.038	6673
921.148	6570
921.258	6342
921.368	6235
921.477	6235
921.587	6201
921.697	6087
921.806	6148
921.916	6098
922.025	5889
922.134	5904
922.244	5893
922.353	5980
922.462	5832
922.571	5798
922.68	5714
922.789	5726
922.898	5733
923.007	5627
923.116	5733
923.224	5699
923.333	5646
923.442	5596
923.55	5653
923.659	5562
923.767	5672
923.876	5532
923.984	5581
924.092	5532
924.201	5577
924.309	5532
924.417	5566
924.525	5516
924.633	5516
924.741	6304
924.849	5376
924.956	5478
925.064	5326
925.172	5288
925.279	5330
925.387	5353
925.494	5364
925.602	5425
925.709	5414
925.816	5265
925.924	5303
926.031	5360
926.138	5330
926.245	5364
926.352	5216
926.459	5318
926.566	5337
926.673	5185
926.779	5147
926.886	5140
926.993	5033
927.099	5010
927.206	4984
927.312	4976
927.419	5010
927.525	4961
927.631	4968
927.737	4892
927.843	4847
927.95	4850
928.056	4862
928.162	4873
928.267	4900
928.373	5357
928.479	4854
928.585	4710
928.69	4782
928.796	4797
928.901	4698
929.007	4599
929.112	4679
929.218	4634
929.323	4618
929.428	4550
929.533	4664
929.638	4516
929.743	4508
929.848	4569
929.953	4493
930.058	4440
930.163	4325
930.267	4348
930.372	4428
930.477	4276
930.581	4493
930.685	4371
930.79	4265
930.894	4299
930.998	4291
931.103	4402
931.207	4181
931.311	4078
931.415	4029
931.519	3903
931.623	3979
