Data from glass_V78500241_565.txt Node
Date: Wed Sep 01 19:18:24 CST 2021
User: usil
Spectrometer: V785-0024
Trigger mode: 0
Integration Time (sec): 4.000000E-1
Scans to average: 1
Nonlinearity correction enabled: false
Boxcar width: 0
Storing dark spectrum: false
XAxis mode: Wavelengths
Number of Pixels in Spectrum: 1024
>>>>>Begin Spectral Data<<<<<
801.071	3789
801.214	3766
801.356	3705
801.499	3728
801.641	3755
801.783	3819
801.926	3865
802.068	3873
802.211	3899
802.353	3911
802.496	3808
802.638	3899
802.78	3968
802.923	3930
803.065	3915
803.208	3861
803.35	3857
803.492	3873
803.635	3953
803.777	3823
803.919	3915
804.061	4196
804.204	3983
804.346	3979
804.488	3930
804.63	4097
804.773	3998
804.915	4051
805.057	4143
805.199	4029
805.341	4078
805.483	4139
805.626	4139
805.768	4101
805.91	4166
806.052	4238
806.194	4192
806.336	4367
806.478	4242
806.62	4204
806.762	4223
806.904	4272
807.046	4318
807.188	4227
807.33	4200
807.472	4227
807.614	4219
807.756	4272
807.898	4204
808.04	4223
808.182	4295
808.324	4325
808.465	4375
808.607	4546
808.749	4421
808.891	4474
809.033	4493
809.174	4440
809.316	4261
809.458	4242
809.6	4143
809.741	4192
809.883	4181
810.025	4215
810.166	4238
810.308	4227
810.45	4291
810.591	4242
810.733	4318
810.875	4531
811.016	4877
811.158	5113
811.299	5277
811.441	5315
811.582	5083
811.724	4740
811.865	4489
812.007	4493
812.148	4440
812.29	4436
812.431	4402
812.573	4436
812.714	4428
812.855	4440
812.997	4436
813.138	4500
813.279	4440
813.421	4405
813.562	4398
813.703	4337
813.845	4371
813.986	4246
814.127	4246
814.268	4253
814.41	4333
814.551	4299
814.692	4314
814.833	4287
814.974	4348
815.115	4363
815.256	4284
815.397	4261
815.539	4188
815.68	4238
815.821	4234
815.962	4276
816.103	4306
816.244	4242
816.385	4265
816.526	4322
816.666	4242
816.807	4101
816.948	4227
817.089	4158
817.23	4116
817.371	4055
817.512	4040
817.653	4093
817.793	4029
817.934	4059
818.075	4071
818.216	4131
818.356	4109
818.497	3983
818.638	3922
818.778	3915
818.919	3876
819.06	3884
819.2	3896
819.341	3861
819.481	3880
819.622	3922
819.762	4032
819.903	3960
820.043	3865
820.184	3876
820.324	3831
820.465	3937
820.605	3876
820.746	3911
820.886	3816
821.026	3926
821.167	3911
821.307	3960
821.447	3991
821.588	3953
821.728	3972
821.868	3934
822.008	3865
822.149	3926
822.289	3930
822.429	3800
822.569	3762
822.709	3793
822.849	3682
822.99	3724
823.13	3812
823.27	3766
823.41	3728
823.55	3774
823.69	3740
823.83	3766
823.97	3705
824.11	3629
824.25	3625
824.389	3667
824.529	3675
824.669	3660
824.809	3736
824.949	3770
825.089	3762
825.228	3698
825.368	3633
825.508	3568
825.648	3622
825.787	3625
825.927	3644
826.067	3595
826.206	3694
826.346	3781
826.485	3869
826.625	3896
826.765	3960
826.904	3827
827.044	3622
827.183	3523
827.323	3469
827.462	3485
827.601	3409
827.741	3450
827.88	3443
828.02	3359
828.159	3443
828.298	3496
828.437	3557
828.577	3534
828.716	3614
828.855	3530
828.994	3435
829.134	3424
829.273	3401
829.412	3382
829.551	3359
829.69	3397
829.829	3416
829.968	3561
830.107	3458
830.246	3443
830.385	3370
830.524	3397
830.663	3298
830.802	3287
830.941	3203
831.08	3199
831.219	3268
831.357	3245
831.496	3431
831.635	3230
831.774	3161
831.913	3207
832.051	3142
832.19	3176
832.329	3241
832.467	3150
832.606	3119
832.744	3218
832.883	3199
833.022	3195
833.16	3268
833.299	3306
833.437	3351
833.576	3439
833.714	3439
833.852	3431
833.991	3454
834.129	3473
834.267	3439
834.406	3405
834.544	3458
834.682	3420
834.821	3409
834.959	3584
835.097	3424
835.235	3561
835.373	3523
835.511	3511
835.65	3488
835.788	3504
835.926	3382
836.064	3370
836.202	3412
836.34	3595
836.478	3629
836.615	3530
836.753	3614
836.891	3648
837.029	3606
837.167	3595
837.305	3572
837.443	3545
837.58	3485
837.718	3679
837.856	3561
837.993	3530
838.131	3606
838.269	3595
838.406	3618
838.544	3549
838.681	3462
838.819	3496
838.956	3389
839.094	3435
839.231	3450
839.369	3492
839.506	3759
839.643	3652
839.781	3542
839.918	3530
840.055	3557
840.193	3526
840.33	3584
840.467	3523
840.604	3633
840.742	3789
840.879	3561
841.016	3576
841.153	3587
841.29	3781
841.427	3728
841.564	3755
841.701	3751
841.838	3656
841.975	3679
842.112	3751
842.249	3648
842.385	3618
842.522	3876
842.659	3736
842.796	3682
842.933	3736
843.069	3705
843.206	3770
843.343	3808
843.479	3812
843.616	3846
843.752	3690
843.889	3698
844.025	3842
844.162	3747
844.298	3899
844.435	3804
844.571	3793
844.708	3896
844.844	4051
844.98	4044
845.117	3983
845.253	3956
845.389	3876
845.525	3998
845.661	3998
845.798	3937
845.934	4010
846.07	3998
846.206	4021
846.342	4154
846.478	4082
846.614	3998
846.75	3934
846.886	3964
847.022	4036
847.158	4013
847.294	3983
847.429	4032
847.565	3968
847.701	4234
847.837	3926
847.972	3869
848.108	3949
848.244	3968
848.379	3838
848.515	3846
848.65	3850
848.786	3823
848.921	3880
849.057	3941
849.192	3968
849.328	3930
849.463	3930
849.598	3896
849.734	3888
849.869	3880
850.004	3797
850.14	3827
850.275	3827
850.41	3762
850.545	3755
850.68	3762
850.815	3804
850.95	3835
851.085	3975
851.22	3884
851.355	3854
851.49	3762
851.625	3800
851.76	3835
851.895	3720
852.03	3736
852.165	3808
852.299	3831
852.434	3926
852.569	3869
852.703	3896
852.838	3907
852.973	4017
853.107	3983
853.242	3918
853.376	3850
853.511	3770
853.645	3888
853.78	4021
853.914	3915
854.048	3930
854.183	3873
854.317	3968
854.451	4101
854.585	3930
854.72	3949
854.854	4082
854.988	3918
855.122	4040
855.256	3922
855.39	4013
855.524	4090
855.658	4120
855.792	4124
855.926	4162
856.06	4135
856.194	4242
856.327	4112
856.461	4185
856.595	4154
856.729	4196
856.862	4257
856.996	4310
857.13	4253
857.263	4405
857.397	4402
857.53	4306
857.664	4402
857.797	4428
857.931	4443
858.064	4413
858.197	4443
858.331	4405
858.464	4436
858.597	4424
858.731	4462
858.864	4474
858.997	4470
859.13	4558
859.263	4527
859.396	4622
859.529	4561
859.662	4500
859.795	4527
859.928	4626
860.061	4702
860.194	4767
860.327	4645
860.46	4656
860.592	4717
860.725	4786
860.858	4797
860.99	4694
861.123	4694
861.256	4717
861.388	4805
861.521	5410
861.653	4702
861.786	4717
861.918	4771
862.05	4801
862.183	4835
862.315	4885
862.447	4934
862.58	4854
862.712	4816
862.844	4755
862.976	4889
863.108	4942
863.24	5162
863.372	4828
863.504	4881
863.636	4881
863.768	4949
863.9	4957
864.032	4961
864.164	4965
864.296	5006
864.428	5079
864.559	5109
864.691	5117
864.823	5086
864.954	5132
865.086	5189
865.217	5151
865.349	5117
865.48	5185
865.612	5235
865.743	5269
865.875	5197
866.006	5193
866.137	5258
866.269	5242
866.4	5292
866.531	5197
866.662	5220
866.793	5303
866.924	5284
867.055	5387
867.186	5345
867.317	5360
867.448	5280
867.579	5410
867.71	5387
867.841	5368
867.972	5482
868.103	5501
868.233	5524
868.364	5528
868.495	5509
868.625	5714
868.756	5832
868.886	5627
869.017	5752
869.147	5859
869.278	5885
869.408	5840
869.539	5798
869.669	5885
869.799	5946
869.929	6034
870.06	5954
870.19	6190
870.32	6201
870.45	6273
870.58	6380
870.71	6433
870.84	6479
870.97	6426
871.1	6422
871.23	6635
871.36	6726
871.489	6688
871.619	6734
871.749	6848
871.879	6882
872.008	6951
872.138	7000
872.267	7019
872.397	7046
872.526	7053
872.656	7076
872.785	7190
872.915	7430
873.044	7457
873.173	7544
873.303	7609
873.432	7772
873.561	7833
873.69	7913
873.819	8027
873.948	8210
874.077	8252
874.206	8385
874.335	8412
874.464	8625
874.593	8868
874.722	8823
874.851	9097
874.979	9214
875.108	9412
875.237	9424
875.365	9526
875.494	9660
875.623	9865
875.751	9789
875.88	10036
876.008	10101
876.136	10272
876.265	10466
876.393	10679
876.521	10801
876.65	10824
876.778	10923
876.906	10850
877.034	11048
877.162	11140
877.29	11102
877.418	11254
877.546	11395
877.674	11364
877.802	11433
877.93	11520
878.058	11566
878.185	11490
878.313	11604
878.441	11794
878.568	11699
878.696	11840
878.824	11889
878.951	11931
879.079	12022
879.206	12102
879.333	12060
879.461	12045
879.588	12072
879.715	12076
879.842	12247
879.97	12083
880.097	11904
880.224	11935
880.351	11935
880.478	11916
880.605	11847
880.732	11836
880.859	12125
880.986	11882
881.112	11836
881.239	11733
881.366	11737
881.493	11581
881.619	11604
881.746	11532
881.872	11577
881.999	11573
882.125	11585
882.252	11482
882.378	11490
882.505	11570
882.631	11425
882.757	11383
882.883	11315
883.01	11261
883.136	11193
883.262	11071
883.388	11140
883.514	11223
883.64	11159
883.766	11155
883.892	10995
884.018	10999
884.143	11086
884.269	11045
884.395	10839
884.52	10831
884.646	10706
884.772	10721
884.897	10656
885.023	10691
885.148	10824
885.274	10774
885.399	10748
885.524	10615
885.65	10634
885.775	10641
885.9	10569
886.025	10584
886.15	10599
886.275	10519
886.4	10447
886.525	10390
886.65	10379
886.775	10348
886.9	10504
887.025	10504
887.149	10394
887.274	10227
887.399	10230
887.523	10192
887.648	10158
887.773	10147
887.897	10249
888.021	10196
888.146	10067
888.27	10227
888.395	10265
888.519	10211
888.643	10238
888.767	10230
888.891	10074
889.015	10040
889.139	10071
889.263	10029
889.387	10067
889.511	10128
889.635	10044
889.759	9983
889.883	9972
890.006	9987
890.13	10154
890.254	9968
890.377	9956
890.501	9850
890.624	9766
890.748	9880
890.871	9831
890.995	9911
891.118	9747
891.241	9724
891.364	9743
891.488	9800
891.611	9720
891.734	9762
891.857	9774
891.98	9728
892.103	9747
892.226	9759
892.349	9671
892.471	9523
892.594	9599
892.717	9671
892.839	9572
892.962	9603
893.085	9637
893.207	9622
893.33	9549
893.452	9553
893.575	9542
893.697	9545
893.819	9610
893.941	9584
894.064	9534
894.186	9412
894.308	9519
894.43	9515
894.552	9561
894.674	9568
894.796	9321
894.918	9431
895.04	9367
895.161	9412
895.283	9359
895.405	9222
895.526	9298
895.648	9253
895.769	9294
895.891	9340
896.012	9351
896.134	9268
896.255	9256
896.376	9116
896.498	9119
896.619	9077
896.74	9070
896.861	9127
896.982	9233
897.103	9408
897.224	9218
897.345	9066
897.466	9055
897.587	9043
897.708	9131
897.828	9028
897.949	8914
898.07	8864
898.19	8929
898.311	9039
898.431	8868
898.552	8975
898.672	9028
898.792	8979
898.913	8914
899.033	8826
899.153	8781
899.273	8648
899.393	8769
899.513	8720
899.633	8754
899.753	8777
899.873	8670
899.993	8720
900.113	8720
900.232	8758
900.352	8644
900.472	8564
900.591	8564
900.711	8606
900.83	8610
900.95	8697
901.069	8674
901.189	8674
901.308	8476
901.427	8408
901.546	8400
901.665	8552
901.784	8457
901.904	8374
902.023	8320
902.141	8263
902.26	8210
902.379	8275
902.498	8248
902.617	8172
902.735	8290
902.854	8271
902.973	8252
903.091	8134
903.21	8183
903.328	8157
903.446	8092
903.565	8145
903.683	8130
903.801	8126
903.919	8142
904.038	8172
904.156	8050
904.274	8157
904.392	8084
904.51	8012
904.627	8111
904.745	8138
904.863	8107
904.981	7932
905.098	7879
905.216	7833
905.334	7921
905.451	7890
905.569	7883
905.686	7894
905.803	7860
905.921	7837
906.038	7864
906.155	7795
906.272	7765
906.389	7719
906.506	7658
906.623	7628
906.74	7632
906.857	7506
906.974	7590
907.091	7674
907.208	7822
907.324	7655
907.441	7567
907.557	7453
907.674	7449
907.79	7400
907.907	7438
908.023	7556
908.139	7445
908.256	7426
908.372	7354
908.488	7422
908.604	7270
908.72	7255
908.836	7247
908.952	7217
909.068	7324
909.184	7327
909.3	7282
909.415	7297
909.531	7259
909.647	7091
909.762	7206
909.878	7133
909.993	7145
910.108	7133
910.224	7038
910.339	7133
910.454	7031
910.57	7027
910.685	6958
910.8	7168
910.915	7145
911.03	7015
911.145	6878
911.259	6856
911.374	6886
911.489	6863
911.604	6825
911.718	6658
911.833	6764
911.947	6715
912.062	6627
912.176	6688
912.291	6772
912.405	6715
912.519	6818
912.633	6890
912.748	6749
912.862	6673
912.976	6627
913.09	6525
913.204	6627
913.318	6601
913.431	6730
913.545	6669
913.659	6658
913.772	6646
913.886	6479
914	6532
914.113	6646
914.226	6650
914.34	6570
914.453	6471
914.566	6604
914.68	6509
914.793	6540
914.906	6433
915.019	6418
915.132	6342
915.245	6418
915.358	6452
915.47	6528
915.583	6494
915.696	6426
915.809	6513
915.921	6585
916.034	6426
916.146	6422
916.259	6388
916.371	6464
916.483	6502
916.595	6437
916.708	6414
916.82	6403
916.932	6353
917.044	6441
917.156	6365
917.268	6319
917.38	6357
917.491	6292
917.603	6346
917.715	6452
917.826	6414
917.938	6277
918.049	6277
918.161	6388
918.272	6441
918.384	6399
918.495	6391
918.606	6285
918.717	6224
918.828	6281
918.939	6243
919.05	6220
919.161	6270
919.272	6167
919.383	6167
919.494	6281
919.604	6414
919.715	6258
919.826	6239
919.936	6285
920.047	6353
920.157	6327
920.267	6441
920.378	6346
920.488	6300
920.598	6464
920.708	6616
920.818	6513
920.928	6528
921.038	6635
921.148	6585
921.258	6422
921.368	6304
921.477	6228
921.587	6194
921.697	6041
921.806	6194
921.916	6064
922.025	5942
922.134	5950
922.244	5908
922.353	5958
922.462	5840
922.571	5828
922.68	5661
922.789	5688
922.898	5729
923.007	5649
923.116	5703
923.224	5733
923.333	5668
923.442	5611
923.55	5608
923.659	5627
923.767	5604
923.876	5577
923.984	5592
924.092	5516
924.201	5551
924.309	5573
924.417	5543
924.525	5463
924.633	5543
924.741	6300
924.849	5379
924.956	5478
925.064	5357
925.172	5299
925.279	5296
925.387	5364
925.494	5398
925.602	5429
925.709	5406
925.816	5261
925.924	5345
926.031	5406
926.138	5292
926.245	5322
926.352	5242
926.459	5334
926.566	5299
926.673	5212
926.779	5201
926.886	5159
926.993	5037
927.099	5025
927.206	4976
927.312	4942
927.419	4987
927.525	4995
927.631	4987
927.737	4930
927.843	4870
927.95	4782
928.056	4850
928.162	4820
928.267	4870
928.373	5311
928.479	4839
928.585	4698
928.69	4790
928.796	4782
928.901	4687
929.007	4626
929.112	4679
929.218	4634
929.323	4634
929.428	4565
929.533	4653
929.638	4527
929.743	4519
929.848	4588
929.953	4527
930.058	4447
930.163	4337
930.267	4329
930.372	4462
930.477	4314
930.581	4497
930.685	4356
930.79	4261
930.894	4299
930.998	4242
931.103	4390
931.207	4154
931.311	4067
931.415	4029
931.519	3922
931.623	3983
