Data from glass_V78500241_2696.txt Node
Date: Wed Sep 01 19:33:11 CST 2021
User: usil
Spectrometer: V785-0024
Trigger mode: 0
Integration Time (sec): 4.000000E-1
Scans to average: 1
Nonlinearity correction enabled: false
Boxcar width: 0
Storing dark spectrum: false
XAxis mode: Wavelengths
Number of Pixels in Spectrum: 1024
>>>>>Begin Spectral Data<<<<<
801.071	3686
801.214	3717
801.356	3694
801.499	3675
801.641	3713
801.783	3759
801.926	3861
802.068	3816
802.211	3869
802.353	3899
802.496	3789
802.638	3865
802.78	3888
802.923	3934
803.065	3911
803.208	3842
803.35	3854
803.492	3831
803.635	3880
803.777	3785
803.919	3903
804.061	4135
804.204	3968
804.346	3926
804.488	3884
804.63	4002
804.773	4013
804.915	3998
805.057	4116
805.199	4044
805.341	4078
805.483	4169
805.626	4131
805.768	4090
805.91	4188
806.052	4211
806.194	4173
806.336	4333
806.478	4150
806.62	4188
806.762	4128
806.904	4188
807.046	4303
807.188	4234
807.33	4173
807.472	4227
807.614	4173
807.756	4204
807.898	4192
808.04	4246
808.182	4276
808.324	4333
808.465	4367
808.607	4405
808.749	4436
808.891	4462
809.033	4462
809.174	4402
809.316	4230
809.458	4246
809.6	4166
809.741	4147
809.883	4204
810.025	4211
810.166	4188
810.308	4219
810.45	4219
810.591	4200
810.733	4295
810.875	4485
811.016	4816
811.158	5140
811.299	5280
811.441	5258
811.582	5121
811.724	4664
811.865	4436
812.007	4398
812.148	4428
812.29	4424
812.431	4421
812.573	4356
812.714	4394
812.855	4367
812.997	4417
813.138	4428
813.279	4367
813.421	4371
813.562	4306
813.703	4363
813.845	4295
813.986	4261
814.127	4204
814.268	4234
814.41	4268
814.551	4223
814.692	4284
814.833	4242
814.974	4341
815.115	4333
815.256	4230
815.397	4192
815.539	4181
815.68	4143
815.821	4177
815.962	4360
816.103	4295
816.244	4253
816.385	4230
816.526	4268
816.666	4207
816.807	4128
816.948	4196
817.089	4158
817.23	4082
817.371	4048
817.512	4044
817.653	4082
817.793	3994
817.934	4051
818.075	4093
818.216	4067
818.356	4086
818.497	4051
818.638	3926
818.778	3975
818.919	3850
819.06	3876
819.2	3876
819.341	3838
819.481	3823
819.622	3896
819.762	4029
819.903	3941
820.043	3884
820.184	3823
820.324	3838
820.465	3854
820.605	3800
820.746	3892
820.886	3755
821.026	3926
821.167	3937
821.307	3979
821.447	3987
821.588	3960
821.728	3930
821.868	3915
822.008	3850
822.149	3899
822.289	3892
822.429	3785
822.569	3751
822.709	3793
822.849	3663
822.99	3713
823.13	3751
823.27	3747
823.41	3694
823.55	3720
823.69	3671
823.83	3713
823.97	3682
824.11	3580
824.25	3591
824.389	3652
824.529	3663
824.669	3652
824.809	3663
824.949	3705
825.089	3713
825.228	3652
825.368	3561
825.508	3542
825.648	3542
825.787	3584
825.927	3614
826.067	3603
826.206	3633
826.346	3762
826.485	3827
826.625	3873
826.765	3918
826.904	3850
827.044	3648
827.183	3488
827.323	3409
827.462	3469
827.601	3454
827.741	3420
827.88	3439
828.02	3321
828.159	3428
828.298	3447
828.437	3485
828.577	3469
828.716	3587
828.855	3492
828.994	3348
829.134	3389
829.273	3382
829.412	3321
829.551	3298
829.69	3405
829.829	3424
829.968	3526
830.107	3412
830.246	3443
830.385	3336
830.524	3332
830.663	3313
830.802	3214
830.941	3222
831.08	3150
831.219	3264
831.357	3268
831.496	3431
831.635	3214
831.774	3176
831.913	3173
832.051	3108
832.19	3146
832.329	3207
832.467	3119
832.606	3077
832.744	3154
832.883	3157
833.022	3176
833.16	3256
833.299	3317
833.437	3313
833.576	3367
833.714	3435
833.852	3443
833.991	3435
834.129	3473
834.267	3424
834.406	3397
834.544	3397
834.682	3401
834.821	3428
834.959	3576
835.097	3389
835.235	3545
835.373	3469
835.511	3526
835.65	3488
835.788	3534
835.926	3367
836.064	3393
836.202	3389
836.34	3564
836.478	3576
836.615	3557
836.753	3561
836.891	3641
837.029	3564
837.167	3564
837.305	3595
837.443	3523
837.58	3538
837.718	3629
837.856	3526
837.993	3542
838.131	3580
838.269	3572
838.406	3545
838.544	3568
838.681	3462
838.819	3424
838.956	3401
839.094	3405
839.231	3431
839.369	3485
839.506	3682
839.643	3629
839.781	3488
839.918	3466
840.055	3488
840.193	3523
840.33	3488
840.467	3545
840.604	3549
840.742	3774
840.879	3492
841.016	3553
841.153	3545
841.29	3751
841.427	3713
841.564	3709
841.701	3720
841.838	3663
841.975	3644
842.112	3759
842.249	3625
842.385	3622
842.522	3804
842.659	3667
842.796	3652
842.933	3701
843.069	3675
843.206	3644
843.343	3827
843.479	3728
843.616	3838
843.752	3656
843.889	3644
844.025	3838
844.162	3694
844.298	3823
844.435	3797
844.571	3762
844.708	3880
844.844	3975
844.98	3979
845.117	4010
845.253	3907
845.389	3903
845.525	3960
845.661	3964
845.798	3899
845.934	3975
846.07	3915
846.206	4067
846.342	4082
846.478	4067
846.614	3922
846.75	3926
846.886	3873
847.022	4021
847.158	3983
847.294	3953
847.429	4010
847.565	3964
847.701	4223
847.837	3865
847.972	3892
848.108	3983
848.244	3991
848.379	3812
848.515	3812
848.65	3819
848.786	3781
848.921	3857
849.057	3926
849.192	3949
849.328	3884
849.463	3903
849.598	3857
849.734	3819
849.869	3873
850.004	3819
850.14	3831
850.275	3781
850.41	3762
850.545	3686
850.68	3778
850.815	3778
850.95	3778
851.085	3926
851.22	3842
851.355	3823
851.49	3770
851.625	3800
851.76	3785
851.895	3747
852.03	3701
852.165	3812
852.299	3800
852.434	3903
852.569	3827
852.703	3861
852.838	3926
852.973	4010
853.107	3975
853.242	3850
853.376	3873
853.511	3713
853.645	3804
853.78	3922
853.914	3884
854.048	3880
854.183	3846
854.317	3857
854.451	4029
854.585	3960
854.72	3918
854.854	4006
854.988	3926
855.122	4013
855.256	3892
855.39	4036
855.524	4135
855.658	4112
855.792	4116
855.926	4150
856.06	4124
856.194	4196
856.327	4074
856.461	4120
856.595	4158
856.729	4177
856.862	4249
856.996	4211
857.13	4303
857.263	4314
857.397	4299
857.53	4268
857.664	4341
857.797	4386
857.931	4352
858.064	4337
858.197	4466
858.331	4337
858.464	4344
858.597	4352
858.731	4436
858.864	4398
858.997	4432
859.13	4535
859.263	4493
859.396	4588
859.529	4516
859.662	4504
859.795	4493
859.928	4603
860.061	4744
860.194	4729
860.327	4660
860.46	4641
860.592	4687
860.725	4752
860.858	4744
860.99	4725
861.123	4694
861.256	4691
861.388	4763
861.521	5296
861.653	4740
861.786	4687
861.918	4748
862.05	4801
862.183	4873
862.315	4908
862.447	4900
862.58	4877
862.712	4755
862.844	4748
862.976	4858
863.108	4835
863.24	5223
863.372	4850
863.504	4854
863.636	4927
863.768	4930
863.9	4949
864.032	4908
864.164	4908
864.296	4999
864.428	5075
864.559	5105
864.691	5098
864.823	5098
864.954	5128
865.086	5162
865.217	5098
865.349	5105
865.48	5105
865.612	5193
865.743	5254
865.875	5170
866.006	5201
866.137	5235
866.269	5189
866.4	5220
866.531	5178
866.662	5258
866.793	5242
866.924	5223
867.055	5288
867.186	5330
867.317	5307
867.448	5296
867.579	5322
867.71	5379
867.841	5372
867.972	5448
868.103	5444
868.233	5463
868.364	5528
868.495	5505
868.625	5684
868.756	5733
868.886	5630
869.017	5676
869.147	5824
869.278	5844
869.408	5771
869.539	5805
869.669	5882
869.799	5840
869.929	6022
870.06	6011
870.19	6155
870.32	6182
870.45	6308
870.58	6292
870.71	6380
870.84	6441
870.97	6357
871.1	6407
871.23	6597
871.36	6658
871.489	6688
871.619	6722
871.749	6798
871.879	6829
872.008	6985
872.138	7008
872.267	6932
872.397	6989
872.526	6989
872.656	7034
872.785	7236
872.915	7358
873.044	7559
873.173	7510
873.303	7712
873.432	7674
873.561	7833
873.69	8005
873.819	8035
873.948	8134
874.077	8210
874.206	8393
874.335	8393
874.464	8610
874.593	8883
874.722	8861
874.851	9135
874.979	9218
875.108	9378
875.237	9313
875.365	9488
875.494	9705
875.623	9789
875.751	9797
875.88	9987
876.008	10192
876.136	10272
876.265	10478
876.393	10641
876.521	10714
876.65	10812
876.778	10847
876.906	10881
877.034	10980
877.162	11033
877.29	11113
877.418	11326
877.546	11315
877.674	11360
877.802	11452
877.93	11452
878.058	11535
878.185	11581
878.313	11676
878.441	11737
878.568	11638
878.696	11775
878.824	11817
878.951	11908
879.079	12026
879.206	12129
879.333	12091
879.461	12011
879.588	12034
879.715	12022
879.842	12197
879.97	12125
880.097	11859
880.224	11878
880.351	11866
880.478	11832
880.605	11847
880.732	11847
880.859	11958
880.986	11714
881.112	11882
881.239	11688
881.366	11779
881.493	11623
881.619	11600
881.746	11589
881.872	11493
881.999	11417
882.125	11478
882.252	11554
882.378	11501
882.505	11520
882.631	11307
882.757	11284
882.883	11349
883.01	11212
883.136	11098
883.262	11105
883.388	11117
883.514	11227
883.64	11174
883.766	11041
883.892	10961
884.018	10976
884.143	11128
884.269	11098
884.395	10774
884.52	10683
884.646	10763
884.772	10615
884.897	10702
885.023	10698
885.148	10736
885.274	10755
885.399	10649
885.524	10596
885.65	10626
885.775	10554
885.9	10561
886.025	10618
886.15	10550
886.275	10474
886.4	10443
886.525	10303
886.65	10382
886.775	10348
886.9	10428
887.025	10500
887.149	10417
887.274	10242
887.399	10192
887.523	10135
887.648	10112
887.773	10147
887.897	10192
888.021	10246
888.146	10124
888.27	10287
888.395	10265
888.519	10177
888.643	10147
888.767	10261
888.891	10071
889.015	10040
889.139	10101
889.263	9994
889.387	10048
889.511	10086
889.635	10048
889.759	9968
889.883	9998
890.006	9968
890.13	10093
890.254	9987
890.377	9998
890.501	9838
890.624	9869
890.748	9774
890.871	9679
890.995	9705
891.118	9705
891.241	9671
891.364	9736
891.488	9911
891.611	9736
891.734	9759
891.857	9770
891.98	9705
892.103	9698
892.226	9682
892.349	9694
892.471	9545
892.594	9568
892.717	9595
892.839	9595
892.962	9629
893.085	9641
893.207	9549
893.33	9515
893.452	9473
893.575	9519
893.697	9557
893.819	9595
893.941	9610
894.064	9595
894.186	9420
894.308	9401
894.43	9519
894.552	9515
894.674	9542
894.796	9378
894.918	9389
895.04	9367
895.161	9340
895.283	9272
895.405	9279
895.526	9146
895.648	9291
895.769	9203
895.891	9306
896.012	9222
896.134	9142
896.255	9173
896.376	9116
896.498	9222
896.619	9070
896.74	9032
896.861	9093
896.982	9169
897.103	9283
897.224	9150
897.345	9051
897.466	9005
897.587	8986
897.708	9009
897.828	9051
897.949	8857
898.07	8838
898.19	8910
898.311	8990
898.431	8952
898.552	8861
898.672	8982
898.792	8971
898.913	8864
899.033	8842
899.153	8800
899.273	8697
899.393	8697
899.513	8785
899.633	8754
899.753	8773
899.873	8670
899.993	8769
900.113	8644
900.232	8686
900.352	8678
900.472	8571
900.591	8492
900.711	8583
900.83	8499
900.95	8674
901.069	8663
901.189	8537
901.308	8400
901.427	8377
901.546	8400
901.665	8370
901.784	8511
901.904	8370
902.023	8370
902.141	8225
902.26	8252
902.379	8317
902.498	8202
902.617	8225
902.735	8229
902.854	8256
902.973	8244
903.091	8088
903.21	8138
903.328	8206
903.446	8130
903.565	8065
903.683	8077
903.801	8058
903.919	8069
904.038	8100
904.156	8077
904.274	8115
904.392	8081
904.51	8077
904.627	8065
904.745	8046
904.863	8081
904.981	7875
905.098	7864
905.216	7792
905.334	7890
905.451	7883
905.569	7883
905.686	7887
905.803	7963
905.921	7788
906.038	7822
906.155	7830
906.272	7655
906.389	7670
906.506	7628
906.623	7590
906.74	7662
906.857	7544
906.974	7544
907.091	7616
907.208	7746
907.324	7582
907.441	7563
907.557	7419
907.674	7430
907.79	7373
907.907	7430
908.023	7460
908.139	7400
908.256	7346
908.372	7289
908.488	7377
908.604	7324
908.72	7202
908.836	7278
908.952	7247
909.068	7251
909.184	7247
909.3	7228
909.415	7225
909.531	7259
909.647	7095
909.762	7118
909.878	7057
909.993	7076
910.108	7072
910.224	7015
910.339	7065
910.454	7057
910.57	6989
910.685	6935
910.8	7122
910.915	7050
911.03	7027
911.145	6863
911.259	6829
911.374	6875
911.489	6852
911.604	6757
911.718	6764
911.833	6722
911.947	6684
912.062	6635
912.176	6684
912.291	6692
912.405	6696
912.519	6772
912.633	6844
912.748	6730
912.862	6684
912.976	6597
913.09	6540
913.204	6574
913.318	6639
913.431	6631
913.545	6681
913.659	6692
913.772	6620
913.886	6563
914	6502
914.113	6612
914.226	6547
914.34	6620
914.453	6479
914.566	6494
914.68	6517
914.793	6528
914.906	6388
915.019	6391
915.132	6304
915.245	6376
915.358	6361
915.47	6433
915.583	6403
915.696	6441
915.809	6528
915.921	6601
916.034	6426
916.146	6388
916.259	6346
916.371	6410
916.483	6456
916.595	6410
916.708	6346
916.82	6426
916.932	6391
917.044	6422
917.156	6369
917.268	6285
917.38	6361
917.491	6304
917.603	6308
917.715	6399
917.826	6388
917.938	6300
918.049	6266
918.161	6346
918.272	6426
918.384	6395
918.495	6334
918.606	6289
918.717	6110
918.828	6254
918.939	6277
919.05	6201
919.161	6239
919.272	6125
919.383	6175
919.494	6292
919.604	6464
919.715	6273
919.826	6228
919.936	6262
920.047	6323
920.157	6201
920.267	6437
920.378	6315
920.488	6289
920.598	6456
920.708	6479
920.818	6479
920.928	6456
921.038	6631
921.148	6532
921.258	6410
921.368	6262
921.477	6224
921.587	6186
921.697	6129
921.806	6129
921.916	6102
922.025	5954
922.134	5878
922.244	5923
922.353	5901
922.462	5840
922.571	5805
922.68	5680
922.789	5688
922.898	5665
923.007	5585
923.116	5695
923.224	5661
923.333	5665
923.442	5630
923.55	5547
923.659	5570
923.767	5638
923.876	5505
923.984	5558
924.092	5463
924.201	5524
924.309	5524
924.417	5581
924.525	5474
924.633	5455
924.741	6224
924.849	5368
924.956	5452
925.064	5311
925.172	5261
925.279	5337
925.387	5357
925.494	5299
925.602	5391
925.709	5379
925.816	5269
925.924	5273
926.031	5334
926.138	5299
926.245	5296
926.352	5201
926.459	5330
926.566	5326
926.673	5204
926.779	5143
926.886	5132
926.993	5014
927.099	4991
927.206	4984
927.312	4961
927.419	5056
927.525	4942
927.631	5006
927.737	4919
927.843	4816
927.95	4801
928.056	4790
928.162	4812
928.267	4854
928.373	5227
928.479	4835
928.585	4664
928.69	4725
928.796	4733
928.901	4710
929.007	4584
929.112	4615
929.218	4615
929.323	4622
929.428	4577
929.533	4679
929.638	4489
929.743	4489
929.848	4580
929.953	4504
930.058	4386
930.163	4310
930.267	4341
930.372	4424
930.477	4303
930.581	4451
930.685	4356
930.79	4253
930.894	4265
930.998	4238
931.103	4348
931.207	4097
931.311	4082
931.415	4055
931.519	3937
931.623	3934
