Data from glass_V78500241_905.txt Node
Date: Wed Sep 01 19:20:46 CST 2021
User: usil
Spectrometer: V785-0024
Trigger mode: 0
Integration Time (sec): 4.000000E-1
Scans to average: 1
Nonlinearity correction enabled: false
Boxcar width: 0
Storing dark spectrum: false
XAxis mode: Wavelengths
Number of Pixels in Spectrum: 1024
>>>>>Begin Spectral Data<<<<<
801.071	3770
801.214	3751
801.356	3732
801.499	3759
801.641	3743
801.783	3785
801.926	3854
802.068	3816
802.211	3869
802.353	3896
802.496	3850
802.638	3892
802.78	3918
802.923	3953
803.065	3926
803.208	3846
803.35	3888
803.492	3899
803.635	3930
803.777	3797
803.919	3903
804.061	4131
804.204	4013
804.346	3968
804.488	3865
804.63	4059
804.773	3994
804.915	4071
805.057	4158
805.199	4059
805.341	4090
805.483	4105
805.626	4173
805.768	4131
805.91	4223
806.052	4219
806.194	4173
806.336	4383
806.478	4230
806.62	4185
806.762	4207
806.904	4265
807.046	4348
807.188	4173
807.33	4227
807.472	4268
807.614	4238
807.756	4261
807.898	4196
808.04	4223
808.182	4333
808.324	4322
808.465	4367
808.607	4478
808.749	4440
808.891	4489
809.033	4516
809.174	4451
809.316	4306
809.458	4272
809.6	4196
809.741	4177
809.883	4124
810.025	4211
810.166	4204
810.308	4188
810.45	4234
810.591	4223
810.733	4276
810.875	4527
811.016	4843
811.158	5197
811.299	5330
811.441	5322
811.582	5067
811.724	4694
811.865	4455
812.007	4481
812.148	4451
812.29	4432
812.431	4371
812.573	4421
812.714	4390
812.855	4432
812.997	4466
813.138	4561
813.279	4443
813.421	4421
813.562	4375
813.703	4306
813.845	4352
813.986	4295
814.127	4238
814.268	4276
814.41	4291
814.551	4249
814.692	4325
814.833	4276
814.974	4329
815.115	4341
815.256	4249
815.397	4280
815.539	4295
815.68	4166
815.821	4253
815.962	4325
816.103	4306
816.244	4238
816.385	4246
816.526	4284
816.666	4261
816.807	4135
816.948	4169
817.089	4173
817.23	4116
817.371	4074
817.512	4078
817.653	4074
817.793	4032
817.934	4048
818.075	4124
818.216	4105
818.356	4086
818.497	4013
818.638	3915
818.778	3949
818.919	3869
819.06	3922
819.2	3861
819.341	3903
819.481	3873
819.622	3896
819.762	4032
819.903	3903
820.043	3835
820.184	3835
820.324	3835
820.465	3857
820.605	3899
820.746	3850
820.886	3819
821.026	3991
821.167	3888
821.307	3956
821.447	3979
821.588	3968
821.728	3975
821.868	3941
822.008	3869
822.149	3945
822.289	3934
822.429	3823
822.569	3816
822.709	3766
822.849	3717
822.99	3755
823.13	3797
823.27	3835
823.41	3751
823.55	3778
823.69	3705
823.83	3751
823.97	3690
824.11	3641
824.25	3625
824.389	3660
824.529	3709
824.669	3629
824.809	3724
824.949	3766
825.089	3759
825.228	3713
825.368	3580
825.508	3576
825.648	3564
825.787	3641
825.927	3618
826.067	3656
826.206	3641
826.346	3778
826.485	3854
826.625	3869
826.765	3994
826.904	3827
827.044	3622
827.183	3496
827.323	3462
827.462	3458
827.601	3431
827.741	3431
827.88	3477
828.02	3386
828.159	3454
828.298	3473
828.437	3549
828.577	3526
828.716	3553
828.855	3542
828.994	3374
829.134	3351
829.273	3416
829.412	3363
829.551	3332
829.69	3382
829.829	3443
829.968	3557
830.107	3458
830.246	3450
830.385	3359
830.524	3340
830.663	3325
830.802	3256
830.941	3226
831.08	3222
831.219	3226
831.357	3260
831.496	3435
831.635	3237
831.774	3203
831.913	3253
832.051	3093
832.19	3123
832.329	3218
832.467	3127
832.606	3104
832.744	3150
832.883	3222
833.022	3207
833.16	3256
833.299	3325
833.437	3359
833.576	3389
833.714	3409
833.852	3458
833.991	3473
834.129	3492
834.267	3488
834.406	3412
834.544	3389
834.682	3450
834.821	3416
834.959	3568
835.097	3447
835.235	3549
835.373	3492
835.511	3511
835.65	3500
835.788	3481
835.926	3389
836.064	3435
836.202	3393
836.34	3622
836.478	3637
836.615	3477
836.753	3641
836.891	3660
837.029	3610
837.167	3614
837.305	3538
837.443	3519
837.58	3549
837.718	3625
837.856	3568
837.993	3542
838.131	3629
838.269	3572
838.406	3610
838.544	3564
838.681	3473
838.819	3481
838.956	3405
839.094	3424
839.231	3473
839.369	3534
839.506	3778
839.643	3622
839.781	3485
839.918	3473
840.055	3526
840.193	3572
840.33	3545
840.467	3530
840.604	3644
840.742	3808
840.879	3564
841.016	3545
841.153	3644
841.29	3766
841.427	3747
841.564	3728
841.701	3743
841.838	3713
841.975	3675
842.112	3690
842.249	3625
842.385	3660
842.522	3865
842.659	3705
842.796	3686
842.933	3736
843.069	3732
843.206	3698
843.343	3827
843.479	3785
843.616	3850
843.752	3701
843.889	3686
844.025	3869
844.162	3686
844.298	3850
844.435	3823
844.571	3812
844.708	3892
844.844	4032
844.98	4025
845.117	3983
845.253	3941
845.389	3907
845.525	3941
845.661	4029
845.798	3972
845.934	3998
846.07	3949
846.206	4048
846.342	4131
846.478	4078
846.614	3960
846.75	3975
846.886	3915
847.022	4040
847.158	3994
847.294	3968
847.429	4051
847.565	4006
847.701	4276
847.837	3838
847.972	3930
848.108	3934
848.244	3983
848.379	3876
848.515	3785
848.65	3842
848.786	3842
848.921	3915
849.057	3911
849.192	3979
849.328	3918
849.463	3953
849.598	3873
849.734	3896
849.869	3865
850.004	3793
850.14	3850
850.275	3800
850.41	3747
850.545	3770
850.68	3751
850.815	3812
850.95	3759
851.085	3930
851.22	3884
851.355	3835
851.49	3797
851.625	3793
851.76	3842
851.895	3785
852.03	3789
852.165	3823
852.299	3876
852.434	3892
852.569	3896
852.703	3907
852.838	3941
852.973	4002
853.107	3968
853.242	3930
853.376	3857
853.511	3755
853.645	3850
853.78	3975
853.914	3934
854.048	3941
854.183	3907
854.317	3998
854.451	4055
854.585	3899
854.72	3972
854.854	4032
854.988	3956
855.122	4036
855.256	3934
855.39	4021
855.524	4082
855.658	4093
855.792	4093
855.926	4131
856.06	4173
856.194	4219
856.327	4124
856.461	4196
856.595	4177
856.729	4162
856.862	4325
856.996	4249
857.13	4318
857.263	4333
857.397	4356
857.53	4337
857.664	4322
857.797	4409
857.931	4447
858.064	4375
858.197	4443
858.331	4432
858.464	4383
858.597	4333
858.731	4447
858.864	4466
858.997	4481
859.13	4531
859.263	4519
859.396	4523
859.529	4516
859.662	4573
859.795	4493
859.928	4615
860.061	4729
860.194	4698
860.327	4683
860.46	4672
860.592	4752
860.725	4790
860.858	4801
860.99	4672
861.123	4641
861.256	4706
861.388	4767
861.521	5562
861.653	4717
861.786	4687
861.918	4782
862.05	4748
862.183	4892
862.315	4889
862.447	4911
862.58	4877
862.712	4801
862.844	4759
862.976	4858
863.108	4843
863.24	5155
863.372	4831
863.504	4927
863.636	4900
863.768	4965
863.9	5003
864.032	4946
864.164	4923
864.296	5029
864.428	5094
864.559	5113
864.691	5151
864.823	5113
864.954	5166
865.086	5189
865.217	5079
865.349	5102
865.48	5159
865.612	5174
865.743	5284
865.875	5265
866.006	5193
866.137	5269
866.269	5250
866.4	5254
866.531	5239
866.662	5265
866.793	5318
866.924	5322
867.055	5318
867.186	5326
867.317	5288
867.448	5303
867.579	5368
867.71	5398
867.841	5429
867.972	5474
868.103	5528
868.233	5509
868.364	5524
868.495	5558
868.625	5661
868.756	5790
868.886	5657
869.017	5699
869.147	5844
869.278	5885
869.408	5840
869.539	5893
869.669	5904
869.799	5889
869.929	5988
870.06	6038
870.19	6228
870.32	6224
870.45	6273
870.58	6311
870.71	6483
870.84	6414
870.97	6490
871.1	6452
871.23	6654
871.36	6734
871.489	6669
871.619	6741
871.749	6779
871.879	6882
872.008	7000
872.138	7019
872.267	7031
872.397	6996
872.526	6989
872.656	7072
872.785	7221
872.915	7365
873.044	7544
873.173	7586
873.303	7639
873.432	7731
873.561	7894
873.69	7928
873.819	8024
873.948	8176
874.077	8256
874.206	8343
874.335	8461
874.464	8613
874.593	8845
874.722	8941
874.851	9157
874.979	9226
875.108	9408
875.237	9393
875.365	9485
875.494	9709
875.623	9857
875.751	9766
875.88	9972
876.008	10207
876.136	10242
876.265	10542
876.393	10767
876.521	10759
876.65	10850
876.778	10824
876.906	10938
877.034	10984
877.162	11132
877.29	11201
877.418	11379
877.546	11315
877.674	11391
877.802	11490
877.93	11547
878.058	11566
878.185	11543
878.313	11619
878.441	11756
878.568	11672
878.696	11870
878.824	11874
878.951	11961
879.079	12003
879.206	12182
879.333	12038
879.461	12041
879.588	11992
879.715	12102
879.842	12239
879.97	12038
880.097	11843
880.224	11889
880.351	11824
880.478	11882
880.605	11901
880.732	11859
880.859	11965
880.986	11809
881.112	11885
881.239	11619
881.366	11695
881.493	11688
881.619	11581
881.746	11589
881.872	11577
881.999	11455
882.125	11520
882.252	11581
882.378	11516
882.505	11478
882.631	11391
882.757	11349
882.883	11337
883.01	11216
883.136	11181
883.262	11113
883.388	11033
883.514	11185
883.64	11181
883.766	11124
883.892	11037
884.018	10949
884.143	11143
884.269	11128
884.395	10847
884.52	10801
884.646	10725
884.772	10767
884.897	10675
885.023	10641
885.148	10725
885.274	10752
885.399	10649
885.524	10634
885.65	10634
885.775	10554
885.9	10596
886.025	10603
886.15	10596
886.275	10485
886.4	10398
886.525	10402
886.65	10375
886.775	10348
886.9	10489
887.025	10607
887.149	10360
887.274	10227
887.399	10238
887.523	10158
887.648	10120
887.773	10223
887.897	10314
888.021	10234
888.146	10131
888.27	10295
888.395	10246
888.519	10139
888.643	10166
888.767	10105
888.891	10169
889.015	9949
889.139	10078
889.263	9926
889.387	10105
889.511	10154
889.635	10006
889.759	9930
889.883	10032
890.006	10017
890.13	10173
890.254	9884
890.377	10025
890.501	9781
890.624	9911
890.748	9842
890.871	9808
890.995	9740
891.118	9679
891.241	9705
891.364	9766
891.488	9804
891.611	9755
891.734	9705
891.857	9816
891.98	9694
892.103	9774
892.226	9743
892.349	9759
892.471	9629
892.594	9614
892.717	9686
892.839	9614
892.962	9671
893.085	9652
893.207	9644
893.33	9458
893.452	9523
893.575	9637
893.697	9473
893.819	9629
893.941	9667
894.064	9561
894.186	9428
894.308	9416
894.43	9496
894.552	9553
894.674	9397
894.796	9405
894.918	9355
895.04	9348
895.161	9367
895.283	9405
895.405	9268
895.526	9294
895.648	9302
895.769	9249
895.891	9283
896.012	9279
896.134	9302
896.255	9203
896.376	9180
896.498	9218
896.619	9138
896.74	9077
896.861	9161
896.982	9260
897.103	9283
897.224	9180
897.345	9093
897.466	9024
897.587	9047
897.708	9112
897.828	9001
897.949	8941
898.07	8883
898.19	8864
898.311	9093
898.431	8887
898.552	8906
898.672	8960
898.792	9020
898.913	8944
899.033	8754
899.153	8769
899.273	8724
899.393	8701
899.513	8762
899.633	8762
899.753	8724
899.873	8735
899.993	8708
900.113	8788
900.232	8720
900.352	8617
900.472	8587
900.591	8533
900.711	8587
900.83	8530
900.95	8708
901.069	8712
901.189	8617
901.308	8412
901.427	8355
901.546	8431
901.665	8454
901.784	8541
901.904	8358
902.023	8305
902.141	8172
902.26	8225
902.379	8309
902.498	8187
902.617	8248
902.735	8248
902.854	8275
902.973	8328
903.091	8119
903.21	8142
903.328	8191
903.446	8107
903.565	8065
903.683	8081
903.801	8130
903.919	8145
904.038	8153
904.156	8039
904.274	8111
904.392	8073
904.51	8100
904.627	8043
904.745	8069
904.863	8134
904.981	7936
905.098	7909
905.216	7925
905.334	7917
905.451	7906
905.569	7868
905.686	7974
905.803	7894
905.921	7750
906.038	7894
906.155	7799
906.272	7742
906.389	7784
906.506	7643
906.623	7662
906.74	7582
906.857	7582
906.974	7594
907.091	7666
907.208	7765
907.324	7613
907.441	7590
907.557	7518
907.674	7495
907.79	7369
907.907	7445
908.023	7457
908.139	7480
908.256	7396
908.372	7388
908.488	7327
908.604	7251
908.72	7202
908.836	7293
908.952	7289
909.068	7232
909.184	7301
909.3	7236
909.415	7259
909.531	7297
909.647	7133
909.762	7149
909.878	7084
909.993	7126
910.108	7099
910.224	7122
910.339	7099
910.454	7095
910.57	6985
910.685	6954
910.8	7225
910.915	7107
911.03	7042
911.145	6970
911.259	6924
911.374	6863
911.489	6810
911.604	6837
911.718	6768
911.833	6749
911.947	6696
912.062	6623
912.176	6703
912.291	6665
912.405	6738
912.519	6798
912.633	6814
912.748	6703
912.862	6662
912.976	6662
913.09	6555
913.204	6642
913.318	6601
913.431	6662
913.545	6658
913.659	6738
913.772	6696
913.886	6559
914	6635
914.113	6639
914.226	6608
914.34	6623
914.453	6551
914.566	6623
914.68	6547
914.793	6517
914.906	6433
915.019	6403
915.132	6372
915.245	6429
915.358	6490
915.47	6418
915.583	6502
915.696	6551
915.809	6593
915.921	6551
916.034	6384
916.146	6399
916.259	6460
916.371	6407
916.483	6441
916.595	6437
916.708	6429
916.82	6422
916.932	6384
917.044	6448
917.156	6399
917.268	6384
917.38	6361
917.491	6361
917.603	6331
917.715	6399
917.826	6372
917.938	6399
918.049	6216
918.161	6323
918.272	6433
918.384	6433
918.495	6365
918.606	6281
918.717	6239
918.828	6266
918.939	6300
919.05	6213
919.161	6273
919.272	6133
919.383	6125
919.494	6334
919.604	6456
919.715	6262
919.826	6213
919.936	6254
920.047	6342
920.157	6308
920.267	6399
920.378	6346
920.488	6308
920.598	6494
920.708	6547
920.818	6426
920.928	6460
921.038	6574
921.148	6585
921.258	6369
921.368	6289
921.477	6232
921.587	6190
921.697	6114
921.806	6190
921.916	6129
922.025	5935
922.134	5931
922.244	5901
922.353	5923
922.462	5878
922.571	5828
922.68	5672
922.789	5703
922.898	5771
923.007	5642
923.116	5672
923.224	5718
923.333	5668
923.442	5604
923.55	5562
923.659	5604
923.767	5611
923.876	5562
923.984	5589
924.092	5516
924.201	5528
924.309	5558
924.417	5543
924.525	5463
924.633	5501
924.741	6175
924.849	5391
924.956	5505
925.064	5391
925.172	5299
925.279	5387
925.387	5383
925.494	5341
925.602	5429
925.709	5448
925.816	5284
925.924	5360
926.031	5414
926.138	5242
926.245	5345
926.352	5212
926.459	5303
926.566	5349
926.673	5231
926.779	5117
926.886	5124
926.993	5037
927.099	4987
927.206	5014
927.312	4984
927.419	5041
927.525	5006
927.631	5022
927.737	4923
927.843	4934
927.95	4774
928.056	4870
928.162	4858
928.267	4824
928.373	5391
928.479	4915
928.585	4710
928.69	4862
928.796	4763
928.901	4710
929.007	4618
929.112	4702
929.218	4653
929.323	4649
929.428	4523
929.533	4675
929.638	4489
929.743	4573
929.848	4592
929.953	4489
930.058	4459
930.163	4344
930.267	4390
930.372	4409
930.477	4299
930.581	4447
930.685	4402
930.79	4261
930.894	4287
930.998	4253
931.103	4394
931.207	4116
931.311	4067
931.415	4101
931.519	3956
931.623	3979
