Data from glass_V78500241_2893.txt Node
Date: Wed Sep 01 19:34:33 CST 2021
User: usil
Spectrometer: V785-0024
Trigger mode: 0
Integration Time (sec): 4.000000E-1
Scans to average: 1
Nonlinearity correction enabled: false
Boxcar width: 0
Storing dark spectrum: false
XAxis mode: Wavelengths
Number of Pixels in Spectrum: 1024
>>>>>Begin Spectral Data<<<<<
801.071	3713
801.214	3740
801.356	3705
801.499	3724
801.641	3740
801.783	3762
801.926	3819
802.068	3808
802.211	3823
802.353	3876
802.496	3842
802.638	3835
802.78	3838
802.923	3873
803.065	3854
803.208	3823
803.35	3842
803.492	3869
803.635	3934
803.777	3759
803.919	3937
804.061	4090
804.204	3960
804.346	3945
804.488	3861
804.63	4021
804.773	3979
804.915	4040
805.057	4082
805.199	4044
805.341	4093
805.483	4097
805.626	4143
805.768	4112
805.91	4204
806.052	4188
806.194	4169
806.336	4325
806.478	4181
806.62	4196
806.762	4166
806.904	4272
807.046	4322
807.188	4143
807.33	4147
807.472	4207
807.614	4158
807.756	4257
807.898	4196
808.04	4147
808.182	4230
808.324	4291
808.465	4348
808.607	4432
808.749	4432
808.891	4428
809.033	4474
809.174	4363
809.316	4253
809.458	4188
809.6	4143
809.741	4112
809.883	4074
810.025	4166
810.166	4185
810.308	4173
810.45	4196
810.591	4200
810.733	4310
810.875	4466
811.016	4755
811.158	5071
811.299	5265
811.441	5258
811.582	5052
811.724	4679
811.865	4405
812.007	4432
812.148	4371
812.29	4409
812.431	4421
812.573	4409
812.714	4386
812.855	4394
812.997	4394
813.138	4440
813.279	4409
813.421	4383
813.562	4356
813.703	4322
813.845	4306
813.986	4211
814.127	4211
814.268	4257
814.41	4234
814.551	4272
814.692	4310
814.833	4230
814.974	4310
815.115	4329
815.256	4246
815.397	4204
815.539	4246
815.68	4173
815.821	4211
815.962	4299
816.103	4215
816.244	4253
816.385	4223
816.526	4295
816.666	4185
816.807	4067
816.948	4154
817.089	4147
817.23	4059
817.371	4032
817.512	4071
817.653	4036
817.793	3979
817.934	3994
818.075	4090
818.216	4063
818.356	4059
818.497	3987
818.638	3857
818.778	3892
818.919	3873
819.06	3850
819.2	3896
819.341	3857
819.481	3816
819.622	3880
819.762	3994
819.903	3926
820.043	3838
820.184	3804
820.324	3835
820.465	3850
820.605	3861
820.746	3846
820.886	3766
821.026	3937
821.167	3857
821.307	3949
821.447	3937
821.588	3937
821.728	3899
821.868	3915
822.008	3869
822.149	3922
822.289	3861
822.429	3759
822.569	3766
822.709	3743
822.849	3656
822.99	3705
823.13	3732
823.27	3751
823.41	3698
823.55	3667
823.69	3720
823.83	3705
823.97	3637
824.11	3595
824.25	3584
824.389	3614
824.529	3644
824.669	3591
824.809	3625
824.949	3713
825.089	3732
825.228	3675
825.368	3564
825.508	3553
825.648	3557
825.787	3576
825.927	3610
826.067	3622
826.206	3667
826.346	3743
826.485	3823
826.625	3819
826.765	3937
826.904	3766
827.044	3606
827.183	3504
827.323	3386
827.462	3435
827.601	3412
827.741	3409
827.88	3416
828.02	3336
828.159	3412
828.298	3431
828.437	3485
828.577	3431
828.716	3553
828.855	3454
828.994	3386
829.134	3329
829.273	3363
829.412	3370
829.551	3351
829.69	3344
829.829	3428
829.968	3519
830.107	3412
830.246	3370
830.385	3336
830.524	3367
830.663	3279
830.802	3237
830.941	3199
831.08	3207
831.219	3245
831.357	3192
831.496	3367
831.635	3218
831.774	3199
831.913	3214
832.051	3085
832.19	3131
832.329	3207
832.467	3116
832.606	3097
832.744	3154
832.883	3157
833.022	3138
833.16	3272
833.299	3287
833.437	3317
833.576	3363
833.714	3374
833.852	3435
833.991	3416
834.129	3435
834.267	3435
834.406	3370
834.544	3428
834.682	3401
834.821	3405
834.959	3599
835.097	3397
835.235	3492
835.373	3504
835.511	3469
835.65	3431
835.788	3447
835.926	3428
836.064	3367
836.202	3351
836.34	3576
836.478	3576
836.615	3492
836.753	3542
836.891	3622
837.029	3545
837.167	3549
837.305	3511
837.443	3511
837.58	3473
837.718	3614
837.856	3572
837.993	3530
838.131	3549
838.269	3561
838.406	3526
838.544	3530
838.681	3431
838.819	3443
838.956	3370
839.094	3405
839.231	3405
839.369	3447
839.506	3709
839.643	3606
839.781	3454
839.918	3412
840.055	3496
840.193	3511
840.33	3523
840.467	3526
840.604	3568
840.742	3736
840.879	3542
841.016	3511
841.153	3526
841.29	3732
841.427	3686
841.564	3690
841.701	3747
841.838	3690
841.975	3644
842.112	3690
842.249	3599
842.385	3576
842.522	3838
842.659	3660
842.796	3644
842.933	3682
843.069	3698
843.206	3675
843.343	3778
843.479	3732
843.616	3804
843.752	3660
843.889	3698
844.025	3831
844.162	3709
844.298	3812
844.435	3755
844.571	3800
844.708	3869
844.844	3968
844.98	3975
845.117	3968
845.253	3892
845.389	3880
845.525	3983
845.661	3888
845.798	3884
845.934	3994
846.07	3941
846.206	4032
846.342	4101
846.478	4078
846.614	3915
846.75	3896
846.886	3911
847.022	3998
847.158	3956
847.294	4040
847.429	3991
847.565	3983
847.701	4207
847.837	3838
847.972	3857
848.108	3975
848.244	3975
848.379	3854
848.515	3816
848.65	3793
848.786	3816
848.921	3861
849.057	3937
849.192	3903
849.328	3907
849.463	3922
849.598	3873
849.734	3823
849.869	3819
850.004	3766
850.14	3797
850.275	3778
850.41	3762
850.545	3743
850.68	3785
850.815	3793
850.95	3720
851.085	3873
851.22	3823
851.355	3842
851.49	3774
851.625	3732
851.76	3770
851.895	3701
852.03	3728
852.165	3755
852.299	3812
852.434	3930
852.569	3842
852.703	3861
852.838	3949
852.973	3991
853.107	3941
853.242	3861
853.376	3846
853.511	3755
853.645	3793
853.78	3972
853.914	3869
854.048	3899
854.183	3869
854.317	3945
854.451	4063
854.585	3937
854.72	3949
854.854	3994
854.988	3941
855.122	3953
855.256	3869
855.39	3972
855.524	4063
855.658	4090
855.792	4109
855.926	4071
856.06	4128
856.194	4200
856.327	4139
856.461	4124
856.595	4135
856.729	4124
856.862	4215
856.996	4166
857.13	4272
857.263	4329
857.397	4310
857.53	4284
857.664	4303
857.797	4341
857.931	4348
858.064	4337
858.197	4443
858.331	4352
858.464	4363
858.597	4352
858.731	4417
858.864	4417
858.997	4428
859.13	4447
859.263	4478
859.396	4565
859.529	4504
859.662	4512
859.795	4519
859.928	4542
860.061	4714
860.194	4702
860.327	4668
860.46	4626
860.592	4710
860.725	4710
860.858	4706
860.99	4656
861.123	4660
861.256	4694
861.388	4782
861.521	5391
861.653	4672
861.786	4660
861.918	4717
862.05	4725
862.183	4809
862.315	4942
862.447	4873
862.58	4854
862.712	4740
862.844	4763
862.976	4793
863.108	4805
863.24	5151
863.372	4793
863.504	4854
863.636	4908
863.768	4900
863.9	4961
864.032	4892
864.164	4892
864.296	4946
864.428	5083
864.559	5117
864.691	5105
864.823	5105
864.954	5064
865.086	5109
865.217	5083
865.349	5052
865.48	5083
865.612	5170
865.743	5288
865.875	5166
866.006	5204
866.137	5208
866.269	5239
866.4	5220
866.531	5288
866.662	5178
866.793	5265
866.924	5258
867.055	5330
867.186	5227
867.317	5334
867.448	5307
867.579	5349
867.71	5368
867.841	5410
867.972	5433
868.103	5471
868.233	5467
868.364	5490
868.495	5528
868.625	5653
868.756	5745
868.886	5672
869.017	5672
869.147	5798
869.278	5798
869.408	5855
869.539	5828
869.669	5828
869.799	5870
869.929	5954
870.06	5996
870.19	6201
870.32	6133
870.45	6209
870.58	6281
870.71	6437
870.84	6433
870.97	6369
871.1	6467
871.23	6559
871.36	6658
871.489	6544
871.619	6791
871.749	6779
871.879	6829
872.008	6935
872.138	6958
872.267	7019
872.397	7012
872.526	6993
872.656	7080
872.785	7152
872.915	7339
873.044	7518
873.173	7468
873.303	7563
873.432	7685
873.561	7841
873.69	7883
873.819	7959
873.948	8161
874.077	8214
874.206	8221
874.335	8511
874.464	8644
874.593	8750
874.722	8914
874.851	9119
874.979	9131
875.108	9325
875.237	9355
875.365	9405
875.494	9603
875.623	9800
875.751	9781
875.88	9918
876.008	10150
876.136	10253
876.265	10512
876.393	10672
876.521	10641
876.65	10774
876.778	10858
876.906	10915
877.034	10934
877.162	11083
877.29	11178
877.418	11284
877.546	11360
877.674	11474
877.802	11497
877.93	11486
878.058	11509
878.185	11566
878.313	11665
878.441	11840
878.568	11585
878.696	11779
878.824	11901
878.951	11882
879.079	12003
879.206	12110
879.333	12049
879.461	11927
879.588	12095
879.715	11996
879.842	12098
879.97	12026
880.097	11828
880.224	11843
880.351	11901
880.478	11840
880.605	11901
880.732	11851
880.859	11958
880.986	11798
881.112	11840
881.239	11741
881.366	11600
881.493	11589
881.619	11501
881.746	11478
881.872	11471
881.999	11528
882.125	11551
882.252	11486
882.378	11505
882.505	11554
882.631	11337
882.757	11334
882.883	11227
883.01	11204
883.136	11140
883.262	11113
883.388	11067
883.514	11159
883.64	11121
883.766	11086
883.892	11010
884.018	10923
884.143	10976
884.269	10991
884.395	10801
884.52	10854
884.646	10717
884.772	10675
884.897	10687
885.023	10691
885.148	10714
885.274	10729
885.399	10710
885.524	10550
885.65	10546
885.775	10626
885.9	10535
886.025	10577
886.15	10542
886.275	10432
886.4	10310
886.525	10360
886.65	10363
886.775	10371
886.9	10402
887.025	10478
887.149	10291
887.274	10166
887.399	10158
887.523	10120
887.648	10169
887.773	10177
887.897	10249
888.021	10154
888.146	10109
888.27	10185
888.395	10177
888.519	10227
888.643	10093
888.767	10169
888.891	10048
889.015	9975
889.139	10059
889.263	9861
889.387	10040
889.511	10051
889.635	9998
889.759	9979
889.883	9964
890.006	9926
890.13	10006
890.254	9907
890.377	9930
890.501	9804
890.624	9884
890.748	9800
890.871	9724
890.995	9641
891.118	9667
891.241	9701
891.364	9720
891.488	9789
891.611	9720
891.734	9660
891.857	9747
891.98	9641
892.103	9762
892.226	9667
892.349	9675
892.471	9447
892.594	9591
892.717	9561
892.839	9557
892.962	9595
893.085	9618
893.207	9549
893.33	9466
893.452	9454
893.575	9534
893.697	9462
893.819	9523
893.941	9561
894.064	9629
894.186	9359
894.308	9397
894.43	9500
894.552	9519
894.674	9519
894.796	9344
894.918	9359
895.04	9279
895.161	9340
895.283	9294
895.405	9237
895.526	9279
895.648	9272
895.769	9245
895.891	9287
896.012	9207
896.134	9192
896.255	9222
896.376	9119
896.498	9142
896.619	9043
896.74	9085
896.861	9093
896.982	9260
897.103	9207
897.224	9085
897.345	8952
897.466	9017
897.587	9005
897.708	9077
897.828	9013
897.949	8921
898.07	8766
898.19	8933
898.311	8990
898.431	8887
898.552	8899
898.672	8887
898.792	8933
898.913	8887
899.033	8785
899.153	8739
899.273	8651
899.393	8640
899.513	8735
899.633	8674
899.753	8750
899.873	8766
899.993	8739
900.113	8746
900.232	8758
900.352	8632
900.472	8610
900.591	8549
900.711	8537
900.83	8507
900.95	8568
901.069	8629
901.189	8503
901.308	8442
901.427	8400
901.546	8454
901.665	8461
901.784	8442
901.904	8328
902.023	8305
902.141	8202
902.26	8142
902.379	8214
902.498	8244
902.617	8206
902.735	8282
902.854	8279
902.973	8210
903.091	8123
903.21	8088
903.328	8100
903.446	8084
903.565	8088
903.683	8100
903.801	7974
903.919	8130
904.038	8100
904.156	7967
904.274	8005
904.392	8008
904.51	8062
904.627	8008
904.745	8142
904.863	8020
904.981	7921
905.098	7871
905.216	7841
905.334	7852
905.451	7890
905.569	7860
905.686	7928
905.803	7856
905.921	7738
906.038	7879
906.155	7757
906.272	7681
906.389	7681
906.506	7639
906.623	7578
906.74	7620
906.857	7567
906.974	7556
907.091	7643
907.208	7613
907.324	7567
907.441	7552
907.557	7411
907.674	7384
907.79	7354
907.907	7377
908.023	7407
908.139	7400
908.256	7305
908.372	7339
908.488	7308
908.604	7221
908.72	7232
908.836	7187
908.952	7232
909.068	7209
909.184	7350
909.3	7228
909.415	7289
909.531	7232
909.647	7057
909.762	7103
909.878	7080
909.993	7122
910.108	7080
910.224	7042
910.339	7110
910.454	7046
910.57	6981
910.685	6909
910.8	7164
910.915	7095
911.03	7027
911.145	6894
911.259	6818
911.374	6837
911.489	6829
911.604	6772
911.718	6658
911.833	6696
911.947	6616
912.062	6604
912.176	6646
912.291	6715
912.405	6604
912.519	6818
912.633	6829
912.748	6696
912.862	6696
912.976	6597
913.09	6494
913.204	6589
913.318	6597
913.431	6646
913.545	6684
913.659	6696
913.772	6593
913.886	6585
914	6544
914.113	6559
914.226	6608
914.34	6563
914.453	6479
914.566	6551
914.68	6498
914.793	6513
914.906	6346
915.019	6338
915.132	6380
915.245	6410
915.358	6361
915.47	6429
915.583	6418
915.696	6448
915.809	6502
915.921	6513
916.034	6471
916.146	6334
916.259	6391
916.371	6407
916.483	6418
916.595	6407
916.708	6445
916.82	6361
916.932	6357
917.044	6350
917.156	6327
917.268	6346
917.38	6319
917.491	6308
917.603	6346
917.715	6486
917.826	6403
917.938	6350
918.049	6262
918.161	6342
918.272	6384
918.384	6395
918.495	6300
918.606	6216
918.717	6216
918.828	6251
918.939	6220
919.05	6209
919.161	6228
919.272	6102
919.383	6178
919.494	6228
919.604	6346
919.715	6273
919.826	6205
919.936	6209
920.047	6308
920.157	6251
920.267	6456
920.378	6300
920.488	6209
920.598	6410
920.708	6513
920.818	6429
920.928	6403
921.038	6559
921.148	6517
921.258	6334
921.368	6289
921.477	6159
921.587	6197
921.697	6060
921.806	6155
921.916	6045
922.025	5885
922.134	5901
922.244	5851
922.353	5920
922.462	5828
922.571	5790
922.68	5684
922.789	5646
922.898	5672
923.007	5672
923.116	5649
923.224	5611
923.333	5623
923.442	5589
923.55	5512
923.659	5551
923.767	5627
923.876	5566
923.984	5570
924.092	5406
924.201	5486
924.309	5524
924.417	5516
924.525	5474
924.633	5497
924.741	6163
924.849	5337
924.956	5486
925.064	5235
925.172	5254
925.279	5265
925.387	5273
925.494	5318
925.602	5379
925.709	5368
925.816	5227
925.924	5242
926.031	5315
926.138	5258
926.245	5288
926.352	5201
926.459	5250
926.566	5292
926.673	5204
926.779	5124
926.886	5105
926.993	4980
927.099	4972
927.206	4968
927.312	4934
927.419	4987
927.525	4938
927.631	4946
927.737	4889
927.843	4885
927.95	4759
928.056	4809
928.162	4820
928.267	4843
928.373	5280
928.479	4858
928.585	4672
928.69	4744
928.796	4733
928.901	4664
929.007	4550
929.112	4656
929.218	4622
929.323	4596
929.428	4531
929.533	4664
929.638	4478
929.743	4546
929.848	4542
929.953	4489
930.058	4394
930.163	4287
930.267	4322
930.372	4432
930.477	4265
930.581	4470
930.685	4341
930.79	4238
930.894	4215
930.998	4192
931.103	4341
931.207	4082
931.311	4067
931.415	4029
931.519	3918
931.623	3918
