Data from glass_V78500241_454.txt Node
Date: Wed Sep 01 19:17:38 CST 2021
User: usil
Spectrometer: V785-0024
Trigger mode: 0
Integration Time (sec): 4.000000E-1
Scans to average: 1
Nonlinearity correction enabled: false
Boxcar width: 0
Storing dark spectrum: false
XAxis mode: Wavelengths
Number of Pixels in Spectrum: 1024
>>>>>Begin Spectral Data<<<<<
801.071	3701
801.214	3793
801.356	3728
801.499	3751
801.641	3732
801.783	3778
801.926	3831
802.068	3789
802.211	3854
802.353	3903
802.496	3876
802.638	3896
802.78	3907
802.923	3956
803.065	3915
803.208	3884
803.35	3911
803.492	3857
803.635	3896
803.777	3793
803.919	3869
804.061	4124
804.204	3960
804.346	3968
804.488	3945
804.63	4067
804.773	3953
804.915	4078
805.057	4158
805.199	4086
805.341	4116
805.483	4169
805.626	4177
805.768	4128
805.91	4188
806.052	4291
806.194	4219
806.336	4367
806.478	4219
806.62	4185
806.762	4177
806.904	4280
807.046	4325
807.188	4276
807.33	4181
807.472	4211
807.614	4200
807.756	4234
807.898	4261
808.04	4268
808.182	4287
808.324	4360
808.465	4402
808.607	4474
808.749	4497
808.891	4459
809.033	4550
809.174	4421
809.316	4287
809.458	4246
809.6	4192
809.741	4158
809.883	4166
810.025	4215
810.166	4257
810.308	4257
810.45	4211
810.591	4242
810.733	4280
810.875	4516
811.016	4843
811.158	5124
811.299	5311
811.441	5315
811.582	5102
811.724	4740
811.865	4481
812.007	4455
812.148	4466
812.29	4443
812.431	4424
812.573	4402
812.714	4325
812.855	4409
812.997	4432
813.138	4462
813.279	4390
813.421	4390
813.562	4417
813.703	4341
813.845	4375
813.986	4299
814.127	4253
814.268	4253
814.41	4337
814.551	4280
814.692	4287
814.833	4325
814.974	4325
815.115	4344
815.256	4227
815.397	4249
815.539	4257
815.68	4200
815.821	4207
815.962	4356
816.103	4276
816.244	4276
816.385	4280
816.526	4265
816.666	4223
816.807	4112
816.948	4162
817.089	4200
817.23	4112
817.371	4090
817.512	4055
817.653	4059
817.793	4048
817.934	4029
818.075	4124
818.216	4086
818.356	4063
818.497	4006
818.638	3911
818.778	3911
818.919	3899
819.06	3876
819.2	3945
819.341	3918
819.481	3869
819.622	3915
819.762	4017
819.903	3968
820.043	3884
820.184	3880
820.324	3812
820.465	3876
820.605	3888
820.746	3880
820.886	3774
821.026	3960
821.167	3953
821.307	3937
821.447	4021
821.588	3956
821.728	4013
821.868	3979
822.008	3880
822.149	3880
822.289	3956
822.429	3812
822.569	3804
822.709	3850
822.849	3690
822.99	3713
823.13	3781
823.27	3823
823.41	3743
823.55	3766
823.69	3770
823.83	3762
823.97	3701
824.11	3637
824.25	3633
824.389	3675
824.529	3667
824.669	3644
824.809	3717
824.949	3728
825.089	3728
825.228	3728
825.368	3580
825.508	3587
825.648	3610
825.787	3637
825.927	3652
826.067	3625
826.206	3667
826.346	3846
826.485	3873
826.625	3899
826.765	3949
826.904	3831
827.044	3606
827.183	3526
827.323	3409
827.462	3511
827.601	3435
827.741	3439
827.88	3473
828.02	3389
828.159	3454
828.298	3507
828.437	3568
828.577	3496
828.716	3629
828.855	3492
828.994	3428
829.134	3386
829.273	3389
829.412	3317
829.551	3317
829.69	3389
829.829	3450
829.968	3538
830.107	3439
830.246	3500
830.385	3370
830.524	3389
830.663	3306
830.802	3222
830.941	3176
831.08	3199
831.219	3294
831.357	3268
831.496	3428
831.635	3268
831.774	3253
831.913	3241
832.051	3169
832.19	3138
832.329	3169
832.467	3116
832.606	3116
832.744	3199
832.883	3222
833.022	3237
833.16	3294
833.299	3325
833.437	3336
833.576	3374
833.714	3401
833.852	3462
833.991	3500
834.129	3462
834.267	3485
834.406	3439
834.544	3420
834.682	3435
834.821	3439
834.959	3557
835.097	3435
835.235	3534
835.373	3534
835.511	3481
835.65	3488
835.788	3515
835.926	3416
836.064	3363
836.202	3363
836.34	3591
836.478	3580
836.615	3549
836.753	3610
836.891	3633
837.029	3618
837.167	3576
837.305	3545
837.443	3519
837.58	3530
837.718	3591
837.856	3610
837.993	3584
838.131	3610
838.269	3576
838.406	3587
838.544	3568
838.681	3504
838.819	3447
838.956	3382
839.094	3397
839.231	3431
839.369	3523
839.506	3732
839.643	3641
839.781	3504
839.918	3488
840.055	3511
840.193	3553
840.33	3557
840.467	3561
840.604	3633
840.742	3819
840.879	3606
841.016	3564
841.153	3595
841.29	3759
841.427	3732
841.564	3724
841.701	3766
841.838	3728
841.975	3686
842.112	3743
842.249	3671
842.385	3641
842.522	3812
842.659	3686
842.796	3679
842.933	3682
843.069	3751
843.206	3732
843.343	3831
843.479	3785
843.616	3819
843.752	3705
843.889	3671
844.025	3854
844.162	3747
844.298	3857
844.435	3800
844.571	3755
844.708	3911
844.844	4002
844.98	4021
845.117	4055
845.253	3926
845.389	3975
845.525	3964
845.661	3972
845.798	4010
845.934	4051
846.07	3949
846.206	4059
846.342	4135
846.478	4074
846.614	3983
846.75	3930
846.886	3880
847.022	4051
847.158	3960
847.294	4006
847.429	4032
847.565	4048
847.701	4246
847.837	3934
847.972	3857
848.108	3979
848.244	3968
848.379	3865
848.515	3816
848.65	3774
848.786	3861
848.921	3861
849.057	3896
849.192	3930
849.328	3934
849.463	3911
849.598	3854
849.734	3854
849.869	3854
850.004	3762
850.14	3789
850.275	3827
850.41	3762
850.545	3740
850.68	3838
850.815	3778
850.95	3816
851.085	3956
851.22	3930
851.355	3850
851.49	3789
851.625	3812
851.76	3797
851.895	3728
852.03	3747
852.165	3816
852.299	3873
852.434	3949
852.569	3926
852.703	3896
852.838	3941
852.973	3994
853.107	4036
853.242	3911
853.376	3857
853.511	3766
853.645	3846
853.78	3922
853.914	3846
854.048	3915
854.183	3899
854.317	4002
854.451	4051
854.585	3983
854.72	3941
854.854	4063
854.988	3956
855.122	4025
855.256	3926
855.39	4025
855.524	4158
855.658	4135
855.792	4124
855.926	4147
856.06	4120
856.194	4265
856.327	4166
856.461	4135
856.595	4166
856.729	4249
856.862	4265
856.996	4272
857.13	4337
857.263	4287
857.397	4417
857.53	4284
857.664	4375
857.797	4405
857.931	4421
858.064	4394
858.197	4459
858.331	4383
858.464	4394
858.597	4367
858.731	4436
858.864	4459
858.997	4466
859.13	4531
859.263	4512
859.396	4584
859.529	4561
859.662	4561
859.795	4550
859.928	4649
860.061	4759
860.194	4771
860.327	4721
860.46	4672
860.592	4691
860.725	4809
860.858	4790
860.99	4664
861.123	4733
861.256	4668
861.388	4820
861.521	5383
861.653	4729
861.786	4717
861.918	4790
862.05	4809
862.183	4862
862.315	4911
862.447	4911
862.58	4858
862.712	4774
862.844	4778
862.976	4889
863.108	4843
863.24	5216
863.372	4831
863.504	4908
863.636	4930
863.768	4987
863.9	4965
864.032	4938
864.164	4953
864.296	5048
864.428	5105
864.559	5117
864.691	5132
864.823	5155
864.954	5128
865.086	5151
865.217	5121
865.349	5105
865.48	5162
865.612	5178
865.743	5265
865.875	5223
866.006	5162
866.137	5231
866.269	5227
866.4	5261
866.531	5239
866.662	5227
866.793	5277
866.924	5311
867.055	5391
867.186	5372
867.317	5395
867.448	5345
867.579	5345
867.71	5379
867.841	5341
867.972	5490
868.103	5524
868.233	5516
868.364	5512
868.495	5592
868.625	5611
868.756	5813
868.886	5748
869.017	5775
869.147	5878
869.278	5901
869.408	5798
869.539	5817
869.669	5931
869.799	5939
869.929	6007
870.06	5958
870.19	6243
870.32	6209
870.45	6342
870.58	6369
870.71	6490
870.84	6429
870.97	6441
871.1	6486
871.23	6601
871.36	6711
871.489	6669
871.619	6730
871.749	6802
871.879	6848
872.008	6954
872.138	7038
872.267	7027
872.397	7023
872.526	7031
872.656	7107
872.785	7156
872.915	7354
873.044	7430
873.173	7601
873.303	7636
873.432	7792
873.561	7811
873.69	7944
873.819	8005
873.948	8229
874.077	8202
874.206	8313
874.335	8473
874.464	8629
874.593	8845
874.722	8937
874.851	9188
874.979	9222
875.108	9344
875.237	9428
875.365	9466
875.494	9606
875.623	9838
875.751	9842
875.88	10021
876.008	10131
876.136	10280
876.265	10584
876.393	10675
876.521	10698
876.65	10835
876.778	10862
876.906	10934
877.034	10953
877.162	10984
877.29	11113
877.418	11265
877.546	11349
877.674	11482
877.802	11474
877.93	11535
878.058	11558
878.185	11577
878.313	11642
878.441	11722
878.568	11672
878.696	11870
878.824	11916
878.951	11923
879.079	11992
879.206	12163
879.333	12121
879.461	12060
879.588	12110
879.715	12106
879.842	12186
879.97	12034
880.097	11855
880.224	11882
880.351	11897
880.478	11980
880.605	11897
880.732	11931
880.859	11961
880.986	11847
881.112	11805
881.239	11775
881.366	11638
881.493	11665
881.619	11589
881.746	11642
881.872	11516
881.999	11539
882.125	11471
882.252	11551
882.378	11493
882.505	11551
882.631	11303
882.757	11242
882.883	11345
883.01	11197
883.136	11239
883.262	11102
883.388	11143
883.514	11239
883.64	11098
883.766	11098
883.892	11048
884.018	10980
884.143	11006
884.269	11060
884.395	10866
884.52	10801
884.646	10809
884.772	10771
884.897	10641
885.023	10656
885.148	10702
885.274	10729
885.399	10725
885.524	10641
885.65	10596
885.775	10588
885.9	10542
886.025	10618
886.15	10603
886.275	10512
886.4	10375
886.525	10394
886.65	10409
886.775	10329
886.9	10592
887.025	10538
887.149	10405
887.274	10268
887.399	10181
887.523	10162
887.648	10166
887.773	10128
887.897	10211
888.021	10219
888.146	10112
888.27	10185
888.395	10196
888.519	10143
888.643	10215
888.767	10238
888.891	10124
889.015	10071
889.139	10112
889.263	10029
889.387	10105
889.511	10162
889.635	10044
889.759	9975
889.883	9975
890.006	9994
890.13	10143
890.254	9926
890.377	9934
890.501	9842
890.624	9876
890.748	9819
890.871	9861
890.995	9778
891.118	9740
891.241	9732
891.364	9770
891.488	9899
891.611	9686
891.734	9732
891.857	9797
891.98	9747
892.103	9713
892.226	9736
892.349	9724
892.471	9549
892.594	9622
892.717	9568
892.839	9629
892.962	9603
893.085	9690
893.207	9625
893.33	9515
893.452	9511
893.575	9614
893.697	9519
893.819	9629
893.941	9644
894.064	9584
894.186	9435
894.308	9401
894.43	9568
894.552	9477
894.674	9496
894.796	9348
894.918	9378
895.04	9367
895.161	9431
895.283	9344
895.405	9268
895.526	9256
895.648	9256
895.769	9245
895.891	9253
896.012	9310
896.134	9233
896.255	9188
896.376	9188
896.498	9233
896.619	9211
896.74	9081
896.861	9116
896.982	9313
897.103	9272
897.224	9173
897.345	9081
897.466	8998
897.587	8986
897.708	9070
897.828	9058
897.949	8990
898.07	8845
898.19	8815
898.311	9005
898.431	8891
898.552	8941
898.672	8971
898.792	8933
898.913	8868
899.033	8853
899.153	8766
899.273	8678
899.393	8697
899.513	8762
899.633	8731
899.753	8792
899.873	8727
899.993	8743
900.113	8697
900.232	8769
900.352	8651
900.472	8560
900.591	8564
900.711	8621
900.83	8549
900.95	8708
901.069	8735
901.189	8583
901.308	8419
901.427	8336
901.546	8495
901.665	8514
901.784	8522
901.904	8332
902.023	8351
902.141	8279
902.26	8267
902.379	8279
902.498	8202
902.617	8267
902.735	8252
902.854	8309
902.973	8252
903.091	8081
903.21	8111
903.328	8180
903.446	8103
903.565	8046
903.683	8077
903.801	7993
903.919	8100
904.038	8138
904.156	8062
904.274	8054
904.392	8096
904.51	8073
904.627	8050
904.745	8062
904.863	8111
904.981	7917
905.098	7898
905.216	7875
905.334	7955
905.451	7913
905.569	7818
905.686	7879
905.803	7947
905.921	7761
906.038	7860
906.155	7902
906.272	7784
906.389	7715
906.506	7643
906.623	7620
906.74	7571
906.857	7533
906.974	7582
907.091	7670
907.208	7772
907.324	7601
907.441	7559
907.557	7464
907.674	7396
907.79	7415
907.907	7400
908.023	7464
908.139	7403
908.256	7335
908.372	7343
908.488	7381
908.604	7274
908.72	7266
908.836	7266
908.952	7270
909.068	7240
909.184	7346
909.3	7324
909.415	7331
909.531	7384
909.647	7149
909.762	7156
909.878	7107
909.993	7156
910.108	7149
910.224	7099
910.339	7114
910.454	7080
910.57	7053
910.685	7008
910.8	7168
910.915	7069
911.03	7072
911.145	6852
911.259	6924
911.374	6852
911.489	6821
911.604	6776
911.718	6757
911.833	6719
911.947	6639
912.062	6631
912.176	6730
912.291	6719
912.405	6669
912.519	6806
912.633	6890
912.748	6783
912.862	6753
912.976	6608
913.09	6559
913.204	6642
913.318	6593
913.431	6719
913.545	6741
913.659	6734
913.772	6620
913.886	6574
914	6563
914.113	6623
914.226	6631
914.34	6627
914.453	6532
914.566	6677
914.68	6555
914.793	6597
914.906	6414
915.019	6452
915.132	6418
915.245	6456
915.358	6426
915.47	6517
915.583	6452
915.696	6479
915.809	6544
915.921	6582
916.034	6414
916.146	6445
916.259	6372
916.371	6464
916.483	6471
916.595	6338
916.708	6479
916.82	6433
916.932	6429
917.044	6445
917.156	6437
917.268	6304
917.38	6365
917.491	6334
917.603	6338
917.715	6429
917.826	6414
917.938	6296
918.049	6258
918.161	6369
918.272	6441
918.384	6361
918.495	6414
918.606	6289
918.717	6171
918.828	6277
918.939	6270
919.05	6175
919.161	6300
919.272	6186
919.383	6136
919.494	6315
919.604	6471
919.715	6262
919.826	6243
919.936	6254
920.047	6357
920.157	6258
920.267	6448
920.378	6285
920.488	6292
920.598	6498
920.708	6540
920.818	6502
920.928	6452
921.038	6574
921.148	6578
921.258	6369
921.368	6327
921.477	6232
921.587	6167
921.697	6106
921.806	6197
921.916	6117
922.025	5984
922.134	5920
922.244	5885
922.353	5984
922.462	5859
922.571	5840
922.68	5703
922.789	5684
922.898	5703
923.007	5627
923.116	5729
923.224	5672
923.333	5657
923.442	5619
923.55	5627
923.659	5642
923.767	5604
923.876	5573
923.984	5592
924.092	5592
924.201	5539
924.309	5570
924.417	5604
924.525	5501
924.633	5474
924.741	6258
924.849	5425
924.956	5551
925.064	5337
925.172	5292
925.279	5330
925.387	5337
925.494	5387
925.602	5440
925.709	5440
925.816	5277
925.924	5315
926.031	5402
926.138	5330
926.245	5296
926.352	5201
926.459	5299
926.566	5349
926.673	5212
926.779	5136
926.886	5079
926.993	5052
927.099	5071
927.206	4999
927.312	4991
927.419	5003
927.525	4961
927.631	4987
927.737	4877
927.843	4896
927.95	4771
928.056	4805
928.162	4862
928.267	4824
928.373	5250
928.479	4862
928.585	4649
928.69	4740
928.796	4805
928.901	4691
929.007	4565
929.112	4687
929.218	4668
929.323	4577
929.428	4538
929.533	4675
929.638	4493
929.743	4508
929.848	4599
929.953	4550
930.058	4424
930.163	4333
930.267	4375
930.372	4462
930.477	4280
930.581	4481
930.685	4337
930.79	4310
930.894	4306
930.998	4261
931.103	4405
931.207	4166
931.311	4048
931.415	4044
931.519	3926
931.623	3956
