Data from glass_V78500241_423.txt Node
Date: Wed Sep 01 19:17:25 CST 2021
User: usil
Spectrometer: V785-0024
Trigger mode: 0
Integration Time (sec): 4.000000E-1
Scans to average: 1
Nonlinearity correction enabled: false
Boxcar width: 0
Storing dark spectrum: false
XAxis mode: Wavelengths
Number of Pixels in Spectrum: 1024
>>>>>Begin Spectral Data<<<<<
801.071	3770
801.214	3747
801.356	3701
801.499	3755
801.641	3751
801.783	3812
801.926	3873
802.068	3842
802.211	3876
802.353	3903
802.496	3850
802.638	3888
802.78	3892
802.923	3896
803.065	3876
803.208	3861
803.35	3880
803.492	3915
803.635	3903
803.777	3819
803.919	3941
804.061	4158
804.204	3964
804.346	3956
804.488	3915
804.63	4051
804.773	3949
804.915	3998
805.057	4124
805.199	4071
805.341	4105
805.483	4124
805.626	4158
805.768	4097
805.91	4192
806.052	4227
806.194	4242
806.336	4379
806.478	4227
806.62	4196
806.762	4204
806.904	4242
807.046	4363
807.188	4192
807.33	4211
807.472	4242
807.614	4188
807.756	4295
807.898	4192
808.04	4238
808.182	4257
808.324	4352
808.465	4402
808.607	4508
808.749	4474
808.891	4504
809.033	4523
809.174	4363
809.316	4268
809.458	4284
809.6	4207
809.741	4185
809.883	4150
810.025	4234
810.166	4207
810.308	4200
810.45	4284
810.591	4242
810.733	4306
810.875	4485
811.016	4862
811.158	5151
811.299	5284
811.441	5330
811.582	5060
811.724	4725
811.865	4443
812.007	4497
812.148	4440
812.29	4432
812.431	4417
812.573	4421
812.714	4352
812.855	4383
812.997	4409
813.138	4485
813.279	4428
813.421	4398
813.562	4379
813.703	4344
813.845	4344
813.986	4257
814.127	4242
814.268	4325
814.41	4310
814.551	4249
814.692	4386
814.833	4265
814.974	4322
815.115	4325
815.256	4257
815.397	4242
815.539	4276
815.68	4215
815.821	4219
815.962	4344
816.103	4303
816.244	4291
816.385	4234
816.526	4310
816.666	4227
816.807	4086
816.948	4162
817.089	4196
817.23	4177
817.371	4109
817.512	4093
817.653	4055
817.793	4036
817.934	4032
818.075	4109
818.216	4082
818.356	4109
818.497	3983
818.638	3956
818.778	3979
818.919	3903
819.06	3876
819.2	3983
819.341	3918
819.481	3869
819.622	3907
819.762	4017
819.903	3918
820.043	3899
820.184	3857
820.324	3838
820.465	3838
820.605	3911
820.746	3884
820.886	3762
821.026	3903
821.167	3930
821.307	4002
821.447	3987
821.588	3949
821.728	3941
821.868	3892
822.008	3918
822.149	3968
822.289	3934
822.429	3804
822.569	3766
822.709	3785
822.849	3724
822.99	3709
823.13	3797
823.27	3781
823.41	3724
823.55	3740
823.69	3720
823.83	3751
823.97	3637
824.11	3618
824.25	3606
824.389	3652
824.529	3720
824.669	3644
824.809	3701
824.949	3816
825.089	3747
825.228	3671
825.368	3618
825.508	3557
825.648	3561
825.787	3610
825.927	3625
826.067	3652
826.206	3663
826.346	3743
826.485	3854
826.625	3854
826.765	3972
826.904	3854
827.044	3629
827.183	3561
827.323	3466
827.462	3526
827.601	3431
827.741	3439
827.88	3477
828.02	3416
828.159	3473
828.298	3515
828.437	3584
828.577	3481
828.716	3580
828.855	3538
828.994	3370
829.134	3401
829.273	3389
829.412	3378
829.551	3363
829.69	3409
829.829	3504
829.968	3545
830.107	3462
830.246	3443
830.385	3420
830.524	3363
830.663	3321
830.802	3287
830.941	3184
831.08	3173
831.219	3256
831.357	3313
831.496	3416
831.635	3256
831.774	3222
831.913	3241
832.051	3119
832.19	3154
832.329	3249
832.467	3119
832.606	3097
832.744	3195
832.883	3192
833.022	3214
833.16	3233
833.299	3298
833.437	3348
833.576	3329
833.714	3412
833.852	3462
833.991	3477
834.129	3511
834.267	3420
834.406	3439
834.544	3458
834.682	3431
834.821	3378
834.959	3576
835.097	3428
835.235	3519
835.373	3485
835.511	3496
835.65	3523
835.788	3469
835.926	3431
836.064	3389
836.202	3420
836.34	3580
836.478	3606
836.615	3549
836.753	3603
836.891	3663
837.029	3610
837.167	3614
837.305	3561
837.443	3542
837.58	3511
837.718	3629
837.856	3545
837.993	3576
838.131	3599
838.269	3606
838.406	3618
838.544	3595
838.681	3523
838.819	3500
838.956	3340
839.094	3409
839.231	3481
839.369	3492
839.506	3766
839.643	3663
839.781	3519
839.918	3469
840.055	3553
840.193	3549
840.33	3519
840.467	3576
840.604	3568
840.742	3808
840.879	3576
841.016	3606
841.153	3629
841.29	3778
841.427	3778
841.564	3709
841.701	3751
841.838	3724
841.975	3682
842.112	3724
842.249	3614
842.385	3618
842.522	3808
842.659	3690
842.796	3682
842.933	3713
843.069	3671
843.206	3728
843.343	3846
843.479	3800
843.616	3808
843.752	3652
843.889	3682
844.025	3835
844.162	3755
844.298	3876
844.435	3808
844.571	3816
844.708	3926
844.844	4010
844.98	4063
845.117	4010
845.253	3960
845.389	3899
845.525	3968
845.661	3960
845.798	3934
845.934	4040
846.07	3960
846.206	4044
846.342	4139
846.478	4025
846.614	4006
846.75	3964
846.886	3896
847.022	4010
847.158	4029
847.294	3987
847.429	4040
847.565	3960
847.701	4211
847.837	3911
847.972	3865
848.108	3987
848.244	3960
848.379	3831
848.515	3857
848.65	3819
848.786	3842
848.921	3857
849.057	3922
849.192	3972
849.328	3930
849.463	3899
849.598	3896
849.734	3903
849.869	3835
850.004	3751
850.14	3854
850.275	3812
850.41	3759
850.545	3743
850.68	3781
850.815	3827
850.95	3827
851.085	3972
851.22	3869
851.355	3804
851.49	3831
851.625	3751
851.76	3831
851.895	3747
852.03	3755
852.165	3823
852.299	3865
852.434	3896
852.569	3873
852.703	3854
852.838	3987
852.973	3987
853.107	3991
853.242	3918
853.376	3873
853.511	3785
853.645	3865
853.78	4010
853.914	3926
854.048	3911
854.183	3903
854.317	3964
854.451	4067
854.585	3968
854.72	3888
854.854	4063
854.988	3960
855.122	3987
855.256	3956
855.39	4021
855.524	4101
855.658	4086
855.792	4090
855.926	4143
856.06	4162
856.194	4246
856.327	4162
856.461	4139
856.595	4166
856.729	4196
856.862	4253
856.996	4219
857.13	4310
857.263	4348
857.397	4352
857.53	4284
857.664	4352
857.797	4424
857.931	4447
858.064	4402
858.197	4459
858.331	4432
858.464	4447
858.597	4398
858.731	4417
858.864	4535
858.997	4497
859.13	4565
859.263	4535
859.396	4607
859.529	4508
859.662	4580
859.795	4535
859.928	4626
860.061	4729
860.194	4778
860.327	4702
860.46	4675
860.592	4733
860.725	4797
860.858	4793
860.99	4645
861.123	4675
861.256	4740
861.388	4782
861.521	5436
861.653	4744
861.786	4710
861.918	4736
862.05	4812
862.183	4885
862.315	4904
862.447	4911
862.58	4965
862.712	4793
862.844	4774
862.976	4904
863.108	4862
863.24	5242
863.372	4835
863.504	4942
863.636	4923
863.768	4961
863.9	4938
864.032	4934
864.164	4980
864.296	5041
864.428	5117
864.559	5083
864.691	5159
864.823	5079
864.954	5121
865.086	5147
865.217	5128
865.349	5147
865.48	5159
865.612	5159
865.743	5303
865.875	5201
866.006	5189
866.137	5227
866.269	5178
866.4	5239
866.531	5193
866.662	5258
866.793	5269
866.924	5307
867.055	5341
867.186	5391
867.317	5368
867.448	5288
867.579	5383
867.71	5368
867.841	5387
867.972	5417
868.103	5463
868.233	5482
868.364	5509
868.495	5551
868.625	5710
868.756	5817
868.886	5672
869.017	5714
869.147	5847
869.278	5927
869.408	5832
869.539	5836
869.669	5935
869.799	5923
869.929	5954
870.06	6019
870.19	6228
870.32	6205
870.45	6281
870.58	6380
870.71	6525
870.84	6448
870.97	6452
871.1	6467
871.23	6665
871.36	6738
871.489	6635
871.619	6787
871.749	6871
871.879	6913
872.008	7008
872.138	6962
872.267	7004
872.397	7053
872.526	7061
872.656	7057
872.785	7217
872.915	7365
873.044	7514
873.173	7510
873.303	7666
873.432	7803
873.561	7925
873.69	7879
873.819	8005
873.948	8183
874.077	8259
874.206	8328
874.335	8473
874.464	8697
874.593	8845
874.722	8918
874.851	9127
874.979	9279
875.108	9408
875.237	9424
875.365	9538
875.494	9679
875.623	9827
875.751	9819
875.88	10002
876.008	10196
876.136	10329
876.265	10569
876.393	10683
876.521	10702
876.65	10828
876.778	10896
876.906	10911
877.034	10968
877.162	11083
877.29	11170
877.418	11345
877.546	11334
877.674	11417
877.802	11444
877.93	11535
878.058	11581
878.185	11615
878.313	11668
878.441	11707
878.568	11722
878.696	11885
878.824	11855
878.951	11954
879.079	11996
879.206	12136
879.333	12083
879.461	12022
879.588	12095
879.715	12152
879.842	12163
879.97	12007
880.097	11889
880.224	11897
880.351	11904
880.478	11885
880.605	11893
880.732	11828
880.859	11965
880.986	11832
881.112	11878
881.239	11794
881.366	11688
881.493	11680
881.619	11585
881.746	11524
881.872	11532
881.999	11543
882.125	11482
882.252	11558
882.378	11516
882.505	11600
882.631	11326
882.757	11311
882.883	11284
883.01	11273
883.136	11216
883.262	11060
883.388	11086
883.514	11220
883.64	11208
883.766	11075
883.892	11033
884.018	10984
884.143	11064
884.269	11105
884.395	10877
884.52	10812
884.646	10725
884.772	10641
884.897	10649
885.023	10694
885.148	10714
885.274	10782
885.399	10733
885.524	10596
885.65	10584
885.775	10565
885.9	10542
886.025	10622
886.15	10596
886.275	10436
886.4	10333
886.525	10348
886.65	10402
886.775	10352
886.9	10459
887.025	10535
887.149	10291
887.274	10356
887.399	10242
887.523	10196
887.648	10207
887.773	10158
887.897	10268
888.021	10265
888.146	10150
888.27	10284
888.395	10299
888.519	10215
888.643	10192
888.767	10173
888.891	10105
889.015	10017
889.139	10067
889.263	10021
889.387	10162
889.511	10128
889.635	10093
889.759	10010
889.883	9991
890.006	10078
890.13	10086
890.254	9895
890.377	9934
890.501	9873
890.624	9934
890.748	9873
890.871	9884
890.995	9785
891.118	9705
891.241	9705
891.364	9686
891.488	9873
891.611	9660
891.734	9747
891.857	9762
891.98	9720
892.103	9766
892.226	9717
892.349	9614
892.471	9603
892.594	9603
892.717	9606
892.839	9538
892.962	9641
893.085	9644
893.207	9599
893.33	9496
893.452	9549
893.575	9644
893.697	9481
893.819	9701
893.941	9568
894.064	9660
894.186	9401
894.308	9428
894.43	9519
894.552	9580
894.674	9530
894.796	9359
894.918	9458
895.04	9351
895.161	9367
895.283	9370
895.405	9260
895.526	9279
895.648	9253
895.769	9245
895.891	9253
896.012	9313
896.134	9230
896.255	9112
896.376	9127
896.498	9161
896.619	9135
896.74	9142
896.861	9127
896.982	9207
897.103	9310
897.224	9150
897.345	9032
897.466	8979
897.587	9070
897.708	9169
897.828	9100
897.949	9020
898.07	8834
898.19	8895
898.311	9058
898.431	8975
898.552	9001
898.672	8921
898.792	8975
898.913	8895
899.033	8823
899.153	8716
899.273	8708
899.393	8758
899.513	8754
899.633	8796
899.753	8735
899.873	8743
899.993	8796
900.113	8663
900.232	8651
900.352	8727
900.472	8625
900.591	8564
900.711	8629
900.83	8495
900.95	8659
901.069	8705
901.189	8598
901.308	8503
901.427	8412
901.546	8400
901.665	8446
901.784	8492
901.904	8454
902.023	8374
902.141	8248
902.26	8244
902.379	8259
902.498	8202
902.617	8271
902.735	8343
902.854	8229
902.973	8259
903.091	8142
903.21	8107
903.328	8187
903.446	8123
903.565	8126
903.683	8065
903.801	8058
903.919	8126
904.038	8134
904.156	8065
904.274	8145
904.392	8024
904.51	8016
904.627	8054
904.745	8111
904.863	8065
904.981	7928
905.098	7830
905.216	7940
905.334	7951
905.451	7898
905.569	7917
905.686	7875
905.803	7936
905.921	7822
906.038	7864
906.155	7807
906.272	7750
906.389	7674
906.506	7715
906.623	7666
906.74	7616
906.857	7556
906.974	7540
907.091	7609
907.208	7674
907.324	7628
907.441	7552
907.557	7480
907.674	7506
907.79	7381
907.907	7426
908.023	7407
908.139	7460
908.256	7396
908.372	7438
908.488	7327
908.604	7289
908.72	7206
908.836	7263
908.952	7293
909.068	7266
909.184	7346
909.3	7244
909.415	7324
909.531	7244
909.647	7110
909.762	7133
909.878	7046
909.993	7145
910.108	7141
910.224	7122
910.339	7126
910.454	7103
910.57	7061
910.685	6993
910.8	7213
910.915	7145
911.03	7107
911.145	6901
911.259	6928
911.374	6924
911.489	6859
911.604	6818
911.718	6726
911.833	6745
911.947	6715
912.062	6662
912.176	6700
912.291	6726
912.405	6700
912.519	6863
912.633	6875
912.748	6764
912.862	6715
912.976	6662
913.09	6532
913.204	6566
913.318	6696
913.431	6692
913.545	6673
913.659	6677
913.772	6654
913.886	6555
914	6547
914.113	6650
914.226	6612
914.34	6658
914.453	6460
914.566	6593
914.68	6532
914.793	6582
914.906	6452
915.019	6437
915.132	6410
915.245	6475
915.358	6414
915.47	6433
915.583	6452
915.696	6494
915.809	6513
915.921	6502
916.034	6410
916.146	6380
916.259	6384
916.371	6536
916.483	6467
916.595	6414
916.708	6464
916.82	6395
916.932	6311
917.044	6357
917.156	6403
917.268	6346
917.38	6346
917.491	6334
917.603	6346
917.715	6407
917.826	6407
917.938	6342
918.049	6273
918.161	6357
918.272	6445
918.384	6407
918.495	6315
918.606	6292
918.717	6186
918.828	6319
918.939	6300
919.05	6197
919.161	6323
919.272	6068
919.383	6201
919.494	6304
919.604	6452
919.715	6281
919.826	6220
919.936	6300
920.047	6376
920.157	6281
920.267	6452
920.378	6247
920.488	6319
920.598	6456
920.708	6646
920.818	6490
920.928	6448
921.038	6593
921.148	6566
921.258	6422
921.368	6277
921.477	6228
921.587	6186
921.697	6068
921.806	6209
921.916	6072
922.025	5977
922.134	5988
922.244	5870
922.353	5973
922.462	5844
922.571	5783
922.68	5707
922.789	5703
922.898	5745
923.007	5668
923.116	5733
923.224	5661
923.333	5657
923.442	5619
923.55	5570
923.659	5665
923.767	5672
923.876	5459
923.984	5619
924.092	5497
924.201	5551
924.309	5543
924.417	5581
924.525	5532
924.633	5486
924.741	6292
924.849	5357
924.956	5448
925.064	5368
925.172	5280
925.279	5299
925.387	5398
925.494	5337
925.602	5478
925.709	5357
925.816	5284
925.924	5349
926.031	5360
926.138	5379
926.245	5261
926.352	5269
926.459	5326
926.566	5364
926.673	5216
926.779	5143
926.886	5204
926.993	5071
927.099	4995
927.206	4991
927.312	5010
927.419	5006
927.525	4927
927.631	5018
927.737	4953
927.843	4850
927.95	4820
928.056	4850
928.162	4843
928.267	4896
928.373	5258
928.479	4877
928.585	4717
928.69	4740
928.796	4771
928.901	4691
929.007	4634
929.112	4706
929.218	4664
929.323	4584
929.428	4592
929.533	4694
929.638	4504
929.743	4558
929.848	4584
929.953	4546
930.058	4459
930.163	4291
930.267	4344
930.372	4447
930.477	4284
930.581	4497
930.685	4367
930.79	4261
930.894	4246
930.998	4276
931.103	4462
931.207	4143
931.311	4097
931.415	4025
931.519	3934
931.623	3937
