Data from glass_V78500241_2394.txt Node
Date: Wed Sep 01 19:31:05 CST 2021
User: usil
Spectrometer: V785-0024
Trigger mode: 0
Integration Time (sec): 4.000000E-1
Scans to average: 1
Nonlinearity correction enabled: false
Boxcar width: 0
Storing dark spectrum: false
XAxis mode: Wavelengths
Number of Pixels in Spectrum: 1024
>>>>>Begin Spectral Data<<<<<
801.071	3736
801.214	3740
801.356	3679
801.499	3755
801.641	3717
801.783	3759
801.926	3861
802.068	3869
802.211	3861
802.353	3892
802.496	3812
802.638	3903
802.78	3926
802.923	3896
803.065	3888
803.208	3857
803.35	3899
803.492	3876
803.635	3922
803.777	3781
803.919	3911
804.061	4181
804.204	3937
804.346	3918
804.488	3941
804.63	4013
804.773	3987
804.915	4021
805.057	4143
805.199	4048
805.341	4086
805.483	4101
805.626	4093
805.768	4147
805.91	4219
806.052	4181
806.194	4162
806.336	4318
806.478	4211
806.62	4169
806.762	4173
806.904	4211
807.046	4333
807.188	4219
807.33	4177
807.472	4211
807.614	4150
807.756	4242
807.898	4196
808.04	4188
808.182	4276
808.324	4303
808.465	4367
808.607	4455
808.749	4470
808.891	4493
809.033	4489
809.174	4386
809.316	4219
809.458	4181
809.6	4128
809.741	4124
809.883	4162
810.025	4200
810.166	4223
810.308	4257
810.45	4276
810.591	4257
810.733	4303
810.875	4500
811.016	4805
811.158	5113
811.299	5220
811.441	5239
811.582	5064
811.724	4725
811.865	4455
812.007	4421
812.148	4421
812.29	4443
812.431	4398
812.573	4341
812.714	4417
812.855	4402
812.997	4394
813.138	4481
813.279	4386
813.421	4386
813.562	4413
813.703	4322
813.845	4295
813.986	4265
814.127	4234
814.268	4261
814.41	4268
814.551	4276
814.692	4329
814.833	4284
814.974	4314
815.115	4318
815.256	4223
815.397	4223
815.539	4219
815.68	4188
815.821	4150
815.962	4265
816.103	4268
816.244	4261
816.385	4181
816.526	4257
816.666	4219
816.807	4063
816.948	4147
817.089	4188
817.23	4139
817.371	4055
817.512	4051
817.653	4051
817.793	3972
817.934	4040
818.075	4120
818.216	4040
818.356	4074
818.497	3979
818.638	3968
818.778	3865
818.919	3842
819.06	3857
819.2	3846
819.341	3835
819.481	3846
819.622	3915
819.762	3998
819.903	3960
820.043	3880
820.184	3812
820.324	3857
820.465	3903
820.605	3846
820.746	3896
820.886	3751
821.026	3899
821.167	3922
821.307	3926
821.447	3945
821.588	3968
821.728	3918
821.868	3960
822.008	3857
822.149	3930
822.289	3903
822.429	3781
822.569	3736
822.709	3804
822.849	3671
822.99	3690
823.13	3747
823.27	3770
823.41	3641
823.55	3724
823.69	3717
823.83	3728
823.97	3686
824.11	3603
824.25	3629
824.389	3663
824.529	3686
824.669	3648
824.809	3728
824.949	3701
825.089	3701
825.228	3671
825.368	3587
825.508	3507
825.648	3610
825.787	3549
825.927	3671
826.067	3603
826.206	3648
826.346	3804
826.485	3838
826.625	3838
826.765	3953
826.904	3827
827.044	3595
827.183	3511
827.323	3447
827.462	3500
827.601	3466
827.741	3409
827.88	3469
828.02	3359
828.159	3393
828.298	3477
828.437	3504
828.577	3504
828.716	3584
828.855	3496
828.994	3382
829.134	3332
829.273	3363
829.412	3325
829.551	3287
829.69	3374
829.829	3443
829.968	3500
830.107	3420
830.246	3469
830.385	3332
830.524	3329
830.663	3317
830.802	3283
830.941	3211
831.08	3199
831.219	3218
831.357	3241
831.496	3412
831.635	3207
831.774	3203
831.913	3184
832.051	3138
832.19	3154
832.329	3211
832.467	3116
832.606	3058
832.744	3184
832.883	3199
833.022	3192
833.16	3237
833.299	3279
833.437	3302
833.576	3370
833.714	3393
833.852	3428
833.991	3454
834.129	3492
834.267	3424
834.406	3386
834.544	3477
834.682	3428
834.821	3405
834.959	3603
835.097	3393
835.235	3469
835.373	3485
835.511	3523
835.65	3469
835.788	3488
835.926	3336
836.064	3370
836.202	3389
836.34	3534
836.478	3629
836.615	3557
836.753	3587
836.891	3629
837.029	3663
837.167	3595
837.305	3564
837.443	3534
837.58	3473
837.718	3576
837.856	3568
837.993	3515
838.131	3534
838.269	3614
838.406	3561
838.544	3549
838.681	3473
838.819	3431
838.956	3351
839.094	3389
839.231	3431
839.369	3530
839.506	3762
839.643	3614
839.781	3454
839.918	3496
840.055	3523
840.193	3530
840.33	3492
840.467	3572
840.604	3584
840.742	3781
840.879	3542
841.016	3542
841.153	3568
841.29	3793
841.427	3732
841.564	3759
841.701	3720
841.838	3694
841.975	3648
842.112	3698
842.249	3644
842.385	3599
842.522	3778
842.659	3663
842.796	3641
842.933	3667
843.069	3690
843.206	3663
843.343	3797
843.479	3747
843.616	3804
843.752	3629
843.889	3671
844.025	3850
844.162	3713
844.298	3823
844.435	3751
844.571	3759
844.708	3903
844.844	3964
844.98	4010
845.117	3991
845.253	3930
845.389	3873
845.525	3945
845.661	3953
845.798	3922
845.934	4013
846.07	3937
846.206	4074
846.342	4093
846.478	4074
846.614	3975
846.75	3926
846.886	3907
847.022	3979
847.158	3972
847.294	3998
847.429	4074
847.565	3964
847.701	4192
847.837	3869
847.972	3873
848.108	3979
848.244	3983
848.379	3884
848.515	3888
848.65	3842
848.786	3846
848.921	3873
849.057	3896
849.192	3983
849.328	3896
849.463	3926
849.598	3865
849.734	3857
849.869	3831
850.004	3759
850.14	3781
850.275	3774
850.41	3724
850.545	3713
850.68	3781
850.815	3740
850.95	3755
851.085	3926
851.22	3846
851.355	3842
851.49	3812
851.625	3766
851.76	3789
851.895	3755
852.03	3732
852.165	3785
852.299	3827
852.434	3915
852.569	3869
852.703	3857
852.838	3945
852.973	3945
853.107	3991
853.242	3899
853.376	3842
853.511	3774
853.645	3827
853.78	3979
853.914	3823
854.048	3934
854.183	3884
854.317	3941
854.451	4055
854.585	3964
854.72	3941
854.854	4063
854.988	3941
855.122	3994
855.256	3937
855.39	4025
855.524	4128
855.658	4105
855.792	4105
855.926	4116
856.06	4162
856.194	4185
856.327	4177
856.461	4097
856.595	4135
856.729	4143
856.862	4265
856.996	4234
857.13	4287
857.263	4303
857.397	4341
857.53	4299
857.664	4371
857.797	4383
857.931	4413
858.064	4367
858.197	4451
858.331	4333
858.464	4379
858.597	4348
858.731	4440
858.864	4466
858.997	4428
859.13	4455
859.263	4512
859.396	4584
859.529	4550
859.662	4497
859.795	4512
859.928	4565
860.061	4687
860.194	4698
860.327	4653
860.46	4641
860.592	4714
860.725	4793
860.858	4744
860.99	4714
861.123	4687
861.256	4679
861.388	4744
861.521	5497
861.653	4672
861.786	4660
861.918	4759
862.05	4835
862.183	4870
862.315	4911
862.447	4911
862.58	4870
862.712	4809
862.844	4767
862.976	4870
863.108	4908
863.24	5208
863.372	4831
863.504	4877
863.636	4942
863.768	4968
863.9	4919
864.032	4949
864.164	4896
864.296	5018
864.428	5109
864.559	5121
864.691	5143
864.823	5109
864.954	5098
865.086	5170
865.217	5128
865.349	5109
865.48	5147
865.612	5185
865.743	5280
865.875	5220
866.006	5105
866.137	5242
866.269	5227
866.4	5235
866.531	5231
866.662	5174
866.793	5273
866.924	5277
867.055	5345
867.186	5337
867.317	5292
867.448	5315
867.579	5429
867.71	5345
867.841	5398
867.972	5459
868.103	5452
868.233	5459
868.364	5558
868.495	5547
868.625	5638
868.756	5752
868.886	5649
869.017	5722
869.147	5855
869.278	5844
869.408	5836
869.539	5748
869.669	5870
869.799	5923
869.929	5984
870.06	6057
870.19	6175
870.32	6117
870.45	6239
870.58	6357
870.71	6388
870.84	6532
870.97	6357
871.1	6429
871.23	6635
871.36	6635
871.489	6551
871.619	6745
871.749	6875
871.879	6867
872.008	7012
872.138	6958
872.267	6993
872.397	6977
872.526	7012
872.656	7072
872.785	7084
872.915	7350
873.044	7487
873.173	7571
873.303	7616
873.432	7780
873.561	7837
873.69	7970
873.819	7974
873.948	8126
874.077	8259
874.206	8309
874.335	8415
874.464	8625
874.593	8823
874.722	8937
874.851	9066
874.979	9192
875.108	9374
875.237	9439
875.365	9473
875.494	9690
875.623	9789
875.751	9926
875.88	9964
876.008	10196
876.136	10337
876.265	10485
876.393	10656
876.521	10645
876.65	10824
876.778	10816
876.906	10911
877.034	10934
877.162	11102
877.29	11048
877.418	11280
877.546	11330
877.674	11387
877.802	11471
877.93	11471
878.058	11505
878.185	11634
878.313	11627
878.441	11691
878.568	11657
878.696	11802
878.824	11893
878.951	11889
879.079	12026
879.206	12152
879.333	12083
879.461	11996
879.588	12045
879.715	12022
879.842	12201
879.97	11931
880.097	11874
880.224	11809
880.351	11843
880.478	11855
880.605	11813
880.732	11809
880.859	11946
880.986	11863
881.112	11847
881.239	11699
881.366	11657
881.493	11600
881.619	11562
881.746	11532
881.872	11543
881.999	11604
882.125	11512
882.252	11554
882.378	11474
882.505	11554
882.631	11391
882.757	11292
882.883	11372
883.01	11299
883.136	11178
883.262	11178
883.388	11048
883.514	11212
883.64	11212
883.766	11117
883.892	11018
884.018	11006
884.143	11037
884.269	11060
884.395	10847
884.52	10736
884.646	10778
884.772	10714
884.897	10702
885.023	10634
885.148	10790
885.274	10801
885.399	10649
885.524	10497
885.65	10611
885.775	10611
885.9	10550
886.025	10656
886.15	10649
886.275	10443
886.4	10394
886.525	10322
886.65	10314
886.775	10379
886.9	10493
887.025	10577
887.149	10344
887.274	10192
887.399	10207
887.523	10166
887.648	10086
887.773	10120
887.897	10150
888.021	10219
888.146	10025
888.27	10181
888.395	10284
888.519	10105
888.643	10188
888.767	10135
888.891	10013
889.015	10048
889.139	10040
889.263	9998
889.387	10036
889.511	10135
889.635	10059
889.759	9930
889.883	9934
890.006	9998
890.13	10105
890.254	9941
890.377	10025
890.501	9850
890.624	9869
890.748	9842
890.871	9747
890.995	9682
891.118	9709
891.241	9736
891.364	9667
891.488	9743
891.611	9759
891.734	9740
891.857	9732
891.98	9740
892.103	9720
892.226	9800
892.349	9675
892.471	9614
892.594	9568
892.717	9606
892.839	9603
892.962	9587
893.085	9686
893.207	9515
893.33	9538
893.452	9591
893.575	9587
893.697	9504
893.819	9580
893.941	9644
894.064	9561
894.186	9462
894.308	9405
894.43	9542
894.552	9587
894.674	9568
894.796	9435
894.918	9424
895.04	9287
895.161	9382
895.283	9256
895.405	9245
895.526	9233
895.648	9275
895.769	9336
895.891	9249
896.012	9199
896.134	9218
896.255	9218
896.376	9085
896.498	9135
896.619	9131
896.74	9009
896.861	9085
896.982	9275
897.103	9214
897.224	9150
897.345	9123
897.466	8948
897.587	9062
897.708	9123
897.828	9032
897.949	8956
898.07	8899
898.19	8899
898.311	9039
898.431	8864
898.552	8891
898.672	8967
898.792	8948
898.913	8891
899.033	8754
899.153	8750
899.273	8693
899.393	8678
899.513	8743
899.633	8724
899.753	8800
899.873	8640
899.993	8754
900.113	8674
900.232	8754
900.352	8667
900.472	8564
900.591	8530
900.711	8648
900.83	8579
900.95	8670
901.069	8579
901.189	8610
901.308	8431
901.427	8400
901.546	8404
901.665	8461
901.784	8488
901.904	8412
902.023	8320
902.141	8199
902.26	8202
902.379	8248
902.498	8126
902.617	8202
902.735	8282
902.854	8328
902.973	8252
903.091	8096
903.21	8103
903.328	8130
903.446	8149
903.565	8031
903.683	8050
903.801	8149
903.919	8103
904.038	8176
904.156	8012
904.274	8081
904.392	7993
904.51	8043
904.627	8012
904.745	8035
904.863	8077
904.981	7849
905.098	7860
905.216	7868
905.334	7830
905.451	7902
905.569	7845
905.686	7951
905.803	7944
905.921	7830
906.038	7856
906.155	7780
906.272	7685
906.389	7738
906.506	7632
906.623	7601
906.74	7556
906.857	7548
906.974	7594
907.091	7719
907.208	7742
907.324	7632
907.441	7559
907.557	7468
907.674	7483
907.79	7312
907.907	7441
908.023	7430
908.139	7400
908.256	7388
908.372	7320
908.488	7331
908.604	7320
908.72	7305
908.836	7232
908.952	7236
909.068	7240
909.184	7293
909.3	7266
909.415	7263
909.531	7244
909.647	7065
909.762	7149
909.878	7110
909.993	7114
910.108	7069
910.224	7072
910.339	7103
910.454	7031
910.57	6966
910.685	6951
910.8	7179
910.915	7019
911.03	7038
911.145	6833
911.259	6810
911.374	6844
911.489	6818
911.604	6783
911.718	6711
911.833	6798
911.947	6692
912.062	6627
912.176	6642
912.291	6726
912.405	6711
912.519	6806
912.633	6837
912.748	6745
912.862	6722
912.976	6597
913.09	6464
913.204	6551
913.318	6566
913.431	6635
913.545	6620
913.659	6711
913.772	6608
913.886	6551
914	6532
914.113	6589
914.226	6612
914.34	6574
914.453	6479
914.566	6593
914.68	6570
914.793	6574
914.906	6380
915.019	6414
915.132	6395
915.245	6391
915.358	6460
915.47	6441
915.583	6475
915.696	6388
915.809	6486
915.921	6540
916.034	6403
916.146	6445
916.259	6372
916.371	6494
916.483	6399
916.595	6361
916.708	6388
916.82	6353
916.932	6380
917.044	6323
917.156	6308
917.268	6311
917.38	6327
917.491	6338
917.603	6338
917.715	6361
917.826	6445
917.938	6319
918.049	6273
918.161	6296
918.272	6448
918.384	6414
918.495	6346
918.606	6201
918.717	6175
918.828	6247
918.939	6273
919.05	6194
919.161	6239
919.272	6098
919.383	6152
919.494	6292
919.604	6384
919.715	6262
919.826	6182
919.936	6270
920.047	6311
920.157	6239
920.267	6456
920.378	6323
920.488	6201
920.598	6445
920.708	6574
920.818	6353
920.928	6464
921.038	6563
921.148	6517
921.258	6338
921.368	6254
921.477	6155
921.587	6175
921.697	6114
921.806	6152
921.916	6038
922.025	5920
922.134	5920
922.244	5889
922.353	5958
922.462	5866
922.571	5809
922.68	5729
922.789	5649
922.898	5688
923.007	5592
923.116	5653
923.224	5676
923.333	5627
923.442	5509
923.55	5608
923.659	5535
923.767	5638
923.876	5589
923.984	5627
924.092	5482
924.201	5581
924.309	5516
924.417	5532
924.525	5429
924.633	5433
924.741	6289
924.849	5421
924.956	5490
925.064	5353
925.172	5322
925.279	5315
925.387	5345
925.494	5311
925.602	5440
925.709	5376
925.816	5220
925.924	5284
926.031	5337
926.138	5337
926.245	5307
926.352	5189
926.459	5337
926.566	5277
926.673	5189
926.779	5128
926.886	5170
926.993	5018
927.099	4949
927.206	4961
927.312	4980
927.419	4923
927.525	4923
927.631	4961
927.737	4843
927.843	4892
927.95	4774
928.056	4790
928.162	4778
928.267	4858
928.373	5239
928.479	4820
928.585	4618
928.69	4717
928.796	4759
928.901	4641
929.007	4596
929.112	4675
929.218	4603
929.323	4607
929.428	4538
929.533	4687
929.638	4516
929.743	4527
929.848	4538
929.953	4519
930.058	4428
930.163	4287
930.267	4344
930.372	4409
930.477	4329
930.581	4466
930.685	4344
930.79	4207
930.894	4265
930.998	4253
931.103	4398
931.207	4124
931.311	4082
931.415	4013
931.519	3945
931.623	3964
