Data from glass_V78500241_1590.txt Node
Date: Wed Sep 01 19:25:31 CST 2021
User: usil
Spectrometer: V785-0024
Trigger mode: 0
Integration Time (sec): 4.000000E-1
Scans to average: 1
Nonlinearity correction enabled: false
Boxcar width: 0
Storing dark spectrum: false
XAxis mode: Wavelengths
Number of Pixels in Spectrum: 1024
>>>>>Begin Spectral Data<<<<<
801.071	3755
801.214	3740
801.356	3701
801.499	3743
801.641	3740
801.783	3774
801.926	3857
802.068	3842
802.211	3838
802.353	3869
802.496	3793
802.638	3892
802.78	3953
802.923	3956
803.065	3880
803.208	3804
803.35	3854
803.492	3896
803.635	3945
803.777	3827
803.919	3873
804.061	4139
804.204	3953
804.346	3937
804.488	3915
804.63	4017
804.773	3979
804.915	4048
805.057	4120
805.199	4036
805.341	4051
805.483	4143
805.626	4135
805.768	4112
805.91	4223
806.052	4223
806.194	4230
806.336	4371
806.478	4162
806.62	4166
806.762	4169
806.904	4207
807.046	4325
807.188	4246
807.33	4139
807.472	4261
807.614	4215
807.756	4265
807.898	4268
808.04	4227
808.182	4276
808.324	4337
808.465	4348
808.607	4497
808.749	4459
808.891	4459
809.033	4550
809.174	4379
809.316	4234
809.458	4291
809.6	4139
809.741	4112
809.883	4158
810.025	4207
810.166	4215
810.308	4223
810.45	4257
810.591	4249
810.733	4284
810.875	4535
811.016	4809
811.158	5117
811.299	5307
811.441	5318
811.582	5052
811.724	4774
811.865	4481
812.007	4443
812.148	4428
812.29	4421
812.431	4459
812.573	4421
812.714	4367
812.855	4417
812.997	4417
813.138	4481
813.279	4432
813.421	4417
813.562	4367
813.703	4341
813.845	4344
813.986	4261
814.127	4207
814.268	4261
814.41	4272
814.551	4238
814.692	4367
814.833	4268
814.974	4322
815.115	4363
815.256	4261
815.397	4253
815.539	4303
815.68	4211
815.821	4249
815.962	4253
816.103	4303
816.244	4207
816.385	4227
816.526	4272
816.666	4242
816.807	4112
816.948	4223
817.089	4211
817.23	4116
817.371	4116
817.512	4051
817.653	4109
817.793	4040
817.934	4013
818.075	4120
818.216	4097
818.356	4116
818.497	4006
818.638	3896
818.778	3876
818.919	3896
819.06	3884
819.2	3903
819.341	3876
819.481	3865
819.622	3915
819.762	4017
819.903	3922
820.043	3880
820.184	3819
820.324	3850
820.465	3861
820.605	3876
820.746	3876
820.886	3740
821.026	3926
821.167	3926
821.307	3945
821.447	3983
821.588	3941
821.728	3953
821.868	3937
822.008	3846
822.149	3922
822.289	3987
822.429	3819
822.569	3755
822.709	3804
822.849	3705
822.99	3690
823.13	3759
823.27	3774
823.41	3701
823.55	3759
823.69	3747
823.83	3747
823.97	3671
824.11	3591
824.25	3629
824.389	3599
824.529	3660
824.669	3618
824.809	3701
824.949	3709
825.089	3724
825.228	3701
825.368	3595
825.508	3576
825.648	3549
825.787	3629
825.927	3633
826.067	3614
826.206	3644
826.346	3823
826.485	3785
826.625	3857
826.765	3987
826.904	3831
827.044	3591
827.183	3576
827.323	3439
827.462	3473
827.601	3469
827.741	3450
827.88	3450
828.02	3359
828.159	3428
828.298	3496
828.437	3511
828.577	3454
828.716	3625
828.855	3507
828.994	3359
829.134	3382
829.273	3401
829.412	3370
829.551	3351
829.69	3367
829.829	3405
829.968	3500
830.107	3458
830.246	3424
830.385	3374
830.524	3363
830.663	3306
830.802	3268
830.941	3169
831.08	3230
831.219	3226
831.357	3256
831.496	3424
831.635	3260
831.774	3169
831.913	3207
832.051	3173
832.19	3169
832.329	3195
832.467	3150
832.606	3074
832.744	3195
832.883	3157
833.022	3226
833.16	3226
833.299	3370
833.437	3332
833.576	3374
833.714	3450
833.852	3409
833.991	3420
834.129	3473
834.267	3450
834.406	3424
834.544	3386
834.682	3416
834.821	3409
834.959	3553
835.097	3412
835.235	3526
835.373	3519
835.511	3485
835.65	3439
835.788	3466
835.926	3431
836.064	3370
836.202	3416
836.34	3561
836.478	3557
836.615	3523
836.753	3606
836.891	3641
837.029	3614
837.167	3564
837.305	3595
837.443	3507
837.58	3488
837.718	3549
837.856	3542
837.993	3492
838.131	3603
838.269	3584
838.406	3576
838.544	3595
838.681	3496
838.819	3454
838.956	3382
839.094	3401
839.231	3454
839.369	3511
839.506	3728
839.643	3644
839.781	3519
839.918	3481
840.055	3538
840.193	3534
840.33	3523
840.467	3614
840.604	3576
840.742	3816
840.879	3561
841.016	3584
841.153	3595
841.29	3785
841.427	3717
841.564	3743
841.701	3766
841.838	3720
841.975	3648
842.112	3713
842.249	3648
842.385	3652
842.522	3842
842.659	3682
842.796	3660
842.933	3720
843.069	3755
843.206	3701
843.343	3823
843.479	3774
843.616	3835
843.752	3679
843.889	3701
844.025	3842
844.162	3724
844.298	3896
844.435	3797
844.571	3751
844.708	3941
844.844	3972
844.98	4055
845.117	4021
845.253	3922
845.389	3899
845.525	3941
845.661	3964
845.798	3941
845.934	3983
846.07	3960
846.206	4044
846.342	4139
846.478	4082
846.614	3941
846.75	3937
846.886	3930
847.022	4029
847.158	3945
847.294	4017
847.429	4067
847.565	4002
847.701	4215
847.837	3918
847.972	3869
848.108	3972
848.244	3991
848.379	3865
848.515	3827
848.65	3781
848.786	3835
848.921	3854
849.057	3911
849.192	3930
849.328	3911
849.463	3964
849.598	3896
849.734	3907
849.869	3854
850.004	3759
850.14	3827
850.275	3789
850.41	3736
850.545	3740
850.68	3778
850.815	3816
850.95	3808
851.085	3941
851.22	3865
851.355	3808
851.49	3797
851.625	3804
851.76	3804
851.895	3755
852.03	3759
852.165	3816
852.299	3850
852.434	3930
852.569	3888
852.703	3892
852.838	3915
852.973	3991
853.107	3956
853.242	3896
853.376	3850
853.511	3747
853.645	3819
853.78	3956
853.914	3865
854.048	3899
854.183	3869
854.317	3922
854.451	4044
854.585	3934
854.72	3968
854.854	4029
854.988	3926
855.122	4002
855.256	3945
855.39	3994
855.524	4128
855.658	4124
855.792	4105
855.926	4185
856.06	4147
856.194	4173
856.327	4177
856.461	4109
856.595	4150
856.729	4192
856.862	4280
856.996	4242
857.13	4310
857.263	4322
857.397	4363
857.53	4280
857.664	4348
857.797	4405
857.931	4356
858.064	4421
858.197	4459
858.331	4386
858.464	4367
858.597	4352
858.731	4440
858.864	4466
858.997	4478
859.13	4535
859.263	4584
859.396	4599
859.529	4474
859.662	4523
859.795	4516
859.928	4588
860.061	4664
860.194	4706
860.327	4683
860.46	4607
860.592	4717
860.725	4729
860.858	4744
860.99	4694
861.123	4687
861.256	4683
861.388	4774
861.521	5501
861.653	4725
861.786	4675
861.918	4740
862.05	4801
862.183	4828
862.315	4915
862.447	4892
862.58	4896
862.712	4801
862.844	4812
862.976	4854
863.108	4889
863.24	5315
863.372	4801
863.504	4896
863.636	4923
863.768	4949
863.9	4949
864.032	4930
864.164	4980
864.296	5041
864.428	5079
864.559	5159
864.691	5124
864.823	5041
864.954	5117
865.086	5136
865.217	5155
865.349	5094
865.48	5136
865.612	5193
865.743	5288
865.875	5166
866.006	5181
866.137	5277
866.269	5242
866.4	5261
866.531	5311
866.662	5250
866.793	5265
866.924	5326
867.055	5364
867.186	5315
867.317	5364
867.448	5311
867.579	5360
867.71	5368
867.841	5391
867.972	5448
868.103	5566
868.233	5486
868.364	5512
868.495	5505
868.625	5646
868.756	5802
868.886	5676
869.017	5729
869.147	5897
869.278	5832
869.408	5809
869.539	5752
869.669	5893
869.799	5904
869.929	5999
870.06	5977
870.19	6178
870.32	6136
870.45	6331
870.58	6376
870.71	6384
870.84	6445
870.97	6445
871.1	6410
871.23	6684
871.36	6669
871.489	6681
871.619	6768
871.749	6760
871.879	6833
872.008	7004
872.138	7019
872.267	6970
872.397	7000
872.526	7000
872.656	7126
872.785	7171
872.915	7403
873.044	7472
873.173	7605
873.303	7719
873.432	7712
873.561	7925
873.69	7974
873.819	8058
873.948	8164
874.077	8240
874.206	8336
874.335	8400
874.464	8678
874.593	8868
874.722	8952
874.851	9093
874.979	9199
875.108	9363
875.237	9405
875.365	9469
875.494	9663
875.623	9816
875.751	9880
875.88	9991
876.008	10196
876.136	10238
876.265	10618
876.393	10672
876.521	10755
876.65	10793
876.778	10847
876.906	10915
877.034	11010
877.162	11124
877.29	11174
877.418	11261
877.546	11368
877.674	11440
877.802	11448
877.93	11528
878.058	11463
878.185	11539
878.313	11547
878.441	11737
878.568	11722
878.696	11813
878.824	11832
878.951	11958
879.079	11988
879.206	12045
879.333	12057
879.461	11999
879.588	12060
879.715	12102
879.842	12205
879.97	12102
880.097	11893
880.224	11821
880.351	11893
880.478	11870
880.605	11885
880.732	11828
880.859	11980
880.986	11794
881.112	11805
881.239	11680
881.366	11630
881.493	11642
881.619	11577
881.746	11657
881.872	11478
881.999	11535
882.125	11516
882.252	11562
882.378	11474
882.505	11634
882.631	11387
882.757	11315
882.883	11421
883.01	11280
883.136	11208
883.262	11151
883.388	11052
883.514	11181
883.64	11216
883.766	11098
883.892	10987
884.018	11018
884.143	11132
884.269	11151
884.395	10820
884.52	10797
884.646	10809
884.772	10706
884.897	10588
885.023	10717
885.148	10771
885.274	10702
885.399	10752
885.524	10626
885.65	10527
885.775	10523
885.9	10641
886.025	10588
886.15	10584
886.275	10462
886.4	10386
886.525	10466
886.65	10276
886.775	10333
886.9	10481
887.025	10538
887.149	10379
887.274	10265
887.399	10181
887.523	10227
887.648	10207
887.773	10101
887.897	10238
888.021	10268
888.146	10093
888.27	10253
888.395	10246
888.519	10211
888.643	10188
888.767	10139
888.891	10135
889.015	10055
889.139	10032
889.263	9987
889.387	10074
889.511	10124
889.635	10120
889.759	9968
889.883	9930
890.006	10074
890.13	10124
890.254	9922
890.377	10002
890.501	9831
890.624	9816
890.748	9911
890.871	9816
890.995	9759
891.118	9705
891.241	9724
891.364	9797
891.488	9876
891.611	9717
891.734	9766
891.857	9690
891.98	9713
892.103	9808
892.226	9812
892.349	9656
892.471	9523
892.594	9572
892.717	9656
892.839	9587
892.962	9614
893.085	9587
893.207	9637
893.33	9473
893.452	9545
893.575	9610
893.697	9477
893.819	9622
893.941	9660
894.064	9500
894.186	9416
894.308	9431
894.43	9652
894.552	9492
894.674	9561
894.796	9287
894.918	9378
895.04	9439
895.161	9412
895.283	9378
895.405	9237
895.526	9260
895.648	9211
895.769	9211
895.891	9245
896.012	9237
896.134	9192
896.255	9169
896.376	9055
896.498	9207
896.619	9135
896.74	9123
896.861	9157
896.982	9214
897.103	9340
897.224	9184
897.345	9081
897.466	8975
897.587	9036
897.708	9093
897.828	9089
897.949	8975
898.07	8838
898.19	8963
898.311	9028
898.431	8933
898.552	8880
898.672	9047
898.792	8967
898.913	8960
899.033	8823
899.153	8766
899.273	8708
899.393	8720
899.513	8716
899.633	8720
899.753	8678
899.873	8659
899.993	8743
900.113	8739
900.232	8682
900.352	8720
900.472	8621
900.591	8583
900.711	8613
900.83	8499
900.95	8670
901.069	8629
901.189	8552
901.308	8492
901.427	8412
901.546	8427
901.665	8404
901.784	8564
901.904	8404
902.023	8279
902.141	8237
902.26	8199
902.379	8237
902.498	8206
902.617	8309
902.735	8313
902.854	8271
902.973	8298
903.091	8084
903.21	8176
903.328	8199
903.446	8153
903.565	8107
903.683	8062
903.801	8005
903.919	8172
904.038	8126
904.156	8031
904.274	8100
904.392	8039
904.51	8039
904.627	8005
904.745	8100
904.863	8145
904.981	7947
905.098	7871
905.216	7909
905.334	7894
905.451	7978
905.569	7845
905.686	7879
905.803	7890
905.921	7799
906.038	7875
906.155	7811
906.272	7689
906.389	7689
906.506	7632
906.623	7696
906.74	7643
906.857	7537
906.974	7677
907.091	7681
907.208	7734
907.324	7674
907.441	7571
907.557	7407
907.674	7449
907.79	7403
907.907	7373
908.023	7430
908.139	7384
908.256	7392
908.372	7365
908.488	7289
908.604	7228
908.72	7266
908.836	7274
908.952	7206
909.068	7266
909.184	7305
909.3	7194
909.415	7301
909.531	7327
909.647	7122
909.762	7126
909.878	7133
909.993	7122
910.108	7091
910.224	7088
910.339	7126
910.454	7034
910.57	7046
910.685	6932
910.8	7118
910.915	7080
911.03	7004
911.145	6928
911.259	6916
911.374	6894
911.489	6821
911.604	6821
911.718	6734
911.833	6745
911.947	6616
912.062	6646
912.176	6665
912.291	6703
912.405	6692
912.519	6833
912.633	6791
912.748	6684
912.862	6692
912.976	6639
913.09	6528
913.204	6532
913.318	6601
913.431	6662
913.545	6696
913.659	6730
913.772	6639
913.886	6563
914	6559
914.113	6669
914.226	6658
914.34	6597
914.453	6483
914.566	6623
914.68	6517
914.793	6521
914.906	6452
915.019	6410
915.132	6414
915.245	6418
915.358	6445
915.47	6437
915.583	6486
915.696	6471
915.809	6509
915.921	6509
916.034	6384
916.146	6410
916.259	6437
916.371	6509
916.483	6448
916.595	6357
916.708	6380
916.82	6391
916.932	6369
917.044	6395
917.156	6410
917.268	6342
917.38	6365
917.491	6254
917.603	6346
917.715	6410
917.826	6369
917.938	6338
918.049	6262
918.161	6289
918.272	6403
918.384	6429
918.495	6399
918.606	6251
918.717	6296
918.828	6285
918.939	6277
919.05	6175
919.161	6216
919.272	6121
919.383	6102
919.494	6292
919.604	6475
919.715	6315
919.826	6194
919.936	6224
920.047	6289
920.157	6247
920.267	6456
920.378	6308
920.488	6300
920.598	6475
920.708	6528
920.818	6528
920.928	6422
921.038	6627
921.148	6593
921.258	6311
921.368	6331
921.477	6243
921.587	6163
921.697	6057
921.806	6186
921.916	6091
922.025	5897
922.134	5882
922.244	5920
922.353	5954
922.462	5866
922.571	5756
922.68	5726
922.789	5722
922.898	5707
923.007	5714
923.116	5665
923.224	5699
923.333	5653
923.442	5604
923.55	5619
923.659	5585
923.767	5642
923.876	5570
923.984	5547
924.092	5467
924.201	5589
924.309	5520
924.417	5558
924.525	5452
924.633	5551
924.741	6140
924.849	5402
924.956	5490
925.064	5414
925.172	5337
925.279	5318
925.387	5391
925.494	5311
925.602	5448
925.709	5364
925.816	5254
925.924	5292
926.031	5315
926.138	5326
926.245	5254
926.352	5242
926.459	5280
926.566	5345
926.673	5227
926.779	5140
926.886	5147
926.993	5018
927.099	4995
927.206	4957
927.312	4965
927.419	4999
927.525	4968
927.631	4984
927.737	4934
927.843	4847
927.95	4820
928.056	4801
928.162	4854
928.267	4839
928.373	5315
928.479	4881
928.585	4649
928.69	4752
928.796	4752
928.901	4721
929.007	4615
929.112	4691
929.218	4592
929.323	4618
929.428	4554
929.533	4660
929.638	4527
929.743	4538
929.848	4577
929.953	4546
930.058	4432
930.163	4367
930.267	4322
930.372	4424
930.477	4303
930.581	4481
930.685	4360
930.79	4268
930.894	4291
930.998	4261
931.103	4367
931.207	4090
931.311	4067
931.415	4055
931.519	3975
931.623	3960
