Data from glass_V78500241_238.txt Node
Date: Wed Sep 01 19:16:08 CST 2021
User: usil
Spectrometer: V785-0024
Trigger mode: 0
Integration Time (sec): 4.000000E-1
Scans to average: 1
Nonlinearity correction enabled: false
Boxcar width: 0
Storing dark spectrum: false
XAxis mode: Wavelengths
Number of Pixels in Spectrum: 1024
>>>>>Begin Spectral Data<<<<<
801.071	3720
801.214	3770
801.356	3690
801.499	3732
801.641	3724
801.783	3831
801.926	3884
802.068	3884
802.211	3873
802.353	3892
802.496	3857
802.638	3876
802.78	3880
802.923	3949
803.065	3922
803.208	3896
803.35	3915
803.492	3888
803.635	3930
803.777	3838
803.919	3892
804.061	4188
804.204	3956
804.346	4010
804.488	3930
804.63	4040
804.773	4002
804.915	4010
805.057	4196
805.199	4086
805.341	4112
805.483	4192
805.626	4147
805.768	4135
805.91	4234
806.052	4246
806.194	4200
806.336	4310
806.478	4238
806.62	4192
806.762	4207
806.904	4318
807.046	4333
807.188	4234
807.33	4196
807.472	4276
807.614	4219
807.756	4230
807.898	4257
808.04	4246
808.182	4329
808.324	4333
808.465	4417
808.607	4485
808.749	4497
808.891	4466
809.033	4493
809.174	4440
809.316	4280
809.458	4284
809.6	4207
809.741	4147
809.883	4166
810.025	4215
810.166	4223
810.308	4200
810.45	4276
810.591	4257
810.733	4276
810.875	4523
811.016	4801
811.158	5189
811.299	5299
811.441	5292
811.582	5109
811.724	4691
811.865	4516
812.007	4459
812.148	4481
812.29	4421
812.431	4436
812.573	4421
812.714	4402
812.855	4443
812.997	4436
813.138	4493
813.279	4447
813.421	4402
813.562	4390
813.703	4344
813.845	4287
813.986	4291
814.127	4219
814.268	4272
814.41	4329
814.551	4287
814.692	4306
814.833	4276
814.974	4303
815.115	4371
815.256	4249
815.397	4265
815.539	4238
815.68	4207
815.821	4181
815.962	4303
816.103	4314
816.244	4280
816.385	4242
816.526	4322
816.666	4215
816.807	4143
816.948	4207
817.089	4207
817.23	4158
817.371	4071
817.512	4055
817.653	4109
817.793	4044
817.934	4048
818.075	4105
818.216	4124
818.356	4059
818.497	3998
818.638	3926
818.778	3945
818.919	3903
819.06	3846
819.2	3918
819.341	3846
819.481	3937
819.622	3922
819.762	4063
819.903	3941
820.043	3865
820.184	3808
820.324	3800
820.465	3880
820.605	3896
820.746	3865
820.886	3831
821.026	3945
821.167	3934
821.307	3964
821.447	4017
821.588	4006
821.728	3968
821.868	3918
822.008	3888
822.149	3926
822.289	3968
822.429	3842
822.569	3785
822.709	3835
822.849	3740
822.99	3709
823.13	3835
823.27	3770
823.41	3728
823.55	3747
823.69	3755
823.83	3762
823.97	3686
824.11	3629
824.25	3561
824.389	3656
824.529	3686
824.669	3660
824.809	3720
824.949	3774
825.089	3732
825.228	3701
825.368	3606
825.508	3576
825.648	3603
825.787	3652
825.927	3629
826.067	3606
826.206	3682
826.346	3789
826.485	3850
826.625	3884
826.765	3968
826.904	3804
827.044	3682
827.183	3561
827.323	3416
827.462	3542
827.601	3447
827.741	3458
827.88	3485
828.02	3393
828.159	3473
828.298	3492
828.437	3584
828.577	3488
828.716	3591
828.855	3507
828.994	3397
829.134	3420
829.273	3405
829.412	3374
829.551	3355
829.69	3367
829.829	3477
829.968	3523
830.107	3454
830.246	3477
830.385	3416
830.524	3405
830.663	3325
830.802	3249
830.941	3237
831.08	3195
831.219	3245
831.357	3253
831.496	3401
831.635	3256
831.774	3203
831.913	3256
832.051	3142
832.19	3161
832.329	3199
832.467	3176
832.606	3093
832.744	3173
832.883	3230
833.022	3203
833.16	3310
833.299	3291
833.437	3363
833.576	3420
833.714	3416
833.852	3485
833.991	3454
834.129	3450
834.267	3469
834.406	3420
834.544	3424
834.682	3443
834.821	3412
834.959	3587
835.097	3401
835.235	3553
835.373	3511
835.511	3481
835.65	3507
835.788	3507
835.926	3431
836.064	3405
836.202	3420
836.34	3576
836.478	3606
836.615	3580
836.753	3595
836.891	3648
837.029	3679
837.167	3561
837.305	3542
837.443	3561
837.58	3538
837.718	3606
837.856	3584
837.993	3545
838.131	3622
838.269	3599
838.406	3580
838.544	3584
838.681	3507
838.819	3466
838.956	3382
839.094	3397
839.231	3431
839.369	3485
839.506	3717
839.643	3633
839.781	3580
839.918	3443
840.055	3549
840.193	3538
840.33	3542
840.467	3553
840.604	3637
840.742	3838
840.879	3545
841.016	3584
841.153	3637
841.29	3698
841.427	3766
841.564	3759
841.701	3736
841.838	3698
841.975	3720
842.112	3724
842.249	3675
842.385	3663
842.522	3854
842.659	3747
842.796	3690
842.933	3743
843.069	3709
843.206	3724
843.343	3842
843.479	3797
843.616	3831
843.752	3648
843.889	3682
844.025	3831
844.162	3743
844.298	3850
844.435	3800
844.571	3838
844.708	3892
844.844	4006
844.98	4006
845.117	4010
845.253	3968
845.389	3907
845.525	3964
845.661	3979
845.798	3949
845.934	4051
846.07	3975
846.206	4063
846.342	4112
846.478	4086
846.614	3964
846.75	3953
846.886	3899
847.022	4013
847.158	4006
847.294	4044
847.429	4032
847.565	4010
847.701	4230
847.837	3903
847.972	3892
848.108	3994
848.244	3975
848.379	3857
848.515	3854
848.65	3812
848.786	3865
848.921	3869
849.057	3907
849.192	3956
849.328	3926
849.463	3941
849.598	3903
849.734	3857
849.869	3865
850.004	3823
850.14	3819
850.275	3778
850.41	3751
850.545	3766
850.68	3797
850.815	3846
850.95	3781
851.085	3987
851.22	3899
851.355	3861
851.49	3835
851.625	3762
851.76	3804
851.895	3804
852.03	3808
852.165	3835
852.299	3842
852.434	3926
852.569	3884
852.703	3918
852.838	3953
852.973	3994
853.107	4006
853.242	3896
853.376	3854
853.511	3736
853.645	3819
853.78	3972
853.914	3911
854.048	3934
854.183	3869
854.317	3972
854.451	4090
854.585	3979
854.72	4036
854.854	4048
854.988	3953
855.122	4063
855.256	3960
855.39	4021
855.524	4109
855.658	4097
855.792	4158
855.926	4150
856.06	4162
856.194	4207
856.327	4150
856.461	4147
856.595	4192
856.729	4204
856.862	4322
856.996	4249
857.13	4280
857.263	4398
857.397	4398
857.53	4295
857.664	4356
857.797	4432
857.931	4424
858.064	4371
858.197	4459
858.331	4417
858.464	4413
858.597	4405
858.731	4451
858.864	4478
858.997	4497
859.13	4500
859.263	4542
859.396	4634
859.529	4535
859.662	4565
859.795	4523
859.928	4645
860.061	4691
860.194	4748
860.327	4679
860.46	4698
860.592	4710
860.725	4805
860.858	4816
860.99	4668
861.123	4683
861.256	4733
861.388	4767
861.521	5398
861.653	4755
861.786	4660
861.918	4782
862.05	4809
862.183	4828
862.315	4892
862.447	4961
862.58	4904
862.712	4797
862.844	4763
862.976	4870
863.108	4889
863.24	5181
863.372	4816
863.504	4934
863.636	4896
863.768	5014
863.9	4980
864.032	4889
864.164	5010
864.296	5052
864.428	5128
864.559	5079
864.691	5140
864.823	5162
864.954	5136
865.086	5117
865.217	5124
865.349	5159
865.48	5201
865.612	5254
865.743	5345
865.875	5185
866.006	5299
866.137	5269
866.269	5246
866.4	5265
866.531	5235
866.662	5231
866.793	5269
866.924	5326
867.055	5315
867.186	5330
867.317	5315
867.448	5318
867.579	5414
867.71	5395
867.841	5410
867.972	5436
868.103	5478
868.233	5497
868.364	5452
868.495	5539
868.625	5661
868.756	5794
868.886	5703
869.017	5737
869.147	5885
869.278	5901
869.408	5824
869.539	5817
869.669	5954
869.799	5969
869.929	5996
870.06	6038
870.19	6178
870.32	6167
870.45	6254
870.58	6376
870.71	6407
870.84	6452
870.97	6464
871.1	6517
871.23	6741
871.36	6711
871.489	6669
871.619	6715
871.749	6814
871.879	6909
872.008	7015
872.138	6989
872.267	7042
872.397	7038
872.526	7088
872.656	7141
872.785	7206
872.915	7441
873.044	7552
873.173	7616
873.303	7597
873.432	7841
873.561	7856
873.69	7894
873.819	8054
873.948	8172
874.077	8195
874.206	8317
874.335	8465
874.464	8621
874.593	8807
874.722	8895
874.851	9214
874.979	9173
875.108	9348
875.237	9424
875.365	9439
875.494	9614
875.623	9880
875.751	9770
875.88	9911
876.008	10192
876.136	10329
876.265	10535
876.393	10694
876.521	10710
876.65	10790
876.778	10946
876.906	10915
877.034	10965
877.162	11102
877.29	11189
877.418	11322
877.546	11303
877.674	11402
877.802	11505
877.93	11600
878.058	11642
878.185	11532
878.313	11653
878.441	11752
878.568	11570
878.696	11786
878.824	11882
878.951	11897
879.079	12034
879.206	12194
879.333	12106
879.461	12064
879.588	12064
879.715	12072
879.842	12201
879.97	12064
880.097	11897
880.224	11824
880.351	11870
880.478	11912
880.605	11939
880.732	11836
880.859	12030
880.986	11840
881.112	11805
881.239	11741
881.366	11684
881.493	11642
881.619	11520
881.746	11684
881.872	11535
881.999	11528
882.125	11459
882.252	11547
882.378	11573
882.505	11554
882.631	11368
882.757	11284
882.883	11299
883.01	11208
883.136	11216
883.262	11113
883.388	11083
883.514	11109
883.64	11250
883.766	11109
883.892	11014
884.018	10972
884.143	11090
884.269	11109
884.395	10889
884.52	10782
884.646	10782
884.772	10698
884.897	10729
885.023	10687
885.148	10782
885.274	10748
885.399	10664
885.524	10710
885.65	10645
885.775	10656
885.9	10592
886.025	10618
886.15	10519
886.275	10451
886.4	10375
886.525	10379
886.65	10394
886.775	10367
886.9	10497
887.025	10519
887.149	10367
887.274	10185
887.399	10207
887.523	10192
887.648	10086
887.773	10139
887.897	10230
888.021	10207
888.146	10181
888.27	10238
888.395	10219
888.519	10177
888.643	10257
888.767	10230
888.891	10128
889.015	10040
889.139	10109
889.263	10124
889.387	10139
889.511	10154
889.635	10215
889.759	9979
889.883	9998
890.006	9983
890.13	10139
890.254	9922
890.377	9998
890.501	9899
890.624	9899
890.748	9869
890.871	9781
890.995	9800
891.118	9698
891.241	9789
891.364	9740
891.488	9827
891.611	9774
891.734	9751
891.857	9884
891.98	9698
892.103	9762
892.226	9717
892.349	9724
892.471	9572
892.594	9705
892.717	9641
892.839	9603
892.962	9606
893.085	9599
893.207	9576
893.33	9420
893.452	9530
893.575	9553
893.697	9450
893.819	9568
893.941	9629
894.064	9526
894.186	9492
894.308	9397
894.43	9515
894.552	9515
894.674	9511
894.796	9454
894.918	9382
895.04	9355
895.161	9424
895.283	9348
895.405	9264
895.526	9283
895.648	9260
895.769	9294
895.891	9233
896.012	9211
896.134	9245
896.255	9253
896.376	9081
896.498	9066
896.619	9108
896.74	9066
896.861	9100
896.982	9317
897.103	9355
897.224	9214
897.345	9074
897.466	9013
897.587	9119
897.708	9058
897.828	9089
897.949	8948
898.07	8864
898.19	8899
898.311	9020
898.431	8880
898.552	8941
898.672	8967
898.792	8906
898.913	8895
899.033	8781
899.153	8766
899.273	8655
899.393	8743
899.513	8811
899.633	8731
899.753	8792
899.873	8727
899.993	8807
900.113	8670
900.232	8682
900.352	8659
900.472	8705
900.591	8549
900.711	8670
900.83	8511
900.95	8636
901.069	8727
901.189	8575
901.308	8454
901.427	8396
901.546	8438
901.665	8438
901.784	8488
901.904	8339
902.023	8309
902.141	8244
902.26	8244
902.379	8366
902.498	8275
902.617	8172
902.735	8240
902.854	8336
902.973	8233
903.091	8168
903.21	8103
903.328	8187
903.446	8180
903.565	8039
903.683	8043
903.801	8084
903.919	8130
904.038	8123
904.156	7978
904.274	8073
904.392	8054
904.51	8024
904.627	8077
904.745	8100
904.863	8115
904.981	7913
905.098	7887
905.216	7879
905.334	7898
905.451	7894
905.569	7898
905.686	7909
905.803	7890
905.921	7784
906.038	7928
906.155	7856
906.272	7746
906.389	7761
906.506	7693
906.623	7628
906.74	7616
906.857	7525
906.974	7639
907.091	7685
907.208	7772
907.324	7628
907.441	7575
907.557	7537
907.674	7464
907.79	7335
907.907	7480
908.023	7480
908.139	7419
908.256	7411
908.372	7419
908.488	7369
908.604	7301
908.72	7247
908.836	7327
908.952	7282
909.068	7266
909.184	7373
909.3	7255
909.415	7308
909.531	7274
909.647	7107
909.762	7095
909.878	7095
909.993	7145
910.108	7080
910.224	7065
910.339	7149
910.454	7084
910.57	6985
910.685	6924
910.8	7164
910.915	7114
911.03	7000
911.145	6943
911.259	6935
911.374	6863
911.489	6829
911.604	6821
911.718	6726
911.833	6787
911.947	6631
912.062	6654
912.176	6753
912.291	6707
912.405	6738
912.519	6882
912.633	6844
912.748	6791
912.862	6722
912.976	6631
913.09	6570
913.204	6627
913.318	6604
913.431	6658
913.545	6707
913.659	6745
913.772	6620
913.886	6612
914	6551
914.113	6601
914.226	6665
914.34	6696
914.453	6525
914.566	6635
914.68	6551
914.793	6528
914.906	6486
915.019	6399
915.132	6380
915.245	6384
915.358	6437
915.47	6448
915.583	6448
915.696	6475
915.809	6467
915.921	6547
916.034	6460
916.146	6422
916.259	6376
916.371	6494
916.483	6460
916.595	6365
916.708	6391
916.82	6399
916.932	6441
917.044	6433
917.156	6384
917.268	6296
917.38	6388
917.491	6323
917.603	6395
917.715	6388
917.826	6407
917.938	6395
918.049	6289
918.161	6361
918.272	6502
918.384	6448
918.495	6369
918.606	6251
918.717	6194
918.828	6327
918.939	6292
919.05	6224
919.161	6220
919.272	6110
919.383	6167
919.494	6311
919.604	6448
919.715	6338
919.826	6194
919.936	6254
920.047	6372
920.157	6277
920.267	6467
920.378	6323
920.488	6319
920.598	6483
920.708	6551
920.818	6464
920.928	6475
921.038	6654
921.148	6578
921.258	6410
921.368	6346
921.477	6243
921.587	6213
921.697	6072
921.806	6201
921.916	6034
922.025	6007
922.134	5950
922.244	5893
922.353	5988
922.462	5901
922.571	5817
922.68	5699
922.789	5691
922.898	5714
923.007	5688
923.116	5722
923.224	5676
923.333	5707
923.442	5585
923.55	5570
923.659	5608
923.767	5657
923.876	5577
923.984	5570
924.092	5528
924.201	5562
924.309	5532
924.417	5577
924.525	5467
924.633	5512
924.741	6277
924.849	5364
924.956	5425
925.064	5398
925.172	5280
925.279	5341
925.387	5372
925.494	5326
925.602	5414
925.709	5463
925.816	5322
925.924	5376
926.031	5341
926.138	5315
926.245	5334
926.352	5273
926.459	5345
926.566	5379
926.673	5204
926.779	5204
926.886	5136
926.993	5041
927.099	5029
927.206	5006
927.312	4930
927.419	5075
927.525	4942
927.631	5003
927.737	4873
927.843	4866
927.95	4767
928.056	4877
928.162	4831
928.267	4889
928.373	5273
928.479	4873
928.585	4706
928.69	4778
928.796	4755
928.901	4660
929.007	4622
929.112	4710
929.218	4645
929.323	4615
929.428	4611
929.533	4706
929.638	4531
929.743	4565
929.848	4561
929.953	4538
930.058	4421
930.163	4337
930.267	4421
930.372	4443
930.477	4314
930.581	4447
930.685	4383
930.79	4318
930.894	4268
930.998	4303
931.103	4432
931.207	4150
931.311	4086
931.415	4036
931.519	3960
931.623	3937
