Data from glass_V78500241_1681.txt Node
Date: Wed Sep 01 19:26:09 CST 2021
User: usil
Spectrometer: V785-0024
Trigger mode: 0
Integration Time (sec): 4.000000E-1
Scans to average: 1
Nonlinearity correction enabled: false
Boxcar width: 0
Storing dark spectrum: false
XAxis mode: Wavelengths
Number of Pixels in Spectrum: 1024
>>>>>Begin Spectral Data<<<<<
801.071	3698
801.214	3785
801.356	3736
801.499	3740
801.641	3724
801.783	3759
801.926	3846
802.068	3819
802.211	3850
802.353	3880
802.496	3857
802.638	3888
802.78	3937
802.923	3975
803.065	3899
803.208	3846
803.35	3911
803.492	3926
803.635	3907
803.777	3800
803.919	3937
804.061	4128
804.204	3953
804.346	3968
804.488	3907
804.63	4036
804.773	3994
804.915	3987
805.057	4166
805.199	3991
805.341	4086
805.483	4124
805.626	4120
805.768	4097
805.91	4162
806.052	4211
806.194	4211
806.336	4341
806.478	4246
806.62	4192
806.762	4158
806.904	4246
807.046	4348
807.188	4265
807.33	4147
807.472	4242
807.614	4219
807.756	4246
807.898	4242
808.04	4230
808.182	4310
808.324	4322
808.465	4356
808.607	4443
808.749	4466
808.891	4497
809.033	4478
809.174	4417
809.316	4261
809.458	4253
809.6	4154
809.741	4120
809.883	4105
810.025	4219
810.166	4249
810.308	4257
810.45	4223
810.591	4261
810.733	4284
810.875	4535
811.016	4850
811.158	5102
811.299	5212
811.441	5269
811.582	5098
811.724	4694
811.865	4462
812.007	4459
812.148	4386
812.29	4402
812.431	4394
812.573	4371
812.714	4348
812.855	4417
812.997	4405
813.138	4500
813.279	4432
813.421	4386
813.562	4363
813.703	4310
813.845	4383
813.986	4219
814.127	4204
814.268	4280
814.41	4295
814.551	4253
814.692	4329
814.833	4272
814.974	4322
815.115	4367
815.256	4219
815.397	4284
815.539	4265
815.68	4181
815.821	4207
815.962	4360
816.103	4234
816.244	4246
816.385	4215
816.526	4299
816.666	4246
816.807	4097
816.948	4188
817.089	4188
817.23	4166
817.371	4059
817.512	4040
817.653	4055
817.793	4025
817.934	4048
818.075	4128
818.216	4051
818.356	4109
818.497	3998
818.638	3953
818.778	3945
818.919	3888
819.06	3846
819.2	3937
819.341	3838
819.481	3835
819.622	3934
819.762	4032
819.903	3934
820.043	3869
820.184	3819
820.324	3797
820.465	3850
820.605	3827
820.746	3880
820.886	3831
821.026	3911
821.167	3945
821.307	3964
821.447	3987
821.588	3899
821.728	3975
821.868	3960
822.008	3873
822.149	3911
822.289	3869
822.429	3797
822.569	3774
822.709	3808
822.849	3682
822.99	3740
823.13	3774
823.27	3766
823.41	3701
823.55	3728
823.69	3747
823.83	3759
823.97	3694
824.11	3595
824.25	3660
824.389	3690
824.529	3694
824.669	3644
824.809	3698
824.949	3720
825.089	3724
825.228	3717
825.368	3542
825.508	3561
825.648	3637
825.787	3599
825.927	3614
826.067	3625
826.206	3641
826.346	3800
826.485	3819
826.625	3838
826.765	3945
826.904	3842
827.044	3584
827.183	3549
827.323	3428
827.462	3515
827.601	3428
827.741	3416
827.88	3466
828.02	3367
828.159	3439
828.298	3477
828.437	3507
828.577	3477
828.716	3648
828.855	3507
828.994	3340
829.134	3393
829.273	3386
829.412	3367
829.551	3332
829.69	3329
829.829	3462
829.968	3485
830.107	3412
830.246	3435
830.385	3378
830.524	3386
830.663	3287
830.802	3256
830.941	3218
831.08	3214
831.219	3302
831.357	3298
831.496	3374
831.635	3226
831.774	3169
831.913	3188
832.051	3150
832.19	3150
832.329	3207
832.467	3142
832.606	3142
832.744	3188
832.883	3173
833.022	3176
833.16	3283
833.299	3294
833.437	3313
833.576	3370
833.714	3435
833.852	3443
833.991	3447
834.129	3485
834.267	3428
834.406	3405
834.544	3374
834.682	3424
834.821	3435
834.959	3564
835.097	3462
835.235	3530
835.373	3458
835.511	3492
835.65	3424
835.788	3477
835.926	3386
836.064	3409
836.202	3397
836.34	3568
836.478	3606
836.615	3519
836.753	3568
836.891	3667
837.029	3610
837.167	3580
837.305	3564
837.443	3553
837.58	3504
837.718	3576
837.856	3526
837.993	3549
838.131	3599
838.269	3591
838.406	3618
838.544	3572
838.681	3454
838.819	3435
838.956	3367
839.094	3393
839.231	3462
839.369	3507
839.506	3720
839.643	3629
839.781	3504
839.918	3435
840.055	3561
840.193	3542
840.33	3549
840.467	3553
840.604	3568
840.742	3781
840.879	3568
841.016	3542
841.153	3618
841.29	3701
841.427	3740
841.564	3751
841.701	3698
841.838	3713
841.975	3671
842.112	3694
842.249	3641
842.385	3644
842.522	3865
842.659	3660
842.796	3663
842.933	3732
843.069	3709
843.206	3698
843.343	3835
843.479	3800
843.616	3812
843.752	3637
843.889	3736
844.025	3869
844.162	3694
844.298	3869
844.435	3785
844.571	3766
844.708	3930
844.844	3968
844.98	4063
845.117	3979
845.253	3937
845.389	3918
845.525	3979
845.661	3960
845.798	3915
845.934	4013
846.07	3899
846.206	4032
846.342	4131
846.478	4071
846.614	3968
846.75	3945
846.886	3899
847.022	4017
847.158	3987
847.294	4040
847.429	4032
847.565	4029
847.701	4196
847.837	3892
847.972	3823
848.108	3956
848.244	3972
848.379	3876
848.515	3797
848.65	3797
848.786	3861
848.921	3865
849.057	3956
849.192	3979
849.328	3907
849.463	3941
849.598	3884
849.734	3804
849.869	3785
850.004	3781
850.14	3823
850.275	3747
850.41	3732
850.545	3720
850.68	3762
850.815	3778
850.95	3797
851.085	3945
851.22	3880
851.355	3857
851.49	3800
851.625	3789
851.76	3835
851.895	3740
852.03	3724
852.165	3781
852.299	3835
852.434	3934
852.569	3835
852.703	3907
852.838	3979
852.973	3964
853.107	3975
853.242	3861
853.376	3831
853.511	3797
853.645	3819
853.78	3945
853.914	3838
854.048	3907
854.183	3907
854.317	3987
854.451	4097
854.585	3926
854.72	3922
854.854	4021
854.988	3941
855.122	4044
855.256	3907
855.39	4048
855.524	4120
855.658	4086
855.792	4109
855.926	4101
856.06	4177
856.194	4192
856.327	4150
856.461	4090
856.595	4139
856.729	4162
856.862	4280
856.996	4230
857.13	4284
857.263	4356
857.397	4314
857.53	4291
857.664	4363
857.797	4363
857.931	4405
858.064	4367
858.197	4436
858.331	4413
858.464	4360
858.597	4348
858.731	4481
858.864	4455
858.997	4440
859.13	4519
859.263	4527
859.396	4561
859.529	4558
859.662	4516
859.795	4493
859.928	4558
860.061	4645
860.194	4721
860.327	4664
860.46	4679
860.592	4733
860.725	4725
860.858	4782
860.99	4698
861.123	4660
861.256	4752
861.388	4774
861.521	5383
861.653	4702
861.786	4691
861.918	4740
862.05	4812
862.183	4831
862.315	4900
862.447	4946
862.58	4919
862.712	4778
862.844	4801
862.976	4866
863.108	4892
863.24	5250
863.372	4843
863.504	4877
863.636	4881
863.768	4896
863.9	4957
864.032	4976
864.164	4946
864.296	5018
864.428	5075
864.559	5048
864.691	5204
864.823	5166
864.954	5140
865.086	5155
865.217	5079
865.349	5132
865.48	5151
865.612	5178
865.743	5239
865.875	5178
866.006	5239
866.137	5250
866.269	5208
866.4	5231
866.531	5239
866.662	5242
866.793	5296
866.924	5231
867.055	5337
867.186	5322
867.317	5330
867.448	5311
867.579	5387
867.71	5364
867.841	5372
867.972	5429
868.103	5433
868.233	5455
868.364	5535
868.495	5577
868.625	5638
868.756	5790
868.886	5691
869.017	5722
869.147	5847
869.278	5874
869.408	5737
869.539	5855
869.669	5927
869.799	5927
869.929	6053
870.06	6011
870.19	6243
870.32	6159
870.45	6216
870.58	6357
870.71	6410
870.84	6445
870.97	6410
871.1	6403
871.23	6623
871.36	6665
871.489	6681
871.619	6745
871.749	6798
871.879	6814
872.008	6989
872.138	6977
872.267	6966
872.397	6989
872.526	7034
872.656	7126
872.785	7221
872.915	7419
873.044	7502
873.173	7571
873.303	7636
873.432	7761
873.561	7841
873.69	7978
873.819	7989
873.948	8176
874.077	8271
874.206	8301
874.335	8465
874.464	8686
874.593	8883
874.722	8937
874.851	9127
874.979	9226
875.108	9367
875.237	9386
875.365	9466
875.494	9652
875.623	9888
875.751	9835
875.88	10082
876.008	10150
876.136	10215
876.265	10478
876.393	10626
876.521	10736
876.65	10828
876.778	10911
876.906	10858
877.034	10987
877.162	11037
877.29	11121
877.418	11345
877.546	11360
877.674	11364
877.802	11429
877.93	11455
878.058	11558
878.185	11562
878.313	11680
878.441	11756
878.568	11684
878.696	11916
878.824	11836
878.951	11931
879.079	11946
879.206	12129
879.333	12068
879.461	11992
879.588	12072
879.715	12110
879.842	12216
879.97	12095
880.097	11889
880.224	11885
880.351	11866
880.478	11904
880.605	11843
880.732	11885
880.859	11969
880.986	11882
881.112	11771
881.239	11809
881.366	11611
881.493	11707
881.619	11562
881.746	11509
881.872	11482
881.999	11524
882.125	11452
882.252	11554
882.378	11501
882.505	11589
882.631	11383
882.757	11239
882.883	11379
883.01	11307
883.136	11147
883.262	11143
883.388	10987
883.514	11223
883.64	11174
883.766	11079
883.892	11010
884.018	10980
884.143	11064
884.269	11090
884.395	10835
884.52	10843
884.646	10740
884.772	10733
884.897	10668
885.023	10660
885.148	10710
885.274	10721
885.399	10790
885.524	10653
885.65	10626
885.775	10558
885.9	10584
886.025	10565
886.15	10569
886.275	10455
886.4	10363
886.525	10398
886.65	10382
886.775	10291
886.9	10500
887.025	10459
887.149	10409
887.274	10131
887.399	10158
887.523	10204
887.648	10154
887.773	10169
887.897	10265
888.021	10173
888.146	10071
888.27	10207
888.395	10234
888.519	10173
888.643	10109
888.767	10124
888.891	10010
889.015	9968
889.139	10036
889.263	9949
889.387	10010
889.511	10147
889.635	10036
889.759	9968
889.883	9964
890.006	9983
890.13	10116
890.254	9956
890.377	9888
890.501	9888
890.624	9846
890.748	9892
890.871	9789
890.995	9808
891.118	9740
891.241	9812
891.364	9781
891.488	9854
891.611	9720
891.734	9686
891.857	9720
891.98	9713
892.103	9812
892.226	9690
892.349	9694
892.471	9545
892.594	9580
892.717	9568
892.839	9644
892.962	9561
893.085	9652
893.207	9622
893.33	9568
893.452	9469
893.575	9629
893.697	9428
893.819	9606
893.941	9584
894.064	9572
894.186	9374
894.308	9355
894.43	9545
894.552	9603
894.674	9469
894.796	9374
894.918	9367
895.04	9344
895.161	9370
895.283	9340
895.405	9268
895.526	9245
895.648	9230
895.769	9279
895.891	9150
896.012	9256
896.134	9272
896.255	9142
896.376	9066
896.498	9138
896.619	9195
896.74	9062
896.861	9135
896.982	9275
897.103	9275
897.224	9123
897.345	9116
897.466	9009
897.587	8998
897.708	9055
897.828	9097
897.949	8963
898.07	8914
898.19	8952
898.311	9005
898.431	8933
898.552	8899
898.672	9024
898.792	8868
898.913	8967
899.033	8895
899.153	8762
899.273	8667
899.393	8750
899.513	8705
899.633	8708
899.753	8735
899.873	8701
899.993	8712
900.113	8693
900.232	8670
900.352	8651
900.472	8537
900.591	8583
900.711	8613
900.83	8613
900.95	8648
901.069	8693
901.189	8575
901.308	8389
901.427	8408
901.546	8526
901.665	8499
901.784	8503
901.904	8381
902.023	8412
902.141	8229
902.26	8237
902.379	8256
902.498	8218
902.617	8191
902.735	8351
902.854	8275
902.973	8301
903.091	8161
903.21	8149
903.328	8119
903.446	8138
903.565	8069
903.683	8126
903.801	8062
903.919	8183
904.038	8092
904.156	8050
904.274	8073
904.392	7989
904.51	8065
904.627	8073
904.745	8081
904.863	8020
904.981	7940
905.098	7856
905.216	7883
905.334	7925
905.451	7879
905.569	7849
905.686	7894
905.803	7906
905.921	7795
906.038	7913
906.155	7807
906.272	7677
906.389	7712
906.506	7696
906.623	7651
906.74	7666
906.857	7544
906.974	7521
907.091	7639
907.208	7696
907.324	7658
907.441	7529
907.557	7422
907.674	7441
907.79	7422
907.907	7388
908.023	7472
908.139	7460
908.256	7365
908.372	7350
908.488	7362
908.604	7251
908.72	7240
908.836	7285
908.952	7217
909.068	7209
909.184	7331
909.3	7247
909.415	7312
909.531	7259
909.647	7107
909.762	7137
909.878	7095
909.993	7084
910.108	7126
910.224	7080
910.339	7095
910.454	7046
910.57	7008
910.685	6954
910.8	7160
910.915	7050
911.03	7061
911.145	6913
911.259	6871
911.374	6924
911.489	6837
911.604	6867
911.718	6730
911.833	6753
911.947	6665
912.062	6623
912.176	6639
912.291	6665
912.405	6635
912.519	6798
912.633	6814
912.748	6719
912.862	6734
912.976	6597
913.09	6525
913.204	6563
913.318	6646
913.431	6692
913.545	6665
913.659	6684
913.772	6669
913.886	6570
914	6517
914.113	6726
914.226	6616
914.34	6635
914.453	6544
914.566	6616
914.68	6570
914.793	6452
914.906	6372
915.019	6414
915.132	6361
915.245	6448
915.358	6395
915.47	6456
915.583	6475
915.696	6429
915.809	6547
915.921	6589
916.034	6372
916.146	6437
916.259	6395
916.371	6525
916.483	6426
916.595	6388
916.708	6410
916.82	6422
916.932	6365
917.044	6384
917.156	6376
917.268	6319
917.38	6323
917.491	6308
917.603	6346
917.715	6403
917.826	6433
917.938	6319
918.049	6235
918.161	6369
918.272	6441
918.384	6422
918.495	6315
918.606	6281
918.717	6220
918.828	6266
918.939	6285
919.05	6163
919.161	6254
919.272	6129
919.383	6136
919.494	6285
919.604	6441
919.715	6338
919.826	6194
919.936	6289
920.047	6331
920.157	6243
920.267	6441
920.378	6315
920.488	6311
920.598	6467
920.708	6612
920.818	6429
920.928	6475
921.038	6544
921.148	6559
921.258	6300
921.368	6296
921.477	6175
921.587	6175
921.697	6087
921.806	6194
921.916	6053
922.025	5912
922.134	5885
922.244	5866
922.353	5969
922.462	5836
922.571	5824
922.68	5672
922.789	5665
922.898	5741
923.007	5672
923.116	5718
923.224	5672
923.333	5608
923.442	5623
923.55	5589
923.659	5535
923.767	5680
923.876	5493
923.984	5577
924.092	5528
924.201	5520
924.309	5539
924.417	5573
924.525	5505
924.633	5455
924.741	6243
924.849	5364
924.956	5482
925.064	5330
925.172	5318
925.279	5284
925.387	5372
925.494	5372
925.602	5387
925.709	5379
925.816	5296
925.924	5341
926.031	5410
926.138	5337
926.245	5349
926.352	5254
926.459	5296
926.566	5330
926.673	5284
926.779	5124
926.886	5124
926.993	5022
927.099	5006
927.206	4953
927.312	4980
927.419	4999
927.525	5025
927.631	4968
927.737	4904
927.843	4847
927.95	4786
928.056	4831
928.162	4858
928.267	4812
928.373	5337
928.479	4854
928.585	4729
928.69	4748
928.796	4763
928.901	4691
929.007	4569
929.112	4660
929.218	4637
929.323	4615
929.428	4573
929.533	4683
929.638	4554
929.743	4569
929.848	4561
929.953	4527
930.058	4459
930.163	4322
930.267	4367
930.372	4421
930.477	4280
930.581	4405
930.685	4352
930.79	4261
930.894	4261
930.998	4242
931.103	4390
931.207	4105
931.311	4040
931.415	3998
931.519	3937
931.623	3937
