Data from glass_V78500241_2219.txt Node
Date: Wed Sep 01 19:29:52 CST 2021
User: usil
Spectrometer: V785-0024
Trigger mode: 0
Integration Time (sec): 4.000000E-1
Scans to average: 1
Nonlinearity correction enabled: false
Boxcar width: 0
Storing dark spectrum: false
XAxis mode: Wavelengths
Number of Pixels in Spectrum: 1024
>>>>>Begin Spectral Data<<<<<
801.071	3736
801.214	3759
801.356	3675
801.499	3705
801.641	3705
801.783	3804
801.926	3861
802.068	3819
802.211	3865
802.353	3857
802.496	3827
802.638	3854
802.78	3899
802.923	3873
803.065	3922
803.208	3835
803.35	3873
803.492	3953
803.635	3930
803.777	3800
803.919	3907
804.061	4154
804.204	4002
804.346	3884
804.488	3896
804.63	4025
804.773	4006
804.915	3991
805.057	4158
805.199	4006
805.341	4040
805.483	4128
805.626	4101
805.768	4063
805.91	4185
806.052	4261
806.194	4207
806.336	4333
806.478	4196
806.62	4124
806.762	4181
806.904	4227
807.046	4360
807.188	4192
807.33	4120
807.472	4249
807.614	4181
807.756	4227
807.898	4154
808.04	4211
808.182	4234
808.324	4314
808.465	4341
808.607	4451
808.749	4413
808.891	4440
809.033	4512
809.174	4417
809.316	4219
809.458	4253
809.6	4139
809.741	4086
809.883	4135
810.025	4192
810.166	4196
810.308	4238
810.45	4246
810.591	4272
810.733	4272
810.875	4500
811.016	4835
811.158	5140
811.299	5239
811.441	5254
811.582	5067
811.724	4672
811.865	4497
812.007	4459
812.148	4428
812.29	4405
812.431	4386
812.573	4402
812.714	4337
812.855	4417
812.997	4428
813.138	4470
813.279	4413
813.421	4337
813.562	4295
813.703	4318
813.845	4318
813.986	4234
814.127	4234
814.268	4261
814.41	4246
814.551	4219
814.692	4322
814.833	4242
814.974	4303
815.115	4322
815.256	4230
815.397	4200
815.539	4249
815.68	4230
815.821	4211
815.962	4314
816.103	4295
816.244	4234
816.385	4223
816.526	4284
816.666	4204
816.807	4078
816.948	4200
817.089	4166
817.23	4097
817.371	4021
817.512	4097
817.653	4025
817.793	4078
817.934	4067
818.075	4101
818.216	4090
818.356	4116
818.497	3987
818.638	3903
818.778	3861
818.919	3880
819.06	3865
819.2	3922
819.341	3842
819.481	3842
819.622	3918
819.762	4029
819.903	3941
820.043	3808
820.184	3831
820.324	3781
820.465	3823
820.605	3861
820.746	3838
820.886	3774
821.026	3915
821.167	3903
821.307	3926
821.447	3983
821.588	3975
821.728	3945
821.868	3915
822.008	3896
822.149	3937
822.289	3907
822.429	3766
822.569	3732
822.709	3770
822.849	3751
822.99	3766
823.13	3720
823.27	3812
823.41	3709
823.55	3686
823.69	3679
823.83	3717
823.97	3663
824.11	3599
824.25	3614
824.389	3671
824.529	3644
824.669	3652
824.809	3736
824.949	3732
825.089	3724
825.228	3679
825.368	3618
825.508	3545
825.648	3580
825.787	3599
825.927	3610
826.067	3610
826.206	3701
826.346	3759
826.485	3835
826.625	3838
826.765	3937
826.904	3793
827.044	3576
827.183	3523
827.323	3420
827.462	3447
827.601	3439
827.741	3393
827.88	3454
828.02	3374
828.159	3409
828.298	3485
828.437	3519
828.577	3443
828.716	3587
828.855	3496
828.994	3374
829.134	3344
829.273	3367
829.412	3344
829.551	3317
829.69	3359
829.829	3409
829.968	3504
830.107	3416
830.246	3458
830.385	3378
830.524	3313
830.663	3332
830.802	3233
830.941	3176
831.08	3188
831.219	3222
831.357	3241
831.496	3351
831.635	3241
831.774	3188
831.913	3161
832.051	3184
832.19	3184
832.329	3199
832.467	3123
832.606	3119
832.744	3154
832.883	3195
833.022	3203
833.16	3279
833.299	3291
833.437	3298
833.576	3363
833.714	3409
833.852	3420
833.991	3431
834.129	3466
834.267	3485
834.406	3374
834.544	3412
834.682	3439
834.821	3359
834.959	3572
835.097	3382
835.235	3511
835.373	3443
835.511	3466
835.65	3439
835.788	3523
835.926	3355
836.064	3348
836.202	3416
836.34	3591
836.478	3587
836.615	3511
836.753	3606
836.891	3648
837.029	3629
837.167	3549
837.305	3557
837.443	3523
837.58	3469
837.718	3576
837.856	3561
837.993	3519
838.131	3603
838.269	3603
838.406	3580
838.544	3538
838.681	3458
838.819	3412
838.956	3386
839.094	3340
839.231	3405
839.369	3523
839.506	3709
839.643	3603
839.781	3481
839.918	3450
840.055	3542
840.193	3519
840.33	3511
840.467	3561
840.604	3545
840.742	3808
840.879	3545
841.016	3545
841.153	3538
841.29	3743
841.427	3717
841.564	3698
841.701	3728
841.838	3698
841.975	3622
842.112	3713
842.249	3648
842.385	3637
842.522	3800
842.659	3701
842.796	3656
842.933	3709
843.069	3686
843.206	3694
843.343	3850
843.479	3759
843.616	3781
843.752	3660
843.889	3656
844.025	3850
844.162	3740
844.298	3781
844.435	3751
844.571	3720
844.708	3922
844.844	3968
844.98	4002
845.117	3994
845.253	3937
845.389	3915
845.525	3956
845.661	3972
845.798	3903
845.934	3983
846.07	3934
846.206	4029
846.342	4124
846.478	4025
846.614	4006
846.75	3922
846.886	3915
847.022	4021
847.158	3983
847.294	4017
847.429	4059
847.565	3956
847.701	4230
847.837	3880
847.972	3819
848.108	4002
848.244	3994
848.379	3850
848.515	3808
848.65	3812
848.786	3804
848.921	3869
849.057	3911
849.192	3911
849.328	3888
849.463	3945
849.598	3873
849.734	3865
849.869	3808
850.004	3751
850.14	3774
850.275	3759
850.41	3724
850.545	3705
850.68	3797
850.815	3816
850.95	3793
851.085	3903
851.22	3907
851.355	3804
851.49	3793
851.625	3797
851.76	3766
851.895	3747
852.03	3747
852.165	3785
852.299	3812
852.434	3831
852.569	3869
852.703	3827
852.838	3953
852.973	3987
853.107	4013
853.242	3861
853.376	3892
853.511	3717
853.645	3819
853.78	3960
853.914	3884
854.048	3857
854.183	3884
854.317	3930
854.451	4036
854.585	3934
854.72	3907
854.854	4093
854.988	3907
855.122	4013
855.256	3907
855.39	4021
855.524	4116
855.658	4109
855.792	4090
855.926	4101
856.06	4158
856.194	4169
856.327	4169
856.461	4093
856.595	4147
856.729	4128
856.862	4242
856.996	4227
857.13	4284
857.263	4322
857.397	4337
857.53	4280
857.664	4348
857.797	4352
857.931	4413
858.064	4402
858.197	4402
858.331	4421
858.464	4371
858.597	4371
858.731	4417
858.864	4478
858.997	4417
859.13	4451
859.263	4497
859.396	4607
859.529	4481
859.662	4523
859.795	4500
859.928	4596
860.061	4683
860.194	4733
860.327	4675
860.46	4634
860.592	4733
860.725	4721
860.858	4782
860.99	4721
861.123	4664
861.256	4653
861.388	4710
861.521	5448
861.653	4691
861.786	4668
861.918	4748
862.05	4797
862.183	4824
862.315	4900
862.447	4923
862.58	4866
862.712	4793
862.844	4782
862.976	4858
863.108	4835
863.24	5132
863.372	4839
863.504	4892
863.636	4892
863.768	4980
863.9	4946
864.032	4934
864.164	4934
864.296	5014
864.428	5117
864.559	5105
864.691	5128
864.823	5079
864.954	5094
865.086	5143
865.217	5121
865.349	5052
865.48	5197
865.612	5239
865.743	5280
865.875	5193
866.006	5227
866.137	5231
866.269	5235
866.4	5246
866.531	5227
866.662	5189
866.793	5246
866.924	5250
867.055	5330
867.186	5307
867.317	5372
867.448	5280
867.579	5353
867.71	5341
867.841	5372
867.972	5493
868.103	5459
868.233	5482
868.364	5512
868.495	5509
868.625	5638
868.756	5767
868.886	5684
869.017	5714
869.147	5855
869.278	5836
869.408	5828
869.539	5821
869.669	5954
869.799	5878
869.929	5954
870.06	6057
870.19	6194
870.32	6209
870.45	6258
870.58	6285
870.71	6456
870.84	6433
870.97	6429
871.1	6391
871.23	6703
871.36	6673
871.489	6608
871.619	6719
871.749	6738
871.879	6875
872.008	6996
872.138	7008
872.267	7008
872.397	6973
872.526	7053
872.656	7091
872.785	7183
872.915	7377
873.044	7559
873.173	7518
873.303	7582
873.432	7772
873.561	7894
873.69	7879
873.819	8043
873.948	8142
874.077	8187
874.206	8286
874.335	8480
874.464	8621
874.593	8826
874.722	8975
874.851	9108
874.979	9264
875.108	9374
875.237	9340
875.365	9519
875.494	9618
875.623	9873
875.751	9854
875.88	10040
876.008	10112
876.136	10223
876.265	10504
876.393	10717
876.521	10736
876.65	10812
876.778	10831
876.906	10881
877.034	10980
877.162	11083
877.29	11143
877.418	11269
877.546	11299
877.674	11433
877.802	11440
877.93	11532
878.058	11516
878.185	11539
878.313	11653
878.441	11722
878.568	11649
878.696	11786
878.824	11790
878.951	11923
879.079	11973
879.206	12163
879.333	12053
879.461	11969
879.588	12049
879.715	12133
879.842	12220
879.97	12079
880.097	11828
880.224	11878
880.351	11824
880.478	11821
880.605	11767
880.732	11802
880.859	11999
880.986	11817
881.112	11767
881.239	11672
881.366	11699
881.493	11589
881.619	11501
881.746	11543
881.872	11596
881.999	11467
882.125	11493
882.252	11615
882.378	11558
882.505	11585
882.631	11395
882.757	11292
882.883	11341
883.01	11242
883.136	11212
883.262	11121
883.388	11071
883.514	11166
883.64	11181
883.766	11060
883.892	11048
884.018	11052
884.143	11086
884.269	11102
884.395	10835
884.52	10721
884.646	10733
884.772	10717
884.897	10691
885.023	10694
885.148	10675
885.274	10714
885.399	10755
885.524	10660
885.65	10626
885.775	10569
885.9	10542
886.025	10580
886.15	10523
886.275	10493
886.4	10375
886.525	10398
886.65	10344
886.775	10356
886.9	10489
887.025	10451
887.149	10284
887.274	10169
887.399	10173
887.523	10158
887.648	10055
887.773	10090
887.897	10242
888.021	10211
888.146	10128
888.27	10204
888.395	10227
888.519	10177
888.643	10131
888.767	10177
888.891	10071
889.015	10036
889.139	10143
889.263	9930
889.387	10067
889.511	10147
889.635	10040
889.759	9911
889.883	9998
890.006	9968
890.13	10097
890.254	9937
890.377	9953
890.501	9888
890.624	9911
890.748	9953
890.871	9785
890.995	9778
891.118	9663
891.241	9720
891.364	9698
891.488	9835
891.611	9728
891.734	9732
891.857	9895
891.98	9698
892.103	9751
892.226	9778
892.349	9625
892.471	9443
892.594	9618
892.717	9652
892.839	9648
892.962	9561
893.085	9633
893.207	9587
893.33	9431
893.452	9534
893.575	9557
893.697	9538
893.819	9599
893.941	9629
894.064	9526
894.186	9450
894.308	9439
894.43	9481
894.552	9591
894.674	9511
894.796	9401
894.918	9393
895.04	9340
895.161	9386
895.283	9348
895.405	9294
895.526	9241
895.648	9249
895.769	9249
895.891	9253
896.012	9218
896.134	9135
896.255	9180
896.376	9150
896.498	9051
896.619	9180
896.74	9032
896.861	9161
896.982	9203
897.103	9310
897.224	9138
897.345	9028
897.466	9043
897.587	8998
897.708	9100
897.828	9119
897.949	8963
898.07	8872
898.19	8914
898.311	8994
898.431	8880
898.552	8948
898.672	8982
898.792	8918
898.913	8864
899.033	8773
899.153	8769
899.273	8708
899.393	8739
899.513	8754
899.633	8670
899.753	8739
899.873	8594
899.993	8754
900.113	8663
900.232	8625
900.352	8659
900.472	8610
900.591	8587
900.711	8625
900.83	8533
900.95	8678
901.069	8663
901.189	8499
901.308	8488
901.427	8400
901.546	8450
901.665	8423
901.784	8552
901.904	8434
902.023	8320
902.141	8263
902.26	8282
902.379	8282
902.498	8183
902.617	8149
902.735	8309
902.854	8248
902.973	8225
903.091	8111
903.21	8062
903.328	8134
903.446	8096
903.565	8020
903.683	8084
903.801	8027
903.919	8115
904.038	8180
904.156	8050
904.274	8092
904.392	7974
904.51	8039
904.627	7993
904.745	8096
904.863	8084
904.981	7986
905.098	7875
905.216	7875
905.334	7890
905.451	7898
905.569	7852
905.686	7951
905.803	7852
905.921	7799
906.038	7860
906.155	7795
906.272	7666
906.389	7696
906.506	7628
906.623	7620
906.74	7597
906.857	7476
906.974	7537
907.091	7704
907.208	7662
907.324	7647
907.441	7605
907.557	7495
907.674	7434
907.79	7346
907.907	7335
908.023	7400
908.139	7426
908.256	7362
908.372	7422
908.488	7305
908.604	7320
908.72	7217
908.836	7259
908.952	7236
909.068	7236
909.184	7301
909.3	7232
909.415	7331
909.531	7228
909.647	7149
909.762	7156
909.878	7076
909.993	7171
910.108	7080
910.224	7053
910.339	7107
910.454	6996
910.57	7023
910.685	6947
910.8	7175
910.915	7065
911.03	7076
911.145	6859
911.259	6852
911.374	6924
911.489	6802
911.604	6764
911.718	6707
911.833	6715
911.947	6658
912.062	6601
912.176	6665
912.291	6692
912.405	6700
912.519	6779
912.633	6886
912.748	6669
912.862	6669
912.976	6593
913.09	6570
913.204	6566
913.318	6582
913.431	6669
913.545	6692
913.659	6684
913.772	6623
913.886	6574
914	6483
914.113	6582
914.226	6608
914.34	6612
914.453	6467
914.566	6601
914.68	6506
914.793	6498
914.906	6388
915.019	6357
915.132	6388
915.245	6441
915.358	6445
915.47	6399
915.583	6475
915.696	6410
915.809	6506
915.921	6509
916.034	6475
916.146	6346
916.259	6342
916.371	6506
916.483	6422
916.595	6410
916.708	6429
916.82	6384
916.932	6342
917.044	6410
917.156	6441
917.268	6357
917.38	6346
917.491	6331
917.603	6338
917.715	6353
917.826	6426
917.938	6357
918.049	6220
918.161	6346
918.272	6376
918.384	6410
918.495	6315
918.606	6228
918.717	6209
918.828	6247
918.939	6296
919.05	6209
919.161	6292
919.272	6095
919.383	6049
919.494	6266
919.604	6376
919.715	6258
919.826	6201
919.936	6224
920.047	6308
920.157	6296
920.267	6376
920.378	6372
920.488	6220
920.598	6502
920.708	6513
920.818	6490
920.928	6517
921.038	6578
921.148	6563
921.258	6334
921.368	6311
921.477	6216
921.587	6175
921.697	6079
921.806	6152
921.916	6091
922.025	5908
922.134	5927
922.244	5824
922.353	5950
922.462	5866
922.571	5779
922.68	5699
922.789	5657
922.898	5691
923.007	5623
923.116	5745
923.224	5649
923.333	5619
923.442	5608
923.55	5611
923.659	5558
923.767	5611
923.876	5600
923.984	5573
924.092	5512
924.201	5566
924.309	5509
924.417	5585
924.525	5463
924.633	5490
924.741	6251
924.849	5349
924.956	5478
925.064	5330
925.172	5307
925.279	5307
925.387	5334
925.494	5303
925.602	5440
925.709	5406
925.816	5216
925.924	5318
926.031	5360
926.138	5299
926.245	5277
926.352	5269
926.459	5307
926.566	5322
926.673	5197
926.779	5132
926.886	5105
926.993	5041
927.099	4976
927.206	4987
927.312	4911
927.419	5045
927.525	4991
927.631	4984
927.737	4850
927.843	4873
927.95	4755
928.056	4847
928.162	4847
928.267	4847
928.373	5345
928.479	4881
928.585	4694
928.69	4752
928.796	4771
928.901	4698
929.007	4615
929.112	4637
929.218	4611
929.323	4592
929.428	4569
929.533	4660
929.638	4512
929.743	4500
929.848	4512
929.953	4447
930.058	4462
930.163	4371
930.267	4375
930.372	4466
930.477	4280
930.581	4474
930.685	4383
930.79	4200
930.894	4253
930.998	4192
931.103	4379
931.207	4109
931.311	4048
931.415	4002
931.519	3918
931.623	3930
