Data from glass_V78500241_1073.txt Node
Date: Wed Sep 01 19:21:56 CST 2021
User: usil
Spectrometer: V785-0024
Trigger mode: 0
Integration Time (sec): 4.000000E-1
Scans to average: 1
Nonlinearity correction enabled: false
Boxcar width: 0
Storing dark spectrum: false
XAxis mode: Wavelengths
Number of Pixels in Spectrum: 1024
>>>>>Begin Spectral Data<<<<<
801.071	3778
801.214	3774
801.356	3705
801.499	3785
801.641	3709
801.783	3766
801.926	3857
802.068	3838
802.211	3819
802.353	3884
802.496	3804
802.638	3899
802.78	3884
802.923	3949
803.065	3934
803.208	3846
803.35	3876
803.492	3888
803.635	3975
803.777	3812
803.919	3930
804.061	4215
804.204	3937
804.346	3983
804.488	3937
804.63	4051
804.773	3964
804.915	4006
805.057	4131
805.199	4048
805.341	4143
805.483	4082
805.626	4150
805.768	4071
805.91	4234
806.052	4211
806.194	4268
806.336	4325
806.478	4211
806.62	4185
806.762	4200
806.904	4299
807.046	4360
807.188	4177
807.33	4109
807.472	4257
807.614	4196
807.756	4257
807.898	4204
808.04	4249
808.182	4306
808.324	4333
808.465	4371
808.607	4447
808.749	4451
808.891	4455
809.033	4504
809.174	4413
809.316	4280
809.458	4246
809.6	4139
809.741	4166
809.883	4173
810.025	4234
810.166	4265
810.308	4238
810.45	4238
810.591	4238
810.733	4299
810.875	4542
811.016	4835
811.158	5140
811.299	5277
811.441	5307
811.582	5090
811.724	4687
811.865	4470
812.007	4478
812.148	4436
812.29	4455
812.431	4413
812.573	4436
812.714	4390
812.855	4428
812.997	4394
813.138	4485
813.279	4466
813.421	4390
813.562	4344
813.703	4314
813.845	4337
813.986	4291
814.127	4242
814.268	4284
814.41	4291
814.551	4306
814.692	4329
814.833	4284
814.974	4348
815.115	4344
815.256	4295
815.397	4223
815.539	4303
815.68	4215
815.821	4204
815.962	4303
816.103	4280
816.244	4246
816.385	4295
816.526	4352
816.666	4230
816.807	4078
816.948	4223
817.089	4173
817.23	4158
817.371	4078
817.512	4093
817.653	4071
817.793	4055
817.934	4082
818.075	4074
818.216	4093
818.356	4074
818.497	3991
818.638	3953
818.778	3918
818.919	3888
819.06	3918
819.2	3930
819.341	3873
819.481	3865
819.622	3934
819.762	3994
819.903	3934
820.043	3846
820.184	3861
820.324	3831
820.465	3907
820.605	3869
820.746	3903
820.886	3842
821.026	3991
821.167	3884
821.307	3994
821.447	3975
821.588	3934
821.728	3972
821.868	3949
822.008	3892
822.149	3896
822.289	3945
822.429	3789
822.569	3766
822.709	3823
822.849	3705
822.99	3720
823.13	3812
823.27	3781
823.41	3740
823.55	3743
823.69	3709
823.83	3766
823.97	3709
824.11	3641
824.25	3591
824.389	3648
824.529	3690
824.669	3595
824.809	3667
824.949	3751
825.089	3698
825.228	3713
825.368	3603
825.508	3618
825.648	3595
825.787	3633
825.927	3671
826.067	3660
826.206	3656
826.346	3816
826.485	3850
826.625	3880
826.765	3975
826.904	3812
827.044	3629
827.183	3561
827.323	3454
827.462	3496
827.601	3439
827.741	3428
827.88	3496
828.02	3431
828.159	3443
828.298	3496
828.437	3526
828.577	3466
828.716	3584
828.855	3553
828.994	3378
829.134	3386
829.273	3363
829.412	3348
829.551	3355
829.69	3359
829.829	3424
829.968	3515
830.107	3443
830.246	3431
830.385	3386
830.524	3374
830.663	3313
830.802	3275
830.941	3199
831.08	3203
831.219	3256
831.357	3241
831.496	3454
831.635	3264
831.774	3203
831.913	3192
832.051	3146
832.19	3146
832.329	3195
832.467	3154
832.606	3097
832.744	3176
832.883	3165
833.022	3199
833.16	3279
833.299	3332
833.437	3332
833.576	3359
833.714	3386
833.852	3458
833.991	3519
834.129	3496
834.267	3431
834.406	3374
834.544	3439
834.682	3447
834.821	3412
834.959	3610
835.097	3435
835.235	3534
835.373	3526
835.511	3507
835.65	3469
835.788	3504
835.926	3424
836.064	3424
836.202	3428
836.34	3568
836.478	3603
836.615	3568
836.753	3587
836.891	3660
837.029	3576
837.167	3576
837.305	3610
837.443	3526
837.58	3485
837.718	3610
837.856	3538
837.993	3534
838.131	3610
838.269	3599
838.406	3580
838.544	3625
838.681	3507
838.819	3450
838.956	3389
839.094	3393
839.231	3485
839.369	3526
839.506	3736
839.643	3587
839.781	3530
839.918	3519
840.055	3557
840.193	3561
840.33	3530
840.467	3584
840.604	3603
840.742	3812
840.879	3580
841.016	3530
841.153	3580
841.29	3793
841.427	3705
841.564	3728
841.701	3751
841.838	3709
841.975	3667
842.112	3709
842.249	3663
842.385	3648
842.522	3857
842.659	3698
842.796	3671
842.933	3743
843.069	3720
843.206	3698
843.343	3797
843.479	3789
843.616	3827
843.752	3648
843.889	3698
844.025	3896
844.162	3720
844.298	3903
844.435	3793
844.571	3800
844.708	3888
844.844	4006
844.98	4029
845.117	4017
845.253	3911
845.389	3911
845.525	3994
845.661	3972
845.798	3930
845.934	4048
846.07	3983
846.206	4101
846.342	4112
846.478	4048
846.614	3983
846.75	3922
846.886	3922
847.022	4040
847.158	3979
847.294	3979
847.429	4006
847.565	3994
847.701	4219
847.837	3865
847.972	3884
848.108	4013
848.244	3972
848.379	3873
848.515	3789
848.65	3827
848.786	3850
848.921	3857
849.057	3930
849.192	3960
849.328	3911
849.463	3934
849.598	3899
849.734	3876
849.869	3850
850.004	3800
850.14	3838
850.275	3808
850.41	3713
850.545	3774
850.68	3835
850.815	3785
850.95	3800
851.085	3911
851.22	3838
851.355	3804
851.49	3804
851.625	3778
851.76	3785
851.895	3751
852.03	3785
852.165	3778
852.299	3896
852.434	3918
852.569	3865
852.703	3911
852.838	3915
852.973	3987
853.107	3979
853.242	3888
853.376	3865
853.511	3812
853.645	3842
853.78	3960
853.914	3873
854.048	3915
854.183	3884
854.317	3968
854.451	4086
854.585	4006
854.72	3945
854.854	4093
854.988	3960
855.122	4025
855.256	3934
855.39	4010
855.524	4097
855.658	4048
855.792	4124
855.926	4139
856.06	4150
856.194	4265
856.327	4181
856.461	4166
856.595	4173
856.729	4185
856.862	4268
856.996	4268
857.13	4303
857.263	4344
857.397	4325
857.53	4287
857.664	4394
857.797	4394
857.931	4432
858.064	4356
858.197	4447
858.331	4409
858.464	4375
858.597	4344
858.731	4481
858.864	4459
858.997	4493
859.13	4542
859.263	4550
859.396	4584
859.529	4569
859.662	4546
859.795	4550
859.928	4611
860.061	4748
860.194	4725
860.327	4702
860.46	4653
860.592	4763
860.725	4771
860.858	4771
860.99	4698
861.123	4702
861.256	4736
861.388	4748
861.521	5425
861.653	4759
861.786	4729
861.918	4782
862.05	4824
862.183	4831
862.315	4938
862.447	4919
862.58	4870
862.712	4763
862.844	4774
862.976	4911
863.108	4911
863.24	5288
863.372	4881
863.504	4957
863.636	4946
863.768	5010
863.9	4980
864.032	4923
864.164	4968
864.296	5006
864.428	5064
864.559	5094
864.691	5140
864.823	5102
864.954	5147
865.086	5124
865.217	5098
865.349	5075
865.48	5140
865.612	5261
865.743	5303
865.875	5216
866.006	5189
866.137	5239
866.269	5307
866.4	5277
866.531	5246
866.662	5231
866.793	5280
866.924	5284
867.055	5353
867.186	5360
867.317	5368
867.448	5337
867.579	5376
867.71	5360
867.841	5364
867.972	5535
868.103	5501
868.233	5512
868.364	5520
868.495	5547
868.625	5623
868.756	5760
868.886	5646
869.017	5790
869.147	5840
869.278	5840
869.408	5779
869.539	5832
869.669	5942
869.799	5935
869.929	6003
870.06	5996
870.19	6197
870.32	6182
870.45	6270
870.58	6331
870.71	6414
870.84	6456
870.97	6418
871.1	6498
871.23	6635
871.36	6726
871.489	6665
871.619	6779
871.749	6818
871.879	6806
872.008	7008
872.138	6993
872.267	7053
872.397	7050
872.526	7122
872.656	7141
872.785	7240
872.915	7384
873.044	7506
873.173	7632
873.303	7613
873.432	7772
873.561	7925
873.69	7936
873.819	8005
873.948	8134
874.077	8282
874.206	8358
874.335	8434
874.464	8663
874.593	8872
874.722	8910
874.851	9081
874.979	9222
875.108	9439
875.237	9420
875.365	9504
875.494	9644
875.623	9812
875.751	9823
875.88	10048
876.008	10090
876.136	10299
876.265	10596
876.393	10763
876.521	10812
876.65	10820
876.778	10889
876.906	10949
877.034	11056
877.162	11067
877.29	11128
877.418	11307
877.546	11299
877.674	11448
877.802	11497
877.93	11581
878.058	11524
878.185	11547
878.313	11771
878.441	11756
878.568	11623
878.696	11843
878.824	11779
878.951	11988
879.079	12057
879.206	12175
879.333	12030
879.461	11996
879.588	12129
879.715	12182
879.842	12224
879.97	12068
880.097	11893
880.224	11992
880.351	11935
880.478	11935
880.605	11885
880.732	11859
880.859	11969
880.986	11847
881.112	11851
881.239	11695
881.366	11661
881.493	11676
881.619	11505
881.746	11558
881.872	11573
881.999	11490
882.125	11410
882.252	11543
882.378	11543
882.505	11608
882.631	11311
882.757	11239
882.883	11364
883.01	11353
883.136	11140
883.262	11136
883.388	11117
883.514	11197
883.64	11212
883.766	11121
883.892	10938
884.018	11048
884.143	11067
884.269	11239
884.395	10881
884.52	10767
884.646	10824
884.772	10691
884.897	10683
885.023	10721
885.148	10694
885.274	10771
885.399	10736
885.524	10622
885.65	10615
885.775	10675
885.9	10584
886.025	10622
886.15	10558
886.275	10493
886.4	10394
886.525	10424
886.65	10367
886.775	10382
886.9	10481
887.025	10596
887.149	10329
887.274	10261
887.399	10230
887.523	10162
887.648	10181
887.773	10139
887.897	10227
888.021	10211
888.146	10143
888.27	10192
888.395	10128
888.519	10207
888.643	10162
888.767	10169
888.891	10086
889.015	10032
889.139	10032
889.263	9934
889.387	10067
889.511	10112
889.635	10029
889.759	9968
889.883	10017
890.006	9968
890.13	10032
890.254	9991
890.377	9964
890.501	9876
890.624	9895
890.748	9888
890.871	9747
890.995	9876
891.118	9694
891.241	9728
891.364	9698
891.488	9895
891.611	9705
891.734	9724
891.857	9785
891.98	9759
892.103	9751
892.226	9762
892.349	9755
892.471	9549
892.594	9591
892.717	9694
892.839	9603
892.962	9637
893.085	9660
893.207	9690
893.33	9523
893.452	9424
893.575	9679
893.697	9515
893.819	9591
893.941	9705
894.064	9595
894.186	9393
894.308	9435
894.43	9477
894.552	9606
894.674	9504
894.796	9359
894.918	9420
895.04	9332
895.161	9279
895.283	9412
895.405	9249
895.526	9344
895.648	9325
895.769	9245
895.891	9260
896.012	9253
896.134	9173
896.255	9154
896.376	9104
896.498	9154
896.619	9127
896.74	9135
896.861	9039
896.982	9241
897.103	9310
897.224	9245
897.345	9100
897.466	9020
897.587	9077
897.708	9108
897.828	9070
897.949	8899
898.07	8861
898.19	8887
898.311	9032
898.431	8963
898.552	8971
898.672	8998
898.792	8948
898.913	8910
899.033	8800
899.153	8697
899.273	8773
899.393	8773
899.513	8705
899.633	8773
899.753	8773
899.873	8678
899.993	8689
900.113	8781
900.232	8697
900.352	8655
900.472	8587
900.591	8571
900.711	8640
900.83	8514
900.95	8659
901.069	8750
901.189	8560
901.308	8473
901.427	8484
901.546	8408
901.665	8457
901.784	8522
901.904	8476
902.023	8324
902.141	8252
902.26	8214
902.379	8313
902.498	8267
902.617	8244
902.735	8313
902.854	8301
902.973	8218
903.091	8195
903.21	8138
903.328	8153
903.446	8145
903.565	8115
903.683	8062
903.801	8084
903.919	8187
904.038	8161
904.156	7944
904.274	8111
904.392	8016
904.51	8088
904.627	8046
904.745	8073
904.863	8123
904.981	7951
905.098	7887
905.216	7921
905.334	7936
905.451	7890
905.569	7959
905.686	7967
905.803	7890
905.921	7757
906.038	7879
906.155	7822
906.272	7807
906.389	7708
906.506	7655
906.623	7696
906.74	7723
906.857	7525
906.974	7666
907.091	7685
907.208	7769
907.324	7632
907.441	7597
907.557	7426
907.674	7438
907.79	7460
907.907	7457
908.023	7491
908.139	7400
908.256	7362
908.372	7411
908.488	7365
908.604	7335
908.72	7221
908.836	7324
908.952	7217
909.068	7305
909.184	7377
909.3	7251
909.415	7259
909.531	7259
909.647	7133
909.762	7141
909.878	7118
909.993	7099
910.108	7133
910.224	7046
910.339	7217
910.454	7065
910.57	7053
910.685	6989
910.8	7175
910.915	7156
911.03	7000
911.145	6886
911.259	6901
911.374	6863
911.489	6833
911.604	6783
911.718	6654
911.833	6757
911.947	6654
912.062	6669
912.176	6711
912.291	6700
912.405	6696
912.519	6787
912.633	6818
912.748	6707
912.862	6684
912.976	6582
913.09	6566
913.204	6604
913.318	6612
913.431	6631
913.545	6684
913.659	6753
913.772	6627
913.886	6585
914	6551
914.113	6597
914.226	6642
914.34	6616
914.453	6494
914.566	6616
914.68	6475
914.793	6532
914.906	6475
915.019	6433
915.132	6414
915.245	6460
915.358	6429
915.47	6486
915.583	6433
915.696	6517
915.809	6566
915.921	6532
916.034	6395
916.146	6380
916.259	6372
916.371	6437
916.483	6445
916.595	6384
916.708	6422
916.82	6395
916.932	6365
917.044	6418
917.156	6372
917.268	6357
917.38	6319
917.491	6338
917.603	6391
917.715	6426
917.826	6456
917.938	6292
918.049	6254
918.161	6353
918.272	6372
918.384	6410
918.495	6388
918.606	6220
918.717	6224
918.828	6281
918.939	6292
919.05	6247
919.161	6270
919.272	6175
919.383	6163
919.494	6281
919.604	6437
919.715	6311
919.826	6232
919.936	6247
920.047	6311
920.157	6308
920.267	6471
920.378	6384
920.488	6277
920.598	6407
920.708	6555
920.818	6490
920.928	6502
921.038	6642
921.148	6612
921.258	6311
921.368	6273
921.477	6194
921.587	6163
921.697	6098
921.806	6117
921.916	6087
922.025	5950
922.134	5901
922.244	5855
922.353	5954
922.462	5832
922.571	5798
922.68	5722
922.789	5676
922.898	5714
923.007	5680
923.116	5714
923.224	5737
923.333	5649
923.442	5661
923.55	5596
923.659	5547
923.767	5665
923.876	5577
923.984	5600
924.092	5535
924.201	5566
924.309	5562
924.417	5581
924.525	5429
924.633	5520
924.741	6270
924.849	5436
924.956	5474
925.064	5337
925.172	5337
925.279	5311
925.387	5387
925.494	5376
925.602	5467
925.709	5387
925.816	5345
925.924	5299
926.031	5406
926.138	5299
926.245	5299
926.352	5231
926.459	5288
926.566	5379
926.673	5201
926.779	5159
926.886	5136
926.993	4980
927.099	5048
927.206	4949
927.312	4972
927.419	5010
927.525	4980
927.631	4957
927.737	4896
927.843	4850
927.95	4809
928.056	4828
928.162	4862
928.267	4881
928.373	5406
928.479	4839
928.585	4694
928.69	4778
928.796	4752
928.901	4717
929.007	4626
929.112	4630
929.218	4649
929.323	4618
929.428	4554
929.533	4717
929.638	4569
929.743	4535
929.848	4588
929.953	4569
930.058	4398
930.163	4409
930.267	4379
930.372	4462
930.477	4348
930.581	4519
930.685	4371
930.79	4265
930.894	4314
930.998	4306
931.103	4413
931.207	4101
931.311	4109
931.415	4074
931.519	3960
931.623	3979
