Data from glass_V78500241_2236.txt Node
Date: Wed Sep 01 19:30:00 CST 2021
User: usil
Spectrometer: V785-0024
Trigger mode: 0
Integration Time (sec): 4.000000E-1
Scans to average: 1
Nonlinearity correction enabled: false
Boxcar width: 0
Storing dark spectrum: false
XAxis mode: Wavelengths
Number of Pixels in Spectrum: 1024
>>>>>Begin Spectral Data<<<<<
801.071	3732
801.214	3781
801.356	3713
801.499	3705
801.641	3694
801.783	3762
801.926	3880
802.068	3793
802.211	3880
802.353	3884
802.496	3831
802.638	3880
802.78	3907
802.923	3861
803.065	3884
803.208	3876
803.35	3850
803.492	3915
803.635	3930
803.777	3766
803.919	3937
804.061	4169
804.204	3983
804.346	3907
804.488	3937
804.63	4082
804.773	3949
804.915	3987
805.057	4059
805.199	4013
805.341	4067
805.483	4120
805.626	4116
805.768	4112
805.91	4242
806.052	4215
806.194	4207
806.336	4360
806.478	4249
806.62	4131
806.762	4196
806.904	4242
807.046	4363
807.188	4188
807.33	4169
807.472	4219
807.614	4166
807.756	4257
807.898	4200
808.04	4230
808.182	4280
808.324	4318
808.465	4379
808.607	4440
808.749	4421
808.891	4436
809.033	4516
809.174	4413
809.316	4280
809.458	4238
809.6	4105
809.741	4147
809.883	4147
810.025	4181
810.166	4230
810.308	4166
810.45	4238
810.591	4230
810.733	4310
810.875	4451
811.016	4824
811.158	5094
811.299	5235
811.441	5292
811.582	5075
811.724	4733
811.865	4500
812.007	4447
812.148	4443
812.29	4413
812.431	4421
812.573	4329
812.714	4394
812.855	4390
812.997	4390
813.138	4481
813.279	4413
813.421	4352
813.562	4360
813.703	4310
813.845	4333
813.986	4268
814.127	4227
814.268	4268
814.41	4261
814.551	4242
814.692	4337
814.833	4253
814.974	4253
815.115	4318
815.256	4299
815.397	4188
815.539	4253
815.68	4154
815.821	4227
815.962	4322
816.103	4295
816.244	4234
816.385	4219
816.526	4276
816.666	4181
816.807	4109
816.948	4177
817.089	4177
817.23	4059
817.371	4074
817.512	4051
817.653	4090
817.793	4017
817.934	3991
818.075	4135
818.216	4040
818.356	4105
818.497	3991
818.638	3911
818.778	3896
818.919	3934
819.06	3865
819.2	3907
819.341	3850
819.481	3819
819.622	3888
819.762	3998
819.903	3911
820.043	3827
820.184	3797
820.324	3838
820.465	3884
820.605	3880
820.746	3842
820.886	3774
821.026	3899
821.167	3937
821.307	3983
821.447	3960
821.588	3934
821.728	3934
821.868	3930
822.008	3888
822.149	3934
822.289	3934
822.429	3785
822.569	3747
822.709	3778
822.849	3675
822.99	3690
823.13	3743
823.27	3759
823.41	3679
823.55	3751
823.69	3755
823.83	3743
823.97	3682
824.11	3660
824.25	3580
824.389	3641
824.529	3679
824.669	3606
824.809	3698
824.949	3732
825.089	3720
825.228	3682
825.368	3549
825.508	3584
825.648	3557
825.787	3610
825.927	3629
826.067	3603
826.206	3698
826.346	3736
826.485	3808
826.625	3816
826.765	3918
826.904	3812
827.044	3568
827.183	3530
827.323	3420
827.462	3477
827.601	3397
827.741	3431
827.88	3450
828.02	3382
828.159	3420
828.298	3477
828.437	3534
828.577	3545
828.716	3572
828.855	3462
828.994	3367
829.134	3348
829.273	3351
829.412	3336
829.551	3340
829.69	3374
829.829	3443
829.968	3492
830.107	3450
830.246	3454
830.385	3355
830.524	3359
830.663	3306
830.802	3222
830.941	3176
831.08	3188
831.219	3260
831.357	3222
831.496	3416
831.635	3207
831.774	3192
831.913	3169
832.051	3131
832.19	3161
832.329	3199
832.467	3169
832.606	3100
832.744	3169
832.883	3173
833.022	3184
833.16	3241
833.299	3298
833.437	3294
833.576	3374
833.714	3397
833.852	3435
833.991	3435
834.129	3473
834.267	3466
834.406	3397
834.544	3405
834.682	3416
834.821	3409
834.959	3610
835.097	3443
835.235	3545
835.373	3515
835.511	3481
835.65	3447
835.788	3504
835.926	3401
836.064	3370
836.202	3412
836.34	3576
836.478	3584
836.615	3523
836.753	3564
836.891	3644
837.029	3584
837.167	3591
837.305	3564
837.443	3488
837.58	3481
837.718	3595
837.856	3549
837.993	3530
838.131	3572
838.269	3584
838.406	3564
838.544	3538
838.681	3458
838.819	3462
838.956	3336
839.094	3351
839.231	3428
839.369	3511
839.506	3686
839.643	3656
839.781	3469
839.918	3447
840.055	3507
840.193	3488
840.33	3507
840.467	3523
840.604	3572
840.742	3785
840.879	3549
841.016	3553
841.153	3591
841.29	3740
841.427	3774
841.564	3675
841.701	3743
841.838	3694
841.975	3660
842.112	3690
842.249	3603
842.385	3629
842.522	3804
842.659	3686
842.796	3663
842.933	3686
843.069	3709
843.206	3717
843.343	3797
843.479	3751
843.616	3789
843.752	3622
843.889	3679
844.025	3850
844.162	3698
844.298	3846
844.435	3808
844.571	3808
844.708	3892
844.844	3926
844.98	3983
845.117	4010
845.253	3918
845.389	3896
845.525	3994
845.661	3964
845.798	3884
845.934	3994
846.07	3930
846.206	4048
846.342	4093
846.478	4063
846.614	3972
846.75	3903
846.886	3876
847.022	4032
847.158	3983
847.294	3972
847.429	4017
847.565	3987
847.701	4246
847.837	3861
847.972	3850
848.108	3991
848.244	3949
848.379	3888
848.515	3838
848.65	3835
848.786	3857
848.921	3850
849.057	3918
849.192	3907
849.328	3880
849.463	3926
849.598	3850
849.734	3819
849.869	3846
850.004	3793
850.14	3785
850.275	3793
850.41	3770
850.545	3740
850.68	3781
850.815	3831
850.95	3789
851.085	3903
851.22	3876
851.355	3804
851.49	3816
851.625	3762
851.76	3736
851.895	3728
852.03	3736
852.165	3789
852.299	3778
852.434	3888
852.569	3854
852.703	3854
852.838	3911
852.973	3975
853.107	4048
853.242	3896
853.376	3846
853.511	3778
853.645	3831
853.78	3968
853.914	3892
854.048	3892
854.183	3857
854.317	3949
854.451	4048
854.585	3922
854.72	3941
854.854	4002
854.988	3907
855.122	4010
855.256	3911
855.39	4017
855.524	4090
855.658	4090
855.792	4105
855.926	4192
856.06	4173
856.194	4196
856.327	4169
856.461	4116
856.595	4158
856.729	4192
856.862	4280
856.996	4238
857.13	4265
857.263	4322
857.397	4352
857.53	4246
857.664	4325
857.797	4398
857.931	4424
858.064	4383
858.197	4409
858.331	4405
858.464	4363
858.597	4306
858.731	4459
858.864	4493
858.997	4447
859.13	4504
859.263	4527
859.396	4542
859.529	4489
859.662	4504
859.795	4527
859.928	4573
860.061	4687
860.194	4740
860.327	4645
860.46	4664
860.592	4733
860.725	4755
860.858	4755
860.99	4714
861.123	4694
861.256	4679
861.388	4740
861.521	5402
861.653	4736
861.786	4702
861.918	4763
862.05	4759
862.183	4831
862.315	4923
862.447	4976
862.58	4919
862.712	4778
862.844	4729
862.976	4839
863.108	4870
863.24	5140
863.372	4858
863.504	4892
863.636	4862
863.768	4961
863.9	5006
864.032	4930
864.164	4995
864.296	5056
864.428	5014
864.559	5102
864.691	5079
864.823	5109
864.954	5128
865.086	5155
865.217	5166
865.349	5098
865.48	5124
865.612	5189
865.743	5246
865.875	5174
866.006	5155
866.137	5185
866.269	5216
866.4	5204
866.531	5242
866.662	5204
866.793	5235
866.924	5284
867.055	5326
867.186	5341
867.317	5303
867.448	5337
867.579	5398
867.71	5376
867.841	5391
867.972	5414
868.103	5429
868.233	5482
868.364	5482
868.495	5516
868.625	5646
868.756	5824
868.886	5680
869.017	5737
869.147	5832
869.278	5889
869.408	5794
869.539	5809
869.669	5954
869.799	5904
869.929	5916
870.06	6011
870.19	6190
870.32	6175
870.45	6194
870.58	6308
870.71	6395
870.84	6388
870.97	6422
871.1	6391
871.23	6570
871.36	6719
871.489	6711
871.619	6764
871.749	6734
871.879	6795
872.008	6947
872.138	6935
872.267	7000
872.397	6970
872.526	7023
872.656	7091
872.785	7171
872.915	7403
873.044	7495
873.173	7499
873.303	7632
873.432	7780
873.561	7871
873.69	7860
873.819	8008
873.948	8069
874.077	8214
874.206	8415
874.335	8404
874.464	8674
874.593	8800
874.722	8876
874.851	9112
874.979	9203
875.108	9374
875.237	9496
875.365	9431
875.494	9679
875.623	9728
875.751	9812
875.88	9994
876.008	10150
876.136	10287
876.265	10455
876.393	10694
876.521	10714
876.65	10790
876.778	10850
876.906	10923
877.034	11029
877.162	11178
877.29	11178
877.418	11258
877.546	11337
877.674	11463
877.802	11414
877.93	11596
878.058	11570
878.185	11608
878.313	11630
878.441	11771
878.568	11570
878.696	11840
878.824	11836
878.951	12041
879.079	12007
879.206	12167
879.333	11996
879.461	12030
879.588	12121
879.715	12060
879.842	12205
879.97	12022
880.097	11863
880.224	11927
880.351	11908
880.478	11965
880.605	11779
880.732	11847
880.859	11961
880.986	11813
881.112	11916
881.239	11779
881.366	11680
881.493	11642
881.619	11471
881.746	11543
881.872	11615
881.999	11558
882.125	11505
882.252	11478
882.378	11486
882.505	11471
882.631	11421
882.757	11284
882.883	11299
883.01	11201
883.136	11208
883.262	11140
883.388	11098
883.514	11170
883.64	11143
883.766	11132
883.892	11014
884.018	10934
884.143	11025
884.269	11143
884.395	10820
884.52	10755
884.646	10759
884.772	10790
884.897	10691
885.023	10664
885.148	10778
885.274	10774
885.399	10649
885.524	10584
885.65	10596
885.775	10588
885.9	10535
886.025	10626
886.15	10493
886.275	10417
886.4	10344
886.525	10386
886.65	10341
886.775	10337
886.9	10436
887.025	10478
887.149	10421
887.274	10215
887.399	10128
887.523	10204
887.648	10116
887.773	10128
887.897	10306
888.021	10249
888.146	10204
888.27	10249
888.395	10177
888.519	10169
888.643	10211
888.767	10154
888.891	10040
889.015	9964
889.139	10074
889.263	10002
889.387	10013
889.511	10086
889.635	10010
889.759	9987
889.883	10006
890.006	9991
890.13	10169
890.254	9915
890.377	9895
890.501	9880
890.624	9915
890.748	9842
890.871	9663
890.995	9747
891.118	9675
891.241	9686
891.364	9793
891.488	9808
891.611	9717
891.734	9770
891.857	9747
891.98	9694
892.103	9755
892.226	9747
892.349	9705
892.471	9553
892.594	9595
892.717	9564
892.839	9614
892.962	9625
893.085	9732
893.207	9614
893.33	9530
893.452	9561
893.575	9641
893.697	9534
893.819	9641
893.941	9568
894.064	9648
894.186	9450
894.308	9428
894.43	9447
894.552	9595
894.674	9576
894.796	9420
894.918	9397
895.04	9389
895.161	9340
895.283	9279
895.405	9253
895.526	9241
895.648	9260
895.769	9222
895.891	9218
896.012	9329
896.134	9214
896.255	9237
896.376	9131
896.498	9150
896.619	9131
896.74	9089
896.861	9017
896.982	9226
897.103	9302
897.224	9138
897.345	8967
897.466	8986
897.587	8994
897.708	9058
897.828	8967
897.949	8956
898.07	8853
898.19	8887
898.311	8952
898.431	8944
898.552	8982
898.672	8994
898.792	8925
898.913	8902
899.033	8777
899.153	8754
899.273	8625
899.393	8697
899.513	8708
899.633	8750
899.753	8781
899.873	8651
899.993	8659
900.113	8724
900.232	8746
900.352	8682
900.472	8541
900.591	8518
900.711	8621
900.83	8541
900.95	8682
901.069	8686
901.189	8606
901.308	8454
901.427	8404
901.546	8442
901.665	8431
901.784	8461
901.904	8438
902.023	8271
902.141	8168
902.26	8210
902.379	8309
902.498	8225
902.617	8221
902.735	8275
902.854	8233
902.973	8244
903.091	8103
903.21	8111
903.328	8126
903.446	8123
903.565	8050
903.683	8107
903.801	8054
903.919	8031
904.038	8134
904.156	8001
904.274	8065
904.392	8012
904.51	7967
904.627	7925
904.745	8084
904.863	8084
904.981	7871
905.098	7875
905.216	7822
905.334	7955
905.451	7864
905.569	7841
905.686	7967
905.803	7837
905.921	7769
906.038	7849
906.155	7822
906.272	7712
906.389	7715
906.506	7597
906.623	7609
906.74	7575
906.857	7510
906.974	7567
907.091	7696
907.208	7651
907.324	7586
907.441	7620
907.557	7464
907.674	7415
907.79	7419
907.907	7407
908.023	7430
908.139	7415
908.256	7339
908.372	7335
908.488	7324
908.604	7301
908.72	7206
908.836	7308
908.952	7263
909.068	7266
909.184	7228
909.3	7190
909.415	7247
909.531	7225
909.647	7072
909.762	7137
909.878	7038
909.993	7129
910.108	7042
910.224	7069
910.339	7129
910.454	7069
910.57	6985
910.685	6966
910.8	7133
910.915	7091
911.03	7008
911.145	6878
911.259	6901
911.374	6901
911.489	6863
911.604	6856
911.718	6707
911.833	6738
911.947	6669
912.062	6658
912.176	6696
912.291	6711
912.405	6669
912.519	6867
912.633	6886
912.748	6700
912.862	6722
912.976	6639
913.09	6490
913.204	6570
913.318	6604
913.431	6688
913.545	6673
913.659	6692
913.772	6646
913.886	6540
914	6506
914.113	6646
914.226	6589
914.34	6578
914.453	6525
914.566	6639
914.68	6513
914.793	6566
914.906	6357
915.019	6414
915.132	6308
915.245	6410
915.358	6422
915.47	6380
915.583	6479
915.696	6486
915.809	6521
915.921	6544
916.034	6376
916.146	6448
916.259	6384
916.371	6414
916.483	6452
916.595	6448
916.708	6399
916.82	6376
916.932	6350
917.044	6342
917.156	6376
917.268	6331
917.38	6331
917.491	6304
917.603	6350
917.715	6353
917.826	6376
917.938	6372
918.049	6281
918.161	6311
918.272	6395
918.384	6414
918.495	6342
918.606	6315
918.717	6239
918.828	6228
918.939	6220
919.05	6197
919.161	6277
919.272	6087
919.383	6186
919.494	6262
919.604	6460
919.715	6315
919.826	6228
919.936	6197
920.047	6327
920.157	6228
920.267	6429
920.378	6304
920.488	6273
920.598	6418
920.708	6540
920.818	6426
920.928	6456
921.038	6608
921.148	6525
921.258	6327
921.368	6353
921.477	6213
921.587	6155
921.697	6068
921.806	6155
921.916	6091
922.025	5935
922.134	5912
922.244	5927
922.353	5965
922.462	5813
922.571	5767
922.68	5680
922.789	5684
922.898	5726
923.007	5649
923.116	5699
923.224	5680
923.333	5684
923.442	5619
923.55	5520
923.659	5532
923.767	5630
923.876	5524
923.984	5611
924.092	5558
924.201	5532
924.309	5512
924.417	5554
924.525	5497
924.633	5471
924.741	6285
924.849	5341
924.956	5471
925.064	5311
925.172	5292
925.279	5326
925.387	5372
925.494	5345
925.602	5417
925.709	5349
925.816	5242
925.924	5292
926.031	5307
926.138	5318
926.245	5277
926.352	5227
926.459	5231
926.566	5330
926.673	5246
926.779	5136
926.886	5098
926.993	5018
927.099	4999
927.206	4965
927.312	4972
927.419	4995
927.525	4995
927.631	4949
927.737	4915
927.843	4858
927.95	4771
928.056	4790
928.162	4835
928.267	4763
928.373	5349
928.479	4885
928.585	4679
928.69	4812
928.796	4790
928.901	4725
929.007	4535
929.112	4683
929.218	4634
929.323	4561
929.428	4550
929.533	4641
929.638	4516
929.743	4493
929.848	4580
929.953	4527
930.058	4455
930.163	4348
930.267	4394
930.372	4417
930.477	4299
930.581	4443
930.685	4379
930.79	4234
930.894	4287
930.998	4249
931.103	4386
931.207	4086
931.311	4063
931.415	4032
931.519	3911
931.623	3956
