Data from glass_V78500241_607.txt Node
Date: Wed Sep 01 19:18:42 CST 2021
User: usil
Spectrometer: V785-0024
Trigger mode: 0
Integration Time (sec): 4.000000E-1
Scans to average: 1
Nonlinearity correction enabled: false
Boxcar width: 0
Storing dark spectrum: false
XAxis mode: Wavelengths
Number of Pixels in Spectrum: 1024
>>>>>Begin Spectral Data<<<<<
801.071	3743
801.214	3751
801.356	3720
801.499	3759
801.641	3762
801.783	3816
801.926	3857
802.068	3808
802.211	3835
802.353	3911
802.496	3865
802.638	3907
802.78	3911
802.923	3964
803.065	3880
803.208	3831
803.35	3888
803.492	3915
803.635	3926
803.777	3842
803.919	3903
804.061	4128
804.204	4017
804.346	3964
804.488	3949
804.63	4067
804.773	3968
804.915	4013
805.057	4150
805.199	4055
805.341	4112
805.483	4124
805.626	4150
805.768	4105
805.91	4246
806.052	4219
806.194	4181
806.336	4360
806.478	4265
806.62	4166
806.762	4207
806.904	4284
807.046	4318
807.188	4207
807.33	4101
807.472	4261
807.614	4257
807.756	4291
807.898	4246
808.04	4219
808.182	4287
808.324	4306
808.465	4375
808.607	4489
808.749	4497
808.891	4466
809.033	4481
809.174	4394
809.316	4242
809.458	4291
809.6	4177
809.741	4215
809.883	4105
810.025	4234
810.166	4219
810.308	4230
810.45	4257
810.591	4242
810.733	4337
810.875	4500
811.016	4835
811.158	5185
811.299	5261
811.441	5269
811.582	5052
811.724	4714
811.865	4447
812.007	4500
812.148	4443
812.29	4455
812.431	4402
812.573	4451
812.714	4436
812.855	4470
812.997	4443
813.138	4508
813.279	4409
813.421	4352
813.562	4367
813.703	4367
813.845	4356
813.986	4310
814.127	4234
814.268	4299
814.41	4306
814.551	4246
814.692	4306
814.833	4238
814.974	4314
815.115	4383
815.256	4284
815.397	4246
815.539	4299
815.68	4253
815.821	4204
815.962	4318
816.103	4276
816.244	4249
816.385	4227
816.526	4276
816.666	4211
816.807	4109
816.948	4162
817.089	4169
817.23	4131
817.371	4109
817.512	4090
817.653	4116
817.793	4036
817.934	4051
818.075	4105
818.216	4013
818.356	4116
818.497	3964
818.638	3896
818.778	3945
818.919	3922
819.06	3899
819.2	3926
819.341	3876
819.481	3869
819.622	3922
819.762	4036
819.903	4029
820.043	3896
820.184	3816
820.324	3842
820.465	3903
820.605	3846
820.746	3896
820.886	3804
821.026	3934
821.167	3926
821.307	4048
821.447	4051
821.588	3949
821.728	3979
821.868	3979
822.008	3888
822.149	3915
822.289	3937
822.429	3785
822.569	3778
822.709	3789
822.849	3698
822.99	3732
823.13	3770
823.27	3778
823.41	3755
823.55	3770
823.69	3713
823.83	3755
823.97	3724
824.11	3603
824.25	3625
824.389	3663
824.529	3701
824.669	3641
824.809	3732
824.949	3759
825.089	3747
825.228	3747
825.368	3587
825.508	3572
825.648	3584
825.787	3644
825.927	3644
826.067	3618
826.206	3660
826.346	3808
826.485	3884
826.625	3922
826.765	3964
826.904	3850
827.044	3644
827.183	3542
827.323	3469
827.462	3473
827.601	3428
827.741	3447
827.88	3488
828.02	3359
828.159	3469
828.298	3492
828.437	3561
828.577	3504
828.716	3606
828.855	3515
828.994	3405
829.134	3397
829.273	3416
829.412	3348
829.551	3370
829.69	3412
829.829	3435
829.968	3526
830.107	3473
830.246	3492
830.385	3416
830.524	3386
830.663	3306
830.802	3264
830.941	3237
831.08	3195
831.219	3298
831.357	3275
831.496	3409
831.635	3279
831.774	3218
831.913	3203
832.051	3146
832.19	3176
832.329	3233
832.467	3157
832.606	3123
832.744	3184
832.883	3146
833.022	3195
833.16	3241
833.299	3329
833.437	3397
833.576	3374
833.714	3435
833.852	3473
833.991	3469
834.129	3511
834.267	3466
834.406	3466
834.544	3443
834.682	3420
834.821	3443
834.959	3564
835.097	3462
835.235	3545
835.373	3485
835.511	3473
835.65	3477
835.788	3492
835.926	3397
836.064	3405
836.202	3447
836.34	3606
836.478	3614
836.615	3576
836.753	3637
836.891	3644
837.029	3644
837.167	3587
837.305	3580
837.443	3538
837.58	3519
837.718	3656
837.856	3572
837.993	3568
838.131	3618
838.269	3576
838.406	3572
838.544	3591
838.681	3488
838.819	3450
838.956	3405
839.094	3401
839.231	3447
839.369	3542
839.506	3747
839.643	3648
839.781	3515
839.918	3473
840.055	3564
840.193	3504
840.33	3542
840.467	3603
840.604	3618
840.742	3823
840.879	3591
841.016	3591
841.153	3633
841.29	3770
841.427	3724
841.564	3736
841.701	3785
841.838	3724
841.975	3690
842.112	3724
842.249	3629
842.385	3660
842.522	3842
842.659	3732
842.796	3701
842.933	3713
843.069	3698
843.206	3713
843.343	3823
843.479	3819
843.616	3861
843.752	3671
843.889	3686
844.025	3884
844.162	3743
844.298	3896
844.435	3793
844.571	3766
844.708	3876
844.844	3975
844.98	4029
845.117	4036
845.253	3964
845.389	3945
845.525	3964
845.661	3975
845.798	3975
845.934	4017
846.07	3941
846.206	4063
846.342	4135
846.478	4071
846.614	3983
846.75	3960
846.886	3953
847.022	4021
847.158	3972
847.294	4017
847.429	4032
847.565	3972
847.701	4242
847.837	3888
847.972	3892
848.108	4025
848.244	3994
848.379	3884
848.515	3846
848.65	3857
848.786	3827
848.921	3922
849.057	3918
849.192	3964
849.328	3888
849.463	3922
849.598	3857
849.734	3857
849.869	3797
850.004	3819
850.14	3816
850.275	3800
850.41	3759
850.545	3743
850.68	3781
850.815	3816
850.95	3774
851.085	3960
851.22	3892
851.355	3808
851.49	3808
851.625	3785
851.76	3808
851.895	3751
852.03	3766
852.165	3823
852.299	3854
852.434	3930
852.569	3884
852.703	3892
852.838	3953
852.973	3991
853.107	4032
853.242	3869
853.376	3884
853.511	3781
853.645	3831
853.78	3987
853.914	3911
854.048	3880
854.183	3903
854.317	3953
854.451	4051
854.585	3979
854.72	3941
854.854	4048
854.988	3975
855.122	4013
855.256	3907
855.39	4002
855.524	4120
855.658	4116
855.792	4090
855.926	4124
856.06	4139
856.194	4238
856.327	4124
856.461	4128
856.595	4158
856.729	4200
856.862	4272
856.996	4234
857.13	4306
857.263	4325
857.397	4402
857.53	4322
857.664	4386
857.797	4405
857.931	4436
858.064	4402
858.197	4459
858.331	4402
858.464	4367
858.597	4405
858.731	4417
858.864	4455
858.997	4443
859.13	4535
859.263	4512
859.396	4603
859.529	4519
859.662	4550
859.795	4466
859.928	4596
860.061	4698
860.194	4733
860.327	4679
860.46	4679
860.592	4748
860.725	4797
860.858	4782
860.99	4702
861.123	4691
861.256	4717
861.388	4797
861.521	5398
861.653	4679
861.786	4710
861.918	4820
862.05	4805
862.183	4885
862.315	4904
862.447	4987
862.58	4828
862.712	4812
862.844	4763
862.976	4866
863.108	4900
863.24	5265
863.372	4831
863.504	4896
863.636	4919
863.768	4984
863.9	5029
864.032	4984
864.164	4946
864.296	5025
864.428	5075
864.559	5105
864.691	5136
864.823	5124
864.954	5140
865.086	5147
865.217	5052
865.349	5094
865.48	5185
865.612	5223
865.743	5330
865.875	5227
866.006	5197
866.137	5273
866.269	5273
866.4	5246
866.531	5212
866.662	5212
866.793	5280
866.924	5288
867.055	5406
867.186	5299
867.317	5307
867.448	5341
867.579	5360
867.71	5391
867.841	5345
867.972	5410
868.103	5474
868.233	5486
868.364	5505
868.495	5486
868.625	5627
868.756	5805
868.886	5680
869.017	5710
869.147	5847
869.278	5870
869.408	5828
869.539	5802
869.669	5923
869.799	5954
869.929	5958
870.06	5984
870.19	6209
870.32	6205
870.45	6273
870.58	6418
870.71	6395
870.84	6525
870.97	6410
871.1	6486
871.23	6654
871.36	6738
871.489	6692
871.619	6802
871.749	6821
871.879	6890
872.008	6989
872.138	6989
872.267	7015
872.397	7023
872.526	7080
872.656	7057
872.785	7133
872.915	7422
873.044	7514
873.173	7556
873.303	7651
873.432	7753
873.561	7826
873.69	7917
873.819	8005
873.948	8153
874.077	8298
874.206	8332
874.335	8423
874.464	8701
874.593	8819
874.722	8872
874.851	9161
874.979	9256
875.108	9363
875.237	9473
875.365	9447
875.494	9614
875.623	9850
875.751	9819
875.88	10059
876.008	10105
876.136	10276
876.265	10519
876.393	10748
876.521	10710
876.65	10717
876.778	10881
876.906	10885
877.034	10961
877.162	11128
877.29	11201
877.418	11307
877.546	11284
877.674	11516
877.802	11467
877.93	11497
878.058	11657
878.185	11459
878.313	11665
878.441	11710
878.568	11642
878.696	11794
878.824	11847
878.951	11965
879.079	12072
879.206	12155
879.333	12064
879.461	11965
879.588	12076
879.715	12152
879.842	12235
879.97	12072
880.097	11878
880.224	11984
880.351	11942
880.478	11984
880.605	11897
880.732	11813
880.859	12095
880.986	11824
881.112	11843
881.239	11668
881.366	11634
881.493	11604
881.619	11509
881.746	11627
881.872	11532
881.999	11471
882.125	11471
882.252	11634
882.378	11512
882.505	11589
882.631	11421
882.757	11315
882.883	11303
883.01	11341
883.136	11189
883.262	11109
883.388	11094
883.514	11174
883.64	11220
883.766	11143
883.892	10984
884.018	11003
884.143	11143
884.269	11045
884.395	10938
884.52	10797
884.646	10831
884.772	10740
884.897	10679
885.023	10626
885.148	10782
885.274	10786
885.399	10748
885.524	10634
885.65	10550
885.775	10546
885.9	10607
886.025	10672
886.15	10584
886.275	10455
886.4	10489
886.525	10455
886.65	10398
886.775	10390
886.9	10462
887.025	10569
887.149	10322
887.274	10238
887.399	10173
887.523	10116
887.648	10162
887.773	10135
887.897	10261
888.021	10238
888.146	10192
888.27	10192
888.395	10238
888.519	10204
888.643	10268
888.767	10173
888.891	10071
889.015	10051
889.139	10105
889.263	9998
889.387	10071
889.511	10090
889.635	10090
889.759	9983
889.883	9991
890.006	10029
890.13	10150
890.254	9991
890.377	9949
890.501	9797
890.624	9907
890.748	9918
890.871	9831
890.995	9762
891.118	9720
891.241	9827
891.364	9694
891.488	9876
891.611	9717
891.734	9747
891.857	9831
891.98	9793
892.103	9732
892.226	9671
892.349	9713
892.471	9507
892.594	9584
892.717	9633
892.839	9660
892.962	9572
893.085	9629
893.207	9584
893.33	9473
893.452	9568
893.575	9648
893.697	9580
893.819	9587
893.941	9637
894.064	9606
894.186	9386
894.308	9435
894.43	9568
894.552	9591
894.674	9496
894.796	9424
894.918	9370
895.04	9374
895.161	9443
895.283	9359
895.405	9245
895.526	9332
895.648	9272
895.769	9241
895.891	9264
896.012	9325
896.134	9241
896.255	9108
896.376	9188
896.498	9157
896.619	9108
896.74	9100
896.861	9138
896.982	9291
897.103	9313
897.224	9199
897.345	9077
897.466	8971
897.587	9039
897.708	9135
897.828	9055
897.949	8944
898.07	8868
898.19	8921
898.311	9043
898.431	8876
898.552	8937
898.672	9005
898.792	8963
898.913	8960
899.033	8800
899.153	8697
899.273	8644
899.393	8720
899.513	8754
899.633	8720
899.753	8754
899.873	8648
899.993	8766
900.113	8701
900.232	8716
900.352	8697
900.472	8632
900.591	8530
900.711	8667
900.83	8568
900.95	8746
901.069	8686
901.189	8594
901.308	8423
901.427	8317
901.546	8507
901.665	8473
901.784	8541
901.904	8343
902.023	8324
902.141	8225
902.26	8244
902.379	8313
902.498	8214
902.617	8168
902.735	8290
902.854	8336
902.973	8279
903.091	8119
903.21	8153
903.328	8142
903.446	8092
903.565	8062
903.683	8123
903.801	8084
903.919	8103
904.038	8145
904.156	8020
904.274	8123
904.392	8050
904.51	8016
904.627	8054
904.745	8134
904.863	8065
904.981	7974
905.098	7879
905.216	7921
905.334	7944
905.451	7883
905.569	7845
905.686	7982
905.803	7906
905.921	7822
906.038	7868
906.155	7818
906.272	7788
906.389	7723
906.506	7708
906.623	7586
906.74	7605
906.857	7582
906.974	7575
907.091	7750
907.208	7696
907.324	7609
907.441	7586
907.557	7518
907.674	7472
907.79	7403
907.907	7415
908.023	7514
908.139	7472
908.256	7430
908.372	7339
908.488	7377
908.604	7282
908.72	7194
908.836	7282
908.952	7270
909.068	7274
909.184	7301
909.3	7293
909.415	7327
909.531	7346
909.647	7122
909.762	7126
909.878	7091
909.993	7133
910.108	7084
910.224	7061
910.339	7080
910.454	7107
910.57	6985
910.685	6913
910.8	7164
910.915	7168
911.03	7019
911.145	6878
911.259	6890
911.374	6924
911.489	6810
911.604	6871
911.718	6719
911.833	6730
911.947	6700
912.062	6612
912.176	6707
912.291	6715
912.405	6757
912.519	6863
912.633	6814
912.748	6745
912.862	6722
912.976	6635
913.09	6509
913.204	6566
913.318	6642
913.431	6681
913.545	6741
913.659	6772
913.772	6620
913.886	6654
914	6540
914.113	6604
914.226	6700
914.34	6662
914.453	6528
914.566	6642
914.68	6490
914.793	6547
914.906	6426
915.019	6353
915.132	6410
915.245	6395
915.358	6506
915.47	6456
915.583	6475
915.696	6502
915.809	6506
915.921	6563
916.034	6441
916.146	6414
916.259	6418
916.371	6452
916.483	6452
916.595	6342
916.708	6429
916.82	6426
916.932	6426
917.044	6410
917.156	6426
917.268	6311
917.38	6334
917.491	6327
917.603	6391
917.715	6475
917.826	6441
917.938	6372
918.049	6209
918.161	6388
918.272	6418
918.384	6441
918.495	6323
918.606	6285
918.717	6258
918.828	6346
918.939	6292
919.05	6194
919.161	6228
919.272	6125
919.383	6167
919.494	6243
919.604	6441
919.715	6357
919.826	6243
919.936	6292
920.047	6414
920.157	6304
920.267	6448
920.378	6338
920.488	6292
920.598	6471
920.708	6528
920.818	6456
920.928	6475
921.038	6612
921.148	6612
921.258	6380
921.368	6331
921.477	6175
921.587	6201
921.697	6125
921.806	6216
921.916	6091
922.025	5946
922.134	5946
922.244	5931
922.353	5992
922.462	5809
922.571	5885
922.68	5729
922.789	5688
922.898	5688
923.007	5684
923.116	5767
923.224	5703
923.333	5649
923.442	5627
923.55	5627
923.659	5623
923.767	5649
923.876	5520
923.984	5615
924.092	5493
924.201	5532
924.309	5532
924.417	5551
924.525	5516
924.633	5562
924.741	6277
924.849	5360
924.956	5493
925.064	5368
925.172	5341
925.279	5334
925.387	5345
925.494	5337
925.602	5402
925.709	5368
925.816	5288
925.924	5288
926.031	5372
926.138	5337
926.245	5353
926.352	5212
926.459	5315
926.566	5311
926.673	5208
926.779	5113
926.886	5162
926.993	4984
927.099	4991
927.206	4987
927.312	5003
927.419	5041
927.525	4984
927.631	4972
927.737	4927
927.843	4854
927.95	4755
928.056	4809
928.162	4862
928.267	4866
928.373	5284
928.479	4843
928.585	4687
928.69	4767
928.796	4771
928.901	4687
929.007	4584
929.112	4668
929.218	4702
929.323	4626
929.428	4531
929.533	4672
929.638	4531
929.743	4565
929.848	4550
929.953	4535
930.058	4455
930.163	4402
930.267	4363
930.372	4436
930.477	4325
930.581	4478
930.685	4367
930.79	4261
930.894	4291
930.998	4287
931.103	4386
931.207	4128
931.311	4090
931.415	4067
931.519	3979
931.623	3972
