Data from glass_V78500241_1085.txt Node
Date: Wed Sep 01 19:22:01 CST 2021
User: usil
Spectrometer: V785-0024
Trigger mode: 0
Integration Time (sec): 4.000000E-1
Scans to average: 1
Nonlinearity correction enabled: false
Boxcar width: 0
Storing dark spectrum: false
XAxis mode: Wavelengths
Number of Pixels in Spectrum: 1024
>>>>>Begin Spectral Data<<<<<
801.071	3724
801.214	3770
801.356	3736
801.499	3740
801.641	3732
801.783	3751
801.926	3854
802.068	3842
802.211	3842
802.353	3876
802.496	3869
802.638	3911
802.78	3880
802.923	3956
803.065	3873
803.208	3846
803.35	3850
803.492	3907
803.635	3907
803.777	3800
803.919	3907
804.061	4196
804.204	3972
804.346	3987
804.488	3956
804.63	4048
804.773	3979
804.915	4051
805.057	4196
805.199	4086
805.341	4090
805.483	4112
805.626	4124
805.768	4112
805.91	4200
806.052	4227
806.194	4230
806.336	4322
806.478	4261
806.62	4211
806.762	4169
806.904	4257
807.046	4341
807.188	4238
807.33	4223
807.472	4291
807.614	4173
807.756	4257
807.898	4238
808.04	4227
808.182	4299
808.324	4348
808.465	4375
808.607	4474
808.749	4500
808.891	4478
809.033	4497
809.174	4398
809.316	4265
809.458	4230
809.6	4185
809.741	4169
809.883	4158
810.025	4227
810.166	4215
810.308	4242
810.45	4268
810.591	4253
810.733	4303
810.875	4542
811.016	4847
811.158	5151
811.299	5311
811.441	5299
811.582	5117
811.724	4702
811.865	4489
812.007	4478
812.148	4455
812.29	4424
812.431	4436
812.573	4402
812.714	4421
812.855	4436
812.997	4447
813.138	4470
813.279	4440
813.421	4424
813.562	4390
813.703	4394
813.845	4341
813.986	4276
814.127	4242
814.268	4291
814.41	4322
814.551	4314
814.692	4348
814.833	4246
814.974	4310
815.115	4333
815.256	4291
815.397	4268
815.539	4265
815.68	4185
815.821	4192
815.962	4356
816.103	4265
816.244	4207
816.385	4265
816.526	4280
816.666	4200
816.807	4124
816.948	4200
817.089	4181
817.23	4147
817.371	4055
817.512	4055
817.653	4082
817.793	4071
817.934	4036
818.075	4120
818.216	4048
818.356	4093
818.497	4040
818.638	3945
818.778	3884
818.919	3953
819.06	3899
819.2	3926
819.341	3850
819.481	3816
819.622	3930
819.762	3998
819.903	3998
820.043	3831
820.184	3827
820.324	3838
820.465	3869
820.605	3850
820.746	3903
820.886	3816
821.026	3937
821.167	3949
821.307	4021
821.447	3937
821.588	3960
821.728	3991
821.868	3983
822.008	3888
822.149	3975
822.289	3941
822.429	3755
822.569	3797
822.709	3812
822.849	3694
822.99	3740
823.13	3766
823.27	3816
823.41	3736
823.55	3740
823.69	3728
823.83	3816
823.97	3740
824.11	3606
824.25	3618
824.389	3641
824.529	3682
824.669	3644
824.809	3732
824.949	3774
825.089	3778
825.228	3713
825.368	3614
825.508	3587
825.648	3584
825.787	3591
825.927	3660
826.067	3618
826.206	3675
826.346	3835
826.485	3854
826.625	3903
826.765	3956
826.904	3846
827.044	3614
827.183	3545
827.323	3447
827.462	3492
827.601	3447
827.741	3466
827.88	3450
828.02	3420
828.159	3481
828.298	3488
828.437	3564
828.577	3458
828.716	3599
828.855	3523
828.994	3416
829.134	3397
829.273	3378
829.412	3340
829.551	3351
829.69	3367
829.829	3416
829.968	3549
830.107	3458
830.246	3420
830.385	3397
830.524	3317
830.663	3302
830.802	3298
830.941	3207
831.08	3237
831.219	3272
831.357	3260
831.496	3412
831.635	3233
831.774	3199
831.913	3188
832.051	3138
832.19	3135
832.329	3230
832.467	3176
832.606	3123
832.744	3150
832.883	3192
833.022	3184
833.16	3291
833.299	3329
833.437	3359
833.576	3382
833.714	3447
833.852	3405
833.991	3450
834.129	3469
834.267	3420
834.406	3409
834.544	3397
834.682	3431
834.821	3435
834.959	3534
835.097	3435
835.235	3542
835.373	3523
835.511	3519
835.65	3477
835.788	3530
835.926	3431
836.064	3405
836.202	3443
836.34	3545
836.478	3644
836.615	3572
836.753	3610
836.891	3652
837.029	3618
837.167	3584
837.305	3576
837.443	3591
837.58	3523
837.718	3610
837.856	3545
837.993	3545
838.131	3591
838.269	3584
838.406	3553
838.544	3576
838.681	3504
838.819	3485
838.956	3344
839.094	3378
839.231	3443
839.369	3515
839.506	3713
839.643	3644
839.781	3534
839.918	3496
840.055	3553
840.193	3553
840.33	3553
840.467	3526
840.604	3667
840.742	3823
840.879	3519
841.016	3595
841.153	3618
841.29	3740
841.427	3709
841.564	3747
841.701	3778
841.838	3713
841.975	3682
842.112	3717
842.249	3671
842.385	3622
842.522	3804
842.659	3705
842.796	3713
842.933	3698
843.069	3679
843.206	3690
843.343	3854
843.479	3785
843.616	3846
843.752	3667
843.889	3660
844.025	3896
844.162	3740
844.298	3838
844.435	3789
844.571	3789
844.708	3918
844.844	3975
844.98	4036
845.117	4029
845.253	3911
845.389	3888
845.525	3983
845.661	3983
845.798	3941
845.934	4010
846.07	3907
846.206	4067
846.342	4101
846.478	4097
846.614	3991
846.75	3949
846.886	3945
847.022	4025
847.158	3956
847.294	4074
847.429	4025
847.565	3998
847.701	4230
847.837	3907
847.972	3873
848.108	3991
848.244	3968
848.379	3869
848.515	3812
848.65	3823
848.786	3816
848.921	3899
849.057	3964
849.192	3930
849.328	3907
849.463	3907
849.598	3922
849.734	3846
849.869	3876
850.004	3854
850.14	3819
850.275	3816
850.41	3759
850.545	3747
850.68	3800
850.815	3816
850.95	3808
851.085	3964
851.22	3926
851.355	3812
851.49	3781
851.625	3793
851.76	3812
851.895	3736
852.03	3728
852.165	3793
852.299	3861
852.434	3934
852.569	3869
852.703	3884
852.838	3911
852.973	4006
853.107	4013
853.242	3926
853.376	3854
853.511	3743
853.645	3842
853.78	3979
853.914	3907
854.048	3926
854.183	3915
854.317	3945
854.451	4071
854.585	3991
854.72	3941
854.854	4078
854.988	3956
855.122	4002
855.256	3941
855.39	4055
855.524	4143
855.658	4116
855.792	4090
855.926	4169
856.06	4154
856.194	4211
856.327	4177
856.461	4139
856.595	4185
856.729	4200
856.862	4253
856.996	4322
857.13	4306
857.263	4284
857.397	4421
857.53	4322
857.664	4379
857.797	4417
857.931	4466
858.064	4417
858.197	4459
858.331	4390
858.464	4424
858.597	4348
858.731	4451
858.864	4470
858.997	4436
859.13	4508
859.263	4580
859.396	4618
859.529	4527
859.662	4546
859.795	4569
859.928	4603
860.061	4721
860.194	4755
860.327	4687
860.46	4641
860.592	4710
860.725	4759
860.858	4767
860.99	4710
861.123	4706
861.256	4736
861.388	4809
861.521	5429
861.653	4778
861.786	4694
861.918	4797
862.05	4847
862.183	4828
862.315	4930
862.447	4961
862.58	4885
862.712	4786
862.844	4752
862.976	4900
863.108	4908
863.24	5280
863.372	4801
863.504	4934
863.636	4847
863.768	4972
863.9	4984
864.032	4934
864.164	4961
864.296	4995
864.428	5083
864.559	5128
864.691	5166
864.823	5155
864.954	5121
865.086	5140
865.217	5166
865.349	5143
865.48	5170
865.612	5140
865.743	5288
865.875	5223
866.006	5189
866.137	5201
866.269	5216
866.4	5216
866.531	5246
866.662	5239
866.793	5284
866.924	5261
867.055	5299
867.186	5349
867.317	5315
867.448	5315
867.579	5379
867.71	5383
867.841	5330
867.972	5414
868.103	5474
868.233	5455
868.364	5501
868.495	5589
868.625	5661
868.756	5764
868.886	5680
869.017	5726
869.147	5855
869.278	5882
869.408	5844
869.539	5824
869.669	5893
869.799	5939
869.929	6011
870.06	5958
870.19	6186
870.32	6167
870.45	6277
870.58	6357
870.71	6471
870.84	6506
870.97	6414
871.1	6445
871.23	6665
871.36	6734
871.489	6707
871.619	6681
871.749	6871
871.879	6878
872.008	7027
872.138	6977
872.267	7046
872.397	6996
872.526	7027
872.656	7080
872.785	7175
872.915	7441
873.044	7464
873.173	7586
873.303	7651
873.432	7704
873.561	7841
873.69	7921
873.819	7997
873.948	8183
874.077	8237
874.206	8427
874.335	8461
874.464	8659
874.593	8868
874.722	8952
874.851	9077
874.979	9253
875.108	9351
875.237	9439
875.365	9424
875.494	9580
875.623	9819
875.751	9762
875.88	10105
876.008	10071
876.136	10287
876.265	10527
876.393	10744
876.521	10706
876.65	10850
876.778	10908
876.906	10866
877.034	11014
877.162	11102
877.29	11189
877.418	11330
877.546	11379
877.674	11433
877.802	11467
877.93	11509
878.058	11615
878.185	11512
878.313	11672
878.441	11767
878.568	11566
878.696	11764
878.824	11821
878.951	11897
879.079	12019
879.206	12201
879.333	12072
879.461	12030
879.588	12095
879.715	12102
879.842	12273
879.97	12049
880.097	11950
880.224	11923
880.351	11843
880.478	11889
880.605	11977
880.732	11726
880.859	12076
880.986	11855
881.112	11870
881.239	11752
881.366	11672
881.493	11585
881.619	11638
881.746	11600
881.872	11436
881.999	11505
882.125	11467
882.252	11547
882.378	11448
882.505	11600
882.631	11372
882.757	11360
882.883	11280
883.01	11269
883.136	11220
883.262	11109
883.388	11003
883.514	11216
883.64	11181
883.766	11166
883.892	10980
884.018	11022
884.143	11056
884.269	11117
884.395	10801
884.52	10774
884.646	10778
884.772	10634
884.897	10763
885.023	10691
885.148	10801
885.274	10748
885.399	10691
885.524	10698
885.65	10542
885.775	10603
885.9	10558
886.025	10615
886.15	10550
886.275	10519
886.4	10405
886.525	10432
886.65	10303
886.775	10314
886.9	10413
887.025	10493
887.149	10375
887.274	10192
887.399	10268
887.523	10242
887.648	10158
887.773	10112
887.897	10234
888.021	10234
888.146	10097
888.27	10249
888.395	10223
888.519	10207
888.643	10227
888.767	10238
888.891	10086
889.015	10048
889.139	10067
889.263	9979
889.387	10044
889.511	10105
889.635	10013
889.759	9930
889.883	9987
890.006	10036
890.13	10139
890.254	10029
890.377	9907
890.501	9831
890.624	9846
890.748	9876
890.871	9774
890.995	9747
891.118	9743
891.241	9797
891.364	9686
891.488	9895
891.611	9736
891.734	9808
891.857	9755
891.98	9732
892.103	9793
892.226	9724
892.349	9656
892.471	9538
892.594	9614
892.717	9701
892.839	9614
892.962	9610
893.085	9682
893.207	9652
893.33	9458
893.452	9534
893.575	9587
893.697	9530
893.819	9656
893.941	9610
894.064	9633
894.186	9443
894.308	9420
894.43	9595
894.552	9606
894.674	9504
894.796	9367
894.918	9458
895.04	9378
895.161	9397
895.283	9329
895.405	9260
895.526	9226
895.648	9264
895.769	9329
895.891	9211
896.012	9306
896.134	9241
896.255	9237
896.376	9116
896.498	9180
896.619	9142
896.74	9154
896.861	9150
896.982	9336
897.103	9378
897.224	9195
897.345	9074
897.466	8986
897.587	9043
897.708	9108
897.828	9081
897.949	8986
898.07	8944
898.19	8899
898.311	9009
898.431	8921
898.552	8967
898.672	8941
898.792	8941
898.913	8906
899.033	8811
899.153	8785
899.273	8678
899.393	8686
899.513	8686
899.633	8727
899.753	8766
899.873	8731
899.993	8701
900.113	8682
900.232	8701
900.352	8659
900.472	8568
900.591	8594
900.711	8602
900.83	8537
900.95	8617
901.069	8670
901.189	8651
901.308	8473
901.427	8396
901.546	8461
901.665	8484
901.784	8484
901.904	8381
902.023	8336
902.141	8279
902.26	8225
902.379	8282
902.498	8229
902.617	8237
902.735	8393
902.854	8317
902.973	8305
903.091	8126
903.21	8157
903.328	8103
903.446	8119
903.565	8103
903.683	8164
903.801	8126
903.919	8119
904.038	8206
904.156	8031
904.274	8100
904.392	8012
904.51	8077
904.627	8069
904.745	8043
904.863	8134
904.981	7925
905.098	7788
905.216	7902
905.334	7978
905.451	7928
905.569	7898
905.686	7963
905.803	7909
905.921	7772
906.038	7902
906.155	7780
906.272	7693
906.389	7708
906.506	7696
906.623	7655
906.74	7647
906.857	7582
906.974	7590
907.091	7700
907.208	7792
907.324	7601
907.441	7575
907.557	7491
907.674	7499
907.79	7449
907.907	7396
908.023	7430
908.139	7396
908.256	7384
908.372	7282
908.488	7354
908.604	7266
908.72	7297
908.836	7240
908.952	7228
909.068	7301
909.184	7324
909.3	7316
909.415	7263
909.531	7316
909.647	7145
909.762	7168
909.878	7042
909.993	7129
910.108	7107
910.224	7084
910.339	7122
910.454	7084
910.57	7027
910.685	6985
910.8	7198
910.915	7129
911.03	7012
911.145	6890
911.259	6856
911.374	6928
911.489	6875
911.604	6821
911.718	6696
911.833	6745
911.947	6601
912.062	6734
912.176	6696
912.291	6734
912.405	6703
912.519	6829
912.633	6833
912.748	6768
912.862	6757
912.976	6585
913.09	6597
913.204	6536
913.318	6620
913.431	6688
913.545	6703
913.659	6688
913.772	6665
913.886	6608
914	6589
914.113	6662
914.226	6696
914.34	6620
914.453	6498
914.566	6623
914.68	6536
914.793	6582
914.906	6369
915.019	6441
915.132	6384
915.245	6506
915.358	6467
915.47	6490
915.583	6403
915.696	6467
915.809	6509
915.921	6532
916.034	6407
916.146	6445
916.259	6445
916.371	6502
916.483	6486
916.595	6388
916.708	6391
916.82	6399
916.932	6380
917.044	6410
917.156	6342
917.268	6327
917.38	6353
917.491	6357
917.603	6338
917.715	6422
917.826	6395
917.938	6369
918.049	6232
918.161	6365
918.272	6517
918.384	6479
918.495	6270
918.606	6277
918.717	6213
918.828	6277
918.939	6281
919.05	6186
919.161	6266
919.272	6175
919.383	6201
919.494	6308
919.604	6422
919.715	6258
919.826	6209
919.936	6247
920.047	6331
920.157	6289
920.267	6410
920.378	6369
920.488	6342
920.598	6452
920.708	6563
920.818	6506
920.928	6536
921.038	6658
921.148	6589
921.258	6319
921.368	6296
921.477	6254
921.587	6213
921.697	6053
921.806	6159
921.916	6110
922.025	5996
922.134	5912
922.244	5878
922.353	5973
922.462	5859
922.571	5722
922.68	5726
922.789	5661
922.898	5695
923.007	5684
923.116	5714
923.224	5722
923.333	5646
923.442	5600
923.55	5471
923.659	5592
923.767	5619
923.876	5570
923.984	5600
924.092	5608
924.201	5547
924.309	5619
924.417	5589
924.525	5459
924.633	5535
924.741	6247
924.849	5410
924.956	5493
925.064	5379
925.172	5337
925.279	5322
925.387	5368
925.494	5334
925.602	5486
925.709	5429
925.816	5315
925.924	5307
926.031	5379
926.138	5280
926.245	5322
926.352	5235
926.459	5360
926.566	5330
926.673	5227
926.779	5128
926.886	5105
926.993	5052
927.099	5006
927.206	5006
927.312	4984
927.419	5025
927.525	4965
927.631	5033
927.737	4896
927.843	4934
927.95	4767
928.056	4816
928.162	4793
928.267	4889
928.373	5368
928.479	4866
928.585	4710
928.69	4816
928.796	4793
928.901	4683
929.007	4584
929.112	4694
929.218	4679
929.323	4637
929.428	4580
929.533	4687
929.638	4516
929.743	4596
929.848	4584
929.953	4554
930.058	4436
930.163	4371
930.267	4329
930.372	4447
930.477	4318
930.581	4462
930.685	4383
930.79	4261
930.894	4325
930.998	4287
931.103	4386
931.207	4082
931.311	4048
931.415	3998
931.519	3903
931.623	3994
