Data from glass_V78500241_2511.txt Node
Date: Wed Sep 01 19:31:54 CST 2021
User: usil
Spectrometer: V785-0024
Trigger mode: 0
Integration Time (sec): 4.000000E-1
Scans to average: 1
Nonlinearity correction enabled: false
Boxcar width: 0
Storing dark spectrum: false
XAxis mode: Wavelengths
Number of Pixels in Spectrum: 1024
>>>>>Begin Spectral Data<<<<<
801.071	3740
801.214	3743
801.356	3709
801.499	3724
801.641	3720
801.783	3797
801.926	3861
802.068	3808
802.211	3827
802.353	3835
802.496	3842
802.638	3838
802.78	3888
802.923	3968
803.065	3892
803.208	3835
803.35	3861
803.492	3903
803.635	3915
803.777	3785
803.919	3869
804.061	4128
804.204	3953
804.346	3960
804.488	3934
804.63	4025
804.773	3956
804.915	4025
805.057	4143
805.199	4048
805.341	4093
805.483	4150
805.626	4150
805.768	4101
805.91	4204
806.052	4242
806.194	4219
806.336	4329
806.478	4207
806.62	4169
806.762	4185
806.904	4268
807.046	4310
807.188	4238
807.33	4200
807.472	4227
807.614	4177
807.756	4287
807.898	4246
808.04	4196
808.182	4284
808.324	4306
808.465	4333
808.607	4447
808.749	4421
808.891	4440
809.033	4485
809.174	4383
809.316	4227
809.458	4188
809.6	4109
809.741	4166
809.883	4116
810.025	4158
810.166	4200
810.308	4188
810.45	4257
810.591	4204
810.733	4284
810.875	4497
811.016	4771
811.158	5166
811.299	5227
811.441	5284
811.582	5109
811.724	4694
811.865	4504
812.007	4455
812.148	4428
812.29	4413
812.431	4348
812.573	4398
812.714	4363
812.855	4428
812.997	4329
813.138	4447
813.279	4383
813.421	4379
813.562	4409
813.703	4306
813.845	4310
813.986	4227
814.127	4196
814.268	4265
814.41	4272
814.551	4234
814.692	4329
814.833	4238
814.974	4314
815.115	4344
815.256	4280
815.397	4234
815.539	4223
815.68	4150
815.821	4249
815.962	4284
816.103	4265
816.244	4227
816.385	4200
816.526	4257
816.666	4181
816.807	4131
816.948	4154
817.089	4150
817.23	4105
817.371	4055
817.512	4044
817.653	4078
817.793	3979
817.934	4055
818.075	4071
818.216	4021
818.356	4063
818.497	3968
818.638	3926
818.778	3892
818.919	3876
819.06	3842
819.2	3892
819.341	3854
819.481	3800
819.622	3899
819.762	4032
819.903	3994
820.043	3842
820.184	3808
820.324	3835
820.465	3850
820.605	3850
820.746	3880
820.886	3770
821.026	3918
821.167	3888
821.307	3937
821.447	4002
821.588	3953
821.728	3926
821.868	3903
822.008	3884
822.149	3896
822.289	3888
822.429	3797
822.569	3698
822.709	3778
822.849	3686
822.99	3694
823.13	3717
823.27	3797
823.41	3694
823.55	3717
823.69	3728
823.83	3686
823.97	3656
824.11	3614
824.25	3618
824.389	3622
824.529	3663
824.669	3641
824.809	3698
824.949	3740
825.089	3743
825.228	3682
825.368	3595
825.508	3561
825.648	3545
825.787	3606
825.927	3610
826.067	3606
826.206	3679
826.346	3774
826.485	3838
826.625	3846
826.765	3937
826.904	3835
827.044	3603
827.183	3542
827.323	3435
827.462	3500
827.601	3416
827.741	3374
827.88	3428
828.02	3389
828.159	3431
828.298	3473
828.437	3542
828.577	3450
828.716	3625
828.855	3439
828.994	3351
829.134	3348
829.273	3405
829.412	3332
829.551	3321
829.69	3348
829.829	3420
829.968	3496
830.107	3389
830.246	3462
830.385	3397
830.524	3317
830.663	3291
830.802	3241
830.941	3165
831.08	3192
831.219	3260
831.357	3260
831.496	3370
831.635	3214
831.774	3180
831.913	3188
832.051	3119
832.19	3112
832.329	3207
832.467	3138
832.606	3104
832.744	3157
832.883	3112
833.022	3241
833.16	3272
833.299	3245
833.437	3302
833.576	3332
833.714	3359
833.852	3405
833.991	3462
834.129	3477
834.267	3447
834.406	3389
834.544	3439
834.682	3405
834.821	3389
834.959	3534
835.097	3458
835.235	3504
835.373	3485
835.511	3507
835.65	3416
835.788	3466
835.926	3370
836.064	3344
836.202	3389
836.34	3610
836.478	3625
836.615	3549
836.753	3564
836.891	3629
837.029	3595
837.167	3545
837.305	3576
837.443	3538
837.58	3462
837.718	3561
837.856	3576
837.993	3507
838.131	3564
838.269	3561
838.406	3576
838.544	3538
838.681	3466
838.819	3488
838.956	3367
839.094	3382
839.231	3397
839.369	3488
839.506	3705
839.643	3610
839.781	3504
839.918	3420
840.055	3492
840.193	3549
840.33	3519
840.467	3557
840.604	3599
840.742	3819
840.879	3542
841.016	3599
841.153	3557
841.29	3732
841.427	3732
841.564	3682
841.701	3713
841.838	3694
841.975	3644
842.112	3701
842.249	3629
842.385	3584
842.522	3808
842.659	3694
842.796	3682
842.933	3694
843.069	3713
843.206	3686
843.343	3823
843.479	3789
843.616	3778
843.752	3641
843.889	3679
844.025	3850
844.162	3728
844.298	3880
844.435	3797
844.571	3755
844.708	3896
844.844	3987
844.98	3968
845.117	3987
845.253	3907
845.389	3907
845.525	3949
845.661	3930
845.798	3926
845.934	3983
846.07	3945
846.206	4101
846.342	4086
846.478	4029
846.614	3979
846.75	3896
846.886	3915
847.022	4002
847.158	3922
847.294	3991
847.429	4044
847.565	3975
847.701	4234
847.837	3880
847.972	3888
848.108	3968
848.244	3975
848.379	3846
848.515	3816
848.65	3793
848.786	3819
848.921	3819
849.057	3930
849.192	3937
849.328	3873
849.463	3934
849.598	3888
849.734	3850
849.869	3850
850.004	3785
850.14	3816
850.275	3751
850.41	3785
850.545	3766
850.68	3751
850.815	3823
850.95	3778
851.085	3937
851.22	3861
851.355	3854
851.49	3762
851.625	3766
851.76	3789
851.895	3732
852.03	3720
852.165	3747
852.299	3861
852.434	3880
852.569	3838
852.703	3888
852.838	3964
852.973	3930
853.107	3994
853.242	3876
853.376	3819
853.511	3747
853.645	3812
853.78	3972
853.914	3896
854.048	3884
854.183	3888
854.317	3941
854.451	4040
854.585	3956
854.72	3934
854.854	4048
854.988	3896
855.122	3991
855.256	3949
855.39	4036
855.524	4078
855.658	4055
855.792	4112
855.926	4097
856.06	4162
856.194	4181
856.327	4082
856.461	4105
856.595	4150
856.729	4150
856.862	4284
856.996	4192
857.13	4325
857.263	4295
857.397	4322
857.53	4291
857.664	4341
857.797	4383
857.931	4417
858.064	4371
858.197	4386
858.331	4390
858.464	4383
858.597	4341
858.731	4451
858.864	4451
858.997	4462
859.13	4516
859.263	4523
859.396	4538
859.529	4478
859.662	4531
859.795	4523
859.928	4542
860.061	4729
860.194	4744
860.327	4641
860.46	4649
860.592	4721
860.725	4725
860.858	4767
860.99	4694
861.123	4637
861.256	4679
861.388	4771
861.521	5330
861.653	4714
861.786	4660
861.918	4752
862.05	4809
862.183	4877
862.315	4858
862.447	4915
862.58	4881
862.712	4793
862.844	4767
862.976	4877
863.108	4862
863.24	5265
863.372	4854
863.504	4885
863.636	4885
863.768	4961
863.9	4957
864.032	4965
864.164	4927
864.296	5033
864.428	5064
864.559	5117
864.691	5136
864.823	5060
864.954	5140
865.086	5117
865.217	5056
865.349	5136
865.48	5124
865.612	5201
865.743	5277
865.875	5193
866.006	5193
866.137	5250
866.269	5170
866.4	5223
866.531	5269
866.662	5212
866.793	5265
866.924	5303
867.055	5307
867.186	5277
867.317	5307
867.448	5269
867.579	5357
867.71	5372
867.841	5383
867.972	5402
868.103	5436
868.233	5505
868.364	5452
868.495	5516
868.625	5630
868.756	5779
868.886	5668
869.017	5707
869.147	5817
869.278	5756
869.408	5767
869.539	5836
869.669	5847
869.799	5908
869.929	5935
870.06	6019
870.19	6235
870.32	6190
870.45	6182
870.58	6331
870.71	6391
870.84	6422
870.97	6384
871.1	6433
871.23	6570
871.36	6650
871.489	6658
871.619	6696
871.749	6814
871.879	6901
872.008	6951
872.138	7046
872.267	7008
872.397	7012
872.526	6966
872.656	7057
872.785	7194
872.915	7430
873.044	7472
873.173	7552
873.303	7616
873.432	7731
873.561	7921
873.69	7917
873.819	7986
873.948	8142
874.077	8294
874.206	8358
874.335	8385
874.464	8670
874.593	8849
874.722	8952
874.851	9089
874.979	9211
875.108	9378
875.237	9466
875.365	9500
875.494	9610
875.623	9770
875.751	9823
875.88	9991
876.008	10116
876.136	10200
876.265	10535
876.393	10721
876.521	10755
876.65	10752
876.778	10858
876.906	10869
877.034	11060
877.162	11052
877.29	11132
877.418	11284
877.546	11391
877.674	11433
877.802	11463
877.93	11558
878.058	11471
878.185	11596
878.313	11661
878.441	11718
878.568	11741
878.696	11813
878.824	11885
878.951	11939
879.079	12011
879.206	12121
879.333	12079
879.461	11950
879.588	12003
879.715	12068
879.842	12133
879.97	12079
880.097	11764
880.224	11786
880.351	11931
880.478	11908
880.605	11824
880.732	11783
880.859	11969
880.986	11843
881.112	11828
881.239	11764
881.366	11684
881.493	11600
881.619	11532
881.746	11516
881.872	11532
881.999	11493
882.125	11448
882.252	11471
882.378	11356
882.505	11486
882.631	11322
882.757	11212
882.883	11395
883.01	11246
883.136	11155
883.262	11071
883.388	11086
883.514	11216
883.64	11113
883.766	11121
883.892	10999
884.018	10946
884.143	11060
884.269	11083
884.395	10904
884.52	10717
884.646	10824
884.772	10679
884.897	10588
885.023	10698
885.148	10767
885.274	10733
885.399	10694
885.524	10637
885.65	10626
885.775	10558
885.9	10565
886.025	10637
886.15	10577
886.275	10546
886.4	10432
886.525	10386
886.65	10405
886.775	10337
886.9	10413
887.025	10478
887.149	10337
887.274	10158
887.399	10257
887.523	10204
887.648	10147
887.773	10131
887.897	10204
888.021	10234
888.146	10162
888.27	10257
888.395	10200
888.519	10120
888.643	10032
888.767	10238
888.891	10032
889.015	10017
889.139	10021
889.263	9972
889.387	10082
889.511	10078
889.635	10063
889.759	9895
889.883	9956
890.006	9998
890.13	10051
890.254	10017
890.377	9937
890.501	9835
890.624	9846
890.748	9842
890.871	9854
890.995	9717
891.118	9667
891.241	9713
891.364	9743
891.488	9816
891.611	9694
891.734	9667
891.857	9740
891.98	9686
892.103	9709
892.226	9686
892.349	9705
892.471	9454
892.594	9564
892.717	9644
892.839	9561
892.962	9599
893.085	9701
893.207	9629
893.33	9515
893.452	9462
893.575	9519
893.697	9439
893.819	9614
893.941	9580
894.064	9591
894.186	9477
894.308	9450
894.43	9519
894.552	9538
894.674	9526
894.796	9382
894.918	9382
895.04	9397
895.161	9348
895.283	9359
895.405	9237
895.526	9237
895.648	9230
895.769	9306
895.891	9283
896.012	9294
896.134	9211
896.255	9127
896.376	9108
896.498	9123
896.619	9131
896.74	9036
896.861	9150
896.982	9317
897.103	9275
897.224	9165
897.345	9047
897.466	8975
897.587	9020
897.708	9112
897.828	9017
897.949	8921
898.07	8834
898.19	8792
898.311	8948
898.431	8864
898.552	8960
898.672	9005
898.792	8925
898.913	8872
899.033	8739
899.153	8739
899.273	8632
899.393	8731
899.513	8727
899.633	8716
899.753	8716
899.873	8640
899.993	8724
900.113	8701
900.232	8689
900.352	8621
900.472	8522
900.591	8556
900.711	8621
900.83	8518
900.95	8651
901.069	8613
901.189	8545
901.308	8438
901.427	8396
901.546	8427
901.665	8488
901.784	8530
901.904	8396
902.023	8275
902.141	8180
902.26	8161
902.379	8362
902.498	8145
902.617	8237
902.735	8263
902.854	8229
902.973	8298
903.091	8073
903.21	8096
903.328	8077
903.446	8039
903.565	8054
903.683	8054
903.801	8069
903.919	8103
904.038	8073
904.156	8012
904.274	8153
904.392	8016
904.51	8012
904.627	8024
904.745	8062
904.863	8096
904.981	7875
905.098	7833
905.216	7925
905.334	7913
905.451	7841
905.569	7864
905.686	7917
905.803	7826
905.921	7776
906.038	7883
906.155	7807
906.272	7674
906.389	7647
906.506	7636
906.623	7620
906.74	7609
906.857	7468
906.974	7620
907.091	7689
907.208	7769
907.324	7601
907.441	7571
907.557	7365
907.674	7441
907.79	7400
907.907	7445
908.023	7460
908.139	7464
908.256	7346
908.372	7381
908.488	7354
908.604	7209
908.72	7221
908.836	7221
908.952	7247
909.068	7194
909.184	7324
909.3	7209
909.415	7293
909.531	7266
909.647	7107
909.762	7042
909.878	7050
909.993	7107
910.108	7065
910.224	7027
910.339	7118
910.454	7053
910.57	7042
910.685	6928
910.8	7171
910.915	7133
911.03	6989
911.145	6825
911.259	6871
911.374	6867
911.489	6776
911.604	6814
911.718	6707
911.833	6719
911.947	6601
912.062	6639
912.176	6703
912.291	6711
912.405	6715
912.519	6821
912.633	6806
912.748	6760
912.862	6715
912.976	6589
913.09	6509
913.204	6547
913.318	6608
913.431	6696
913.545	6631
913.659	6703
913.772	6681
913.886	6559
914	6570
914.113	6582
914.226	6582
914.34	6582
914.453	6460
914.566	6578
914.68	6483
914.793	6509
914.906	6403
915.019	6410
915.132	6369
915.245	6452
915.358	6422
915.47	6403
915.583	6506
915.696	6410
915.809	6445
915.921	6578
916.034	6422
916.146	6433
916.259	6334
916.371	6456
916.483	6403
916.595	6334
916.708	6429
916.82	6365
916.932	6311
917.044	6331
917.156	6369
917.268	6273
917.38	6311
917.491	6285
917.603	6285
917.715	6399
917.826	6353
917.938	6270
918.049	6235
918.161	6353
918.272	6437
918.384	6346
918.495	6327
918.606	6228
918.717	6209
918.828	6254
918.939	6254
919.05	6197
919.161	6213
919.272	6072
919.383	6148
919.494	6327
919.604	6410
919.715	6270
919.826	6235
919.936	6213
920.047	6308
920.157	6270
920.267	6410
920.378	6365
920.488	6270
920.598	6357
920.708	6544
920.818	6357
920.928	6460
921.038	6563
921.148	6601
921.258	6365
921.368	6285
921.477	6213
921.587	6178
921.697	6136
921.806	6194
921.916	5977
922.025	5916
922.134	5901
922.244	5942
922.353	5958
922.462	5832
922.571	5817
922.68	5726
922.789	5729
922.898	5699
923.007	5642
923.116	5714
923.224	5642
923.333	5611
923.442	5596
923.55	5562
923.659	5539
923.767	5615
923.876	5547
923.984	5604
924.092	5493
924.201	5551
924.309	5512
924.417	5554
924.525	5486
924.633	5452
924.741	6239
924.849	5303
924.956	5463
925.064	5398
925.172	5277
925.279	5349
925.387	5303
925.494	5326
925.602	5414
925.709	5383
925.816	5299
925.924	5277
926.031	5360
926.138	5322
926.245	5318
926.352	5166
926.459	5311
926.566	5307
926.673	5220
926.779	5090
926.886	5147
926.993	4957
927.099	5003
927.206	4965
927.312	4938
927.419	5029
927.525	4980
927.631	4976
927.737	4889
927.843	4839
927.95	4793
928.056	4782
928.162	4820
928.267	4767
928.373	5239
928.479	4831
928.585	4668
928.69	4759
928.796	4714
928.901	4714
929.007	4573
929.112	4607
929.218	4649
929.323	4584
929.428	4580
929.533	4664
929.638	4519
929.743	4535
929.848	4455
929.953	4455
930.058	4421
930.163	4329
930.267	4272
930.372	4421
930.477	4280
930.581	4474
930.685	4363
930.79	4257
930.894	4306
930.998	4223
931.103	4360
931.207	4082
931.311	4086
931.415	4013
931.519	3926
931.623	3915
