Data from glass_V78500241_1349.txt Node
Date: Wed Sep 01 19:23:51 CST 2021
User: usil
Spectrometer: V785-0024
Trigger mode: 0
Integration Time (sec): 4.000000E-1
Scans to average: 1
Nonlinearity correction enabled: false
Boxcar width: 0
Storing dark spectrum: false
XAxis mode: Wavelengths
Number of Pixels in Spectrum: 1024
>>>>>Begin Spectral Data<<<<<
801.071	3778
801.214	3770
801.356	3686
801.499	3724
801.641	3755
801.783	3762
801.926	3869
802.068	3831
802.211	3835
802.353	3896
802.496	3880
802.638	3888
802.78	3899
802.923	3949
803.065	3865
803.208	3869
803.35	3903
803.492	3899
803.635	3915
803.777	3827
803.919	3907
804.061	4166
804.204	4029
804.346	3979
804.488	3968
804.63	4025
804.773	3983
804.915	4055
805.057	4207
805.199	4029
805.341	4116
805.483	4128
805.626	4143
805.768	4101
805.91	4265
806.052	4223
806.194	4185
806.336	4367
806.478	4261
806.62	4169
806.762	4177
806.904	4344
807.046	4325
807.188	4169
807.33	4204
807.472	4261
807.614	4192
807.756	4257
807.898	4238
808.04	4246
808.182	4265
808.324	4295
808.465	4325
808.607	4485
808.749	4451
808.891	4474
809.033	4508
809.174	4383
809.316	4272
809.458	4219
809.6	4150
809.741	4150
809.883	4169
810.025	4215
810.166	4215
810.308	4219
810.45	4253
810.591	4265
810.733	4268
810.875	4512
811.016	4706
811.158	5151
811.299	5288
811.441	5258
811.582	5086
811.724	4672
811.865	4451
812.007	4459
812.148	4497
812.29	4421
812.431	4474
812.573	4436
812.714	4421
812.855	4405
812.997	4383
813.138	4500
813.279	4402
813.421	4386
813.562	4436
813.703	4367
813.845	4325
813.986	4246
814.127	4238
814.268	4268
814.41	4329
814.551	4257
814.692	4367
814.833	4287
814.974	4337
815.115	4322
815.256	4253
815.397	4211
815.539	4276
815.68	4181
815.821	4200
815.962	4341
816.103	4253
816.244	4249
816.385	4230
816.526	4341
816.666	4204
816.807	4097
816.948	4143
817.089	4139
817.23	4166
817.371	4067
817.512	4051
817.653	4101
817.793	4055
817.934	4036
818.075	4116
818.216	4067
818.356	4040
818.497	3987
818.638	3934
818.778	3896
818.919	3861
819.06	3804
819.2	3937
819.341	3911
819.481	3850
819.622	3892
819.762	3994
819.903	3949
820.043	3869
820.184	3781
820.324	3804
820.465	3899
820.605	3876
820.746	3911
820.886	3793
821.026	3930
821.167	3922
821.307	3972
821.447	3964
821.588	3987
821.728	3911
821.868	3972
822.008	3896
822.149	3930
822.289	3892
822.429	3797
822.569	3774
822.709	3785
822.849	3701
822.99	3724
823.13	3770
823.27	3804
823.41	3713
823.55	3743
823.69	3743
823.83	3736
823.97	3656
824.11	3580
824.25	3603
824.389	3648
824.529	3663
824.669	3641
824.809	3705
824.949	3751
825.089	3747
825.228	3694
825.368	3606
825.508	3625
825.648	3576
825.787	3629
825.927	3663
826.067	3641
826.206	3648
826.346	3793
826.485	3804
826.625	3857
826.765	3949
826.904	3846
827.044	3572
827.183	3538
827.323	3450
827.462	3519
827.601	3450
827.741	3424
827.88	3428
828.02	3370
828.159	3431
828.298	3488
828.437	3507
828.577	3466
828.716	3599
828.855	3481
828.994	3378
829.134	3412
829.273	3386
829.412	3393
829.551	3382
829.69	3374
829.829	3420
829.968	3530
830.107	3431
830.246	3462
830.385	3374
830.524	3363
830.663	3287
830.802	3249
830.941	3192
831.08	3192
831.219	3287
831.357	3291
831.496	3424
831.635	3233
831.774	3192
831.913	3203
832.051	3112
832.19	3146
832.329	3249
832.467	3150
832.606	3116
832.744	3203
832.883	3161
833.022	3150
833.16	3256
833.299	3291
833.437	3317
833.576	3332
833.714	3420
833.852	3431
833.991	3412
834.129	3492
834.267	3435
834.406	3450
834.544	3439
834.682	3401
834.821	3431
834.959	3568
835.097	3450
835.235	3542
835.373	3496
835.511	3511
835.65	3481
835.788	3504
835.926	3420
836.064	3401
836.202	3435
836.34	3553
836.478	3633
836.615	3511
836.753	3606
836.891	3656
837.029	3603
837.167	3591
837.305	3614
837.443	3557
837.58	3507
837.718	3629
837.856	3576
837.993	3549
838.131	3622
838.269	3625
838.406	3599
838.544	3584
838.681	3492
838.819	3439
838.956	3412
839.094	3409
839.231	3428
839.369	3469
839.506	3713
839.643	3637
839.781	3523
839.918	3477
840.055	3538
840.193	3538
840.33	3584
840.467	3549
840.604	3599
840.742	3827
840.879	3576
841.016	3549
841.153	3595
841.29	3751
841.427	3728
841.564	3728
841.701	3755
841.838	3751
841.975	3686
842.112	3717
842.249	3652
842.385	3682
842.522	3823
842.659	3690
842.796	3667
842.933	3698
843.069	3694
843.206	3736
843.343	3812
843.479	3781
843.616	3842
843.752	3675
843.889	3717
844.025	3857
844.162	3690
844.298	3861
844.435	3823
844.571	3819
844.708	3930
844.844	3983
844.98	4067
845.117	4021
845.253	3956
845.389	3964
845.525	4032
845.661	3953
845.798	3926
845.934	3994
846.07	3972
846.206	4032
846.342	4131
846.478	4074
846.614	3960
846.75	3949
846.886	3953
847.022	4059
847.158	3972
847.294	4002
847.429	3994
847.565	4013
847.701	4272
847.837	3907
847.972	3861
848.108	4021
848.244	3983
848.379	3865
848.515	3838
848.65	3842
848.786	3857
848.921	3888
849.057	3953
849.192	3964
849.328	3911
849.463	3937
849.598	3865
849.734	3854
849.869	3816
850.004	3812
850.14	3808
850.275	3755
850.41	3766
850.545	3740
850.68	3778
850.815	3751
850.95	3846
851.085	3922
851.22	3911
851.355	3797
851.49	3793
851.625	3812
851.76	3797
851.895	3766
852.03	3774
852.165	3816
852.299	3861
852.434	3926
852.569	3842
852.703	3846
852.838	3941
852.973	3953
853.107	3960
853.242	3884
853.376	3869
853.511	3732
853.645	3785
853.78	3949
853.914	3934
854.048	3915
854.183	3896
854.317	3968
854.451	4071
854.585	3930
854.72	3930
854.854	4036
854.988	3915
855.122	3975
855.256	3934
855.39	3975
855.524	4124
855.658	4097
855.792	4101
855.926	4128
856.06	4204
856.194	4215
856.327	4135
856.461	4109
856.595	4158
856.729	4147
856.862	4272
856.996	4246
857.13	4352
857.263	4299
857.397	4356
857.53	4295
857.664	4295
857.797	4405
857.931	4436
858.064	4371
858.197	4455
858.331	4455
858.464	4386
858.597	4375
858.731	4443
858.864	4470
858.997	4474
859.13	4485
859.263	4531
859.396	4573
859.529	4538
859.662	4527
859.795	4565
859.928	4569
860.061	4710
860.194	4786
860.327	4645
860.46	4637
860.592	4778
860.725	4763
860.858	4797
860.99	4763
861.123	4656
861.256	4725
861.388	4763
861.521	5516
861.653	4736
861.786	4725
861.918	4771
862.05	4782
862.183	4835
862.315	4919
862.447	4911
862.58	4911
862.712	4847
862.844	4828
862.976	4873
863.108	4885
863.24	5223
863.372	4850
863.504	4892
863.636	4904
863.768	5003
863.9	4957
864.032	4976
864.164	4987
864.296	5022
864.428	5041
864.559	5094
864.691	5136
864.823	5132
864.954	5185
865.086	5140
865.217	5128
865.349	5109
865.48	5181
865.612	5193
865.743	5250
865.875	5201
866.006	5197
866.137	5227
866.269	5235
866.4	5277
866.531	5250
866.662	5231
866.793	5273
866.924	5296
867.055	5296
867.186	5318
867.317	5357
867.448	5288
867.579	5364
867.71	5357
867.841	5387
867.972	5440
868.103	5524
868.233	5478
868.364	5448
868.495	5516
868.625	5710
868.756	5760
868.886	5699
869.017	5718
869.147	5866
869.278	5840
869.408	5790
869.539	5874
869.669	5916
869.799	5901
869.929	5946
870.06	6003
870.19	6247
870.32	6144
870.45	6239
870.58	6331
870.71	6441
870.84	6433
870.97	6410
871.1	6464
871.23	6627
871.36	6654
871.489	6658
871.619	6715
871.749	6806
871.879	6897
872.008	6939
872.138	7019
872.267	6989
872.397	6951
872.526	7057
872.656	7103
872.785	7259
872.915	7381
873.044	7510
873.173	7548
873.303	7700
873.432	7689
873.561	7837
873.69	7917
873.819	8069
873.948	8202
874.077	8328
874.206	8358
874.335	8446
874.464	8716
874.593	8887
874.722	8948
874.851	9108
874.979	9195
875.108	9389
875.237	9488
875.365	9473
875.494	9720
875.623	9857
875.751	9819
875.88	10040
876.008	10143
876.136	10276
876.265	10523
876.393	10717
876.521	10725
876.65	10843
876.778	10820
876.906	10866
877.034	11018
877.162	11117
877.29	11079
877.418	11254
877.546	11318
877.674	11482
877.802	11558
877.93	11505
878.058	11600
878.185	11577
878.313	11707
878.441	11688
878.568	11718
878.696	11752
878.824	11851
878.951	11973
879.079	11923
879.206	12136
879.333	12053
879.461	12022
879.588	12068
879.715	12003
879.842	12277
879.97	12064
880.097	11901
880.224	11935
880.351	11939
880.478	11840
880.605	11836
880.732	11882
880.859	12064
880.986	11790
881.112	11878
881.239	11771
881.366	11726
881.493	11672
881.619	11600
881.746	11570
881.872	11585
881.999	11558
882.125	11524
882.252	11474
882.378	11532
882.505	11547
882.631	11322
882.757	11288
882.883	11322
883.01	11227
883.136	11254
883.262	11140
883.388	11041
883.514	11124
883.64	11071
883.766	11098
883.892	11018
884.018	11022
884.143	11037
884.269	11109
884.395	10843
884.52	10706
884.646	10725
884.772	10767
884.897	10660
885.023	10691
885.148	10645
885.274	10740
885.399	10687
885.524	10550
885.65	10592
885.775	10615
885.9	10554
886.025	10622
886.15	10546
886.275	10489
886.4	10440
886.525	10405
886.65	10405
886.775	10451
886.9	10474
887.025	10516
887.149	10337
887.274	10268
887.399	10215
887.523	10181
887.648	10173
887.773	10120
887.897	10284
888.021	10291
888.146	10139
888.27	10257
888.395	10181
888.519	10139
888.643	10207
888.767	10211
888.891	10097
889.015	10013
889.139	10078
889.263	10025
889.387	10048
889.511	10059
889.635	10090
889.759	9945
889.883	9998
890.006	9979
890.13	10093
890.254	9960
890.377	9926
890.501	9911
890.624	9899
890.748	9884
890.871	9850
890.995	9785
891.118	9732
891.241	9766
891.364	9717
891.488	9869
891.611	9629
891.734	9732
891.857	9766
891.98	9701
892.103	9770
892.226	9762
892.349	9667
892.471	9515
892.594	9644
892.717	9557
892.839	9534
892.962	9591
893.085	9660
893.207	9538
893.33	9507
893.452	9572
893.575	9549
893.697	9473
893.819	9576
893.941	9637
894.064	9633
894.186	9477
894.308	9450
894.43	9542
894.552	9572
894.674	9492
894.796	9443
894.918	9428
895.04	9348
895.161	9378
895.283	9344
895.405	9214
895.526	9279
895.648	9249
895.769	9256
895.891	9279
896.012	9287
896.134	9154
896.255	9169
896.376	9131
896.498	9146
896.619	9173
896.74	9062
896.861	9066
896.982	9192
897.103	9283
897.224	9097
897.345	9039
897.466	9066
897.587	9005
897.708	9123
897.828	9047
897.949	8963
898.07	8819
898.19	8868
898.311	9005
898.431	8823
898.552	9009
898.672	8998
898.792	8963
898.913	8861
899.033	8743
899.153	8807
899.273	8697
899.393	8689
899.513	8788
899.633	8705
899.753	8667
899.873	8632
899.993	8785
900.113	8602
900.232	8777
900.352	8636
900.472	8686
900.591	8526
900.711	8640
900.83	8530
900.95	8670
901.069	8693
901.189	8629
901.308	8480
901.427	8412
901.546	8415
901.665	8495
901.784	8473
901.904	8381
902.023	8339
902.141	8305
902.26	8157
902.379	8298
902.498	8328
902.617	8195
902.735	8275
902.854	8294
902.973	8286
903.091	8123
903.21	8130
903.328	8206
903.446	8103
903.565	8065
903.683	8077
903.801	8027
903.919	8168
904.038	8111
904.156	8065
904.274	8157
904.392	8043
904.51	8062
904.627	8024
904.745	8096
904.863	8069
904.981	7879
905.098	7845
905.216	7913
905.334	7875
905.451	7868
905.569	7875
905.686	7917
905.803	7902
905.921	7788
906.038	7909
906.155	7803
906.272	7753
906.389	7685
906.506	7712
906.623	7639
906.74	7578
906.857	7514
906.974	7590
907.091	7609
907.208	7715
907.324	7636
907.441	7533
907.557	7480
907.674	7457
907.79	7377
907.907	7434
908.023	7434
908.139	7495
908.256	7403
908.372	7320
908.488	7369
908.604	7270
908.72	7232
908.836	7251
908.952	7236
909.068	7316
909.184	7343
909.3	7217
909.415	7282
909.531	7274
909.647	7091
909.762	7069
909.878	7080
909.993	7118
910.108	7099
910.224	7072
910.339	7103
910.454	7084
910.57	6951
910.685	6886
910.8	7179
910.915	7084
911.03	7012
911.145	6894
911.259	6894
911.374	6916
911.489	6882
911.604	6852
911.718	6734
911.833	6715
911.947	6715
912.062	6623
912.176	6627
912.291	6681
912.405	6665
912.519	6806
912.633	6852
912.748	6772
912.862	6688
912.976	6578
913.09	6532
913.204	6574
913.318	6608
913.431	6669
913.545	6627
913.659	6741
913.772	6665
913.886	6616
914	6540
914.113	6620
914.226	6627
914.34	6585
914.453	6464
914.566	6582
914.68	6555
914.793	6574
914.906	6414
915.019	6372
915.132	6399
915.245	6517
915.358	6429
915.47	6426
915.583	6407
915.696	6475
915.809	6517
915.921	6570
916.034	6460
916.146	6426
916.259	6350
916.371	6517
916.483	6498
916.595	6342
916.708	6407
916.82	6437
916.932	6414
917.044	6380
917.156	6346
917.268	6357
917.38	6384
917.491	6327
917.603	6319
917.715	6426
917.826	6403
917.938	6334
918.049	6308
918.161	6300
918.272	6418
918.384	6429
918.495	6350
918.606	6266
918.717	6213
918.828	6300
918.939	6213
919.05	6216
919.161	6254
919.272	6133
919.383	6148
919.494	6353
919.604	6414
919.715	6338
919.826	6220
919.936	6205
920.047	6289
920.157	6289
920.267	6467
920.378	6300
920.488	6273
920.598	6479
920.708	6593
920.818	6418
920.928	6502
921.038	6601
921.148	6551
921.258	6403
921.368	6361
921.477	6216
921.587	6144
921.697	6144
921.806	6186
921.916	6110
922.025	5958
922.134	5874
922.244	5882
922.353	5942
922.462	5893
922.571	5832
922.68	5703
922.789	5707
922.898	5688
923.007	5642
923.116	5653
923.224	5649
923.333	5722
923.442	5558
923.55	5535
923.659	5562
923.767	5619
923.876	5543
923.984	5623
924.092	5505
924.201	5573
924.309	5516
924.417	5551
924.525	5429
924.633	5528
924.741	6277
924.849	5402
924.956	5505
925.064	5330
925.172	5277
925.279	5387
925.387	5326
925.494	5353
925.602	5452
925.709	5360
925.816	5303
925.924	5292
926.031	5387
926.138	5284
926.245	5330
926.352	5227
926.459	5299
926.566	5326
926.673	5166
926.779	5151
926.886	5128
926.993	5022
927.099	5018
927.206	4968
927.312	4946
927.419	5064
927.525	5022
927.631	4892
927.737	4938
927.843	4877
927.95	4748
928.056	4850
928.162	4809
928.267	4858
928.373	5372
928.479	4862
928.585	4717
928.69	4778
928.796	4778
928.901	4725
929.007	4599
929.112	4710
929.218	4653
929.323	4630
929.428	4588
929.533	4656
929.638	4577
929.743	4535
929.848	4500
929.953	4538
930.058	4447
930.163	4337
930.267	4379
930.372	4455
930.477	4314
930.581	4447
930.685	4405
930.79	4265
930.894	4284
930.998	4249
931.103	4363
931.207	4101
931.311	4120
931.415	4078
931.519	3937
931.623	3964
