Data from glass_V78500241_1616.txt Node
Date: Wed Sep 01 19:25:42 CST 2021
User: usil
Spectrometer: V785-0024
Trigger mode: 0
Integration Time (sec): 4.000000E-1
Scans to average: 1
Nonlinearity correction enabled: false
Boxcar width: 0
Storing dark spectrum: false
XAxis mode: Wavelengths
Number of Pixels in Spectrum: 1024
>>>>>Begin Spectral Data<<<<<
801.071	3720
801.214	3762
801.356	3728
801.499	3694
801.641	3690
801.783	3812
801.926	3869
802.068	3823
802.211	3876
802.353	3854
802.496	3778
802.638	3880
802.78	3865
802.923	3907
803.065	3896
803.208	3880
803.35	3899
803.492	3884
803.635	3884
803.777	3819
803.919	3911
804.061	4162
804.204	3991
804.346	3926
804.488	3949
804.63	4040
804.773	3960
804.915	4036
805.057	4177
805.199	4059
805.341	4067
805.483	4131
805.626	4128
805.768	4128
805.91	4204
806.052	4249
806.194	4147
806.336	4417
806.478	4192
806.62	4158
806.762	4169
806.904	4242
807.046	4333
807.188	4211
807.33	4219
807.472	4261
807.614	4169
807.756	4238
807.898	4219
808.04	4207
808.182	4265
808.324	4287
808.465	4352
808.607	4485
808.749	4459
808.891	4474
809.033	4516
809.174	4451
809.316	4246
809.458	4261
809.6	4124
809.741	4135
809.883	4090
810.025	4185
810.166	4227
810.308	4196
810.45	4249
810.591	4219
810.733	4287
810.875	4508
811.016	4843
811.158	5109
811.299	5303
811.441	5250
811.582	5102
811.724	4694
811.865	4455
812.007	4485
812.148	4394
812.29	4371
812.431	4405
812.573	4386
812.714	4360
812.855	4432
812.997	4402
813.138	4504
813.279	4394
813.421	4322
813.562	4383
813.703	4322
813.845	4329
813.986	4261
814.127	4219
814.268	4253
814.41	4280
814.551	4314
814.692	4303
814.833	4284
814.974	4325
815.115	4329
815.256	4227
815.397	4215
815.539	4272
815.68	4177
815.821	4173
815.962	4325
816.103	4280
816.244	4227
816.385	4249
816.526	4268
816.666	4219
816.807	4131
816.948	4162
817.089	4200
817.23	4090
817.371	4048
817.512	4021
817.653	4128
817.793	4025
817.934	4040
818.075	4051
818.216	4112
818.356	4067
818.497	4013
818.638	3907
818.778	3911
818.919	3918
819.06	3857
819.2	3915
819.341	3899
819.481	3854
819.622	3926
819.762	4006
819.903	3953
820.043	3854
820.184	3827
820.324	3827
820.465	3846
820.605	3911
820.746	3888
820.886	3819
821.026	3922
821.167	3899
821.307	4025
821.447	3983
821.588	3968
821.728	3941
821.868	3960
822.008	3823
822.149	3896
822.289	3911
822.429	3816
822.569	3774
822.709	3819
822.849	3694
822.99	3720
823.13	3709
823.27	3804
823.41	3690
823.55	3720
823.69	3732
823.83	3740
823.97	3618
824.11	3641
824.25	3603
824.389	3648
824.529	3663
824.669	3641
824.809	3694
824.949	3747
825.089	3709
825.228	3717
825.368	3564
825.508	3599
825.648	3564
825.787	3610
825.927	3614
826.067	3637
826.206	3717
826.346	3774
826.485	3861
826.625	3880
826.765	3956
826.904	3831
827.044	3622
827.183	3534
827.323	3431
827.462	3469
827.601	3473
827.741	3412
827.88	3443
828.02	3340
828.159	3424
828.298	3500
828.437	3576
828.577	3458
828.716	3580
828.855	3466
828.994	3424
829.134	3386
829.273	3389
829.412	3332
829.551	3298
829.69	3367
829.829	3439
829.968	3534
830.107	3416
830.246	3428
830.385	3420
830.524	3340
830.663	3332
830.802	3253
830.941	3188
831.08	3195
831.219	3264
831.357	3317
831.496	3393
831.635	3237
831.774	3207
831.913	3176
832.051	3100
832.19	3150
832.329	3184
832.467	3195
832.606	3112
832.744	3195
832.883	3211
833.022	3195
833.16	3264
833.299	3355
833.437	3336
833.576	3363
833.714	3416
833.852	3370
833.991	3450
834.129	3443
834.267	3386
834.406	3397
834.544	3450
834.682	3405
834.821	3389
834.959	3595
835.097	3458
835.235	3595
835.373	3496
835.511	3507
835.65	3431
835.788	3454
835.926	3374
836.064	3389
836.202	3363
836.34	3576
836.478	3603
836.615	3511
836.753	3625
836.891	3622
837.029	3587
837.167	3584
837.305	3564
837.443	3519
837.58	3477
837.718	3572
837.856	3553
837.993	3561
838.131	3584
838.269	3610
838.406	3564
838.544	3553
838.681	3447
838.819	3469
838.956	3397
839.094	3401
839.231	3481
839.369	3561
839.506	3694
839.643	3599
839.781	3488
839.918	3473
840.055	3519
840.193	3519
840.33	3530
840.467	3557
840.604	3648
840.742	3804
840.879	3526
841.016	3561
841.153	3572
841.29	3793
841.427	3755
841.564	3709
841.701	3743
841.838	3686
841.975	3728
842.112	3728
842.249	3667
842.385	3629
842.522	3876
842.659	3671
842.796	3637
842.933	3717
843.069	3698
843.206	3717
843.343	3804
843.479	3732
843.616	3842
843.752	3701
843.889	3663
844.025	3838
844.162	3732
844.298	3831
844.435	3785
844.571	3793
844.708	3922
844.844	3991
844.98	3994
845.117	4032
845.253	3949
845.389	3888
845.525	3968
845.661	4002
845.798	3918
845.934	4006
846.07	3937
846.206	4025
846.342	4139
846.478	4044
846.614	3968
846.75	3907
846.886	3991
847.022	4040
847.158	3956
847.294	4025
847.429	3994
847.565	4025
847.701	4261
847.837	3915
847.972	3854
848.108	3968
848.244	3979
848.379	3907
848.515	3827
848.65	3797
848.786	3865
848.921	3899
849.057	3892
849.192	3956
849.328	3854
849.463	3880
849.598	3865
849.734	3846
849.869	3804
850.004	3808
850.14	3804
850.275	3835
850.41	3736
850.545	3759
850.68	3789
850.815	3823
850.95	3808
851.085	3915
851.22	3880
851.355	3808
851.49	3755
851.625	3831
851.76	3804
851.895	3717
852.03	3785
852.165	3781
852.299	3835
852.434	3922
852.569	3892
852.703	3899
852.838	3964
852.973	4010
853.107	4025
853.242	3884
853.376	3846
853.511	3808
853.645	3854
853.78	3964
853.914	3918
854.048	3899
854.183	3869
854.317	3934
854.451	4067
854.585	3941
854.72	3949
854.854	4078
854.988	3987
855.122	3991
855.256	3911
855.39	3987
855.524	4116
855.658	4101
855.792	4131
855.926	4109
856.06	4177
856.194	4181
856.327	4124
856.461	4143
856.595	4158
856.729	4147
856.862	4299
856.996	4234
857.13	4295
857.263	4341
857.397	4337
857.53	4223
857.664	4363
857.797	4390
857.931	4386
858.064	4379
858.197	4470
858.331	4390
858.464	4375
858.597	4371
858.731	4451
858.864	4462
858.997	4485
859.13	4550
859.263	4485
859.396	4584
859.529	4512
859.662	4504
859.795	4546
859.928	4668
860.061	4710
860.194	4729
860.327	4618
860.46	4664
860.592	4729
860.725	4733
860.858	4729
860.99	4733
861.123	4714
861.256	4710
861.388	4752
861.521	5589
861.653	4706
861.786	4694
861.918	4774
862.05	4820
862.183	4820
862.315	4839
862.447	4900
862.58	4839
862.712	4778
862.844	4771
862.976	4938
863.108	4892
863.24	5288
863.372	4854
863.504	4877
863.636	4911
863.768	4961
863.9	4961
864.032	4923
864.164	4976
864.296	5003
864.428	5067
864.559	5117
864.691	5048
864.823	5113
864.954	5136
865.086	5117
865.217	5098
865.349	5128
865.48	5151
865.612	5189
865.743	5318
865.875	5181
866.006	5170
866.137	5216
866.269	5258
866.4	5185
866.531	5227
866.662	5254
866.793	5242
866.924	5258
867.055	5376
867.186	5349
867.317	5303
867.448	5220
867.579	5360
867.71	5345
867.841	5349
867.972	5467
868.103	5467
868.233	5436
868.364	5478
868.495	5551
868.625	5615
868.756	5745
868.886	5653
869.017	5672
869.147	5923
869.278	5870
869.408	5844
869.539	5874
869.669	5908
869.799	5916
869.929	5969
870.06	5980
870.19	6205
870.32	6205
870.45	6281
870.58	6331
870.71	6384
870.84	6471
870.97	6433
871.1	6498
871.23	6631
871.36	6642
871.489	6639
871.619	6719
871.749	6886
871.879	6916
872.008	6996
872.138	6943
872.267	6954
872.397	7027
872.526	7057
872.656	7129
872.785	7236
872.915	7396
873.044	7506
873.173	7563
873.303	7662
873.432	7734
873.561	7852
873.69	7860
873.819	8130
873.948	8214
874.077	8233
874.206	8355
874.335	8457
874.464	8610
874.593	8807
874.722	8937
874.851	9074
874.979	9218
875.108	9321
875.237	9405
875.365	9500
875.494	9682
875.623	9964
875.751	9816
875.88	9941
876.008	10109
876.136	10306
876.265	10615
876.393	10691
876.521	10683
876.65	10748
876.778	10896
876.906	10919
877.034	10980
877.162	11124
877.29	11109
877.418	11376
877.546	11429
877.674	11497
877.802	11474
877.93	11490
878.058	11577
878.185	11532
878.313	11653
878.441	11714
878.568	11672
878.696	11817
878.824	11855
878.951	11992
879.079	11954
879.206	12117
879.333	12057
879.461	11988
879.588	12167
879.715	12114
879.842	12175
879.97	12060
880.097	11920
880.224	11836
880.351	11885
880.478	12015
880.605	11874
880.732	11767
880.859	12041
880.986	11836
881.112	11828
881.239	11691
881.366	11634
881.493	11634
881.619	11554
881.746	11547
881.872	11497
881.999	11512
882.125	11490
882.252	11524
882.378	11459
882.505	11581
882.631	11311
882.757	11227
882.883	11261
883.01	11250
883.136	11220
883.262	11117
883.388	11079
883.514	11159
883.64	11254
883.766	11060
883.892	10980
884.018	11045
884.143	11079
884.269	11067
884.395	10877
884.52	10805
884.646	10687
884.772	10740
884.897	10622
885.023	10649
885.148	10717
885.274	10812
885.399	10687
885.524	10580
885.65	10592
885.775	10554
885.9	10542
886.025	10584
886.15	10523
886.275	10413
886.4	10428
886.525	10390
886.65	10421
886.775	10363
886.9	10443
887.025	10561
887.149	10386
887.274	10211
887.399	10185
887.523	10158
887.648	10188
887.773	10120
887.897	10295
888.021	10261
888.146	10242
888.27	10230
888.395	10238
888.519	10253
888.643	10150
888.767	10196
888.891	10055
889.015	9960
889.139	10025
889.263	10029
889.387	10044
889.511	10093
889.635	10059
889.759	9964
889.883	9953
890.006	9956
890.13	10093
890.254	9911
890.377	10002
890.501	9827
890.624	9907
890.748	9911
890.871	9846
890.995	9762
891.118	9682
891.241	9709
891.364	9743
891.488	9793
891.611	9652
891.734	9709
891.857	9755
891.98	9751
892.103	9720
892.226	9766
892.349	9675
892.471	9519
892.594	9644
892.717	9656
892.839	9614
892.962	9580
893.085	9629
893.207	9572
893.33	9431
893.452	9568
893.575	9625
893.697	9481
893.819	9622
893.941	9580
894.064	9599
894.186	9370
894.308	9435
894.43	9561
894.552	9603
894.674	9504
894.796	9363
894.918	9355
895.04	9393
895.161	9374
895.283	9336
895.405	9237
895.526	9237
895.648	9291
895.769	9226
895.891	9260
896.012	9249
896.134	9268
896.255	9135
896.376	9127
896.498	9097
896.619	9169
896.74	9077
896.861	9116
896.982	9298
897.103	9317
897.224	9146
897.345	9093
897.466	9028
897.587	9066
897.708	9077
897.828	8998
897.949	8979
898.07	8868
898.19	8921
898.311	9032
898.431	8899
898.552	8899
898.672	8994
898.792	8902
898.913	9013
899.033	8838
899.153	8746
899.273	8655
899.393	8758
899.513	8815
899.633	8663
899.753	8781
899.873	8670
899.993	8731
900.113	8716
900.232	8686
900.352	8670
900.472	8571
900.591	8549
900.711	8552
900.83	8590
900.95	8743
901.069	8648
901.189	8522
901.308	8495
901.427	8370
901.546	8385
901.665	8442
901.784	8434
901.904	8431
902.023	8298
902.141	8210
902.26	8229
902.379	8252
902.498	8157
902.617	8290
902.735	8305
902.854	8252
902.973	8263
903.091	8168
903.21	8065
903.328	8187
903.446	8050
903.565	8111
903.683	8065
903.801	8092
903.919	8088
904.038	8145
904.156	8031
904.274	8077
904.392	8058
904.51	7993
904.627	8073
904.745	8123
904.863	8039
904.981	7967
905.098	7902
905.216	7852
905.334	7860
905.451	7944
905.569	7845
905.686	7906
905.803	7887
905.921	7780
906.038	7841
906.155	7811
906.272	7742
906.389	7803
906.506	7636
906.623	7681
906.74	7624
906.857	7563
906.974	7590
907.091	7655
907.208	7662
907.324	7605
907.441	7578
907.557	7464
907.674	7464
907.79	7403
907.907	7388
908.023	7403
908.139	7419
908.256	7346
908.372	7350
908.488	7346
908.604	7297
908.72	7202
908.836	7301
908.952	7293
909.068	7259
909.184	7316
909.3	7221
909.415	7301
909.531	7327
909.647	7152
909.762	7160
909.878	7091
909.993	7145
910.108	7072
910.224	7095
910.339	7057
910.454	7042
910.57	7027
910.685	6973
910.8	7126
910.915	7084
911.03	7004
911.145	6962
911.259	6901
911.374	6890
911.489	6867
911.604	6833
911.718	6738
911.833	6749
911.947	6700
912.062	6612
912.176	6696
912.291	6684
912.405	6692
912.519	6791
912.633	6837
912.748	6715
912.862	6711
912.976	6608
913.09	6559
913.204	6585
913.318	6582
913.431	6650
913.545	6692
913.659	6719
913.772	6684
913.886	6582
914	6547
914.113	6612
914.226	6585
914.34	6574
914.453	6509
914.566	6631
914.68	6498
914.793	6544
914.906	6429
915.019	6403
915.132	6350
915.245	6426
915.358	6452
915.47	6502
915.583	6441
915.696	6498
915.809	6525
915.921	6532
916.034	6418
916.146	6418
916.259	6353
916.371	6429
916.483	6460
916.595	6422
916.708	6418
916.82	6414
916.932	6399
917.044	6369
917.156	6388
917.268	6361
917.38	6311
917.491	6327
917.603	6388
917.715	6388
917.826	6388
917.938	6334
918.049	6270
918.161	6277
918.272	6452
918.384	6448
918.495	6334
918.606	6247
918.717	6228
918.828	6304
918.939	6235
919.05	6194
919.161	6262
919.272	6087
919.383	6159
919.494	6289
919.604	6350
919.715	6262
919.826	6213
919.936	6243
920.047	6346
920.157	6247
920.267	6433
920.378	6224
920.488	6296
920.598	6388
920.708	6582
920.818	6483
920.928	6429
921.038	6559
921.148	6597
921.258	6281
921.368	6270
921.477	6239
921.587	6171
921.697	6060
921.806	6167
921.916	6079
922.025	5927
922.134	5874
922.244	5942
922.353	5927
922.462	5824
922.571	5828
922.68	5714
922.789	5665
922.898	5745
923.007	5653
923.116	5779
923.224	5710
923.333	5642
923.442	5661
923.55	5589
923.659	5604
923.767	5604
923.876	5497
923.984	5600
924.092	5524
924.201	5589
924.309	5573
924.417	5505
924.525	5482
924.633	5535
924.741	6319
924.849	5368
924.956	5482
925.064	5360
925.172	5288
925.279	5330
925.387	5395
925.494	5360
925.602	5425
925.709	5406
925.816	5296
925.924	5307
926.031	5337
926.138	5311
926.245	5341
926.352	5235
926.459	5284
926.566	5376
926.673	5208
926.779	5132
926.886	5151
926.993	4984
927.099	5029
927.206	4987
927.312	4984
927.419	5010
927.525	4961
927.631	4991
927.737	4885
927.843	4908
927.95	4759
928.056	4812
928.162	4831
928.267	4862
928.373	5334
928.479	4881
928.585	4664
928.69	4790
928.796	4793
928.901	4679
929.007	4565
929.112	4668
929.218	4618
929.323	4645
929.428	4573
929.533	4683
929.638	4519
929.743	4538
929.848	4546
929.953	4489
930.058	4447
930.163	4299
930.267	4295
930.372	4447
930.477	4325
930.581	4538
930.685	4329
930.79	4276
930.894	4265
930.998	4276
931.103	4356
931.207	4131
931.311	4097
931.415	4051
931.519	3960
931.623	3964
