Data from glass_V78500241_2439.txt Node
Date: Wed Sep 01 19:31:24 CST 2021
User: usil
Spectrometer: V785-0024
Trigger mode: 0
Integration Time (sec): 4.000000E-1
Scans to average: 1
Nonlinearity correction enabled: false
Boxcar width: 0
Storing dark spectrum: false
XAxis mode: Wavelengths
Number of Pixels in Spectrum: 1024
>>>>>Begin Spectral Data<<<<<
801.071	3705
801.214	3732
801.356	3690
801.499	3701
801.641	3728
801.783	3785
801.926	3835
802.068	3850
802.211	3861
802.353	3899
802.496	3831
802.638	3857
802.78	3903
802.923	3934
803.065	3869
803.208	3808
803.35	3869
803.492	3915
803.635	3953
803.777	3781
803.919	3892
804.061	4131
804.204	3934
804.346	3911
804.488	3926
804.63	4044
804.773	3983
804.915	3983
805.057	4162
805.199	4082
805.341	4063
805.483	4109
805.626	4078
805.768	4135
805.91	4215
806.052	4219
806.194	4227
806.336	4303
806.478	4261
806.62	4128
806.762	4131
806.904	4246
807.046	4261
807.188	4173
807.33	4166
807.472	4246
807.614	4192
807.756	4238
807.898	4200
808.04	4196
808.182	4242
808.324	4344
808.465	4409
808.607	4447
808.749	4409
808.891	4489
809.033	4485
809.174	4390
809.316	4253
809.458	4238
809.6	4124
809.741	4131
809.883	4128
810.025	4173
810.166	4173
810.308	4200
810.45	4211
810.591	4234
810.733	4234
810.875	4531
811.016	4778
811.158	5124
811.299	5223
811.441	5231
811.582	5056
811.724	4694
811.865	4424
812.007	4436
812.148	4409
812.29	4356
812.431	4379
812.573	4379
812.714	4402
812.855	4428
812.997	4394
813.138	4508
813.279	4409
813.421	4390
813.562	4405
813.703	4318
813.845	4299
813.986	4230
814.127	4181
814.268	4265
814.41	4299
814.551	4268
814.692	4352
814.833	4310
814.974	4291
815.115	4310
815.256	4207
815.397	4188
815.539	4200
815.68	4169
815.821	4211
815.962	4310
816.103	4261
816.244	4181
816.385	4215
816.526	4265
816.666	4230
816.807	4090
816.948	4162
817.089	4154
817.23	4093
817.371	4055
817.512	4036
817.653	4048
817.793	4010
817.934	4036
818.075	4109
818.216	4025
818.356	4040
818.497	3991
818.638	3903
818.778	3892
818.919	3888
819.06	3873
819.2	3915
819.341	3865
819.481	3869
819.622	3907
819.762	3998
819.903	3991
820.043	3869
820.184	3838
820.324	3819
820.465	3892
820.605	3869
820.746	3873
820.886	3812
821.026	3922
821.167	3865
821.307	3918
821.447	3998
821.588	3922
821.728	3941
821.868	3956
822.008	3823
822.149	3880
822.289	3873
822.429	3736
822.569	3747
822.709	3812
822.849	3686
822.99	3663
823.13	3743
823.27	3751
823.41	3709
823.55	3743
823.69	3709
823.83	3728
823.97	3618
824.11	3603
824.25	3572
824.389	3637
824.529	3667
824.669	3603
824.809	3705
824.949	3766
825.089	3701
825.228	3698
825.368	3553
825.508	3557
825.648	3591
825.787	3610
825.927	3641
826.067	3610
826.206	3622
826.346	3755
826.485	3880
826.625	3850
826.765	3926
826.904	3797
827.044	3599
827.183	3523
827.323	3409
827.462	3492
827.601	3424
827.741	3393
827.88	3443
828.02	3378
828.159	3450
828.298	3500
828.437	3526
828.577	3450
828.716	3553
828.855	3466
828.994	3344
829.134	3401
829.273	3382
829.412	3317
829.551	3317
829.69	3351
829.829	3393
829.968	3469
830.107	3420
830.246	3428
830.385	3374
830.524	3344
830.663	3268
830.802	3241
830.941	3195
831.08	3188
831.219	3283
831.357	3268
831.496	3393
831.635	3230
831.774	3180
831.913	3207
832.051	3135
832.19	3104
832.329	3203
832.467	3127
832.606	3116
832.744	3157
832.883	3173
833.022	3199
833.16	3260
833.299	3279
833.437	3329
833.576	3340
833.714	3382
833.852	3439
833.991	3416
834.129	3469
834.267	3450
834.406	3389
834.544	3382
834.682	3416
834.821	3420
834.959	3561
835.097	3401
835.235	3515
835.373	3488
835.511	3507
835.65	3477
835.788	3469
835.926	3363
836.064	3416
836.202	3409
836.34	3561
836.478	3606
836.615	3519
836.753	3591
836.891	3641
837.029	3625
837.167	3572
837.305	3545
837.443	3511
837.58	3492
837.718	3553
837.856	3591
837.993	3553
838.131	3599
838.269	3584
838.406	3576
838.544	3553
838.681	3458
838.819	3454
838.956	3363
839.094	3363
839.231	3466
839.369	3496
839.506	3720
839.643	3599
839.781	3466
839.918	3458
840.055	3534
840.193	3545
840.33	3500
840.467	3591
840.604	3553
840.742	3781
840.879	3523
841.016	3564
841.153	3568
841.29	3743
841.427	3667
841.564	3713
841.701	3740
841.838	3709
841.975	3652
842.112	3675
842.249	3675
842.385	3614
842.522	3778
842.659	3713
842.796	3622
842.933	3679
843.069	3698
843.206	3660
843.343	3793
843.479	3789
843.616	3808
843.752	3705
843.889	3671
844.025	3857
844.162	3698
844.298	3835
844.435	3755
844.571	3781
844.708	3899
844.844	4002
844.98	4017
845.117	3994
845.253	3934
845.389	3884
845.525	3922
845.661	3964
845.798	3975
845.934	3983
846.07	3960
846.206	4044
846.342	4101
846.478	4044
846.614	3937
846.75	3846
846.886	3896
847.022	4055
847.158	3991
847.294	3960
847.429	3975
847.565	3968
847.701	4223
847.837	3911
847.972	3846
848.108	3960
848.244	3979
848.379	3846
848.515	3789
848.65	3804
848.786	3842
848.921	3865
849.057	3960
849.192	3953
849.328	3880
849.463	3892
849.598	3869
849.734	3880
849.869	3819
850.004	3800
850.14	3812
850.275	3804
850.41	3747
850.545	3720
850.68	3766
850.815	3816
850.95	3789
851.085	3907
851.22	3819
851.355	3850
851.49	3728
851.625	3808
851.76	3781
851.895	3728
852.03	3698
852.165	3762
852.299	3835
852.434	3918
852.569	3850
852.703	3861
852.838	3956
852.973	3987
853.107	3975
853.242	3823
853.376	3892
853.511	3789
853.645	3831
853.78	3968
853.914	3911
854.048	3892
854.183	3861
854.317	3941
854.451	4105
854.585	3964
854.72	3915
854.854	4029
854.988	3907
855.122	3983
855.256	3918
855.39	4021
855.524	4147
855.658	4067
855.792	4082
855.926	4101
856.06	4135
856.194	4211
856.327	4131
856.461	4086
856.595	4116
856.729	4162
856.862	4257
856.996	4223
857.13	4249
857.263	4284
857.397	4314
857.53	4265
857.664	4363
857.797	4360
857.931	4363
858.064	4333
858.197	4447
858.331	4409
858.464	4394
858.597	4363
858.731	4421
858.864	4432
858.997	4424
859.13	4535
859.263	4497
859.396	4550
859.529	4478
859.662	4527
859.795	4542
859.928	4584
860.061	4679
860.194	4733
860.327	4618
860.46	4641
860.592	4710
860.725	4763
860.858	4752
860.99	4710
861.123	4710
861.256	4733
861.388	4748
861.521	5551
861.653	4691
861.786	4721
861.918	4714
862.05	4774
862.183	4866
862.315	4873
862.447	4843
862.58	4870
862.712	4771
862.844	4740
862.976	4870
863.108	4877
863.24	5128
863.372	4843
863.504	4862
863.636	4896
863.768	4934
863.9	4946
864.032	4900
864.164	4934
864.296	5006
864.428	5098
864.559	5109
864.691	5128
864.823	5090
864.954	5117
865.086	5140
865.217	5143
865.349	5083
865.48	5193
865.612	5189
865.743	5341
865.875	5185
866.006	5208
866.137	5235
866.269	5208
866.4	5174
866.531	5174
866.662	5212
866.793	5246
866.924	5269
867.055	5299
867.186	5326
867.317	5315
867.448	5357
867.579	5406
867.71	5402
867.841	5429
867.972	5433
868.103	5463
868.233	5455
868.364	5539
868.495	5520
868.625	5657
868.756	5729
868.886	5672
869.017	5752
869.147	5828
869.278	5817
869.408	5878
869.539	5847
869.669	5927
869.799	5923
869.929	6053
870.06	6003
870.19	6133
870.32	6190
870.45	6323
870.58	6334
870.71	6410
870.84	6471
870.97	6395
871.1	6422
871.23	6620
871.36	6646
871.489	6623
871.619	6722
871.749	6779
871.879	6818
872.008	6916
872.138	6894
872.267	7050
872.397	6977
872.526	7027
872.656	7145
872.785	7240
872.915	7350
873.044	7537
873.173	7586
873.303	7632
873.432	7784
873.561	7837
873.69	7925
873.819	8027
873.948	8149
874.077	8221
874.206	8309
874.335	8423
874.464	8613
874.593	8830
874.722	8986
874.851	9112
874.979	9287
875.108	9378
875.237	9321
875.365	9431
875.494	9584
875.623	9781
875.751	9831
875.88	10063
876.008	10173
876.136	10299
876.265	10447
876.393	10664
876.521	10660
876.65	10748
876.778	10828
876.906	10911
877.034	11014
877.162	11121
877.29	11071
877.418	11318
877.546	11341
877.674	11490
877.802	11459
877.93	11501
878.058	11520
878.185	11509
878.313	11649
878.441	11733
878.568	11589
878.696	11760
878.824	11859
878.951	11946
879.079	12022
879.206	12007
879.333	12038
879.461	11847
879.588	12026
879.715	12022
879.842	12216
879.97	12091
880.097	11870
880.224	11908
880.351	11897
880.478	11824
880.605	11809
880.732	11824
880.859	12083
880.986	11760
881.112	11767
881.239	11752
881.366	11638
881.493	11573
881.619	11497
881.746	11619
881.872	11512
881.999	11467
882.125	11452
882.252	11509
882.378	11505
882.505	11516
882.631	11455
882.757	11296
882.883	11303
883.01	11284
883.136	11239
883.262	11174
883.388	11060
883.514	11151
883.64	11056
883.766	11075
883.892	10995
884.018	10949
884.143	11006
884.269	11060
884.395	10831
884.52	10805
884.646	10755
884.772	10668
884.897	10672
885.023	10653
885.148	10683
885.274	10790
885.399	10660
885.524	10546
885.65	10607
885.775	10527
885.9	10504
886.025	10554
886.15	10550
886.275	10489
886.4	10310
886.525	10360
886.65	10363
886.775	10371
886.9	10485
887.025	10523
887.149	10428
887.274	10227
887.399	10200
887.523	10154
887.648	10150
887.773	10112
887.897	10215
888.021	10238
888.146	10143
888.27	10253
888.395	10196
888.519	10150
888.643	10207
888.767	10192
888.891	10101
889.015	9949
889.139	9994
889.263	9979
889.387	10048
889.511	10074
889.635	10055
889.759	9960
889.883	9983
890.006	9994
890.13	10090
890.254	9956
890.377	9911
890.501	9819
890.624	9804
890.748	9861
890.871	9808
890.995	9679
891.118	9728
891.241	9713
891.364	9762
891.488	9827
891.611	9690
891.734	9717
891.857	9774
891.98	9793
892.103	9724
892.226	9728
892.349	9637
892.471	9507
892.594	9599
892.717	9591
892.839	9625
892.962	9557
893.085	9606
893.207	9519
893.33	9458
893.452	9515
893.575	9584
893.697	9481
893.819	9648
893.941	9652
894.064	9644
894.186	9458
894.308	9397
894.43	9538
894.552	9542
894.674	9549
894.796	9363
894.918	9397
895.04	9287
895.161	9359
895.283	9302
895.405	9192
895.526	9207
895.648	9161
895.769	9226
895.891	9245
896.012	9245
896.134	9184
896.255	9203
896.376	9142
896.498	9142
896.619	9104
896.74	9024
896.861	9104
896.982	9249
897.103	9268
897.224	9127
897.345	9081
897.466	8998
897.587	9085
897.708	9074
897.828	9005
897.949	8982
898.07	8853
898.19	8967
898.311	8960
898.431	8929
898.552	8868
898.672	8975
898.792	8975
898.913	8849
899.033	8746
899.153	8689
899.273	8629
899.393	8743
899.513	8708
899.633	8697
899.753	8720
899.873	8705
899.993	8720
900.113	8667
900.232	8655
900.352	8613
900.472	8533
900.591	8488
900.711	8556
900.83	8560
900.95	8644
901.069	8762
901.189	8644
901.308	8457
901.427	8339
901.546	8385
901.665	8434
901.784	8488
901.904	8328
902.023	8305
902.141	8233
902.26	8191
902.379	8305
902.498	8267
902.617	8229
902.735	8248
902.854	8221
902.973	8244
903.091	8153
903.21	8157
903.328	8107
903.446	8126
903.565	8073
903.683	8050
903.801	8103
903.919	8065
904.038	8119
904.156	8050
904.274	8050
904.392	8031
904.51	8039
904.627	8058
904.745	8054
904.863	8096
904.981	7932
905.098	7856
905.216	7795
905.334	7936
905.451	7902
905.569	7902
905.686	7864
905.803	7879
905.921	7753
906.038	7944
906.155	7772
906.272	7689
906.389	7788
906.506	7590
906.623	7616
906.74	7605
906.857	7548
906.974	7563
907.091	7681
907.208	7700
907.324	7658
907.441	7594
907.557	7362
907.674	7434
907.79	7396
907.907	7331
908.023	7453
908.139	7434
908.256	7422
908.372	7350
908.488	7293
908.604	7308
908.72	7206
908.836	7244
908.952	7259
909.068	7183
909.184	7282
909.3	7240
909.415	7259
909.531	7324
909.647	7164
909.762	7118
909.878	7088
909.993	7107
910.108	7095
910.224	7091
910.339	7080
910.454	7004
910.57	7000
910.685	7000
910.8	7183
910.915	7080
911.03	6989
911.145	6894
911.259	6859
911.374	6886
911.489	6901
911.604	6859
911.718	6673
911.833	6703
911.947	6608
912.062	6601
912.176	6654
912.291	6662
912.405	6726
912.519	6814
912.633	6890
912.748	6741
912.862	6692
912.976	6563
913.09	6517
913.204	6551
913.318	6570
913.431	6623
913.545	6711
913.659	6692
913.772	6654
913.886	6582
914	6582
914.113	6608
914.226	6597
914.34	6635
914.453	6517
914.566	6612
914.68	6483
914.793	6506
914.906	6437
915.019	6388
915.132	6391
915.245	6399
915.358	6467
915.47	6422
915.583	6475
915.696	6445
915.809	6528
915.921	6509
916.034	6399
916.146	6403
916.259	6418
916.371	6429
916.483	6445
916.595	6391
916.708	6346
916.82	6395
916.932	6334
917.044	6372
917.156	6323
917.268	6315
917.38	6300
917.491	6209
917.603	6346
917.715	6395
917.826	6395
917.938	6289
918.049	6182
918.161	6338
918.272	6422
918.384	6426
918.495	6319
918.606	6239
918.717	6201
918.828	6281
918.939	6205
919.05	6213
919.161	6258
919.272	6098
919.383	6159
919.494	6281
919.604	6433
919.715	6209
919.826	6201
919.936	6201
920.047	6319
920.157	6258
920.267	6486
920.378	6266
920.488	6266
920.598	6464
920.708	6570
920.818	6502
920.928	6426
921.038	6612
921.148	6563
921.258	6361
921.368	6292
921.477	6216
921.587	6159
921.697	6117
921.806	6152
921.916	6060
922.025	5882
922.134	5942
922.244	5870
922.353	5954
922.462	5870
922.571	5802
922.68	5676
922.789	5668
922.898	5695
923.007	5642
923.116	5703
923.224	5649
923.333	5619
923.442	5573
923.55	5520
923.659	5554
923.767	5604
923.876	5573
923.984	5592
924.092	5486
924.201	5566
924.309	5535
924.417	5547
924.525	5497
924.633	5452
924.741	6285
924.849	5337
924.956	5398
925.064	5315
925.172	5311
925.279	5315
925.387	5311
925.494	5273
925.602	5425
925.709	5395
925.816	5246
925.924	5326
926.031	5376
926.138	5330
926.245	5334
926.352	5201
926.459	5318
926.566	5288
926.673	5181
926.779	5094
926.886	5117
926.993	5067
927.099	4968
927.206	4957
927.312	4965
927.419	5025
927.525	4957
927.631	4976
927.737	4911
927.843	4843
927.95	4759
928.056	4820
928.162	4809
928.267	4889
928.373	5242
928.479	4870
928.585	4634
928.69	4748
928.796	4828
928.901	4733
929.007	4588
929.112	4645
929.218	4611
929.323	4592
929.428	4538
929.533	4668
929.638	4432
929.743	4538
929.848	4565
929.953	4485
930.058	4451
930.163	4295
930.267	4344
930.372	4421
930.477	4325
930.581	4413
930.685	4329
930.79	4246
930.894	4265
930.998	4207
931.103	4383
931.207	4086
931.311	4105
931.415	4032
931.519	3934
931.623	3907
