Data from glass_V78500241_973.txt Node
Date: Wed Sep 01 19:21:14 CST 2021
User: usil
Spectrometer: V785-0024
Trigger mode: 0
Integration Time (sec): 4.000000E-1
Scans to average: 1
Nonlinearity correction enabled: false
Boxcar width: 0
Storing dark spectrum: false
XAxis mode: Wavelengths
Number of Pixels in Spectrum: 1024
>>>>>Begin Spectral Data<<<<<
801.071	3755
801.214	3740
801.356	3717
801.499	3724
801.641	3728
801.783	3808
801.926	3876
802.068	3819
802.211	3899
802.353	3884
802.496	3869
802.638	3899
802.78	3892
802.923	3911
803.065	3899
803.208	3838
803.35	3857
803.492	3934
803.635	3934
803.777	3831
803.919	3934
804.061	4135
804.204	3892
804.346	3922
804.488	3934
804.63	4051
804.773	4010
804.915	4032
805.057	4131
805.199	4074
805.341	4128
805.483	4158
805.626	4166
805.768	4128
805.91	4230
806.052	4230
806.194	4200
806.336	4371
806.478	4185
806.62	4196
806.762	4181
806.904	4249
807.046	4383
807.188	4261
807.33	4207
807.472	4238
807.614	4207
807.756	4287
807.898	4249
808.04	4227
808.182	4276
808.324	4318
808.465	4383
808.607	4459
808.749	4485
808.891	4459
809.033	4527
809.174	4352
809.316	4268
809.458	4230
809.6	4147
809.741	4177
809.883	4147
810.025	4223
810.166	4253
810.308	4196
810.45	4253
810.591	4268
810.733	4257
810.875	4523
811.016	4839
811.158	5094
811.299	5269
811.441	5296
811.582	5098
811.724	4702
811.865	4519
812.007	4493
812.148	4462
812.29	4508
812.431	4424
812.573	4405
812.714	4383
812.855	4390
812.997	4394
813.138	4493
813.279	4375
813.421	4360
813.562	4348
813.703	4371
813.845	4348
813.986	4238
814.127	4215
814.268	4287
814.41	4295
814.551	4253
814.692	4306
814.833	4284
814.974	4325
815.115	4363
815.256	4284
815.397	4295
815.539	4280
815.68	4215
815.821	4227
815.962	4356
816.103	4257
816.244	4280
816.385	4246
816.526	4310
816.666	4268
816.807	4131
816.948	4211
817.089	4200
817.23	4135
817.371	4082
817.512	4078
817.653	4097
817.793	4032
817.934	4025
818.075	4082
818.216	4116
818.356	4078
818.497	4017
818.638	3945
818.778	3945
818.919	3953
819.06	3926
819.2	3922
819.341	3823
819.481	3850
819.622	3926
819.762	4048
819.903	3983
820.043	3857
820.184	3823
820.324	3808
820.465	3876
820.605	3899
820.746	3876
820.886	3793
821.026	3972
821.167	3926
821.307	4021
821.447	4025
821.588	3972
821.728	3964
821.868	3892
822.008	3911
822.149	3899
822.289	3899
822.429	3774
822.569	3759
822.709	3846
822.849	3720
822.99	3728
823.13	3762
823.27	3808
823.41	3740
823.55	3705
823.69	3720
823.83	3766
823.97	3701
824.11	3633
824.25	3591
824.389	3660
824.529	3690
824.669	3629
824.809	3701
824.949	3743
825.089	3743
825.228	3701
825.368	3625
825.508	3534
825.648	3591
825.787	3591
825.927	3641
826.067	3698
826.206	3671
826.346	3838
826.485	3850
826.625	3857
826.765	3945
826.904	3831
827.044	3663
827.183	3515
827.323	3469
827.462	3473
827.601	3492
827.741	3477
827.88	3454
828.02	3424
828.159	3450
828.298	3511
828.437	3523
828.577	3469
828.716	3622
828.855	3458
828.994	3382
829.134	3351
829.273	3355
829.412	3367
829.551	3306
829.69	3367
829.829	3485
829.968	3542
830.107	3450
830.246	3473
830.385	3401
830.524	3386
830.663	3321
830.802	3272
830.941	3203
831.08	3188
831.219	3249
831.357	3264
831.496	3420
831.635	3272
831.774	3192
831.913	3188
832.051	3154
832.19	3123
832.329	3207
832.467	3135
832.606	3108
832.744	3169
832.883	3188
833.022	3207
833.16	3291
833.299	3287
833.437	3351
833.576	3367
833.714	3389
833.852	3450
833.991	3458
834.129	3496
834.267	3447
834.406	3435
834.544	3401
834.682	3431
834.821	3431
834.959	3633
835.097	3416
835.235	3561
835.373	3526
835.511	3534
835.65	3469
835.788	3496
835.926	3412
836.064	3409
836.202	3405
836.34	3614
836.478	3576
836.615	3561
836.753	3622
836.891	3667
837.029	3603
837.167	3622
837.305	3564
837.443	3553
837.58	3473
837.718	3637
837.856	3595
837.993	3545
838.131	3587
838.269	3591
838.406	3599
838.544	3584
838.681	3435
838.819	3439
838.956	3370
839.094	3397
839.231	3435
839.369	3526
839.506	3797
839.643	3648
839.781	3515
839.918	3439
840.055	3545
840.193	3530
840.33	3523
840.467	3568
840.604	3564
840.742	3861
840.879	3564
841.016	3580
841.153	3622
841.29	3793
841.427	3751
841.564	3720
841.701	3762
841.838	3694
841.975	3709
842.112	3717
842.249	3709
842.385	3679
842.522	3846
842.659	3667
842.796	3686
842.933	3724
843.069	3694
843.206	3720
843.343	3861
843.479	3789
843.616	3827
843.752	3709
843.889	3671
844.025	3842
844.162	3736
844.298	3857
844.435	3766
844.571	3789
844.708	3869
844.844	3991
844.98	3960
845.117	3983
845.253	3926
845.389	3930
845.525	4006
845.661	3991
845.798	3968
845.934	4002
846.07	3945
846.206	4090
846.342	4097
846.478	4044
846.614	3964
846.75	3918
846.886	3934
847.022	4055
847.158	3964
847.294	4013
847.429	4017
847.565	4010
847.701	4295
847.837	3876
847.972	3930
848.108	3968
848.244	3987
848.379	3899
848.515	3804
848.65	3789
848.786	3835
848.921	3907
849.057	3896
849.192	3926
849.328	3922
849.463	3953
849.598	3869
849.734	3911
849.869	3884
850.004	3816
850.14	3823
850.275	3804
850.41	3766
850.545	3759
850.68	3789
850.815	3789
850.95	3838
851.085	3953
851.22	3850
851.355	3823
851.49	3778
851.625	3800
851.76	3827
851.895	3804
852.03	3705
852.165	3778
852.299	3857
852.434	3884
852.569	3873
852.703	3861
852.838	3930
852.973	4010
853.107	3994
853.242	3876
853.376	3835
853.511	3759
853.645	3876
853.78	3964
853.914	3911
854.048	3892
854.183	3880
854.317	3987
854.451	4120
854.585	3945
854.72	3991
854.854	4074
854.988	3934
855.122	3983
855.256	3915
855.39	4017
855.524	4128
855.658	4112
855.792	4173
855.926	4128
856.06	4131
856.194	4234
856.327	4173
856.461	4120
856.595	4219
856.729	4181
856.862	4310
856.996	4249
857.13	4337
857.263	4341
857.397	4371
857.53	4291
857.664	4344
857.797	4394
857.931	4428
858.064	4421
858.197	4504
858.331	4394
858.464	4356
858.597	4356
858.731	4390
858.864	4451
858.997	4504
859.13	4493
859.263	4508
859.396	4615
859.529	4527
859.662	4538
859.795	4558
859.928	4649
860.061	4710
860.194	4805
860.327	4653
860.46	4691
860.592	4786
860.725	4797
860.858	4759
860.99	4714
861.123	4717
861.256	4714
861.388	4816
861.521	5497
861.653	4698
861.786	4702
861.918	4717
862.05	4835
862.183	4881
862.315	4873
862.447	4911
862.58	4881
862.712	4812
862.844	4752
862.976	4866
863.108	4908
863.24	5235
863.372	4805
863.504	4870
863.636	4873
863.768	4972
863.9	4965
864.032	4976
864.164	4999
864.296	5067
864.428	5124
864.559	5083
864.691	5090
864.823	5060
864.954	5181
865.086	5140
865.217	5174
865.349	5124
865.48	5197
865.612	5178
865.743	5337
865.875	5159
866.006	5220
866.137	5220
866.269	5227
866.4	5315
866.531	5258
866.662	5246
866.793	5288
866.924	5322
867.055	5341
867.186	5372
867.317	5307
867.448	5315
867.579	5341
867.71	5349
867.841	5402
867.972	5406
868.103	5425
868.233	5493
868.364	5524
868.495	5543
868.625	5657
868.756	5794
868.886	5718
869.017	5752
869.147	5923
869.278	5813
869.408	5805
869.539	5870
869.669	5889
869.799	5912
869.929	5984
870.06	6076
870.19	6213
870.32	6155
870.45	6216
870.58	6391
870.71	6429
870.84	6513
870.97	6388
871.1	6426
871.23	6608
871.36	6722
871.489	6741
871.619	6745
871.749	6810
871.879	6882
872.008	7046
872.138	6970
872.267	7034
872.397	6981
872.526	7061
872.656	7145
872.785	7232
872.915	7396
873.044	7514
873.173	7499
873.303	7609
873.432	7765
873.561	7864
873.69	7932
873.819	8054
873.948	8119
874.077	8275
874.206	8358
874.335	8389
874.464	8598
874.593	8853
874.722	8952
874.851	9192
874.979	9283
875.108	9458
875.237	9428
875.365	9492
875.494	9618
875.623	9804
875.751	9892
875.88	9998
876.008	10112
876.136	10234
876.265	10569
876.393	10668
876.521	10782
876.65	10866
876.778	10942
876.906	10923
877.034	10980
877.162	11045
877.29	11197
877.418	11288
877.546	11383
877.674	11486
877.802	11467
877.93	11497
878.058	11570
878.185	11570
878.313	11745
878.441	11741
878.568	11642
878.696	11828
878.824	11817
878.951	12003
879.079	11984
879.206	12182
879.333	12045
879.461	11980
879.588	12087
879.715	12129
879.842	12266
879.97	12076
880.097	11859
880.224	11927
880.351	11878
880.478	11878
880.605	11809
880.732	11840
880.859	11958
880.986	11805
881.112	11923
881.239	11688
881.366	11657
881.493	11619
881.619	11497
881.746	11551
881.872	11528
881.999	11463
882.125	11554
882.252	11509
882.378	11524
882.505	11585
882.631	11395
882.757	11284
882.883	11284
883.01	11239
883.136	11189
883.262	11109
883.388	11075
883.514	11181
883.64	11174
883.766	11124
883.892	10999
884.018	11010
884.143	11075
884.269	11140
884.395	10816
884.52	10725
884.646	10752
884.772	10767
884.897	10649
885.023	10668
885.148	10714
885.274	10820
885.399	10702
885.524	10641
885.65	10630
885.775	10561
885.9	10599
886.025	10561
886.15	10577
886.275	10508
886.4	10402
886.525	10474
886.65	10390
886.775	10322
886.9	10497
887.025	10531
887.149	10363
887.274	10230
887.399	10173
887.523	10166
887.648	10154
887.773	10150
887.897	10291
888.021	10238
888.146	10128
888.27	10147
888.395	10200
888.519	10196
888.643	10211
888.767	10166
888.891	10093
889.015	10059
889.139	10010
889.263	9998
889.387	10044
889.511	10097
889.635	10059
889.759	9915
889.883	9975
890.006	10044
890.13	10074
890.254	9983
890.377	9945
890.501	9800
890.624	9888
890.748	9899
890.871	9888
890.995	9797
891.118	9819
891.241	9709
891.364	9759
891.488	9873
891.611	9793
891.734	9789
891.857	9804
891.98	9675
892.103	9785
892.226	9682
892.349	9644
892.471	9564
892.594	9641
892.717	9633
892.839	9553
892.962	9679
893.085	9698
893.207	9648
893.33	9481
893.452	9523
893.575	9641
893.697	9584
893.819	9610
893.941	9648
894.064	9591
894.186	9420
894.308	9370
894.43	9542
894.552	9614
894.674	9553
894.796	9389
894.918	9389
895.04	9351
895.161	9359
895.283	9389
895.405	9351
895.526	9283
895.648	9256
895.769	9176
895.891	9211
896.012	9321
896.134	9241
896.255	9150
896.376	9157
896.498	9214
896.619	9127
896.74	9085
896.861	9093
896.982	9287
897.103	9268
897.224	9192
897.345	9123
897.466	9077
897.587	9089
897.708	9108
897.828	9032
897.949	8941
898.07	8849
898.19	8948
898.311	8967
898.431	8853
898.552	8918
898.672	9062
898.792	8967
898.913	8861
899.033	8838
899.153	8724
899.273	8701
899.393	8674
899.513	8712
899.633	8697
899.753	8792
899.873	8727
899.993	8773
900.113	8777
900.232	8659
900.352	8667
900.472	8663
900.591	8503
900.711	8610
900.83	8530
900.95	8697
901.069	8724
901.189	8587
901.308	8480
901.427	8381
901.546	8450
901.665	8480
901.784	8514
901.904	8442
902.023	8317
902.141	8225
902.26	8294
902.379	8225
902.498	8218
902.617	8199
902.735	8282
902.854	8305
902.973	8237
903.091	8195
903.21	8149
903.328	8218
903.446	8145
903.565	8092
903.683	8145
903.801	8016
903.919	8096
904.038	8084
904.156	7997
904.274	8088
904.392	8016
904.51	8016
904.627	8081
904.745	8069
904.863	8115
904.981	8008
905.098	7830
905.216	7845
905.334	7913
905.451	7913
905.569	7951
905.686	7967
905.803	7947
905.921	7769
906.038	7898
906.155	7830
906.272	7833
906.389	7723
906.506	7674
906.623	7624
906.74	7556
906.857	7556
906.974	7636
907.091	7689
907.208	7750
907.324	7662
907.441	7605
907.557	7441
907.674	7464
907.79	7419
907.907	7411
908.023	7510
908.139	7438
908.256	7430
908.372	7350
908.488	7358
908.604	7247
908.72	7263
908.836	7358
908.952	7270
909.068	7316
909.184	7312
909.3	7263
909.415	7282
909.531	7259
909.647	7126
909.762	7095
909.878	7027
909.993	7107
910.108	7141
910.224	7046
910.339	7122
910.454	7076
910.57	7000
910.685	6924
910.8	7221
910.915	7141
911.03	7019
911.145	6897
911.259	6928
911.374	6859
911.489	6878
911.604	6810
911.718	6662
911.833	6806
911.947	6646
912.062	6627
912.176	6734
912.291	6760
912.405	6646
912.519	6818
912.633	6833
912.748	6700
912.862	6760
912.976	6620
913.09	6494
913.204	6642
913.318	6608
913.431	6684
913.545	6719
913.659	6745
913.772	6662
913.886	6517
914	6540
914.113	6639
914.226	6646
914.34	6620
914.453	6513
914.566	6566
914.68	6547
914.793	6509
914.906	6464
915.019	6452
915.132	6407
915.245	6414
915.358	6486
915.47	6441
915.583	6467
915.696	6490
915.809	6536
915.921	6620
916.034	6376
916.146	6467
916.259	6464
916.371	6521
916.483	6441
916.595	6456
916.708	6464
916.82	6467
916.932	6331
917.044	6388
917.156	6437
917.268	6327
917.38	6327
917.491	6315
917.603	6304
917.715	6407
917.826	6422
917.938	6311
918.049	6220
918.161	6304
918.272	6460
918.384	6414
918.495	6361
918.606	6319
918.717	6175
918.828	6243
918.939	6247
919.05	6209
919.161	6296
919.272	6121
919.383	6152
919.494	6327
919.604	6422
919.715	6319
919.826	6205
919.936	6277
920.047	6292
920.157	6304
920.267	6475
920.378	6296
920.488	6300
920.598	6517
920.708	6563
920.818	6437
920.928	6483
921.038	6601
921.148	6639
921.258	6338
921.368	6327
921.477	6216
921.587	6194
921.697	6076
921.806	6194
921.916	6038
922.025	5973
922.134	5939
922.244	5942
922.353	5946
922.462	5859
922.571	5836
922.68	5737
922.789	5703
922.898	5790
923.007	5661
923.116	5741
923.224	5657
923.333	5672
923.442	5573
923.55	5585
923.659	5608
923.767	5649
923.876	5554
923.984	5619
924.092	5535
924.201	5596
924.309	5512
924.417	5547
924.525	5532
924.633	5497
924.741	6114
924.849	5387
924.956	5417
925.064	5402
925.172	5311
925.279	5330
925.387	5383
925.494	5337
925.602	5429
925.709	5402
925.816	5315
925.924	5330
926.031	5376
926.138	5349
926.245	5307
926.352	5242
926.459	5330
926.566	5357
926.673	5193
926.779	5166
926.886	5117
926.993	5041
927.099	4999
927.206	4980
927.312	4984
927.419	5003
927.525	4957
927.631	5003
927.737	4896
927.843	4885
927.95	4809
928.056	4858
928.162	4831
928.267	4870
928.373	5349
928.479	4885
928.585	4698
928.69	4763
928.796	4778
928.901	4717
929.007	4596
929.112	4660
929.218	4630
929.323	4641
929.428	4573
929.533	4683
929.638	4493
929.743	4596
929.848	4588
929.953	4535
930.058	4459
930.163	4360
930.267	4329
930.372	4474
930.477	4295
930.581	4474
930.685	4367
930.79	4257
930.894	4265
930.998	4223
931.103	4386
931.207	4169
931.311	4093
931.415	4059
931.519	3934
931.623	3945
