Data from glass_V78500241_2875.txt Node
Date: Wed Sep 01 19:34:25 CST 2021
User: usil
Spectrometer: V785-0024
Trigger mode: 0
Integration Time (sec): 4.000000E-1
Scans to average: 1
Nonlinearity correction enabled: false
Boxcar width: 0
Storing dark spectrum: false
XAxis mode: Wavelengths
Number of Pixels in Spectrum: 1024
>>>>>Begin Spectral Data<<<<<
801.071	3743
801.214	3751
801.356	3724
801.499	3743
801.641	3717
801.783	3720
801.926	3865
802.068	3781
802.211	3835
802.353	3903
802.496	3831
802.638	3827
802.78	3903
802.923	3846
803.065	3911
803.208	3865
803.35	3876
803.492	3876
803.635	3903
803.777	3728
803.919	3861
804.061	4143
804.204	3983
804.346	3930
804.488	3854
804.63	4017
804.773	3975
804.915	4021
805.057	4131
805.199	4032
805.341	4044
805.483	4112
805.626	4135
805.768	4055
805.91	4204
806.052	4246
806.194	4188
806.336	4314
806.478	4173
806.62	4185
806.762	4162
806.904	4272
807.046	4284
807.188	4158
807.33	4147
807.472	4246
807.614	4177
807.756	4272
807.898	4215
808.04	4234
808.182	4234
808.324	4314
808.465	4325
808.607	4413
808.749	4413
808.891	4413
809.033	4481
809.174	4390
809.316	4227
809.458	4207
809.6	4158
809.741	4124
809.883	4150
810.025	4200
810.166	4227
810.308	4166
810.45	4227
810.591	4185
810.733	4272
810.875	4519
811.016	4748
811.158	5102
811.299	5296
811.441	5269
811.582	5033
811.724	4675
811.865	4466
812.007	4497
812.148	4383
812.29	4405
812.431	4405
812.573	4413
812.714	4386
812.855	4394
812.997	4386
813.138	4417
813.279	4367
813.421	4371
813.562	4329
813.703	4299
813.845	4291
813.986	4234
814.127	4211
814.268	4211
814.41	4257
814.551	4246
814.692	4295
814.833	4196
814.974	4303
815.115	4306
815.256	4234
815.397	4204
815.539	4207
815.68	4200
815.821	4200
815.962	4306
816.103	4257
816.244	4227
816.385	4185
816.526	4268
816.666	4211
816.807	4063
816.948	4143
817.089	4097
817.23	4074
817.371	4063
817.512	4017
817.653	4082
817.793	4021
817.934	4029
818.075	4109
818.216	4059
818.356	4036
818.497	3972
818.638	3915
818.778	3888
818.919	3903
819.06	3861
819.2	3911
819.341	3869
819.481	3808
819.622	3896
819.762	3979
819.903	3934
820.043	3842
820.184	3766
820.324	3861
820.465	3831
820.605	3808
820.746	3857
820.886	3751
821.026	3888
821.167	3880
821.307	3960
821.447	3960
821.588	3918
821.728	3899
821.868	3892
822.008	3846
822.149	3888
822.289	3861
822.429	3766
822.569	3713
822.709	3808
822.849	3690
822.99	3690
823.13	3720
823.27	3740
823.41	3698
823.55	3705
823.69	3724
823.83	3705
823.97	3614
824.11	3584
824.25	3572
824.389	3606
824.529	3648
824.669	3610
824.809	3679
824.949	3740
825.089	3713
825.228	3633
825.368	3538
825.508	3542
825.648	3572
825.787	3576
825.927	3614
826.067	3610
826.206	3644
826.346	3751
826.485	3797
826.625	3865
826.765	3896
826.904	3793
827.044	3591
827.183	3542
827.323	3405
827.462	3473
827.601	3443
827.741	3420
827.88	3397
828.02	3386
828.159	3454
828.298	3469
828.437	3504
828.577	3450
828.716	3557
828.855	3477
828.994	3374
829.134	3359
829.273	3378
829.412	3367
829.551	3336
829.69	3348
829.829	3386
829.968	3469
830.107	3386
830.246	3397
830.385	3344
830.524	3321
830.663	3302
830.802	3237
830.941	3192
831.08	3180
831.219	3260
831.357	3287
831.496	3397
831.635	3222
831.774	3169
831.913	3154
832.051	3127
832.19	3119
832.329	3192
832.467	3104
832.606	3081
832.744	3131
832.883	3146
833.022	3188
833.16	3211
833.299	3283
833.437	3306
833.576	3359
833.714	3389
833.852	3405
833.991	3405
834.129	3473
834.267	3428
834.406	3359
834.544	3416
834.682	3370
834.821	3386
834.959	3549
835.097	3420
835.235	3511
835.373	3492
835.511	3485
835.65	3431
835.788	3447
835.926	3386
836.064	3359
836.202	3386
836.34	3523
836.478	3629
836.615	3485
836.753	3599
836.891	3629
837.029	3610
837.167	3606
837.305	3538
837.443	3526
837.58	3481
837.718	3610
837.856	3507
837.993	3477
838.131	3595
838.269	3587
838.406	3538
838.544	3538
838.681	3447
838.819	3431
838.956	3336
839.094	3382
839.231	3420
839.369	3515
839.506	3701
839.643	3557
839.781	3447
839.918	3428
840.055	3515
840.193	3530
840.33	3477
840.467	3519
840.604	3564
840.742	3793
840.879	3564
841.016	3542
841.153	3587
841.29	3736
841.427	3679
841.564	3690
841.701	3720
841.838	3679
841.975	3641
842.112	3698
842.249	3633
842.385	3603
842.522	3804
842.659	3625
842.796	3648
842.933	3736
843.069	3671
843.206	3660
843.343	3819
843.479	3766
843.616	3736
843.752	3625
843.889	3682
844.025	3812
844.162	3694
844.298	3785
844.435	3778
844.571	3804
844.708	3930
844.844	3994
844.98	3972
845.117	4013
845.253	3884
845.389	3850
845.525	3960
845.661	3956
845.798	3861
845.934	3991
846.07	3884
846.206	4063
846.342	4082
846.478	4036
846.614	3949
846.75	3949
846.886	3892
847.022	3983
847.158	3934
847.294	4029
847.429	3979
847.565	4013
847.701	4207
847.837	3869
847.972	3835
848.108	3937
848.244	3972
848.379	3835
848.515	3778
848.65	3778
848.786	3762
848.921	3884
849.057	3888
849.192	3945
849.328	3896
849.463	3911
849.598	3865
849.734	3861
849.869	3819
850.004	3781
850.14	3743
850.275	3789
850.41	3701
850.545	3770
850.68	3766
850.815	3781
850.95	3774
851.085	3956
851.22	3823
851.355	3808
851.49	3816
851.625	3785
851.76	3774
851.895	3728
852.03	3747
852.165	3778
852.299	3823
852.434	3888
852.569	3850
852.703	3857
852.838	3892
852.973	3964
853.107	3975
853.242	3888
853.376	3854
853.511	3762
853.645	3838
853.78	3907
853.914	3896
854.048	3922
854.183	3846
854.317	3922
854.451	4029
854.585	3903
854.72	3937
854.854	4013
854.988	3892
855.122	3983
855.256	3880
855.39	3972
855.524	4112
855.658	4063
855.792	4078
855.926	4120
856.06	4166
856.194	4169
856.327	4032
856.461	4055
856.595	4139
856.729	4162
856.862	4230
856.996	4200
857.13	4242
857.263	4314
857.397	4348
857.53	4257
857.664	4371
857.797	4360
857.931	4329
858.064	4363
858.197	4462
858.331	4375
858.464	4363
858.597	4360
858.731	4432
858.864	4466
858.997	4432
859.13	4500
859.263	4474
859.396	4588
859.529	4500
859.662	4535
859.795	4512
859.928	4542
860.061	4615
860.194	4694
860.327	4687
860.46	4580
860.592	4698
860.725	4774
860.858	4759
860.99	4736
861.123	4687
861.256	4698
861.388	4755
861.521	5395
861.653	4714
861.786	4668
861.918	4752
862.05	4763
862.183	4847
862.315	4915
862.447	4908
862.58	4843
862.712	4786
862.844	4748
862.976	4877
863.108	4831
863.24	5197
863.372	4797
863.504	4862
863.636	4915
863.768	4949
863.9	4946
864.032	4896
864.164	4942
864.296	4987
864.428	5033
864.559	5105
864.691	5083
864.823	5105
864.954	5094
865.086	5136
865.217	5075
865.349	5098
865.48	5128
865.612	5151
865.743	5227
865.875	5189
866.006	5159
866.137	5212
866.269	5193
866.4	5242
866.531	5208
866.662	5185
866.793	5216
866.924	5265
867.055	5326
867.186	5349
867.317	5280
867.448	5326
867.579	5299
867.71	5360
867.841	5425
867.972	5467
868.103	5421
868.233	5433
868.364	5516
868.495	5490
868.625	5680
868.756	5783
868.886	5649
869.017	5718
869.147	5863
869.278	5897
869.408	5710
869.539	5832
869.669	5942
869.799	5901
869.929	5965
870.06	6007
870.19	6190
870.32	6213
870.45	6190
870.58	6338
870.71	6391
870.84	6437
870.97	6407
871.1	6426
871.23	6631
871.36	6726
871.489	6574
871.619	6711
871.749	6863
871.879	6837
872.008	6935
872.138	6951
872.267	6973
872.397	6905
872.526	7004
872.656	7091
872.785	7202
872.915	7331
873.044	7468
873.173	7540
873.303	7597
873.432	7727
873.561	7871
873.69	7822
873.819	7959
873.948	8191
874.077	8286
874.206	8381
874.335	8423
874.464	8629
874.593	8834
874.722	8952
874.851	9009
874.979	9199
875.108	9275
875.237	9386
875.365	9435
875.494	9644
875.623	9800
875.751	9831
875.88	10025
876.008	10192
876.136	10230
876.265	10535
876.393	10721
876.521	10634
876.65	10805
876.778	10805
876.906	10923
877.034	10984
877.162	11113
877.29	11185
877.418	11311
877.546	11356
877.674	11402
877.802	11497
877.93	11501
878.058	11493
878.185	11516
878.313	11688
878.441	11668
878.568	11771
878.696	11764
878.824	11764
878.951	11931
879.079	11950
879.206	12098
879.333	12034
879.461	11973
879.588	11973
879.715	11954
879.842	12251
879.97	12049
880.097	11874
880.224	11855
880.351	11843
880.478	11863
880.605	11733
880.732	11760
880.859	11847
880.986	11855
881.112	11794
881.239	11798
881.366	11630
881.493	11570
881.619	11493
881.746	11528
881.872	11478
881.999	11509
882.125	11535
882.252	11509
882.378	11414
882.505	11528
882.631	11349
882.757	11315
882.883	11277
883.01	11235
883.136	11235
883.262	11147
883.388	11060
883.514	11147
883.64	11132
883.766	11121
883.892	10976
884.018	10953
884.143	11006
884.269	11025
884.395	10843
884.52	10740
884.646	10797
884.772	10683
884.897	10618
885.023	10683
885.148	10702
885.274	10774
885.399	10607
885.524	10577
885.65	10573
885.775	10588
885.9	10508
886.025	10577
886.15	10508
886.275	10481
886.4	10356
886.525	10341
886.65	10424
886.775	10291
886.9	10462
887.025	10516
887.149	10295
887.274	10280
887.399	10112
887.523	10120
887.648	10105
887.773	10090
887.897	10219
888.021	10188
888.146	10071
888.27	10242
888.395	10177
888.519	10185
888.643	10162
888.767	10120
888.891	10128
889.015	9994
889.139	10059
889.263	9941
889.387	10086
889.511	10093
889.635	10059
889.759	9846
889.883	9892
890.006	9937
890.13	10025
890.254	9945
890.377	9983
890.501	9770
890.624	9804
890.748	9926
890.871	9770
890.995	9751
891.118	9682
891.241	9759
891.364	9682
891.488	9816
891.611	9660
891.734	9705
891.857	9705
891.98	9709
892.103	9713
892.226	9644
892.349	9663
892.471	9507
892.594	9511
892.717	9603
892.839	9553
892.962	9553
893.085	9625
893.207	9580
893.33	9462
893.452	9515
893.575	9538
893.697	9447
893.819	9534
893.941	9549
894.064	9587
894.186	9412
894.308	9378
894.43	9515
894.552	9534
894.674	9450
894.796	9386
894.918	9344
895.04	9321
895.161	9355
895.283	9294
895.405	9142
895.526	9317
895.648	9165
895.769	9154
895.891	9226
896.012	9291
896.134	9199
896.255	9165
896.376	9100
896.498	9119
896.619	9066
896.74	9047
896.861	9058
896.982	9180
897.103	9348
897.224	9173
897.345	9093
897.466	9039
897.587	9047
897.708	9093
897.828	8887
897.949	8883
898.07	8880
898.19	8876
898.311	9005
898.431	8902
898.552	8845
898.672	8925
898.792	8975
898.913	8906
899.033	8785
899.153	8708
899.273	8663
899.393	8716
899.513	8689
899.633	8606
899.753	8674
899.873	8686
899.993	8667
900.113	8701
900.232	8712
900.352	8625
900.472	8533
900.591	8454
900.711	8560
900.83	8484
900.95	8644
901.069	8705
901.189	8488
901.308	8377
901.427	8415
901.546	8381
901.665	8434
901.784	8514
901.904	8366
902.023	8305
902.141	8233
902.26	8187
902.379	8294
902.498	8195
902.617	8240
902.735	8317
902.854	8282
902.973	8259
903.091	8149
903.21	8043
903.328	8096
903.446	8153
903.565	8024
903.683	8092
903.801	8001
903.919	8092
904.038	8100
904.156	8046
904.274	8081
904.392	7970
904.51	8058
904.627	7993
904.745	8050
904.863	8123
904.981	7906
905.098	7837
905.216	7818
905.334	7837
905.451	7955
905.569	7887
905.686	7906
905.803	7902
905.921	7769
906.038	7871
906.155	7826
906.272	7674
906.389	7723
906.506	7613
906.623	7582
906.74	7628
906.857	7510
906.974	7525
907.091	7712
907.208	7655
907.324	7586
907.441	7537
907.557	7419
907.674	7415
907.79	7392
907.907	7396
908.023	7388
908.139	7430
908.256	7362
908.372	7278
908.488	7354
908.604	7228
908.72	7228
908.836	7221
908.952	7259
909.068	7202
909.184	7331
909.3	7240
909.415	7266
909.531	7274
909.647	7088
909.762	7084
909.878	7027
909.993	7099
910.108	7065
910.224	7012
910.339	7118
910.454	6920
910.57	7065
910.685	6993
910.8	7069
910.915	7126
911.03	7034
911.145	6863
911.259	6821
911.374	6882
911.489	6787
911.604	6749
911.718	6692
911.833	6684
911.947	6604
912.062	6536
912.176	6631
912.291	6692
912.405	6669
912.519	6859
912.633	6753
912.748	6730
912.862	6662
912.976	6604
913.09	6532
913.204	6589
913.318	6620
913.431	6631
913.545	6627
913.659	6722
913.772	6654
913.886	6513
914	6525
914.113	6547
914.226	6582
914.34	6604
914.453	6509
914.566	6582
914.68	6506
914.793	6582
914.906	6437
915.019	6391
915.132	6350
915.245	6361
915.358	6456
915.47	6414
915.583	6426
915.696	6433
915.809	6429
915.921	6513
916.034	6376
916.146	6353
916.259	6456
916.371	6418
916.483	6418
916.595	6338
916.708	6410
916.82	6338
916.932	6372
917.044	6319
917.156	6342
917.268	6270
917.38	6281
917.491	6262
917.603	6357
917.715	6426
917.826	6410
917.938	6292
918.049	6220
918.161	6361
918.272	6388
918.384	6369
918.495	6327
918.606	6251
918.717	6175
918.828	6235
918.939	6258
919.05	6171
919.161	6224
919.272	6155
919.383	6136
919.494	6273
919.604	6460
919.715	6243
919.826	6178
919.936	6155
920.047	6281
920.157	6235
920.267	6342
920.378	6258
920.488	6289
920.598	6441
920.708	6547
920.818	6407
920.928	6437
921.038	6448
921.148	6540
921.258	6369
921.368	6311
921.477	6175
921.587	6140
921.697	6060
921.806	6117
921.916	6102
922.025	5882
922.134	5874
922.244	5840
922.353	5908
922.462	5851
922.571	5786
922.68	5638
922.789	5684
922.898	5634
923.007	5573
923.116	5703
923.224	5619
923.333	5661
923.442	5566
923.55	5554
923.659	5524
923.767	5604
923.876	5520
923.984	5562
924.092	5471
924.201	5570
924.309	5490
924.417	5505
924.525	5459
924.633	5482
924.741	6167
924.849	5368
924.956	5433
925.064	5357
925.172	5280
925.279	5265
925.387	5334
925.494	5284
925.602	5421
925.709	5357
925.816	5284
925.924	5269
926.031	5292
926.138	5277
926.245	5337
926.352	5231
926.459	5284
926.566	5311
926.673	5204
926.779	5094
926.886	5083
926.993	5014
927.099	4991
927.206	4953
927.312	4976
927.419	4961
927.525	4999
927.631	4995
927.737	4843
927.843	4828
927.95	4763
928.056	4767
928.162	4786
928.267	4835
928.373	5201
928.479	4828
928.585	4664
928.69	4706
928.796	4733
928.901	4668
929.007	4580
929.112	4653
929.218	4615
929.323	4577
929.428	4588
929.533	4698
929.638	4497
929.743	4542
929.848	4512
929.953	4470
930.058	4398
930.163	4268
930.267	4322
930.372	4379
930.477	4299
930.581	4440
930.685	4325
930.79	4238
930.894	4257
930.998	4196
931.103	4337
931.207	4135
931.311	4071
931.415	4048
931.519	3903
931.623	3915
