Data from glass_V78500241_435.txt Node
Date: Wed Sep 01 19:17:30 CST 2021
User: usil
Spectrometer: V785-0024
Trigger mode: 0
Integration Time (sec): 4.000000E-1
Scans to average: 1
Nonlinearity correction enabled: false
Boxcar width: 0
Storing dark spectrum: false
XAxis mode: Wavelengths
Number of Pixels in Spectrum: 1024
>>>>>Begin Spectral Data<<<<<
801.071	3770
801.214	3751
801.356	3728
801.499	3717
801.641	3751
801.783	3854
801.926	3842
802.068	3831
802.211	3899
802.353	3911
802.496	3835
802.638	3911
802.78	3941
802.923	3911
803.065	3922
803.208	3869
803.35	3854
803.492	3960
803.635	3922
803.777	3823
803.919	3945
804.061	4131
804.204	3964
804.346	3953
804.488	3888
804.63	4044
804.773	3941
804.915	4013
805.057	4116
805.199	4063
805.341	4097
805.483	4162
805.626	4173
805.768	4116
805.91	4234
806.052	4227
806.194	4173
806.336	4333
806.478	4200
806.62	4196
806.762	4211
806.904	4268
807.046	4344
807.188	4181
807.33	4154
807.472	4249
807.614	4177
807.756	4280
807.898	4257
808.04	4257
808.182	4291
808.324	4310
808.465	4394
808.607	4504
808.749	4421
808.891	4470
809.033	4504
809.174	4402
809.316	4249
809.458	4246
809.6	4181
809.741	4135
809.883	4139
810.025	4219
810.166	4230
810.308	4291
810.45	4325
810.591	4253
810.733	4329
810.875	4516
811.016	4885
811.158	5178
811.299	5284
811.441	5299
811.582	5064
811.724	4721
811.865	4466
812.007	4493
812.148	4432
812.29	4451
812.431	4413
812.573	4402
812.714	4402
812.855	4443
812.997	4390
813.138	4527
813.279	4417
813.421	4402
813.562	4371
813.703	4367
813.845	4375
813.986	4265
814.127	4234
814.268	4253
814.41	4303
814.551	4238
814.692	4329
814.833	4318
814.974	4284
815.115	4390
815.256	4291
815.397	4295
815.539	4265
815.68	4227
815.821	4166
815.962	4318
816.103	4306
816.244	4242
816.385	4284
816.526	4280
816.666	4192
816.807	4131
816.948	4185
817.089	4196
817.23	4135
817.371	4116
817.512	4048
817.653	4059
817.793	4051
817.934	4086
818.075	4105
818.216	4120
818.356	4074
818.497	4044
818.638	3884
818.778	3911
818.919	3892
819.06	3865
819.2	3918
819.341	3861
819.481	3857
819.622	3915
819.762	4010
819.903	3972
820.043	3876
820.184	3812
820.324	3888
820.465	3876
820.605	3850
820.746	3888
820.886	3789
821.026	3949
821.167	3911
821.307	3975
821.447	3987
821.588	3911
821.728	3987
821.868	3941
822.008	3918
822.149	3911
822.289	3945
822.429	3854
822.569	3774
822.709	3793
822.849	3743
822.99	3778
823.13	3766
823.27	3816
823.41	3759
823.55	3759
823.69	3736
823.83	3755
823.97	3728
824.11	3633
824.25	3561
824.389	3606
824.529	3679
824.669	3682
824.809	3755
824.949	3789
825.089	3736
825.228	3705
825.368	3580
825.508	3564
825.648	3625
825.787	3610
825.927	3648
826.067	3614
826.206	3686
826.346	3781
826.485	3873
826.625	3876
826.765	3987
826.904	3876
827.044	3618
827.183	3568
827.323	3458
827.462	3462
827.601	3458
827.741	3443
827.88	3431
828.02	3355
828.159	3481
828.298	3488
828.437	3557
828.577	3458
828.716	3587
828.855	3473
828.994	3389
829.134	3382
829.273	3416
829.412	3378
829.551	3355
829.69	3374
829.829	3450
829.968	3545
830.107	3477
830.246	3450
830.385	3389
830.524	3386
830.663	3325
830.802	3279
830.941	3211
831.08	3211
831.219	3294
831.357	3268
831.496	3409
831.635	3272
831.774	3176
831.913	3218
832.051	3157
832.19	3131
832.329	3226
832.467	3146
832.606	3161
832.744	3169
832.883	3199
833.022	3203
833.16	3279
833.299	3351
833.437	3374
833.576	3363
833.714	3439
833.852	3428
833.991	3454
834.129	3447
834.267	3435
834.406	3416
834.544	3439
834.682	3428
834.821	3424
834.959	3564
835.097	3431
835.235	3523
835.373	3504
835.511	3500
835.65	3458
835.788	3492
835.926	3397
836.064	3409
836.202	3428
836.34	3606
836.478	3614
836.615	3526
836.753	3591
836.891	3682
837.029	3648
837.167	3595
837.305	3568
837.443	3545
837.58	3545
837.718	3622
837.856	3568
837.993	3587
838.131	3618
838.269	3633
838.406	3633
838.544	3564
838.681	3492
838.819	3473
838.956	3363
839.094	3424
839.231	3534
839.369	3568
839.506	3774
839.643	3675
839.781	3466
839.918	3504
840.055	3534
840.193	3542
840.33	3534
840.467	3572
840.604	3591
840.742	3819
840.879	3584
841.016	3576
841.153	3629
841.29	3740
841.427	3736
841.564	3713
841.701	3785
841.838	3713
841.975	3698
842.112	3690
842.249	3663
842.385	3614
842.522	3850
842.659	3724
842.796	3701
842.933	3747
843.069	3705
843.206	3751
843.343	3850
843.479	3800
843.616	3819
843.752	3709
843.889	3705
844.025	3835
844.162	3724
844.298	3838
844.435	3800
844.571	3789
844.708	3937
844.844	4010
844.98	4040
845.117	3998
845.253	3934
845.389	3918
845.525	3922
845.661	4025
845.798	3949
845.934	4059
846.07	3937
846.206	4074
846.342	4101
846.478	4097
846.614	3960
846.75	3949
846.886	3945
847.022	4071
847.158	4021
847.294	4036
847.429	4071
847.565	4013
847.701	4196
847.837	3926
847.972	3892
848.108	3994
848.244	3975
848.379	3896
848.515	3835
848.65	3846
848.786	3903
848.921	3892
849.057	3975
849.192	3972
849.328	3937
849.463	3945
849.598	3880
849.734	3896
849.869	3819
850.004	3831
850.14	3873
850.275	3831
850.41	3747
850.545	3797
850.68	3800
850.815	3785
850.95	3785
851.085	3945
851.22	3884
851.355	3876
851.49	3770
851.625	3797
851.76	3835
851.895	3759
852.03	3743
852.165	3823
852.299	3876
852.434	3926
852.569	3880
852.703	3903
852.838	3960
852.973	4040
853.107	4010
853.242	3941
853.376	3857
853.511	3800
853.645	3854
853.78	3991
853.914	3945
854.048	3884
854.183	3880
854.317	3953
854.451	4059
854.585	4002
854.72	3964
854.854	4048
854.988	3915
855.122	4010
855.256	3937
855.39	4021
855.524	4078
855.658	4101
855.792	4082
855.926	4154
856.06	4173
856.194	4223
856.327	4200
856.461	4139
856.595	4139
856.729	4188
856.862	4310
856.996	4230
857.13	4325
857.263	4314
857.397	4383
857.53	4318
857.664	4352
857.797	4443
857.931	4428
858.064	4386
858.197	4500
858.331	4440
858.464	4421
858.597	4363
858.731	4428
858.864	4447
858.997	4451
859.13	4508
859.263	4538
859.396	4599
859.529	4558
859.662	4554
859.795	4554
859.928	4630
860.061	4691
860.194	4729
860.327	4660
860.46	4664
860.592	4740
860.725	4801
860.858	4820
860.99	4725
861.123	4698
861.256	4702
861.388	4812
861.521	5406
861.653	4725
861.786	4698
861.918	4771
862.05	4755
862.183	4908
862.315	4900
862.447	4957
862.58	4923
862.712	4839
862.844	4744
862.976	4862
863.108	4873
863.24	5235
863.372	4824
863.504	4927
863.636	4873
863.768	4965
863.9	5003
864.032	4972
864.164	4934
864.296	5056
864.428	5048
864.559	5102
864.691	5117
864.823	5132
864.954	5178
865.086	5185
865.217	5162
865.349	5094
865.48	5170
865.612	5216
865.743	5337
865.875	5227
866.006	5178
866.137	5193
866.269	5292
866.4	5269
866.531	5216
866.662	5235
866.793	5273
866.924	5288
867.055	5391
867.186	5372
867.317	5307
867.448	5254
867.579	5398
867.71	5414
867.841	5417
867.972	5478
868.103	5448
868.233	5448
868.364	5467
868.495	5589
868.625	5630
868.756	5798
868.886	5619
869.017	5756
869.147	5885
869.278	5950
869.408	5828
869.539	5859
869.669	5935
869.799	5912
869.929	5946
870.06	5904
870.19	6167
870.32	6190
870.45	6346
870.58	6441
870.71	6464
870.84	6498
870.97	6422
871.1	6433
871.23	6642
871.36	6703
871.489	6669
871.619	6787
871.749	6802
871.879	6795
872.008	6973
872.138	6913
872.267	7057
872.397	7091
872.526	7042
872.656	7164
872.785	7194
872.915	7445
873.044	7609
873.173	7521
873.303	7628
873.432	7746
873.561	7887
873.69	7917
873.819	8024
873.948	8191
874.077	8301
874.206	8259
874.335	8469
874.464	8648
874.593	8921
874.722	8941
874.851	9104
874.979	9245
875.108	9370
875.237	9431
875.365	9424
875.494	9690
875.623	9785
875.751	9835
875.88	10090
876.008	10082
876.136	10299
876.265	10493
876.393	10706
876.521	10710
876.65	10824
876.778	10847
876.906	10904
877.034	10946
877.162	11132
877.29	11155
877.418	11235
877.546	11387
877.674	11520
877.802	11463
877.93	11573
878.058	11600
878.185	11558
878.313	11619
878.441	11764
878.568	11741
878.696	11794
878.824	11817
878.951	11992
879.079	11931
879.206	12053
879.333	12152
879.461	11942
879.588	12091
879.715	12098
879.842	12315
879.97	12098
880.097	11973
880.224	11843
880.351	11885
880.478	11870
880.605	11870
880.732	11821
880.859	12034
880.986	11828
881.112	11843
881.239	11661
881.366	11684
881.493	11642
881.619	11516
881.746	11547
881.872	11486
881.999	11600
882.125	11493
882.252	11516
882.378	11493
882.505	11558
882.631	11414
882.757	11311
882.883	11311
883.01	11284
883.136	11242
883.262	11090
883.388	11083
883.514	11136
883.64	11208
883.766	11128
883.892	10976
884.018	10885
884.143	11033
884.269	11235
884.395	10881
884.52	10740
884.646	10824
884.772	10740
884.897	10683
885.023	10763
885.148	10725
885.274	10744
885.399	10679
885.524	10675
885.65	10592
885.775	10584
885.9	10607
886.025	10599
886.15	10634
886.275	10440
886.4	10455
886.525	10386
886.65	10462
886.775	10333
886.9	10462
887.025	10580
887.149	10299
887.274	10215
887.399	10196
887.523	10131
887.648	10116
887.773	10086
887.897	10223
888.021	10234
888.146	10207
888.27	10257
888.395	10219
888.519	10177
888.643	10230
888.767	10211
888.891	10101
889.015	9987
889.139	10116
889.263	9979
889.387	10112
889.511	10090
889.635	10002
889.759	9964
889.883	9930
890.006	10048
890.13	10059
890.254	9960
890.377	9972
890.501	9903
890.624	9907
890.748	9926
890.871	9762
890.995	9755
891.118	9682
891.241	9747
891.364	9808
891.488	9861
891.611	9793
891.734	9675
891.857	9778
891.98	9800
892.103	9724
892.226	9705
892.349	9694
892.471	9572
892.594	9618
892.717	9614
892.839	9599
892.962	9534
893.085	9660
893.207	9572
893.33	9564
893.452	9572
893.575	9610
893.697	9469
893.819	9648
893.941	9660
894.064	9561
894.186	9458
894.308	9370
894.43	9473
894.552	9618
894.674	9538
894.796	9393
894.918	9450
895.04	9420
895.161	9351
895.283	9355
895.405	9237
895.526	9275
895.648	9249
895.769	9298
895.891	9207
896.012	9253
896.134	9298
896.255	9230
896.376	9173
896.498	9203
896.619	9161
896.74	9108
896.861	9066
896.982	9211
897.103	9351
897.224	9211
897.345	9036
897.466	9020
897.587	9062
897.708	9047
897.828	9001
897.949	9001
898.07	8853
898.19	8941
898.311	9028
898.431	8971
898.552	8937
898.672	8994
898.792	8933
898.913	8941
899.033	8777
899.153	8785
899.273	8644
899.393	8739
899.513	8785
899.633	8739
899.753	8731
899.873	8689
899.993	8807
900.113	8724
900.232	8708
900.352	8632
900.472	8667
900.591	8545
900.711	8587
900.83	8575
900.95	8621
901.069	8682
901.189	8552
901.308	8484
901.427	8423
901.546	8442
901.665	8514
901.784	8469
901.904	8355
902.023	8328
902.141	8240
902.26	8282
902.379	8358
902.498	8210
902.617	8199
902.735	8305
902.854	8298
902.973	8275
903.091	8111
903.21	8088
903.328	8126
903.446	8103
903.565	8134
903.683	8084
903.801	8024
903.919	8107
904.038	8164
904.156	7955
904.274	8111
904.392	8016
904.51	8024
904.627	8031
904.745	8058
904.863	8149
904.981	7917
905.098	7875
905.216	7871
905.334	7890
905.451	7921
905.569	7879
905.686	7936
905.803	7913
905.921	7700
906.038	7852
906.155	7807
906.272	7738
906.389	7738
906.506	7696
906.623	7594
906.74	7689
906.857	7518
906.974	7636
907.091	7719
907.208	7689
907.324	7677
907.441	7636
907.557	7476
907.674	7491
907.79	7441
907.907	7415
908.023	7411
908.139	7472
908.256	7445
908.372	7362
908.488	7362
908.604	7244
908.72	7236
908.836	7278
908.952	7232
909.068	7244
909.184	7308
909.3	7297
909.415	7350
909.531	7301
909.647	7179
909.762	7107
909.878	7103
909.993	7133
910.108	7133
910.224	7080
910.339	7091
910.454	7080
910.57	7046
910.685	6977
910.8	7263
910.915	7129
911.03	7019
911.145	6916
911.259	6856
911.374	6916
911.489	6848
911.604	6760
911.718	6741
911.833	6757
911.947	6635
912.062	6635
912.176	6753
912.291	6684
912.405	6681
912.519	6798
912.633	6859
912.748	6681
912.862	6764
912.976	6574
913.09	6544
913.204	6635
913.318	6639
913.431	6677
913.545	6730
913.659	6738
913.772	6650
913.886	6521
914	6570
914.113	6654
914.226	6574
914.34	6604
914.453	6528
914.566	6662
914.68	6525
914.793	6532
914.906	6452
915.019	6414
915.132	6426
915.245	6426
915.358	6479
915.47	6464
915.583	6422
915.696	6513
915.809	6570
915.921	6559
916.034	6486
916.146	6422
916.259	6353
916.371	6429
916.483	6471
916.595	6369
916.708	6437
916.82	6422
916.932	6388
917.044	6437
917.156	6479
917.268	6304
917.38	6350
917.491	6308
917.603	6365
917.715	6414
917.826	6437
917.938	6361
918.049	6258
918.161	6357
918.272	6376
918.384	6452
918.495	6350
918.606	6232
918.717	6262
918.828	6205
918.939	6323
919.05	6209
919.161	6296
919.272	6136
919.383	6133
919.494	6331
919.604	6441
919.715	6281
919.826	6190
919.936	6213
920.047	6350
920.157	6308
920.267	6452
920.378	6331
920.488	6270
920.598	6460
920.708	6597
920.818	6574
920.928	6407
921.038	6707
921.148	6601
921.258	6384
921.368	6346
921.477	6228
921.587	6167
921.697	6079
921.806	6175
921.916	6114
922.025	5920
922.134	5954
922.244	5824
922.353	5954
922.462	5832
922.571	5878
922.68	5699
922.789	5688
922.898	5764
923.007	5661
923.116	5741
923.224	5680
923.333	5642
923.442	5642
923.55	5604
923.659	5646
923.767	5623
923.876	5512
923.984	5608
924.092	5577
924.201	5554
924.309	5573
924.417	5585
924.525	5490
924.633	5493
924.741	6216
924.849	5372
924.956	5520
925.064	5379
925.172	5277
925.279	5326
925.387	5357
925.494	5372
925.602	5387
925.709	5402
925.816	5273
925.924	5318
926.031	5391
926.138	5299
926.245	5349
926.352	5250
926.459	5334
926.566	5334
926.673	5212
926.779	5143
926.886	5094
926.993	5067
927.099	4957
927.206	5003
927.312	4976
927.419	4999
927.525	4987
927.631	4972
927.737	4873
927.843	4911
927.95	4805
928.056	4831
928.162	4782
928.267	4805
928.373	5258
928.479	4858
928.585	4687
928.69	4801
928.796	4790
928.901	4698
929.007	4607
929.112	4710
929.218	4660
929.323	4607
929.428	4611
929.533	4725
929.638	4531
929.743	4527
929.848	4630
929.953	4531
930.058	4379
930.163	4367
930.267	4341
930.372	4451
930.477	4318
930.581	4436
930.685	4360
930.79	4272
930.894	4280
930.998	4276
931.103	4417
931.207	4124
931.311	4090
931.415	4063
931.519	3926
931.623	3956
