Data from glass_V78500241_2788.txt Node
Date: Wed Sep 01 19:33:49 CST 2021
User: usil
Spectrometer: V785-0024
Trigger mode: 0
Integration Time (sec): 4.000000E-1
Scans to average: 1
Nonlinearity correction enabled: false
Boxcar width: 0
Storing dark spectrum: false
XAxis mode: Wavelengths
Number of Pixels in Spectrum: 1024
>>>>>Begin Spectral Data<<<<<
801.071	3701
801.214	3671
801.356	3686
801.499	3709
801.641	3660
801.783	3766
801.926	3835
802.068	3861
802.211	3850
802.353	3892
802.496	3793
802.638	3888
802.78	3907
802.923	3911
803.065	3873
803.208	3876
803.35	3831
803.492	3873
803.635	3838
803.777	3778
803.919	3888
804.061	4101
804.204	3987
804.346	3899
804.488	3926
804.63	4017
804.773	3964
804.915	3987
805.057	4116
805.199	4044
805.341	4086
805.483	4101
805.626	4139
805.768	4109
805.91	4181
806.052	4223
806.194	4177
806.336	4325
806.478	4185
806.62	4166
806.762	4185
806.904	4192
807.046	4299
807.188	4192
807.33	4207
807.472	4234
807.614	4223
807.756	4227
807.898	4234
808.04	4166
808.182	4234
808.324	4291
808.465	4348
808.607	4440
808.749	4447
808.891	4462
809.033	4470
809.174	4394
809.316	4227
809.458	4223
809.6	4154
809.741	4158
809.883	4177
810.025	4211
810.166	4154
810.308	4185
810.45	4200
810.591	4215
810.733	4242
810.875	4447
811.016	4812
811.158	5102
811.299	5246
811.441	5280
811.582	5022
811.724	4664
811.865	4478
812.007	4493
812.148	4436
812.29	4394
812.431	4398
812.573	4398
812.714	4325
812.855	4432
812.997	4405
813.138	4508
813.279	4394
813.421	4394
813.562	4333
813.703	4341
813.845	4291
813.986	4284
814.127	4211
814.268	4185
814.41	4303
814.551	4227
814.692	4295
814.833	4219
814.974	4322
815.115	4314
815.256	4215
815.397	4215
815.539	4234
815.68	4200
815.821	4215
815.962	4299
816.103	4207
816.244	4188
816.385	4223
816.526	4306
816.666	4234
816.807	4082
816.948	4139
817.089	4211
817.23	4090
817.371	4071
817.512	3987
817.653	4036
817.793	4032
817.934	4059
818.075	4101
818.216	4040
818.356	4067
818.497	3987
818.638	3857
818.778	3865
818.919	3899
819.06	3835
819.2	3915
819.341	3884
819.481	3800
819.622	3907
819.762	4013
819.903	3987
820.043	3846
820.184	3835
820.324	3766
820.465	3876
820.605	3846
820.746	3831
820.886	3778
821.026	3911
821.167	3892
821.307	3956
821.447	3949
821.588	3907
821.728	3945
821.868	3934
822.008	3850
822.149	3899
822.289	3884
822.429	3743
822.569	3762
822.709	3785
822.849	3720
822.99	3724
823.13	3740
823.27	3766
823.41	3713
823.55	3740
823.69	3709
823.83	3694
823.97	3713
824.11	3557
824.25	3584
824.389	3648
824.529	3660
824.669	3618
824.809	3724
824.949	3747
825.089	3736
825.228	3663
825.368	3591
825.508	3519
825.648	3553
825.787	3603
825.927	3606
826.067	3568
826.206	3622
826.346	3747
826.485	3819
826.625	3827
826.765	3915
826.904	3816
827.044	3591
827.183	3500
827.323	3409
827.462	3492
827.601	3458
827.741	3450
827.88	3439
828.02	3367
828.159	3424
828.298	3450
828.437	3473
828.577	3466
828.716	3572
828.855	3458
828.994	3370
829.134	3325
829.273	3374
829.412	3294
829.551	3302
829.69	3329
829.829	3393
829.968	3473
830.107	3447
830.246	3435
830.385	3409
830.524	3317
830.663	3279
830.802	3256
830.941	3188
831.08	3176
831.219	3233
831.357	3249
831.496	3359
831.635	3188
831.774	3165
831.913	3226
832.051	3123
832.19	3161
832.329	3199
832.467	3119
832.606	3089
832.744	3157
832.883	3165
833.022	3184
833.16	3256
833.299	3313
833.437	3332
833.576	3332
833.714	3367
833.852	3458
833.991	3431
834.129	3435
834.267	3389
834.406	3439
834.544	3401
834.682	3367
834.821	3412
834.959	3587
835.097	3355
835.235	3538
835.373	3504
835.511	3523
835.65	3462
835.788	3424
835.926	3386
836.064	3359
836.202	3355
836.34	3545
836.478	3591
836.615	3549
836.753	3584
836.891	3656
837.029	3614
837.167	3568
837.305	3545
837.443	3572
837.58	3515
837.718	3561
837.856	3561
837.993	3557
838.131	3572
838.269	3557
838.406	3557
838.544	3526
838.681	3466
838.819	3363
838.956	3336
839.094	3401
839.231	3431
839.369	3507
839.506	3713
839.643	3633
839.781	3542
839.918	3412
840.055	3466
840.193	3488
840.33	3530
840.467	3542
840.604	3587
840.742	3838
840.879	3561
841.016	3542
841.153	3610
841.29	3698
841.427	3713
841.564	3701
841.701	3675
841.838	3633
841.975	3690
842.112	3713
842.249	3644
842.385	3606
842.522	3823
842.659	3690
842.796	3644
842.933	3675
843.069	3724
843.206	3663
843.343	3785
843.479	3743
843.616	3793
843.752	3663
843.889	3641
844.025	3823
844.162	3743
844.298	3819
844.435	3740
844.571	3766
844.708	3888
844.844	3934
844.98	3998
845.117	4002
845.253	3911
845.389	3911
845.525	3945
845.661	3964
845.798	3896
845.934	3972
846.07	3922
846.206	4059
846.342	4116
846.478	4029
846.614	3956
846.75	3907
846.886	3892
847.022	4025
847.158	3953
847.294	3998
847.429	4071
847.565	4013
847.701	4223
847.837	3888
847.972	3838
848.108	3941
848.244	3987
848.379	3865
848.515	3755
848.65	3785
848.786	3842
848.921	3797
849.057	3903
849.192	3884
849.328	3884
849.463	3884
849.598	3876
849.734	3831
849.869	3827
850.004	3778
850.14	3800
850.275	3743
850.41	3724
850.545	3778
850.68	3751
850.815	3789
850.95	3774
851.085	3911
851.22	3846
851.355	3789
851.49	3800
851.625	3755
851.76	3770
851.895	3724
852.03	3698
852.165	3770
852.299	3865
852.434	3903
852.569	3865
852.703	3876
852.838	3918
852.973	3998
853.107	3983
853.242	3892
853.376	3812
853.511	3774
853.645	3808
853.78	3953
853.914	3869
854.048	3854
854.183	3873
854.317	3926
854.451	4051
854.585	3896
854.72	3899
854.854	4059
854.988	3861
855.122	3941
855.256	3884
855.39	3956
855.524	4109
855.658	4071
855.792	4051
855.926	4143
856.06	4150
856.194	4242
856.327	4078
856.461	4120
856.595	4162
856.729	4131
856.862	4219
856.996	4238
857.13	4295
857.263	4284
857.397	4287
857.53	4280
857.664	4325
857.797	4394
857.931	4398
858.064	4360
858.197	4466
858.331	4390
858.464	4356
858.597	4363
858.731	4421
858.864	4417
858.997	4417
859.13	4481
859.263	4508
859.396	4569
859.529	4535
859.662	4535
859.795	4447
859.928	4580
860.061	4664
860.194	4721
860.327	4649
860.46	4531
860.592	4748
860.725	4774
860.858	4721
860.99	4679
861.123	4675
861.256	4679
861.388	4748
861.521	5288
861.653	4706
861.786	4710
861.918	4717
862.05	4767
862.183	4797
862.315	4889
862.447	4923
862.58	4858
862.712	4755
862.844	4748
862.976	4782
863.108	4896
863.24	5178
863.372	4835
863.504	4908
863.636	4896
863.768	4953
863.9	4968
864.032	4942
864.164	4961
864.296	5048
864.428	5003
864.559	5102
864.691	5067
864.823	5083
864.954	5056
865.086	5121
865.217	5094
865.349	5037
865.48	5113
865.612	5208
865.743	5250
865.875	5166
866.006	5212
866.137	5174
866.269	5246
866.4	5223
866.531	5208
866.662	5223
866.793	5265
866.924	5269
867.055	5360
867.186	5337
867.317	5311
867.448	5315
867.579	5337
867.71	5368
867.841	5364
867.972	5471
868.103	5459
868.233	5471
868.364	5448
868.495	5501
868.625	5684
868.756	5783
868.886	5630
869.017	5691
869.147	5836
869.278	5859
869.408	5783
869.539	5817
869.669	5912
869.799	5912
869.929	5927
870.06	5988
870.19	6110
870.32	6121
870.45	6232
870.58	6285
870.71	6353
870.84	6483
870.97	6437
871.1	6464
871.23	6585
871.36	6635
871.489	6631
871.619	6730
871.749	6738
871.879	6844
872.008	6932
872.138	6951
872.267	7023
872.397	6981
872.526	7015
872.656	7095
872.785	7149
872.915	7346
873.044	7464
873.173	7537
873.303	7597
873.432	7788
873.561	7814
873.69	7917
873.819	8008
873.948	8172
874.077	8282
874.206	8252
874.335	8419
874.464	8636
874.593	8864
874.722	8899
874.851	9066
874.979	9180
875.108	9306
875.237	9428
875.365	9431
875.494	9637
875.623	9838
875.751	9755
875.88	9979
876.008	10105
876.136	10287
876.265	10489
876.393	10683
876.521	10653
876.65	10752
876.778	10847
876.906	10835
877.034	10968
877.162	11124
877.29	11242
877.418	11261
877.546	11398
877.674	11383
877.802	11486
877.93	11505
878.058	11573
878.185	11471
878.313	11573
878.441	11729
878.568	11733
878.696	11805
878.824	11786
878.951	11878
879.079	11961
879.206	12117
879.333	11965
879.461	11999
879.588	12057
879.715	12076
879.842	12159
879.97	12007
880.097	11977
880.224	11893
880.351	11851
880.478	11836
880.605	11851
880.732	11828
880.859	12072
880.986	11897
881.112	11851
881.239	11737
881.366	11596
881.493	11627
881.619	11547
881.746	11623
881.872	11452
881.999	11478
882.125	11532
882.252	11444
882.378	11497
882.505	11490
882.631	11356
882.757	11277
882.883	11280
883.01	11284
883.136	11216
883.262	11083
883.388	11071
883.514	11174
883.64	11083
883.766	11124
883.892	10984
884.018	10946
884.143	11064
884.269	11124
884.395	10828
884.52	10774
884.646	10759
884.772	10664
884.897	10717
885.023	10679
885.148	10653
885.274	10782
885.399	10710
885.524	10641
885.65	10626
885.775	10519
885.9	10538
886.025	10641
886.15	10550
886.275	10405
886.4	10379
886.525	10333
886.65	10299
886.775	10306
886.9	10390
887.025	10481
887.149	10341
887.274	10185
887.399	10249
887.523	10116
887.648	10169
887.773	10059
887.897	10128
888.021	10219
888.146	10128
888.27	10185
888.395	10147
888.519	10112
888.643	10181
888.767	10169
888.891	10055
889.015	10029
889.139	10059
889.263	9949
889.387	10040
889.511	10162
889.635	10101
889.759	9880
889.883	9964
890.006	9922
890.13	10093
890.254	9987
890.377	9964
890.501	9827
890.624	9804
890.748	9895
890.871	9812
890.995	9781
891.118	9743
891.241	9800
891.364	9713
891.488	9854
891.611	9686
891.734	9751
891.857	9770
891.98	9713
892.103	9785
892.226	9713
892.349	9603
892.471	9526
892.594	9561
892.717	9545
892.839	9576
892.962	9606
893.085	9656
893.207	9580
893.33	9500
893.452	9496
893.575	9618
893.697	9526
893.819	9599
893.941	9622
894.064	9568
894.186	9450
894.308	9393
894.43	9485
894.552	9545
894.674	9515
894.796	9401
894.918	9382
895.04	9291
895.161	9310
895.283	9325
895.405	9199
895.526	9226
895.648	9237
895.769	9233
895.891	9237
896.012	9226
896.134	9214
896.255	9260
896.376	9135
896.498	9074
896.619	9169
896.74	9093
896.861	9081
896.982	9272
897.103	9287
897.224	9135
897.345	9108
897.466	8902
897.587	9009
897.708	9013
897.828	8967
897.949	8948
898.07	8857
898.19	8849
898.311	9032
898.431	8895
898.552	8895
898.672	8895
898.792	8971
898.913	8853
899.033	8792
899.153	8743
899.273	8750
899.393	8720
899.513	8712
899.633	8651
899.753	8674
899.873	8674
899.993	8670
900.113	8693
900.232	8617
900.352	8648
900.472	8587
900.591	8480
900.711	8613
900.83	8564
900.95	8689
901.069	8670
901.189	8518
901.308	8438
901.427	8374
901.546	8457
901.665	8480
901.784	8530
901.904	8305
902.023	8347
902.141	8187
902.26	8176
902.379	8263
902.498	8252
902.617	8206
902.735	8263
902.854	8324
902.973	8252
903.091	8027
903.21	8119
903.328	8202
903.446	8092
903.565	7989
903.683	8115
903.801	8012
903.919	8069
904.038	8157
904.156	8096
904.274	8020
904.392	8031
904.51	8020
904.627	8062
904.745	8058
904.863	8043
904.981	7845
905.098	7826
905.216	7864
905.334	7860
905.451	7871
905.569	7860
905.686	7974
905.803	7887
905.921	7772
906.038	7890
906.155	7795
906.272	7753
906.389	7651
906.506	7662
906.623	7571
906.74	7639
906.857	7510
906.974	7586
907.091	7677
907.208	7746
907.324	7685
907.441	7662
907.557	7460
907.674	7365
907.79	7346
907.907	7369
908.023	7400
908.139	7438
908.256	7422
908.372	7331
908.488	7407
908.604	7263
908.72	7225
908.836	7297
908.952	7202
909.068	7259
909.184	7255
909.3	7232
909.415	7228
909.531	7202
909.647	7114
909.762	7095
909.878	7069
909.993	7080
910.108	7076
910.224	7000
910.339	7107
910.454	7069
910.57	6977
910.685	6973
910.8	7179
910.915	7069
911.03	7027
911.145	6871
911.259	6852
911.374	6947
911.489	6757
911.604	6730
911.718	6688
911.833	6741
911.947	6658
912.062	6585
912.176	6673
912.291	6662
912.405	6662
912.519	6821
912.633	6791
912.748	6722
912.862	6608
912.976	6623
913.09	6509
913.204	6597
913.318	6673
913.431	6692
913.545	6700
913.659	6745
913.772	6669
913.886	6574
914	6509
914.113	6623
914.226	6642
914.34	6601
914.453	6479
914.566	6555
914.68	6486
914.793	6578
914.906	6384
915.019	6418
915.132	6407
915.245	6471
915.358	6403
915.47	6399
915.583	6422
915.696	6369
915.809	6494
915.921	6486
916.034	6441
916.146	6403
916.259	6410
916.371	6506
916.483	6391
916.595	6323
916.708	6403
916.82	6418
916.932	6395
917.044	6365
917.156	6376
917.268	6251
917.38	6315
917.491	6334
917.603	6350
917.715	6380
917.826	6372
917.938	6323
918.049	6247
918.161	6319
918.272	6384
918.384	6418
918.495	6361
918.606	6251
918.717	6163
918.828	6232
918.939	6258
919.05	6167
919.161	6224
919.272	6121
919.383	6163
919.494	6266
919.604	6414
919.715	6254
919.826	6201
919.936	6251
920.047	6289
920.157	6285
920.267	6460
920.378	6334
920.488	6338
920.598	6414
920.708	6566
920.818	6452
920.928	6445
921.038	6540
921.148	6604
921.258	6369
921.368	6251
921.477	6209
921.587	6163
921.697	6019
921.806	6155
921.916	6072
922.025	5916
922.134	5885
922.244	5863
922.353	5931
922.462	5840
922.571	5756
922.68	5718
922.789	5672
922.898	5710
923.007	5665
923.116	5680
923.224	5649
923.333	5615
923.442	5596
923.55	5573
923.659	5539
923.767	5604
923.876	5505
923.984	5577
924.092	5497
924.201	5566
924.309	5501
924.417	5486
924.525	5436
924.633	5425
924.741	6239
924.849	5341
924.956	5448
925.064	5330
925.172	5280
925.279	5345
925.387	5326
925.494	5299
925.602	5391
925.709	5387
925.816	5269
925.924	5322
926.031	5258
926.138	5261
926.245	5280
926.352	5193
926.459	5326
926.566	5334
926.673	5197
926.779	5056
926.886	5143
926.993	5022
927.099	4999
927.206	4949
927.312	4911
927.419	4991
927.525	4942
927.631	4968
927.737	4824
927.843	4831
927.95	4733
928.056	4793
928.162	4793
928.267	4850
928.373	5334
928.479	4831
928.585	4687
928.69	4736
928.796	4801
928.901	4641
929.007	4580
929.112	4645
929.218	4641
929.323	4535
929.428	4516
929.533	4675
929.638	4538
929.743	4561
929.848	4554
929.953	4489
930.058	4424
930.163	4306
930.267	4367
930.372	4417
930.477	4242
930.581	4432
930.685	4337
930.79	4249
930.894	4306
930.998	4192
931.103	4383
931.207	4097
931.311	4086
931.415	3994
931.519	3857
931.623	3941
