Data from glass_V78500241_2341.txt Node
Date: Wed Sep 01 19:30:43 CST 2021
User: usil
Spectrometer: V785-0024
Trigger mode: 0
Integration Time (sec): 4.000000E-1
Scans to average: 1
Nonlinearity correction enabled: false
Boxcar width: 0
Storing dark spectrum: false
XAxis mode: Wavelengths
Number of Pixels in Spectrum: 1024
>>>>>Begin Spectral Data<<<<<
801.071	3717
801.214	3789
801.356	3728
801.499	3720
801.641	3740
801.783	3770
801.926	3823
802.068	3823
802.211	3854
802.353	3903
802.496	3823
802.638	3884
802.78	3842
802.923	3941
803.065	3880
803.208	3854
803.35	3884
803.492	3922
803.635	3956
803.777	3846
803.919	3865
804.061	4124
804.204	3968
804.346	3926
804.488	3941
804.63	3994
804.773	4006
804.915	4025
805.057	4090
805.199	4032
805.341	4097
805.483	4131
805.626	4116
805.768	4082
805.91	4177
806.052	4227
806.194	4249
806.336	4333
806.478	4230
806.62	4116
806.762	4181
806.904	4230
807.046	4348
807.188	4196
807.33	4181
807.472	4249
807.614	4215
807.756	4242
807.898	4177
808.04	4242
808.182	4253
808.324	4310
808.465	4360
808.607	4497
808.749	4470
808.891	4455
809.033	4504
809.174	4386
809.316	4242
809.458	4230
809.6	4147
809.741	4135
809.883	4139
810.025	4257
810.166	4196
810.308	4196
810.45	4215
810.591	4223
810.733	4329
810.875	4489
811.016	4774
811.158	5105
811.299	5189
811.441	5315
811.582	5010
811.724	4698
811.865	4424
812.007	4440
812.148	4371
812.29	4409
812.431	4428
812.573	4383
812.714	4398
812.855	4402
812.997	4394
813.138	4466
813.279	4413
813.421	4344
813.562	4352
813.703	4314
813.845	4322
813.986	4211
814.127	4211
814.268	4253
814.41	4272
814.551	4261
814.692	4257
814.833	4257
814.974	4322
815.115	4314
815.256	4265
815.397	4249
815.539	4238
815.68	4215
815.821	4207
815.962	4280
816.103	4268
816.244	4207
816.385	4207
816.526	4299
816.666	4234
816.807	4055
816.948	4192
817.089	4158
817.23	4101
817.371	4017
817.512	4044
817.653	4021
817.793	4032
817.934	4002
818.075	4082
818.216	4086
818.356	4055
818.497	3983
818.638	3926
818.778	3922
818.919	3869
819.06	3842
819.2	3945
819.341	3850
819.481	3778
819.622	3880
819.762	3972
819.903	3964
820.043	3823
820.184	3831
820.324	3781
820.465	3884
820.605	3831
820.746	3861
820.886	3770
821.026	3903
821.167	3918
821.307	3994
821.447	3964
821.588	3945
821.728	3968
821.868	3972
822.008	3835
822.149	3911
822.289	3918
822.429	3717
822.569	3774
822.709	3804
822.849	3732
822.99	3732
823.13	3762
823.27	3804
823.41	3732
823.55	3717
823.69	3682
823.83	3720
823.97	3671
824.11	3576
824.25	3557
824.389	3618
824.529	3656
824.669	3629
824.809	3686
824.949	3717
825.089	3675
825.228	3717
825.368	3564
825.508	3557
825.648	3530
825.787	3595
825.927	3652
826.067	3622
826.206	3660
826.346	3797
826.485	3785
826.625	3823
826.765	3926
826.904	3804
827.044	3572
827.183	3507
827.323	3409
827.462	3481
827.601	3424
827.741	3374
827.88	3409
828.02	3363
828.159	3458
828.298	3469
828.437	3572
828.577	3500
828.716	3587
828.855	3496
828.994	3409
829.134	3393
829.273	3409
829.412	3382
829.551	3344
829.69	3367
829.829	3458
829.968	3515
830.107	3389
830.246	3447
830.385	3351
830.524	3332
830.663	3279
830.802	3253
830.941	3222
831.08	3176
831.219	3237
831.357	3249
831.496	3393
831.635	3249
831.774	3184
831.913	3161
832.051	3127
832.19	3127
832.329	3195
832.467	3157
832.606	3093
832.744	3192
832.883	3188
833.022	3195
833.16	3264
833.299	3310
833.437	3336
833.576	3359
833.714	3389
833.852	3450
833.991	3458
834.129	3485
834.267	3439
834.406	3386
834.544	3435
834.682	3405
834.821	3382
834.959	3557
835.097	3401
835.235	3515
835.373	3496
835.511	3485
835.65	3397
835.788	3462
835.926	3359
836.064	3355
836.202	3397
836.34	3610
836.478	3599
836.615	3526
836.753	3591
836.891	3622
837.029	3625
837.167	3568
837.305	3515
837.443	3523
837.58	3466
837.718	3576
837.856	3564
837.993	3507
838.131	3564
838.269	3553
838.406	3610
838.544	3564
838.681	3469
838.819	3424
838.956	3382
839.094	3351
839.231	3431
839.369	3507
839.506	3709
839.643	3599
839.781	3481
839.918	3473
840.055	3523
840.193	3496
840.33	3530
840.467	3542
840.604	3603
840.742	3755
840.879	3526
841.016	3542
841.153	3557
841.29	3743
841.427	3675
841.564	3679
841.701	3743
841.838	3682
841.975	3629
842.112	3705
842.249	3641
842.385	3637
842.522	3816
842.659	3671
842.796	3656
842.933	3728
843.069	3698
843.206	3656
843.343	3793
843.479	3740
843.616	3816
843.752	3656
843.889	3663
844.025	3838
844.162	3717
844.298	3793
844.435	3793
844.571	3759
844.708	3911
844.844	3975
844.98	3991
845.117	3998
845.253	3876
845.389	3888
845.525	3949
845.661	3899
845.798	3937
845.934	3998
846.07	3953
846.206	4040
846.342	4128
846.478	4116
846.614	3960
846.75	3960
846.886	3892
847.022	4010
847.158	3983
847.294	3991
847.429	4017
847.565	3987
847.701	4200
847.837	3876
847.972	3880
848.108	3979
848.244	3960
848.379	3827
848.515	3797
848.65	3804
848.786	3835
848.921	3819
849.057	3915
849.192	3968
849.328	3911
849.463	3899
849.598	3873
849.734	3846
849.869	3838
850.004	3766
850.14	3827
850.275	3816
850.41	3720
850.545	3762
850.68	3766
850.815	3819
850.95	3778
851.085	3941
851.22	3842
851.355	3838
851.49	3781
851.625	3778
851.76	3785
851.895	3747
852.03	3705
852.165	3778
852.299	3850
852.434	3873
852.569	3861
852.703	3850
852.838	3922
852.973	3994
853.107	3937
853.242	3857
853.376	3865
853.511	3800
853.645	3812
853.78	3983
853.914	3896
854.048	3930
854.183	3888
854.317	3945
854.451	4112
854.585	3945
854.72	3907
854.854	4044
854.988	3956
855.122	3968
855.256	3934
855.39	4040
855.524	4048
855.658	4063
855.792	4055
855.926	4044
856.06	4154
856.194	4177
856.327	4166
856.461	4131
856.595	4135
856.729	4120
856.862	4246
856.996	4272
857.13	4276
857.263	4310
857.397	4329
857.53	4287
857.664	4295
857.797	4367
857.931	4409
858.064	4386
858.197	4405
858.331	4405
858.464	4352
858.597	4303
858.731	4436
858.864	4493
858.997	4451
859.13	4497
859.263	4516
859.396	4577
859.529	4504
859.662	4519
859.795	4542
859.928	4592
860.061	4626
860.194	4714
860.327	4645
860.46	4641
860.592	4717
860.725	4755
860.858	4714
860.99	4714
861.123	4637
861.256	4698
861.388	4778
861.521	5250
861.653	4717
861.786	4660
861.918	4782
862.05	4767
862.183	4866
862.315	4885
862.447	4915
862.58	4870
862.712	4805
862.844	4774
862.976	4889
863.108	4839
863.24	5193
863.372	4835
863.504	4885
863.636	4885
863.768	5018
863.9	4938
864.032	4934
864.164	4953
864.296	5033
864.428	5064
864.559	5113
864.691	5056
864.823	5064
864.954	5067
865.086	5124
865.217	5105
865.349	5117
865.48	5151
865.612	5193
865.743	5292
865.875	5208
866.006	5201
866.137	5223
866.269	5239
866.4	5307
866.531	5277
866.662	5181
866.793	5326
866.924	5280
867.055	5284
867.186	5357
867.317	5307
867.448	5296
867.579	5345
867.71	5337
867.841	5379
867.972	5440
868.103	5429
868.233	5497
868.364	5516
868.495	5505
868.625	5627
868.756	5767
868.886	5630
869.017	5745
869.147	5832
869.278	5847
869.408	5840
869.539	5786
869.669	5958
869.799	5874
869.929	5931
870.06	6060
870.19	6205
870.32	6197
870.45	6266
870.58	6353
870.71	6365
870.84	6479
870.97	6410
871.1	6456
871.23	6631
871.36	6673
871.489	6631
871.619	6715
871.749	6814
871.879	6814
872.008	6932
872.138	6928
872.267	7012
872.397	6996
872.526	7000
872.656	7080
872.785	7156
872.915	7320
873.044	7521
873.173	7552
873.303	7590
873.432	7719
873.561	7871
873.69	7898
873.819	8008
873.948	8134
874.077	8221
874.206	8374
874.335	8465
874.464	8636
874.593	8830
874.722	8902
874.851	9127
874.979	9302
875.108	9355
875.237	9340
875.365	9431
875.494	9728
875.623	9835
875.751	9793
875.88	9960
876.008	10120
876.136	10268
876.265	10500
876.393	10702
876.521	10702
876.65	10809
876.778	10839
876.906	10835
877.034	11022
877.162	11132
877.29	11155
877.418	11307
877.546	11387
877.674	11436
877.802	11463
877.93	11570
878.058	11562
878.185	11570
878.313	11558
878.441	11665
878.568	11764
878.696	11748
878.824	11889
878.951	11889
879.079	11996
879.206	12064
879.333	12114
879.461	12049
879.588	12117
879.715	12060
879.842	12205
879.97	12057
880.097	11901
880.224	11828
880.351	11882
880.478	11939
880.605	11745
880.732	11893
880.859	11935
880.986	11794
881.112	11904
881.239	11756
881.366	11771
881.493	11627
881.619	11558
881.746	11512
881.872	11474
881.999	11512
882.125	11532
882.252	11505
882.378	11520
882.505	11585
882.631	11318
882.757	11277
882.883	11178
883.01	11307
883.136	11201
883.262	11121
883.388	11113
883.514	11185
883.64	11204
883.766	11185
883.892	10866
884.018	11010
884.143	11083
884.269	11109
884.395	10854
884.52	10835
884.646	10759
884.772	10714
884.897	10641
885.023	10710
885.148	10725
885.274	10736
885.399	10649
885.524	10660
885.65	10615
885.775	10573
885.9	10573
886.025	10542
886.15	10485
886.275	10390
886.4	10379
886.525	10356
886.65	10398
886.775	10379
886.9	10440
887.025	10497
887.149	10382
887.274	10196
887.399	10181
887.523	10139
887.648	10093
887.773	10101
887.897	10211
888.021	10234
888.146	10105
888.27	10234
888.395	10131
888.519	10219
888.643	10200
888.767	10200
888.891	10185
889.015	10067
889.139	10059
889.263	9991
889.387	10036
889.511	10139
889.635	9994
889.759	9895
889.883	9953
890.006	9956
890.13	9987
890.254	9838
890.377	9949
890.501	9759
890.624	9876
890.748	9915
890.871	9804
890.995	9755
891.118	9732
891.241	9770
891.364	9785
891.488	9838
891.611	9732
891.734	9762
891.857	9743
891.98	9705
892.103	9808
892.226	9720
892.349	9648
892.471	9595
892.594	9542
892.717	9705
892.839	9538
892.962	9606
893.085	9660
893.207	9561
893.33	9466
893.452	9564
893.575	9496
893.697	9599
893.819	9610
893.941	9667
894.064	9492
894.186	9370
894.308	9397
894.43	9549
894.552	9572
894.674	9549
894.796	9408
894.918	9355
895.04	9363
895.161	9431
895.283	9287
895.405	9184
895.526	9260
895.648	9268
895.769	9195
895.891	9264
896.012	9211
896.134	9211
896.255	9218
896.376	9142
896.498	9135
896.619	9047
896.74	9138
896.861	9081
896.982	9249
897.103	9275
897.224	9116
897.345	9070
897.466	8982
897.587	8941
897.708	9108
897.828	9043
897.949	8952
898.07	8921
898.19	8963
898.311	8960
898.431	8838
898.552	8914
898.672	8960
898.792	8952
898.913	8910
899.033	8773
899.153	8781
899.273	8636
899.393	8689
899.513	8796
899.633	8716
899.753	8708
899.873	8663
899.993	8781
900.113	8716
900.232	8743
900.352	8693
900.472	8587
900.591	8541
900.711	8583
900.83	8514
900.95	8644
901.069	8754
901.189	8610
901.308	8423
901.427	8442
901.546	8393
901.665	8423
901.784	8438
901.904	8332
902.023	8313
902.141	8286
902.26	8256
902.379	8263
902.498	8233
902.617	8210
902.735	8267
902.854	8233
902.973	8225
903.091	8107
903.21	8206
903.328	8168
903.446	8096
903.565	8149
903.683	8054
903.801	8065
903.919	8092
904.038	8046
904.156	8027
904.274	8054
904.392	7959
904.51	8054
904.627	8084
904.745	8073
904.863	8142
904.981	7928
905.098	7792
905.216	7818
905.334	7837
905.451	7856
905.569	7792
905.686	7909
905.803	7913
905.921	7746
906.038	7799
906.155	7769
906.272	7727
906.389	7632
906.506	7689
906.623	7601
906.74	7533
906.857	7544
906.974	7552
907.091	7719
907.208	7708
907.324	7601
907.441	7571
907.557	7449
907.674	7502
907.79	7392
907.907	7411
908.023	7460
908.139	7365
908.256	7312
908.372	7346
908.488	7346
908.604	7217
908.72	7225
908.836	7240
908.952	7213
909.068	7228
909.184	7316
909.3	7240
909.415	7270
909.531	7236
909.647	7053
909.762	7088
909.878	7076
909.993	7114
910.108	7137
910.224	7122
910.339	7126
910.454	7034
910.57	6939
910.685	6943
910.8	7164
910.915	7110
911.03	7015
911.145	6856
911.259	6939
911.374	6943
911.489	6837
911.604	6795
911.718	6726
911.833	6677
911.947	6620
912.062	6604
912.176	6692
912.291	6696
912.405	6764
912.519	6795
912.633	6787
912.748	6688
912.862	6677
912.976	6658
913.09	6528
913.204	6502
913.318	6589
913.431	6696
913.545	6635
913.659	6734
913.772	6650
913.886	6570
914	6498
914.113	6544
914.226	6635
914.34	6597
914.453	6475
914.566	6604
914.68	6528
914.793	6509
914.906	6376
915.019	6399
915.132	6380
915.245	6395
915.358	6429
915.47	6483
915.583	6403
915.696	6494
915.809	6494
915.921	6502
916.034	6372
916.146	6357
916.259	6331
916.371	6448
916.483	6407
916.595	6372
916.708	6456
916.82	6433
916.932	6357
917.044	6365
917.156	6407
917.268	6327
917.38	6350
917.491	6270
917.603	6338
917.715	6410
917.826	6399
917.938	6346
918.049	6285
918.161	6365
918.272	6418
918.384	6414
918.495	6350
918.606	6289
918.717	6167
918.828	6251
918.939	6186
919.05	6171
919.161	6251
919.272	6114
919.383	6152
919.494	6224
919.604	6369
919.715	6266
919.826	6182
919.936	6308
920.047	6334
920.157	6224
920.267	6399
920.378	6334
920.488	6319
920.598	6418
920.708	6502
920.818	6441
920.928	6448
921.038	6551
921.148	6566
921.258	6319
921.368	6270
921.477	6213
921.587	6152
921.697	6079
921.806	6110
921.916	6098
922.025	5927
922.134	5893
922.244	5847
922.353	5889
922.462	5844
922.571	5790
922.68	5691
922.789	5703
922.898	5699
923.007	5653
923.116	5741
923.224	5642
923.333	5604
923.442	5630
923.55	5592
923.659	5619
923.767	5634
923.876	5535
923.984	5691
924.092	5528
924.201	5577
924.309	5516
924.417	5532
924.525	5493
924.633	5551
924.741	6232
924.849	5364
924.956	5444
925.064	5345
925.172	5315
925.279	5322
925.387	5315
925.494	5326
925.602	5459
925.709	5349
925.816	5277
925.924	5280
926.031	5398
926.138	5292
926.245	5307
926.352	5193
926.459	5284
926.566	5292
926.673	5151
926.779	5189
926.886	5117
926.993	5052
927.099	5018
927.206	5029
927.312	4972
927.419	4987
927.525	4980
927.631	4961
927.737	4843
927.843	4885
927.95	4778
928.056	4801
928.162	4801
928.267	4850
928.373	5337
928.479	4877
928.585	4653
928.69	4744
928.796	4740
928.901	4637
929.007	4603
929.112	4660
929.218	4607
929.323	4580
929.428	4527
929.533	4664
929.638	4500
929.743	4516
929.848	4535
929.953	4478
930.058	4402
930.163	4344
930.267	4295
930.372	4424
930.477	4246
930.581	4440
930.685	4276
930.79	4242
930.894	4314
930.998	4230
931.103	4314
931.207	4105
931.311	4074
931.415	4002
931.519	3922
931.623	3918
