Data from glass_V78500241_595.txt Node
Date: Wed Sep 01 19:18:37 CST 2021
User: usil
Spectrometer: V785-0024
Trigger mode: 0
Integration Time (sec): 4.000000E-1
Scans to average: 1
Nonlinearity correction enabled: false
Boxcar width: 0
Storing dark spectrum: false
XAxis mode: Wavelengths
Number of Pixels in Spectrum: 1024
>>>>>Begin Spectral Data<<<<<
801.071	3755
801.214	3743
801.356	3717
801.499	3778
801.641	3732
801.783	3751
801.926	3865
802.068	3762
802.211	3884
802.353	3876
802.496	3869
802.638	3892
802.78	3899
802.923	3945
803.065	3876
803.208	3842
803.35	3911
803.492	3941
803.635	3956
803.777	3812
803.919	3911
804.061	4143
804.204	4006
804.346	3987
804.488	3930
804.63	4040
804.773	3968
804.915	4017
805.057	4150
805.199	4086
805.341	4101
805.483	4109
805.626	4166
805.768	4109
805.91	4238
806.052	4242
806.194	4173
806.336	4348
806.478	4215
806.62	4188
806.762	4200
806.904	4272
807.046	4379
807.188	4215
807.33	4211
807.472	4284
807.614	4227
807.756	4268
807.898	4234
808.04	4242
808.182	4291
808.324	4303
808.465	4402
808.607	4489
808.749	4466
808.891	4466
809.033	4481
809.174	4383
809.316	4261
809.458	4303
809.6	4177
809.741	4158
809.883	4158
810.025	4196
810.166	4238
810.308	4261
810.45	4219
810.591	4238
810.733	4333
810.875	4531
811.016	4862
811.158	5170
811.299	5258
811.441	5322
811.582	5117
811.724	4683
811.865	4489
812.007	4459
812.148	4428
812.29	4466
812.431	4440
812.573	4417
812.714	4325
812.855	4405
812.997	4424
813.138	4459
813.279	4443
813.421	4409
813.562	4436
813.703	4337
813.845	4299
813.986	4246
814.127	4200
814.268	4284
814.41	4295
814.551	4280
814.692	4310
814.833	4291
814.974	4314
815.115	4371
815.256	4234
815.397	4257
815.539	4238
815.68	4227
815.821	4223
815.962	4337
816.103	4276
816.244	4280
816.385	4257
816.526	4337
816.666	4287
816.807	4086
816.948	4188
817.089	4196
817.23	4109
817.371	4101
817.512	4025
817.653	4093
817.793	4025
817.934	4067
818.075	4131
818.216	4124
818.356	4101
818.497	3964
818.638	3975
818.778	3926
818.919	3892
819.06	3896
819.2	3945
819.341	3926
819.481	3835
819.622	3934
819.762	4044
819.903	3953
820.043	3915
820.184	3850
820.324	3823
820.465	3922
820.605	3899
820.746	3857
820.886	3835
821.026	3945
821.167	3922
821.307	3975
821.447	4006
821.588	3953
821.728	3968
821.868	3945
822.008	3854
822.149	3930
822.289	3915
822.429	3732
822.569	3797
822.709	3789
822.849	3717
822.99	3781
823.13	3774
823.27	3774
823.41	3762
823.55	3747
823.69	3728
823.83	3724
823.97	3637
824.11	3644
824.25	3610
824.389	3652
824.529	3679
824.669	3641
824.809	3705
824.949	3770
825.089	3736
825.228	3740
825.368	3591
825.508	3564
825.648	3629
825.787	3587
825.927	3633
826.067	3595
826.206	3667
826.346	3816
826.485	3835
826.625	3865
826.765	3949
826.904	3823
827.044	3629
827.183	3523
827.323	3447
827.462	3534
827.601	3424
827.741	3435
827.88	3447
828.02	3386
828.159	3507
828.298	3481
828.437	3545
828.577	3473
828.716	3587
828.855	3485
828.994	3450
829.134	3355
829.273	3420
829.412	3393
829.551	3321
829.69	3416
829.829	3439
829.968	3530
830.107	3462
830.246	3462
830.385	3412
830.524	3348
830.663	3302
830.802	3268
830.941	3249
831.08	3199
831.219	3294
831.357	3237
831.496	3443
831.635	3233
831.774	3226
831.913	3173
832.051	3146
832.19	3173
832.329	3226
832.467	3154
832.606	3089
832.744	3184
832.883	3199
833.022	3188
833.16	3237
833.299	3306
833.437	3351
833.576	3393
833.714	3393
833.852	3477
833.991	3477
834.129	3485
834.267	3439
834.406	3386
834.544	3435
834.682	3439
834.821	3386
834.959	3633
835.097	3424
835.235	3564
835.373	3504
835.511	3538
835.65	3466
835.788	3511
835.926	3424
836.064	3412
836.202	3405
836.34	3599
836.478	3625
836.615	3576
836.753	3641
836.891	3679
837.029	3641
837.167	3587
837.305	3545
837.443	3561
837.58	3466
837.718	3622
837.856	3557
837.993	3557
838.131	3641
838.269	3614
838.406	3580
838.544	3629
838.681	3504
838.819	3473
838.956	3412
839.094	3374
839.231	3439
839.369	3492
839.506	3724
839.643	3587
839.781	3507
839.918	3488
840.055	3534
840.193	3545
840.33	3523
840.467	3572
840.604	3572
840.742	3812
840.879	3523
841.016	3561
841.153	3641
841.29	3812
841.427	3713
841.564	3743
841.701	3717
841.838	3701
841.975	3675
842.112	3698
842.249	3679
842.385	3644
842.522	3869
842.659	3698
842.796	3652
842.933	3724
843.069	3690
843.206	3705
843.343	3770
843.479	3770
843.616	3835
843.752	3690
843.889	3709
844.025	3854
844.162	3705
844.298	3854
844.435	3755
844.571	3842
844.708	3930
844.844	3994
844.98	4063
845.117	4044
845.253	3907
845.389	3926
845.525	3945
845.661	3953
845.798	3937
845.934	4040
846.07	3945
846.206	4078
846.342	4147
846.478	4105
846.614	4010
846.75	3994
846.886	3899
847.022	4097
847.158	3994
847.294	4010
847.429	4017
847.565	4025
847.701	4253
847.837	3911
847.972	3831
848.108	4013
848.244	3960
848.379	3903
848.515	3831
848.65	3842
848.786	3876
848.921	3873
849.057	3975
849.192	3994
849.328	3880
849.463	3979
849.598	3899
849.734	3896
849.869	3873
850.004	3816
850.14	3854
850.275	3797
850.41	3732
850.545	3797
850.68	3823
850.815	3804
850.95	3755
851.085	3987
851.22	3922
851.355	3816
851.49	3812
851.625	3804
851.76	3774
851.895	3747
852.03	3724
852.165	3831
852.299	3873
852.434	3907
852.569	3854
852.703	3880
852.838	3899
852.973	4055
853.107	4021
853.242	3911
853.376	3869
853.511	3812
853.645	3876
853.78	4021
853.914	3949
854.048	3880
854.183	3926
854.317	3949
854.451	4078
854.585	3953
854.72	3968
854.854	4059
854.988	3915
855.122	4051
855.256	3945
855.39	4025
855.524	4093
855.658	4090
855.792	4173
855.926	4105
856.06	4211
856.194	4253
856.327	4204
856.461	4147
856.595	4169
856.729	4211
856.862	4280
856.996	4287
857.13	4348
857.263	4325
857.397	4375
857.53	4295
857.664	4386
857.797	4402
857.931	4466
858.064	4398
858.197	4451
858.331	4428
858.464	4413
858.597	4363
858.731	4413
858.864	4493
858.997	4493
859.13	4508
859.263	4538
859.396	4611
859.529	4588
859.662	4558
859.795	4531
859.928	4626
860.061	4733
860.194	4721
860.327	4664
860.46	4675
860.592	4706
860.725	4797
860.858	4801
860.99	4714
861.123	4698
861.256	4729
861.388	4786
861.521	5376
861.653	4725
861.786	4710
861.918	4820
862.05	4820
862.183	4839
862.315	4911
862.447	4927
862.58	4885
862.712	4843
862.844	4778
862.976	4870
863.108	4911
863.24	5159
863.372	4816
863.504	4911
863.636	4923
863.768	5018
863.9	4911
864.032	4942
864.164	4946
864.296	5022
864.428	5098
864.559	5113
864.691	5147
864.823	5147
864.954	5178
865.086	5143
865.217	5140
865.349	5102
865.48	5170
865.612	5170
865.743	5269
865.875	5193
866.006	5208
866.137	5212
866.269	5246
866.4	5220
866.531	5269
866.662	5250
866.793	5299
866.924	5299
867.055	5368
867.186	5303
867.317	5326
867.448	5330
867.579	5406
867.71	5406
867.841	5391
867.972	5459
868.103	5497
868.233	5520
868.364	5512
868.495	5592
868.625	5695
868.756	5733
868.886	5726
869.017	5726
869.147	5885
869.278	5828
869.408	5798
869.539	5798
869.669	5927
869.799	5889
869.929	5992
870.06	6049
870.19	6224
870.32	6266
870.45	6277
870.58	6315
870.71	6448
870.84	6498
870.97	6437
871.1	6494
871.23	6635
871.36	6703
871.489	6688
871.619	6840
871.749	6814
871.879	6859
872.008	7057
872.138	6993
872.267	6981
872.397	7008
872.526	7015
872.656	7065
872.785	7232
872.915	7384
873.044	7529
873.173	7601
873.303	7727
873.432	7769
873.561	7902
873.69	7955
873.819	8012
873.948	8142
874.077	8267
874.206	8381
874.335	8450
874.464	8655
874.593	8815
874.722	8906
874.851	9192
874.979	9207
875.108	9378
875.237	9454
875.365	9496
875.494	9633
875.623	9846
875.751	9789
875.88	9964
876.008	10082
876.136	10310
876.265	10398
876.393	10672
876.521	10691
876.65	10736
876.778	10892
876.906	10927
877.034	10976
877.162	11105
877.29	11151
877.418	11273
877.546	11364
877.674	11486
877.802	11512
877.93	11509
878.058	11532
878.185	11554
878.313	11653
878.441	11748
878.568	11680
878.696	11821
878.824	11855
878.951	11977
879.079	11988
879.206	12155
879.333	12110
879.461	12060
879.588	12087
879.715	12041
879.842	12304
879.97	12068
880.097	11832
880.224	11931
880.351	11916
880.478	11870
880.605	11863
880.732	11840
880.859	11988
880.986	11790
881.112	11802
881.239	11767
881.366	11649
881.493	11653
881.619	11646
881.746	11528
881.872	11577
881.999	11414
882.125	11516
882.252	11509
882.378	11581
882.505	11562
882.631	11360
882.757	11318
882.883	11376
883.01	11250
883.136	11273
883.262	11193
883.388	11102
883.514	11239
883.64	11208
883.766	11071
883.892	11006
884.018	10968
884.143	11117
884.269	11117
884.395	10915
884.52	10816
884.646	10854
884.772	10733
884.897	10710
885.023	10778
885.148	10744
885.274	10778
885.399	10691
885.524	10656
885.65	10599
885.775	10622
885.9	10550
886.025	10603
886.15	10569
886.275	10382
886.4	10363
886.525	10394
886.65	10409
886.775	10344
886.9	10577
887.025	10489
887.149	10398
887.274	10192
887.399	10211
887.523	10223
887.648	10112
887.773	10109
887.897	10249
888.021	10204
888.146	10162
888.27	10272
888.395	10261
888.519	10200
888.643	10177
888.767	10223
888.891	10124
889.015	10086
889.139	10143
889.263	9949
889.387	10097
889.511	10150
889.635	10078
889.759	9991
889.883	10025
890.006	9998
890.13	10055
890.254	9945
890.377	9922
890.501	9911
890.624	9888
890.748	9960
890.871	9762
890.995	9781
891.118	9743
891.241	9701
891.364	9766
891.488	9823
891.611	9778
891.734	9709
891.857	9827
891.98	9679
892.103	9747
892.226	9701
892.349	9644
892.471	9606
892.594	9648
892.717	9614
892.839	9641
892.962	9675
893.085	9675
893.207	9584
893.33	9599
893.452	9549
893.575	9557
893.697	9496
893.819	9603
893.941	9599
894.064	9614
894.186	9458
894.308	9443
894.43	9542
894.552	9538
894.674	9637
894.796	9428
894.918	9420
895.04	9374
895.161	9416
895.283	9355
895.405	9241
895.526	9230
895.648	9272
895.769	9306
895.891	9340
896.012	9233
896.134	9188
896.255	9245
896.376	9173
896.498	9169
896.619	9195
896.74	9112
896.861	9093
896.982	9230
897.103	9340
897.224	9192
897.345	9062
897.466	9062
897.587	8960
897.708	9104
897.828	9039
897.949	8960
898.07	8819
898.19	8960
898.311	9009
898.431	8941
898.552	8918
898.672	9001
898.792	8960
898.913	8971
899.033	8891
899.153	8689
899.273	8727
899.393	8792
899.513	8823
899.633	8693
899.753	8750
899.873	8689
899.993	8750
900.113	8686
900.232	8705
900.352	8644
900.472	8594
900.591	8575
900.711	8606
900.83	8575
900.95	8735
901.069	8731
901.189	8625
901.308	8473
901.427	8431
901.546	8469
901.665	8408
901.784	8514
901.904	8355
902.023	8351
902.141	8279
902.26	8248
902.379	8225
902.498	8244
902.617	8256
902.735	8244
902.854	8294
902.973	8286
903.091	8153
903.21	8149
903.328	8259
903.446	8103
903.565	8062
903.683	8084
903.801	8096
903.919	8130
904.038	8130
904.156	8039
904.274	8145
904.392	8039
904.51	8065
904.627	8046
904.745	8187
904.863	8142
904.981	7928
905.098	7875
905.216	7921
905.334	7909
905.451	7879
905.569	7852
905.686	7902
905.803	7894
905.921	7772
906.038	7856
906.155	7784
906.272	7674
906.389	7765
906.506	7674
906.623	7609
906.74	7582
906.857	7563
906.974	7590
907.091	7677
907.208	7795
907.324	7696
907.441	7624
907.557	7590
907.674	7464
907.79	7422
907.907	7464
908.023	7499
908.139	7468
908.256	7415
908.372	7354
908.488	7301
908.604	7259
908.72	7221
908.836	7274
908.952	7266
909.068	7183
909.184	7362
909.3	7259
909.415	7289
909.531	7331
909.647	7122
909.762	7168
909.878	7118
909.993	7160
910.108	7080
910.224	7175
910.339	7133
910.454	6996
910.57	6947
910.685	6993
910.8	7198
910.915	7065
911.03	7004
911.145	6886
911.259	6875
911.374	6935
911.489	6848
911.604	6818
911.718	6738
911.833	6768
911.947	6696
912.062	6578
912.176	6696
912.291	6749
912.405	6707
912.519	6825
912.633	6863
912.748	6749
912.862	6726
912.976	6623
913.09	6525
913.204	6635
913.318	6593
913.431	6707
913.545	6665
913.659	6745
913.772	6639
913.886	6608
914	6620
914.113	6601
914.226	6631
914.34	6627
914.453	6555
914.566	6631
914.68	6555
914.793	6509
914.906	6384
915.019	6380
915.132	6353
915.245	6429
915.358	6467
915.47	6513
915.583	6467
915.696	6456
915.809	6528
915.921	6525
916.034	6452
916.146	6445
916.259	6353
916.371	6464
916.483	6422
916.595	6460
916.708	6410
916.82	6365
916.932	6395
917.044	6350
917.156	6399
917.268	6361
917.38	6315
917.491	6334
917.603	6384
917.715	6369
917.826	6456
917.938	6289
918.049	6273
918.161	6384
918.272	6376
918.384	6513
918.495	6346
918.606	6258
918.717	6213
918.828	6273
918.939	6327
919.05	6254
919.161	6262
919.272	6121
919.383	6136
919.494	6311
919.604	6403
919.715	6292
919.826	6201
919.936	6270
920.047	6357
920.157	6292
920.267	6464
920.378	6235
920.488	6254
920.598	6448
920.708	6563
920.818	6479
920.928	6494
921.038	6639
921.148	6589
921.258	6353
921.368	6372
921.477	6247
921.587	6148
921.697	6133
921.806	6232
921.916	6129
922.025	6003
922.134	5878
922.244	5920
922.353	5973
922.462	5817
922.571	5786
922.68	5722
922.789	5684
922.898	5703
923.007	5699
923.116	5672
923.224	5649
923.333	5703
923.442	5630
923.55	5558
923.659	5653
923.767	5627
923.876	5528
923.984	5646
924.092	5532
924.201	5592
924.309	5551
924.417	5600
924.525	5524
924.633	5512
924.741	6304
924.849	5379
924.956	5516
925.064	5337
925.172	5303
925.279	5326
925.387	5368
925.494	5448
925.602	5425
925.709	5379
925.816	5273
925.924	5353
926.031	5387
926.138	5326
926.245	5345
926.352	5223
926.459	5360
926.566	5357
926.673	5216
926.779	5113
926.886	5109
926.993	5014
927.099	5041
927.206	4976
927.312	5018
927.419	5029
927.525	4991
927.631	4972
927.737	4889
927.843	4843
927.95	4740
928.056	4831
928.162	4877
928.267	4881
928.373	5288
928.479	4919
928.585	4710
928.69	4831
928.796	4782
928.901	4714
929.007	4592
929.112	4725
929.218	4653
929.323	4649
929.428	4584
929.533	4649
929.638	4607
929.743	4569
929.848	4531
929.953	4550
930.058	4443
930.163	4360
930.267	4310
930.372	4428
930.477	4322
930.581	4455
930.685	4360
930.79	4242
930.894	4337
930.998	4268
931.103	4379
931.207	4162
931.311	4078
931.415	4044
931.519	3972
931.623	3994
