Data from glass_V78500241_2803.txt Node
Date: Wed Sep 01 19:33:55 CST 2021
User: usil
Spectrometer: V785-0024
Trigger mode: 0
Integration Time (sec): 4.000000E-1
Scans to average: 1
Nonlinearity correction enabled: false
Boxcar width: 0
Storing dark spectrum: false
XAxis mode: Wavelengths
Number of Pixels in Spectrum: 1024
>>>>>Begin Spectral Data<<<<<
801.071	3732
801.214	3751
801.356	3671
801.499	3740
801.641	3698
801.783	3736
801.926	3823
802.068	3797
802.211	3838
802.353	3850
802.496	3842
802.638	3876
802.78	3899
802.923	3915
803.065	3827
803.208	3854
803.35	3896
803.492	3869
803.635	3907
803.777	3774
803.919	3873
804.061	4097
804.204	3941
804.346	3930
804.488	3907
804.63	4010
804.773	3937
804.915	4021
805.057	4128
805.199	4013
805.341	4124
805.483	4131
805.626	4078
805.768	4090
805.91	4215
806.052	4204
806.194	4166
806.336	4341
806.478	4200
806.62	4128
806.762	4177
806.904	4223
807.046	4295
807.188	4169
807.33	4162
807.472	4234
807.614	4211
807.756	4230
807.898	4200
808.04	4204
808.182	4246
808.324	4291
808.465	4303
808.607	4459
808.749	4455
808.891	4455
809.033	4470
809.174	4363
809.316	4242
809.458	4242
809.6	4116
809.741	4105
809.883	4074
810.025	4188
810.166	4249
810.308	4196
810.45	4265
810.591	4242
810.733	4249
810.875	4432
811.016	4759
811.158	5128
811.299	5277
811.441	5250
811.582	5090
811.724	4660
811.865	4436
812.007	4413
812.148	4402
812.29	4405
812.431	4394
812.573	4402
812.714	4352
812.855	4417
812.997	4409
813.138	4500
813.279	4421
813.421	4394
813.562	4352
813.703	4333
813.845	4325
813.986	4265
814.127	4185
814.268	4284
814.41	4276
814.551	4249
814.692	4310
814.833	4211
814.974	4268
815.115	4360
815.256	4257
815.397	4204
815.539	4211
815.68	4215
815.821	4230
815.962	4265
816.103	4246
816.244	4215
816.385	4188
816.526	4249
816.666	4185
816.807	4078
816.948	4162
817.089	4169
817.23	4101
817.371	4032
817.512	4040
817.653	4071
817.793	4017
817.934	4017
818.075	4112
818.216	4036
818.356	4040
818.497	3960
818.638	3876
818.778	3876
818.919	3838
819.06	3876
819.2	3903
819.341	3854
819.481	3838
819.622	3869
819.762	4013
819.903	3926
820.043	3812
820.184	3819
820.324	3804
820.465	3842
820.605	3861
820.746	3884
820.886	3793
821.026	3899
821.167	3926
821.307	3964
821.447	3964
821.588	3884
821.728	3934
821.868	3880
822.008	3835
822.149	3911
822.289	3892
822.429	3797
822.569	3732
822.709	3751
822.849	3682
822.99	3675
823.13	3743
823.27	3778
823.41	3698
823.55	3713
823.69	3724
823.83	3686
823.97	3698
824.11	3584
824.25	3549
824.389	3603
824.529	3648
824.669	3648
824.809	3660
824.949	3701
825.089	3720
825.228	3648
825.368	3549
825.508	3557
825.648	3580
825.787	3606
825.927	3622
826.067	3656
826.206	3641
826.346	3751
826.485	3800
826.625	3789
826.765	3915
826.904	3827
827.044	3580
827.183	3561
827.323	3382
827.462	3454
827.601	3389
827.741	3439
827.88	3424
828.02	3378
828.159	3389
828.298	3447
828.437	3488
828.577	3431
828.716	3557
828.855	3462
828.994	3389
829.134	3348
829.273	3374
829.412	3321
829.551	3306
829.69	3302
829.829	3450
829.968	3500
830.107	3397
830.246	3431
830.385	3355
830.524	3355
830.663	3291
830.802	3237
830.941	3184
831.08	3195
831.219	3230
831.357	3226
831.496	3382
831.635	3188
831.774	3184
831.913	3199
832.051	3077
832.19	3119
832.329	3226
832.467	3123
832.606	3074
832.744	3131
832.883	3173
833.022	3195
833.16	3253
833.299	3313
833.437	3336
833.576	3348
833.714	3401
833.852	3405
833.991	3409
834.129	3473
834.267	3450
834.406	3454
834.544	3431
834.682	3393
834.821	3378
834.959	3523
835.097	3397
835.235	3530
835.373	3428
835.511	3488
835.65	3466
835.788	3504
835.926	3397
836.064	3367
836.202	3458
836.34	3507
836.478	3580
836.615	3485
836.753	3564
836.891	3622
837.029	3595
837.167	3584
837.305	3545
837.443	3500
837.58	3504
837.718	3618
837.856	3553
837.993	3523
838.131	3564
838.269	3519
838.406	3564
838.544	3553
838.681	3416
838.819	3443
838.956	3344
839.094	3363
839.231	3416
839.369	3477
839.506	3698
839.643	3603
839.781	3439
839.918	3488
840.055	3477
840.193	3523
840.33	3564
840.467	3576
840.604	3549
840.742	3770
840.879	3500
841.016	3561
841.153	3568
841.29	3747
841.427	3698
841.564	3717
841.701	3705
841.838	3663
841.975	3637
842.112	3690
842.249	3591
842.385	3618
842.522	3808
842.659	3682
842.796	3656
842.933	3728
843.069	3690
843.206	3709
843.343	3781
843.479	3785
843.616	3816
843.752	3644
843.889	3641
844.025	3823
844.162	3709
844.298	3819
844.435	3781
844.571	3774
844.708	3857
844.844	3953
844.98	3998
845.117	3975
845.253	3884
845.389	3903
845.525	3949
845.661	3945
845.798	3930
845.934	4036
846.07	3930
846.206	4029
846.342	4090
846.478	4078
846.614	3964
846.75	3915
846.886	3888
847.022	3987
847.158	3953
847.294	3979
847.429	4010
847.565	3968
847.701	4139
847.837	3876
847.972	3808
848.108	3964
848.244	3953
848.379	3869
848.515	3797
848.65	3800
848.786	3797
848.921	3865
849.057	3911
849.192	3911
849.328	3899
849.463	3884
849.598	3892
849.734	3869
849.869	3812
850.004	3797
850.14	3823
850.275	3766
850.41	3743
850.545	3732
850.68	3751
850.815	3743
850.95	3797
851.085	3915
851.22	3896
851.355	3804
851.49	3819
851.625	3747
851.76	3762
851.895	3717
852.03	3709
852.165	3755
852.299	3831
852.434	3884
852.569	3854
852.703	3884
852.838	3896
852.973	3979
853.107	4002
853.242	3892
853.376	3854
853.511	3781
853.645	3823
853.78	3975
853.914	3854
854.048	3838
854.183	3838
854.317	3945
854.451	4074
854.585	3899
854.72	3945
854.854	4010
854.988	3911
855.122	4032
855.256	3922
855.39	3987
855.524	4055
855.658	4090
855.792	4135
855.926	4090
856.06	4135
856.194	4139
856.327	4150
856.461	4105
856.595	4150
856.729	4166
856.862	4242
856.996	4261
857.13	4249
857.263	4287
857.397	4318
857.53	4272
857.664	4322
857.797	4413
857.931	4386
858.064	4402
858.197	4440
858.331	4310
858.464	4337
858.597	4341
858.731	4394
858.864	4440
858.997	4428
859.13	4542
859.263	4523
859.396	4561
859.529	4519
859.662	4462
859.795	4512
859.928	4538
860.061	4694
860.194	4694
860.327	4573
860.46	4702
860.592	4721
860.725	4736
860.858	4767
860.99	4702
861.123	4664
861.256	4653
861.388	4733
861.521	5201
861.653	4710
861.786	4649
861.918	4740
862.05	4740
862.183	4835
862.315	4885
862.447	4892
862.58	4866
862.712	4774
862.844	4733
862.976	4793
863.108	4828
863.24	5151
863.372	4736
863.504	4911
863.636	4870
863.768	4984
863.9	4908
864.032	4873
864.164	4968
864.296	4965
864.428	5079
864.559	5113
864.691	5159
864.823	5117
864.954	5094
865.086	5132
865.217	5083
865.349	5086
865.48	5136
865.612	5159
865.743	5299
865.875	5185
866.006	5189
866.137	5201
866.269	5269
866.4	5216
866.531	5227
866.662	5189
866.793	5235
866.924	5265
867.055	5345
867.186	5345
867.317	5246
867.448	5288
867.579	5330
867.71	5406
867.841	5345
867.972	5448
868.103	5433
868.233	5440
868.364	5436
868.495	5512
868.625	5604
868.756	5790
868.886	5646
869.017	5688
869.147	5821
869.278	5878
869.408	5745
869.539	5760
869.669	5866
869.799	5878
869.929	5988
870.06	5980
870.19	6121
870.32	6209
870.45	6232
870.58	6296
870.71	6403
870.84	6494
870.97	6403
871.1	6441
871.23	6627
871.36	6673
871.489	6601
871.619	6696
871.749	6764
871.879	6882
872.008	6954
872.138	6977
872.267	7004
872.397	7023
872.526	7042
872.656	7103
872.785	7194
872.915	7365
873.044	7506
873.173	7506
873.303	7636
873.432	7772
873.561	7887
873.69	7852
873.819	7974
873.948	8149
874.077	8225
874.206	8271
874.335	8457
874.464	8651
874.593	8781
874.722	8914
874.851	9070
874.979	9173
875.108	9428
875.237	9355
875.365	9443
875.494	9576
875.623	9785
875.751	9808
875.88	9968
876.008	10158
876.136	10223
876.265	10470
876.393	10634
876.521	10656
876.65	10771
876.778	10869
876.906	10919
877.034	10995
877.162	11022
877.29	11147
877.418	11299
877.546	11341
877.674	11334
877.802	11417
877.93	11551
878.058	11566
878.185	11604
878.313	11615
878.441	11722
878.568	11691
878.696	11741
878.824	11870
878.951	11882
879.079	12064
879.206	12022
879.333	12049
879.461	11950
879.588	12102
879.715	12030
879.842	12258
879.97	12026
880.097	11824
880.224	11840
880.351	11805
880.478	11828
880.605	11882
880.732	11805
880.859	12003
880.986	11737
881.112	11771
881.239	11752
881.366	11733
881.493	11589
881.619	11577
881.746	11535
881.872	11570
881.999	11490
882.125	11497
882.252	11440
882.378	11490
882.505	11562
882.631	11387
882.757	11280
882.883	11288
883.01	11223
883.136	11140
883.262	11113
883.388	11018
883.514	11170
883.64	11178
883.766	11048
883.892	10927
884.018	10984
884.143	11064
884.269	11067
884.395	10824
884.52	10729
884.646	10805
884.772	10664
884.897	10641
885.023	10645
885.148	10729
885.274	10790
885.399	10656
885.524	10691
885.65	10550
885.775	10546
885.9	10538
886.025	10660
886.15	10451
886.275	10478
886.4	10462
886.525	10451
886.65	10356
886.775	10284
886.9	10519
887.025	10512
887.149	10356
887.274	10188
887.399	10150
887.523	10112
887.648	10154
887.773	10093
887.897	10280
888.021	10166
888.146	10105
888.27	10238
888.395	10143
888.519	10086
888.643	10112
888.767	10158
888.891	10074
889.015	9972
889.139	10017
889.263	10002
889.387	10112
889.511	10078
889.635	10074
889.759	10002
889.883	9888
890.006	9975
890.13	10048
890.254	9876
890.377	10002
890.501	9827
890.624	9911
890.748	9930
890.871	9755
890.995	9724
891.118	9728
891.241	9686
891.364	9762
891.488	9846
891.611	9781
891.734	9747
891.857	9804
891.98	9698
892.103	9759
892.226	9682
892.349	9625
892.471	9515
892.594	9530
892.717	9644
892.839	9534
892.962	9557
893.085	9599
893.207	9595
893.33	9454
893.452	9530
893.575	9530
893.697	9439
893.819	9591
893.941	9584
894.064	9671
894.186	9363
894.308	9378
894.43	9428
894.552	9549
894.674	9549
894.796	9420
894.918	9340
895.04	9283
895.161	9325
895.283	9332
895.405	9245
895.526	9211
895.648	9241
895.769	9332
895.891	9203
896.012	9310
896.134	9253
896.255	9173
896.376	9138
896.498	9108
896.619	9127
896.74	9028
896.861	9100
896.982	9180
897.103	9329
897.224	9131
897.345	8986
897.466	9013
897.587	9013
897.708	9047
897.828	8971
897.949	8895
898.07	8762
898.19	8842
898.311	8979
898.431	8823
898.552	8956
898.672	8891
898.792	8925
898.913	8876
899.033	8735
899.153	8834
899.273	8575
899.393	8651
899.513	8777
899.633	8667
899.753	8746
899.873	8769
899.993	8792
900.113	8701
900.232	8727
900.352	8659
900.472	8594
900.591	8610
900.711	8545
900.83	8488
900.95	8670
901.069	8693
901.189	8571
901.308	8438
901.427	8339
901.546	8400
901.665	8438
901.784	8450
901.904	8366
902.023	8370
902.141	8244
902.26	8183
902.379	8313
902.498	8252
902.617	8153
902.735	8279
902.854	8218
902.973	8256
903.091	8039
903.21	8119
903.328	8202
903.446	8046
903.565	8039
903.683	8107
903.801	8062
903.919	8172
904.038	8202
904.156	8027
904.274	8058
904.392	8024
904.51	8069
904.627	8027
904.745	8077
904.863	8111
904.981	7928
905.098	7799
905.216	7818
905.334	7841
905.451	7875
905.569	7837
905.686	7890
905.803	7822
905.921	7712
906.038	7860
906.155	7708
906.272	7753
906.389	7693
906.506	7643
906.623	7616
906.74	7632
906.857	7483
906.974	7514
907.091	7655
907.208	7655
907.324	7624
907.441	7533
907.557	7430
907.674	7388
907.79	7396
907.907	7392
908.023	7472
908.139	7445
908.256	7354
908.372	7339
908.488	7324
908.604	7259
908.72	7164
908.836	7255
908.952	7198
909.068	7255
909.184	7320
909.3	7198
909.415	7270
909.531	7270
909.647	7114
909.762	7110
909.878	7072
909.993	7084
910.108	7038
910.224	7057
910.339	7004
910.454	7023
910.57	6970
910.685	6932
910.8	7088
910.915	7057
911.03	7008
911.145	6871
911.259	6856
911.374	6920
911.489	6875
911.604	6772
911.718	6688
911.833	6692
911.947	6601
912.062	6540
912.176	6654
912.291	6662
912.405	6665
912.519	6844
912.633	6810
912.748	6673
912.862	6650
912.976	6601
913.09	6502
913.204	6574
913.318	6604
913.431	6631
913.545	6616
913.659	6715
913.772	6627
913.886	6547
914	6517
914.113	6635
914.226	6627
914.34	6627
914.453	6490
914.566	6589
914.68	6570
914.793	6494
914.906	6388
915.019	6319
915.132	6361
915.245	6433
915.358	6365
915.47	6403
915.583	6433
915.696	6490
915.809	6540
915.921	6517
916.034	6418
916.146	6399
916.259	6357
916.371	6502
916.483	6414
916.595	6311
916.708	6422
916.82	6372
916.932	6365
917.044	6380
917.156	6361
917.268	6296
917.38	6331
917.491	6323
917.603	6323
917.715	6357
917.826	6426
917.938	6296
918.049	6186
918.161	6331
918.272	6414
918.384	6456
918.495	6403
918.606	6262
918.717	6197
918.828	6273
918.939	6243
919.05	6152
919.161	6247
919.272	6140
919.383	6110
919.494	6285
919.604	6418
919.715	6262
919.826	6171
919.936	6175
920.047	6281
920.157	6232
920.267	6418
920.378	6331
920.488	6285
920.598	6407
920.708	6479
920.818	6494
920.928	6429
921.038	6563
921.148	6566
921.258	6289
921.368	6273
921.477	6228
921.587	6133
921.697	6068
921.806	6178
921.916	6030
922.025	5965
922.134	5889
922.244	5844
922.353	5912
922.462	5821
922.571	5741
922.68	5710
922.789	5653
922.898	5680
923.007	5627
923.116	5646
923.224	5646
923.333	5676
923.442	5558
923.55	5539
923.659	5566
923.767	5581
923.876	5539
923.984	5604
924.092	5478
924.201	5558
924.309	5562
924.417	5505
924.525	5429
924.633	5448
924.741	6197
924.849	5379
924.956	5455
925.064	5334
925.172	5307
925.279	5296
925.387	5395
925.494	5277
925.602	5376
925.709	5341
925.816	5269
925.924	5284
926.031	5296
926.138	5269
926.245	5250
926.352	5231
926.459	5258
926.566	5326
926.673	5216
926.779	5121
926.886	5151
926.993	5025
927.099	5048
927.206	4991
927.312	4930
927.419	4968
927.525	4934
927.631	4976
927.737	4877
927.843	4866
927.95	4759
928.056	4774
928.162	4790
928.267	4771
928.373	5299
928.479	4862
928.585	4717
928.69	4744
928.796	4782
928.901	4717
929.007	4588
929.112	4679
929.218	4649
929.323	4580
929.428	4531
929.533	4672
929.638	4485
929.743	4485
929.848	4535
929.953	4485
930.058	4409
930.163	4299
930.267	4329
930.372	4413
930.477	4295
930.581	4470
930.685	4356
930.79	4257
930.894	4257
930.998	4200
931.103	4375
931.207	4067
931.311	4067
931.415	4036
931.519	3964
931.623	3926
