Data from glass_V78500241_2174.txt Node
Date: Wed Sep 01 19:29:34 CST 2021
User: usil
Spectrometer: V785-0024
Trigger mode: 0
Integration Time (sec): 4.000000E-1
Scans to average: 1
Nonlinearity correction enabled: false
Boxcar width: 0
Storing dark spectrum: false
XAxis mode: Wavelengths
Number of Pixels in Spectrum: 1024
>>>>>Begin Spectral Data<<<<<
801.071	3774
801.214	3759
801.356	3686
801.499	3747
801.641	3751
801.783	3755
801.926	3838
802.068	3781
802.211	3850
802.353	3907
802.496	3842
802.638	3876
802.78	3922
802.923	3949
803.065	3915
803.208	3884
803.35	3869
803.492	3869
803.635	3880
803.777	3835
803.919	3861
804.061	4173
804.204	3937
804.346	3953
804.488	3876
804.63	4013
804.773	3968
804.915	3987
805.057	4116
805.199	4025
805.341	4051
805.483	4131
805.626	4112
805.768	4147
805.91	4207
806.052	4246
806.194	4181
806.336	4363
806.478	4238
806.62	4177
806.762	4188
806.904	4238
807.046	4318
807.188	4238
807.33	4192
807.472	4238
807.614	4177
807.756	4310
807.898	4223
808.04	4173
808.182	4310
808.324	4306
808.465	4360
808.607	4462
808.749	4432
808.891	4413
809.033	4531
809.174	4428
809.316	4249
809.458	4284
809.6	4162
809.741	4147
809.883	4093
810.025	4162
810.166	4207
810.308	4249
810.45	4227
810.591	4227
810.733	4253
810.875	4489
811.016	4847
811.158	5113
811.299	5284
811.441	5261
811.582	5075
811.724	4660
811.865	4462
812.007	4466
812.148	4405
812.29	4405
812.431	4352
812.573	4367
812.714	4360
812.855	4413
812.997	4413
813.138	4447
813.279	4409
813.421	4394
813.562	4424
813.703	4329
813.845	4333
813.986	4261
814.127	4230
814.268	4246
814.41	4238
814.551	4272
814.692	4322
814.833	4272
814.974	4325
815.115	4341
815.256	4215
815.397	4219
815.539	4211
815.68	4234
815.821	4211
815.962	4318
816.103	4265
816.244	4242
816.385	4227
816.526	4211
816.666	4249
816.807	4112
816.948	4196
817.089	4154
817.23	4086
817.371	4032
817.512	4025
817.653	4055
817.793	4029
817.934	4055
818.075	4074
818.216	4093
818.356	4086
818.497	3968
818.638	3876
818.778	3918
818.919	3892
819.06	3880
819.2	3953
819.341	3865
819.481	3816
819.622	3896
819.762	4025
819.903	3983
820.043	3857
820.184	3861
820.324	3827
820.465	3869
820.605	3831
820.746	3854
820.886	3816
821.026	3926
821.167	3911
821.307	3949
821.447	3937
821.588	3960
821.728	3994
821.868	3892
822.008	3930
822.149	3903
822.289	3888
822.429	3793
822.569	3713
822.709	3774
822.849	3732
822.99	3720
823.13	3747
823.27	3766
823.41	3698
823.55	3705
823.69	3709
823.83	3785
823.97	3637
824.11	3637
824.25	3603
824.389	3682
824.529	3637
824.669	3644
824.809	3679
824.949	3743
825.089	3717
825.228	3652
825.368	3580
825.508	3553
825.648	3580
825.787	3610
825.927	3618
826.067	3599
826.206	3709
826.346	3793
826.485	3793
826.625	3880
826.765	3937
826.904	3831
827.044	3625
827.183	3511
827.323	3428
827.462	3488
827.601	3405
827.741	3420
827.88	3435
828.02	3386
828.159	3450
828.298	3458
828.437	3526
828.577	3458
828.716	3591
828.855	3511
828.994	3412
829.134	3329
829.273	3378
829.412	3351
829.551	3355
829.69	3348
829.829	3420
829.968	3538
830.107	3431
830.246	3435
830.385	3363
830.524	3325
830.663	3306
830.802	3249
830.941	3180
831.08	3188
831.219	3253
831.357	3264
831.496	3378
831.635	3214
831.774	3180
831.913	3176
832.051	3138
832.19	3119
832.329	3241
832.467	3112
832.606	3119
832.744	3165
832.883	3180
833.022	3169
833.16	3264
833.299	3329
833.437	3336
833.576	3389
833.714	3393
833.852	3447
833.991	3435
834.129	3416
834.267	3378
834.406	3397
834.544	3401
834.682	3389
834.821	3378
834.959	3572
835.097	3401
835.235	3545
835.373	3511
835.511	3450
835.65	3428
835.788	3481
835.926	3370
836.064	3389
836.202	3393
836.34	3549
836.478	3591
836.615	3496
836.753	3557
836.891	3633
837.029	3610
837.167	3568
837.305	3530
837.443	3572
837.58	3507
837.718	3591
837.856	3564
837.993	3496
838.131	3564
838.269	3534
838.406	3576
838.544	3564
838.681	3439
838.819	3450
838.956	3340
839.094	3447
839.231	3428
839.369	3511
839.506	3717
839.643	3603
839.781	3515
839.918	3439
840.055	3511
840.193	3488
840.33	3500
840.467	3580
840.604	3610
840.742	3816
840.879	3511
841.016	3515
841.153	3622
841.29	3720
841.427	3698
841.564	3736
841.701	3740
841.838	3663
841.975	3633
842.112	3740
842.249	3603
842.385	3622
842.522	3812
842.659	3663
842.796	3641
842.933	3656
843.069	3705
843.206	3698
843.343	3812
843.479	3759
843.616	3812
843.752	3701
843.889	3656
844.025	3823
844.162	3720
844.298	3842
844.435	3774
844.571	3781
844.708	3896
844.844	4006
844.98	3994
845.117	4021
845.253	3876
845.389	3896
845.525	3937
845.661	4002
845.798	3911
845.934	4025
846.07	3953
846.206	4040
846.342	4128
846.478	4040
846.614	3987
846.75	3987
846.886	3876
847.022	4067
847.158	4017
847.294	3983
847.429	4074
847.565	3998
847.701	4204
847.837	3896
847.972	3823
848.108	4017
848.244	3972
848.379	3812
848.515	3823
848.65	3800
848.786	3778
848.921	3888
849.057	3865
849.192	3941
849.328	3899
849.463	3987
849.598	3884
849.734	3838
849.869	3785
850.004	3766
850.14	3842
850.275	3804
850.41	3755
850.545	3751
850.68	3751
850.815	3789
850.95	3793
851.085	3899
851.22	3827
851.355	3785
851.49	3785
851.625	3808
851.76	3785
851.895	3728
852.03	3755
852.165	3743
852.299	3876
852.434	3896
852.569	3854
852.703	3857
852.838	3915
852.973	3972
853.107	4017
853.242	3865
853.376	3831
853.511	3743
853.645	3850
853.78	3949
853.914	3857
854.048	3918
854.183	3865
854.317	3956
854.451	4093
854.585	3964
854.72	3915
854.854	4017
854.988	3934
855.122	3998
855.256	3873
855.39	4017
855.524	4093
855.658	4124
855.792	4112
855.926	4177
856.06	4177
856.194	4166
856.327	4188
856.461	4173
856.595	4166
856.729	4135
856.862	4257
856.996	4249
857.13	4272
857.263	4310
857.397	4386
857.53	4287
857.664	4310
857.797	4390
857.931	4405
858.064	4421
858.197	4466
858.331	4409
858.464	4367
858.597	4360
858.731	4424
858.864	4512
858.997	4440
859.13	4523
859.263	4462
859.396	4573
859.529	4497
859.662	4519
859.795	4542
859.928	4607
860.061	4668
860.194	4717
860.327	4653
860.46	4653
860.592	4744
860.725	4740
860.858	4752
860.99	4691
861.123	4694
861.256	4675
861.388	4752
861.521	5452
861.653	4725
861.786	4706
861.918	4755
862.05	4793
862.183	4809
862.315	4866
862.447	4908
862.58	4889
862.712	4790
862.844	4805
862.976	4885
863.108	4839
863.24	5185
863.372	4793
863.504	4892
863.636	4873
863.768	4961
863.9	4953
864.032	4900
864.164	4915
864.296	5037
864.428	5048
864.559	5121
864.691	5124
864.823	5102
864.954	5105
865.086	5178
865.217	5090
865.349	5052
865.48	5151
865.612	5197
865.743	5254
865.875	5155
866.006	5223
866.137	5204
866.269	5208
866.4	5242
866.531	5250
866.662	5231
866.793	5250
866.924	5322
867.055	5311
867.186	5341
867.317	5288
867.448	5318
867.579	5406
867.71	5402
867.841	5379
867.972	5429
868.103	5474
868.233	5452
868.364	5482
868.495	5497
868.625	5668
868.756	5828
868.886	5668
869.017	5741
869.147	5901
869.278	5809
869.408	5760
869.539	5840
869.669	5870
869.799	5885
869.929	5973
870.06	6034
870.19	6175
870.32	6186
870.45	6243
870.58	6361
870.71	6418
870.84	6494
870.97	6426
871.1	6445
871.23	6677
871.36	6673
871.489	6662
871.619	6715
871.749	6829
871.879	6882
872.008	6954
872.138	6958
872.267	7023
872.397	6989
872.526	7080
872.656	7099
872.785	7175
872.915	7392
873.044	7499
873.173	7548
873.303	7643
873.432	7715
873.561	7864
873.69	7875
873.819	7997
873.948	8126
874.077	8225
874.206	8374
874.335	8423
874.464	8636
874.593	8845
874.722	8868
874.851	9097
874.979	9188
875.108	9325
875.237	9435
875.365	9519
875.494	9618
875.623	9800
875.751	9816
875.88	9998
876.008	10131
876.136	10265
876.265	10504
876.393	10706
876.521	10782
876.65	10771
876.778	10759
876.906	10824
877.034	11003
877.162	11083
877.29	11136
877.418	11322
877.546	11322
877.674	11406
877.802	11471
877.93	11493
878.058	11554
878.185	11528
878.313	11611
878.441	11737
878.568	11707
878.696	11809
878.824	11912
878.951	12015
879.079	12098
879.206	12125
879.333	12030
879.461	11999
879.588	12041
879.715	12079
879.842	12258
879.97	12041
880.097	11904
880.224	11855
880.351	11878
880.478	11882
880.605	11802
880.732	11775
880.859	12022
880.986	11901
881.112	11843
881.239	11748
881.366	11665
881.493	11623
881.619	11573
881.746	11524
881.872	11558
881.999	11516
882.125	11478
882.252	11532
882.378	11474
882.505	11577
882.631	11368
882.757	11296
882.883	11197
883.01	11303
883.136	11227
883.262	11052
883.388	11155
883.514	11220
883.64	11181
883.766	11105
883.892	10987
884.018	11003
884.143	11018
884.269	11060
884.395	10900
884.52	10736
884.646	10721
884.772	10618
884.897	10725
885.023	10759
885.148	10748
885.274	10755
885.399	10687
885.524	10656
885.65	10592
885.775	10611
885.9	10611
886.025	10599
886.15	10550
886.275	10447
886.4	10402
886.525	10337
886.65	10386
886.775	10348
886.9	10497
887.025	10504
887.149	10371
887.274	10265
887.399	10177
887.523	10185
887.648	10109
887.773	10143
887.897	10238
888.021	10234
888.146	10090
888.27	10204
888.395	10196
888.519	10192
888.643	10154
888.767	10131
888.891	10006
889.015	10097
889.139	10021
889.263	9934
889.387	10017
889.511	10059
889.635	10040
889.759	9979
889.883	9892
890.006	10086
890.13	10063
890.254	9926
890.377	9983
890.501	9816
890.624	9892
890.748	9895
890.871	9781
890.995	9701
891.118	9709
891.241	9770
891.364	9740
891.488	9857
891.611	9682
891.734	9686
891.857	9797
891.98	9732
892.103	9713
892.226	9743
892.349	9690
892.471	9576
892.594	9622
892.717	9610
892.839	9557
892.962	9587
893.085	9637
893.207	9587
893.33	9492
893.452	9473
893.575	9561
893.697	9469
893.819	9564
893.941	9603
894.064	9584
894.186	9428
894.308	9336
894.43	9496
894.552	9591
894.674	9492
894.796	9378
894.918	9355
895.04	9386
895.161	9401
895.283	9393
895.405	9199
895.526	9272
895.648	9306
895.769	9207
895.891	9272
896.012	9298
896.134	9188
896.255	9157
896.376	9070
896.498	9123
896.619	9146
896.74	9047
896.861	9066
896.982	9272
897.103	9306
897.224	9154
897.345	9051
897.466	9009
897.587	8994
897.708	9112
897.828	9032
897.949	8929
898.07	8883
898.19	8902
898.311	8994
898.431	8883
898.552	8895
898.672	8979
898.792	9017
898.913	8952
899.033	8842
899.153	8731
899.273	8632
899.393	8712
899.513	8746
899.633	8720
899.753	8659
899.873	8648
899.993	8735
900.113	8705
900.232	8644
900.352	8583
900.472	8613
900.591	8583
900.711	8655
900.83	8568
900.95	8632
901.069	8590
901.189	8499
901.308	8442
901.427	8404
901.546	8393
901.665	8431
901.784	8503
901.904	8385
902.023	8324
902.141	8214
902.26	8206
902.379	8324
902.498	8149
902.617	8214
902.735	8191
902.854	8244
902.973	8275
903.091	8149
903.21	8123
903.328	8172
903.446	8115
903.565	8043
903.683	8096
903.801	8050
903.919	8126
904.038	8126
904.156	8008
904.274	8050
904.392	7986
904.51	8054
904.627	8073
904.745	8005
904.863	8096
904.981	7928
905.098	7841
905.216	7860
905.334	7951
905.451	7868
905.569	7936
905.686	7932
905.803	7921
905.921	7830
906.038	7864
906.155	7814
906.272	7772
906.389	7753
906.506	7643
906.623	7620
906.74	7575
906.857	7506
906.974	7499
907.091	7700
907.208	7727
907.324	7655
907.441	7597
907.557	7472
907.674	7441
907.79	7354
907.907	7438
908.023	7388
908.139	7426
908.256	7415
908.372	7324
908.488	7350
908.604	7247
908.72	7175
908.836	7202
908.952	7255
909.068	7289
909.184	7339
909.3	7236
909.415	7244
909.531	7278
909.647	7160
909.762	7171
909.878	7122
909.993	7160
910.108	7084
910.224	6962
910.339	7118
910.454	7076
910.57	7004
910.685	6993
910.8	7152
910.915	7168
911.03	7019
911.145	6973
911.259	6852
911.374	6901
911.489	6840
911.604	6798
911.718	6741
911.833	6711
911.947	6730
912.062	6639
912.176	6677
912.291	6730
912.405	6726
912.519	6760
912.633	6818
912.748	6730
912.862	6616
912.976	6597
913.09	6513
913.204	6608
913.318	6635
913.431	6658
913.545	6669
913.659	6681
913.772	6620
913.886	6502
914	6547
914.113	6635
914.226	6696
914.34	6570
914.453	6521
914.566	6574
914.68	6540
914.793	6475
914.906	6429
915.019	6403
915.132	6315
915.245	6388
915.358	6437
915.47	6467
915.583	6456
915.696	6429
915.809	6544
915.921	6559
916.034	6414
916.146	6399
916.259	6418
916.371	6445
916.483	6464
916.595	6346
916.708	6384
916.82	6357
916.932	6289
917.044	6372
917.156	6365
917.268	6331
917.38	6334
917.491	6338
917.603	6353
917.715	6376
917.826	6384
917.938	6285
918.049	6243
918.161	6350
918.272	6388
918.384	6441
918.495	6304
918.606	6251
918.717	6232
918.828	6304
918.939	6216
919.05	6254
919.161	6239
919.272	6060
919.383	6136
919.494	6273
919.604	6441
919.715	6304
919.826	6216
919.936	6247
920.047	6331
920.157	6266
920.267	6391
920.378	6296
920.488	6251
920.598	6418
920.708	6585
920.818	6380
920.928	6540
921.038	6585
921.148	6555
921.258	6327
921.368	6281
921.477	6262
921.587	6186
921.697	6034
921.806	6117
921.916	6064
922.025	5984
922.134	5912
922.244	5885
922.353	5977
922.462	5863
922.571	5775
922.68	5676
922.789	5646
922.898	5726
923.007	5608
923.116	5714
923.224	5611
923.333	5680
923.442	5661
923.55	5646
923.659	5600
923.767	5649
923.876	5570
923.984	5524
924.092	5516
924.201	5509
924.309	5547
924.417	5520
924.525	5478
924.633	5524
924.741	6300
924.849	5353
924.956	5463
925.064	5337
925.172	5277
925.279	5296
925.387	5364
925.494	5360
925.602	5383
925.709	5398
925.816	5246
925.924	5311
926.031	5383
926.138	5273
926.245	5318
926.352	5246
926.459	5326
926.566	5364
926.673	5246
926.779	5102
926.886	5060
926.993	5052
927.099	5041
927.206	4987
927.312	4972
927.419	5010
927.525	4995
927.631	4976
927.737	4911
927.843	4828
927.95	4733
928.056	4839
928.162	4809
928.267	4862
928.373	5311
928.479	4862
928.585	4694
928.69	4740
928.796	4767
928.901	4641
929.007	4599
929.112	4691
929.218	4630
929.323	4599
929.428	4519
929.533	4683
929.638	4516
929.743	4561
929.848	4535
929.953	4481
930.058	4402
930.163	4337
930.267	4329
930.372	4428
930.477	4325
930.581	4481
930.685	4383
930.79	4257
930.894	4276
930.998	4280
931.103	4356
931.207	4109
931.311	4109
931.415	4006
931.519	3926
931.623	3930
