Data from glass_V78500241_2217.txt Node
Date: Wed Sep 01 19:29:52 CST 2021
User: usil
Spectrometer: V785-0024
Trigger mode: 0
Integration Time (sec): 4.000000E-1
Scans to average: 1
Nonlinearity correction enabled: false
Boxcar width: 0
Storing dark spectrum: false
XAxis mode: Wavelengths
Number of Pixels in Spectrum: 1024
>>>>>Begin Spectral Data<<<<<
801.071	3751
801.214	3740
801.356	3690
801.499	3717
801.641	3743
801.783	3785
801.926	3823
802.068	3804
802.211	3861
802.353	3873
802.496	3812
802.638	3876
802.78	3907
802.923	3930
803.065	3922
803.208	3854
803.35	3918
803.492	3918
803.635	3888
803.777	3804
803.919	3873
804.061	4162
804.204	3945
804.346	3960
804.488	3865
804.63	4010
804.773	3945
804.915	3979
805.057	4124
805.199	4017
805.341	4109
805.483	4116
805.626	4177
805.768	4112
805.91	4204
806.052	4246
806.194	4154
806.336	4329
806.478	4219
806.62	4147
806.762	4150
806.904	4253
807.046	4322
807.188	4196
807.33	4154
807.472	4181
807.614	4150
807.756	4246
807.898	4196
808.04	4207
808.182	4272
808.324	4322
808.465	4367
808.607	4443
808.749	4470
808.891	4436
809.033	4481
809.174	4375
809.316	4261
809.458	4276
809.6	4143
809.741	4204
809.883	4181
810.025	4211
810.166	4200
810.308	4219
810.45	4242
810.591	4280
810.733	4268
810.875	4500
811.016	4786
811.158	5094
811.299	5254
811.441	5288
811.582	5060
811.724	4687
811.865	4455
812.007	4447
812.148	4424
812.29	4421
812.431	4386
812.573	4409
812.714	4409
812.855	4409
812.997	4405
813.138	4455
813.279	4413
813.421	4367
813.562	4341
813.703	4329
813.845	4352
813.986	4268
814.127	4192
814.268	4291
814.41	4268
814.551	4261
814.692	4363
814.833	4242
814.974	4261
815.115	4318
815.256	4238
815.397	4246
815.539	4249
815.68	4162
815.821	4207
815.962	4287
816.103	4280
816.244	4242
816.385	4238
816.526	4249
816.666	4185
816.807	4051
816.948	4238
817.089	4173
817.23	4086
817.371	4051
817.512	4059
817.653	4051
817.793	4040
817.934	4078
818.075	4112
818.216	4086
818.356	4055
818.497	3968
818.638	3915
818.778	3903
818.919	3880
819.06	3846
819.2	3945
819.341	3876
819.481	3857
819.622	3892
819.762	4025
819.903	3922
820.043	3842
820.184	3762
820.324	3827
820.465	3831
820.605	3888
820.746	3857
820.886	3778
821.026	3922
821.167	3911
821.307	3949
821.447	3991
821.588	3941
821.728	3930
821.868	3934
822.008	3903
822.149	3873
822.289	3903
822.429	3789
822.569	3713
822.709	3789
822.849	3671
822.99	3709
823.13	3762
823.27	3720
823.41	3698
823.55	3755
823.69	3686
823.83	3698
823.97	3667
824.11	3625
824.25	3568
824.389	3622
824.529	3660
824.669	3622
824.809	3682
824.949	3743
825.089	3701
825.228	3652
825.368	3614
825.508	3507
825.648	3568
825.787	3584
825.927	3625
826.067	3641
826.206	3633
826.346	3766
826.485	3842
826.625	3876
826.765	3907
826.904	3854
827.044	3606
827.183	3515
827.323	3466
827.462	3477
827.601	3424
827.741	3428
827.88	3412
828.02	3355
828.159	3409
828.298	3454
828.437	3542
828.577	3458
828.716	3568
828.855	3523
828.994	3405
829.134	3420
829.273	3393
829.412	3359
829.551	3332
829.69	3351
829.829	3393
829.968	3519
830.107	3420
830.246	3420
830.385	3382
830.524	3393
830.663	3294
830.802	3245
830.941	3203
831.08	3195
831.219	3268
831.357	3264
831.496	3351
831.635	3237
831.774	3157
831.913	3207
832.051	3119
832.19	3112
832.329	3226
832.467	3142
832.606	3093
832.744	3150
832.883	3214
833.022	3199
833.16	3199
833.299	3230
833.437	3336
833.576	3382
833.714	3382
833.852	3431
833.991	3428
834.129	3416
834.267	3393
834.406	3416
834.544	3431
834.682	3420
834.821	3393
834.959	3519
835.097	3416
835.235	3523
835.373	3485
835.511	3488
835.65	3485
835.788	3492
835.926	3374
836.064	3367
836.202	3424
836.34	3500
836.478	3614
836.615	3542
836.753	3599
836.891	3660
837.029	3610
837.167	3553
837.305	3557
837.443	3523
837.58	3492
837.718	3614
837.856	3549
837.993	3545
838.131	3618
838.269	3580
838.406	3553
838.544	3576
838.681	3488
838.819	3420
838.956	3397
839.094	3344
839.231	3469
839.369	3519
839.506	3766
839.643	3618
839.781	3481
839.918	3466
840.055	3526
840.193	3507
840.33	3519
840.467	3561
840.604	3603
840.742	3804
840.879	3557
841.016	3568
841.153	3561
841.29	3762
841.427	3705
841.564	3701
841.701	3705
841.838	3732
841.975	3698
842.112	3694
842.249	3656
842.385	3622
842.522	3816
842.659	3682
842.796	3667
842.933	3709
843.069	3648
843.206	3690
843.343	3831
843.479	3778
843.616	3812
843.752	3686
843.889	3652
844.025	3785
844.162	3717
844.298	3861
844.435	3774
844.571	3781
844.708	3884
844.844	3934
844.98	3994
845.117	3991
845.253	3922
845.389	3934
845.525	3930
845.661	3960
845.798	3899
845.934	3983
846.07	3987
846.206	4021
846.342	4097
846.478	4029
846.614	3979
846.75	3880
846.886	3884
847.022	4032
847.158	3975
847.294	3987
847.429	3979
847.565	4029
847.701	4261
847.837	3876
847.972	3869
848.108	3979
848.244	3956
848.379	3819
848.515	3819
848.65	3797
848.786	3804
848.921	3842
849.057	3899
849.192	3930
849.328	3892
849.463	3903
849.598	3918
849.734	3854
849.869	3812
850.004	3808
850.14	3800
850.275	3759
850.41	3709
850.545	3751
850.68	3724
850.815	3797
850.95	3766
851.085	3945
851.22	3892
851.355	3835
851.49	3831
851.625	3808
851.76	3789
851.895	3755
852.03	3720
852.165	3781
852.299	3823
852.434	3926
852.569	3869
852.703	3846
852.838	3918
852.973	4006
853.107	3949
853.242	3861
853.376	3861
853.511	3751
853.645	3831
853.78	3953
853.914	3903
854.048	3861
854.183	3888
854.317	3930
854.451	4032
854.585	3972
854.72	3960
854.854	4013
854.988	3949
855.122	4025
855.256	3876
855.39	4029
855.524	4105
855.658	4071
855.792	4055
855.926	4154
856.06	4173
856.194	4192
856.327	4097
856.461	4097
856.595	4131
856.729	4173
856.862	4257
856.996	4215
857.13	4268
857.263	4356
857.397	4356
857.53	4306
857.664	4360
857.797	4367
857.931	4375
858.064	4417
858.197	4447
858.331	4379
858.464	4390
858.597	4303
858.731	4375
858.864	4436
858.997	4455
859.13	4535
859.263	4546
859.396	4535
859.529	4527
859.662	4512
859.795	4493
859.928	4622
860.061	4702
860.194	4736
860.327	4679
860.46	4668
860.592	4714
860.725	4774
860.858	4771
860.99	4736
861.123	4645
861.256	4649
861.388	4805
861.521	5436
861.653	4759
861.786	4729
861.918	4752
862.05	4812
862.183	4831
862.315	4877
862.447	4953
862.58	4900
862.712	4805
862.844	4725
862.976	4885
863.108	4831
863.24	5151
863.372	4831
863.504	4904
863.636	4892
863.768	4923
863.9	4965
864.032	4957
864.164	4942
864.296	4976
864.428	5041
864.559	5071
864.691	5102
864.823	5098
864.954	5060
865.086	5083
865.217	5170
865.349	5136
865.48	5185
865.612	5136
865.743	5299
865.875	5174
866.006	5227
866.137	5235
866.269	5201
866.4	5239
866.531	5258
866.662	5250
866.793	5318
866.924	5220
867.055	5345
867.186	5337
867.317	5341
867.448	5258
867.579	5372
867.71	5357
867.841	5383
867.972	5444
868.103	5482
868.233	5471
868.364	5490
868.495	5589
868.625	5665
868.756	5794
868.886	5600
869.017	5710
869.147	5821
869.278	5874
869.408	5809
869.539	5855
869.669	5923
869.799	5901
869.929	6060
870.06	5984
870.19	6163
870.32	6194
870.45	6254
870.58	6346
870.71	6426
870.84	6426
870.97	6448
871.1	6445
871.23	6635
871.36	6669
871.489	6601
871.619	6787
871.749	6798
871.879	6840
872.008	6962
872.138	6954
872.267	6962
872.397	6989
872.526	7042
872.656	7133
872.785	7221
872.915	7377
873.044	7518
873.173	7521
873.303	7658
873.432	7753
873.561	7856
873.69	7955
873.819	7963
873.948	8191
874.077	8229
874.206	8355
874.335	8461
874.464	8648
874.593	8849
874.722	8857
874.851	9138
874.979	9249
875.108	9393
875.237	9428
875.365	9507
875.494	9644
875.623	9857
875.751	9785
875.88	10040
876.008	10074
876.136	10284
876.265	10474
876.393	10641
876.521	10687
876.65	10809
876.778	10831
876.906	10934
877.034	10999
877.162	11128
877.29	11220
877.418	11265
877.546	11417
877.674	11440
877.802	11444
877.93	11501
878.058	11528
878.185	11604
878.313	11646
878.441	11760
878.568	11722
878.696	11786
878.824	11821
878.951	11935
879.079	11904
879.206	12125
879.333	12038
879.461	11897
879.588	12076
879.715	12098
879.842	12197
879.97	12076
880.097	11893
880.224	11878
880.351	11885
880.478	11969
880.605	11805
880.732	11805
880.859	12041
880.986	11843
881.112	11851
881.239	11676
881.366	11672
881.493	11562
881.619	11566
881.746	11562
881.872	11509
881.999	11436
882.125	11497
882.252	11532
882.378	11421
882.505	11596
882.631	11391
882.757	11277
882.883	11341
883.01	11292
883.136	11223
883.262	11174
883.388	11086
883.514	11250
883.64	11147
883.766	11060
883.892	10999
884.018	11033
884.143	11090
884.269	11045
884.395	10873
884.52	10763
884.646	10805
884.772	10679
884.897	10668
885.023	10710
885.148	10778
885.274	10774
885.399	10588
885.524	10554
885.65	10546
885.775	10561
885.9	10508
886.025	10603
886.15	10573
886.275	10443
886.4	10375
886.525	10409
886.65	10253
886.775	10356
886.9	10451
887.025	10546
887.149	10329
887.274	10287
887.399	10169
887.523	10158
887.648	10147
887.773	10101
887.897	10306
888.021	10238
888.146	10169
888.27	10238
888.395	10204
888.519	10177
888.643	10207
888.767	10219
888.891	10059
889.015	10010
889.139	10059
889.263	10002
889.387	10086
889.511	10135
889.635	10112
889.759	9979
889.883	9979
890.006	9930
890.13	10032
890.254	9937
890.377	9964
890.501	9842
890.624	9880
890.748	9903
890.871	9778
890.995	9831
891.118	9724
891.241	9759
891.364	9694
891.488	9838
891.611	9694
891.734	9751
891.857	9713
891.98	9690
892.103	9766
892.226	9698
892.349	9705
892.471	9500
892.594	9618
892.717	9591
892.839	9523
892.962	9576
893.085	9595
893.207	9599
893.33	9511
893.452	9542
893.575	9553
893.697	9519
893.819	9606
893.941	9572
894.064	9610
894.186	9443
894.308	9389
894.43	9511
894.552	9618
894.674	9557
894.796	9412
894.918	9428
895.04	9416
895.161	9344
895.283	9382
895.405	9237
895.526	9195
895.648	9279
895.769	9211
895.891	9275
896.012	9321
896.134	9230
896.255	9245
896.376	9112
896.498	9138
896.619	9138
896.74	9028
896.861	9108
896.982	9237
897.103	9359
897.224	9180
897.345	9055
897.466	9032
897.587	8921
897.708	9070
897.828	9058
897.949	8960
898.07	8868
898.19	8868
898.311	8994
898.431	8929
898.552	8902
898.672	8979
898.792	8929
898.913	8914
899.033	8807
899.153	8781
899.273	8682
899.393	8777
899.513	8735
899.633	8762
899.753	8785
899.873	8716
899.993	8762
900.113	8678
900.232	8708
900.352	8617
900.472	8629
900.591	8514
900.711	8621
900.83	8587
900.95	8640
901.069	8693
901.189	8579
901.308	8408
901.427	8351
901.546	8389
901.665	8442
901.784	8526
901.904	8408
902.023	8370
902.141	8225
902.26	8237
902.379	8282
902.498	8172
902.617	8195
902.735	8267
902.854	8294
902.973	8248
903.091	8138
903.21	8164
903.328	8111
903.446	8142
903.565	8016
903.683	8111
903.801	8062
903.919	8088
904.038	8206
904.156	7986
904.274	8077
904.392	8035
904.51	8012
904.627	8050
904.745	8084
904.863	8027
904.981	7906
905.098	7841
905.216	7856
905.334	7875
905.451	7959
905.569	7887
905.686	7947
905.803	7925
905.921	7803
906.038	7856
906.155	7780
906.272	7780
906.389	7708
906.506	7620
906.623	7582
906.74	7643
906.857	7556
906.974	7537
907.091	7632
907.208	7681
907.324	7647
907.441	7597
907.557	7483
907.674	7457
907.79	7369
907.907	7438
908.023	7460
908.139	7384
908.256	7422
908.372	7403
908.488	7327
908.604	7282
908.72	7225
908.836	7202
908.952	7270
909.068	7171
909.184	7312
909.3	7236
909.415	7266
909.531	7282
909.647	7076
909.762	7046
909.878	7145
909.993	7091
910.108	7095
910.224	7069
910.339	7042
910.454	7008
910.57	6970
910.685	6951
910.8	7137
910.915	7042
911.03	7042
911.145	6882
911.259	6802
911.374	6882
911.489	6886
911.604	6859
911.718	6753
911.833	6707
911.947	6669
912.062	6540
912.176	6726
912.291	6726
912.405	6719
912.519	6818
912.633	6837
912.748	6722
912.862	6665
912.976	6623
913.09	6528
913.204	6544
913.318	6532
913.431	6608
913.545	6639
913.659	6749
913.772	6692
913.886	6631
914	6547
914.113	6574
914.226	6597
914.34	6608
914.453	6471
914.566	6563
914.68	6502
914.793	6559
914.906	6445
915.019	6445
915.132	6342
915.245	6422
915.358	6475
915.47	6414
915.583	6471
915.696	6506
915.809	6502
915.921	6544
916.034	6441
916.146	6327
916.259	6357
916.371	6521
916.483	6437
916.595	6331
916.708	6372
916.82	6407
916.932	6365
917.044	6380
917.156	6372
917.268	6395
917.38	6311
917.491	6270
917.603	6346
917.715	6460
917.826	6460
917.938	6315
918.049	6315
918.161	6338
918.272	6426
918.384	6452
918.495	6338
918.606	6319
918.717	6228
918.828	6201
918.939	6281
919.05	6197
919.161	6285
919.272	6117
919.383	6110
919.494	6327
919.604	6448
919.715	6254
919.826	6197
919.936	6247
920.047	6331
920.157	6243
920.267	6395
920.378	6350
920.488	6331
920.598	6399
920.708	6525
920.818	6460
920.928	6467
921.038	6559
921.148	6502
921.258	6361
921.368	6235
921.477	6300
921.587	6201
921.697	6171
921.806	6155
921.916	6076
922.025	5920
922.134	5863
922.244	5878
922.353	5961
922.462	5840
922.571	5805
922.68	5729
922.789	5707
922.898	5676
923.007	5646
923.116	5668
923.224	5649
923.333	5615
923.442	5558
923.55	5653
923.659	5535
923.767	5592
923.876	5566
923.984	5592
924.092	5505
924.201	5573
924.309	5512
924.417	5551
924.525	5486
924.633	5486
924.741	6285
924.849	5383
924.956	5448
925.064	5360
925.172	5315
925.279	5296
925.387	5372
925.494	5284
925.602	5387
925.709	5341
925.816	5220
925.924	5284
926.031	5353
926.138	5311
926.245	5269
926.352	5189
926.459	5311
926.566	5326
926.673	5216
926.779	5052
926.886	5128
926.993	4999
927.099	4995
927.206	4946
927.312	4953
927.419	4987
927.525	4995
927.631	5006
927.737	4885
927.843	4870
927.95	4778
928.056	4786
928.162	4835
928.267	4858
928.373	5326
928.479	4847
928.585	4683
928.69	4774
928.796	4717
928.901	4668
929.007	4607
929.112	4687
929.218	4615
929.323	4611
929.428	4565
929.533	4691
929.638	4485
929.743	4466
929.848	4573
929.953	4474
930.058	4421
930.163	4325
930.267	4379
930.372	4375
930.477	4287
930.581	4459
930.685	4371
930.79	4261
930.894	4249
930.998	4219
931.103	4402
931.207	4112
931.311	4086
931.415	4025
931.519	3869
931.623	3979
