Data from glass_V78500241_373.txt Node
Date: Wed Sep 01 19:17:05 CST 2021
User: usil
Spectrometer: V785-0024
Trigger mode: 0
Integration Time (sec): 4.000000E-1
Scans to average: 1
Nonlinearity correction enabled: false
Boxcar width: 0
Storing dark spectrum: false
XAxis mode: Wavelengths
Number of Pixels in Spectrum: 1024
>>>>>Begin Spectral Data<<<<<
801.071	3747
801.214	3751
801.356	3724
801.499	3732
801.641	3797
801.783	3793
801.926	3869
802.068	3854
802.211	3854
802.353	3907
802.496	3846
802.638	3880
802.78	3892
802.923	3937
803.065	3884
803.208	3846
803.35	3930
803.492	3918
803.635	3922
803.777	3835
803.919	3926
804.061	4143
804.204	4010
804.346	3964
804.488	3937
804.63	4017
804.773	3960
804.915	4013
805.057	4158
805.199	4101
805.341	4086
805.483	4105
805.626	4154
805.768	4078
805.91	4257
806.052	4234
806.194	4211
806.336	4402
806.478	4223
806.62	4211
806.762	4227
806.904	4265
807.046	4352
807.188	4204
807.33	4181
807.472	4238
807.614	4211
807.756	4314
807.898	4249
808.04	4207
808.182	4325
808.324	4367
808.465	4421
808.607	4459
808.749	4470
808.891	4489
809.033	4489
809.174	4409
809.316	4341
809.458	4238
809.6	4135
809.741	4173
809.883	4158
810.025	4211
810.166	4234
810.308	4265
810.45	4303
810.591	4223
810.733	4291
810.875	4516
811.016	4820
811.158	5143
811.299	5299
811.441	5318
811.582	5105
811.724	4717
811.865	4436
812.007	4451
812.148	4466
812.29	4421
812.431	4421
812.573	4424
812.714	4390
812.855	4455
812.997	4421
813.138	4500
813.279	4470
813.421	4432
813.562	4413
813.703	4356
813.845	4344
813.986	4249
814.127	4246
814.268	4303
814.41	4310
814.551	4261
814.692	4333
814.833	4287
814.974	4318
815.115	4333
815.256	4284
815.397	4318
815.539	4272
815.68	4211
815.821	4200
815.962	4329
816.103	4261
816.244	4265
816.385	4261
816.526	4295
816.666	4177
816.807	4124
816.948	4230
817.089	4207
817.23	4135
817.371	4051
817.512	4067
817.653	4074
817.793	4051
817.934	4040
818.075	4097
818.216	4086
818.356	4067
818.497	4032
818.638	3934
818.778	3960
818.919	3930
819.06	3869
819.2	3896
819.341	3888
819.481	3835
819.622	3926
819.762	4025
819.903	3956
820.043	3869
820.184	3812
820.324	3831
820.465	3865
820.605	3876
820.746	3896
820.886	3827
821.026	3964
821.167	3903
821.307	3994
821.447	4017
821.588	3975
821.728	3949
821.868	3953
822.008	3911
822.149	3926
822.289	3972
822.429	3846
822.569	3797
822.709	3835
822.849	3675
822.99	3690
823.13	3785
823.27	3785
823.41	3720
823.55	3709
823.69	3724
823.83	3755
823.97	3675
824.11	3648
824.25	3633
824.389	3660
824.529	3667
824.669	3671
824.809	3728
824.949	3743
825.089	3755
825.228	3759
825.368	3599
825.508	3557
825.648	3606
825.787	3644
825.927	3663
826.067	3641
826.206	3698
826.346	3785
826.485	3816
826.625	3896
826.765	3945
826.904	3842
827.044	3656
827.183	3523
827.323	3412
827.462	3485
827.601	3477
827.741	3454
827.88	3500
828.02	3370
828.159	3435
828.298	3523
828.437	3549
828.577	3477
828.716	3614
828.855	3496
828.994	3367
829.134	3382
829.273	3420
829.412	3363
829.551	3344
829.69	3363
829.829	3435
829.968	3515
830.107	3450
830.246	3481
830.385	3401
830.524	3344
830.663	3310
830.802	3302
830.941	3184
831.08	3237
831.219	3249
831.357	3241
831.496	3374
831.635	3230
831.774	3199
831.913	3211
832.051	3192
832.19	3161
832.329	3256
832.467	3157
832.606	3116
832.744	3218
832.883	3173
833.022	3211
833.16	3279
833.299	3321
833.437	3332
833.576	3409
833.714	3416
833.852	3416
833.991	3412
834.129	3454
834.267	3458
834.406	3412
834.544	3435
834.682	3409
834.821	3428
834.959	3599
835.097	3443
835.235	3523
835.373	3519
835.511	3538
835.65	3458
835.788	3481
835.926	3439
836.064	3393
836.202	3450
836.34	3580
836.478	3614
836.615	3614
836.753	3591
836.891	3663
837.029	3622
837.167	3595
837.305	3526
837.443	3523
837.58	3504
837.718	3648
837.856	3599
837.993	3519
838.131	3580
838.269	3610
838.406	3625
838.544	3584
838.681	3454
838.819	3492
838.956	3409
839.094	3431
839.231	3454
839.369	3568
839.506	3778
839.643	3595
839.781	3545
839.918	3504
840.055	3561
840.193	3515
840.33	3526
840.467	3542
840.604	3606
840.742	3865
840.879	3564
841.016	3542
841.153	3568
841.29	3762
841.427	3728
841.564	3713
841.701	3736
841.838	3694
841.975	3713
842.112	3728
842.249	3652
842.385	3660
842.522	3876
842.659	3732
842.796	3660
842.933	3759
843.069	3732
843.206	3747
843.343	3819
843.479	3789
843.616	3854
843.752	3663
843.889	3694
844.025	3854
844.162	3713
844.298	3873
844.435	3804
844.571	3842
844.708	3922
844.844	3979
844.98	4013
845.117	4021
845.253	3964
845.389	3899
845.525	3991
845.661	3987
845.798	3949
845.934	4002
846.07	3941
846.206	4040
846.342	4131
846.478	4074
846.614	3983
846.75	3915
846.886	3926
847.022	4048
847.158	4006
847.294	4025
847.429	4044
847.565	4017
847.701	4249
847.837	3911
847.972	3884
848.108	3983
848.244	3987
848.379	3899
848.515	3842
848.65	3816
848.786	3838
848.921	3884
849.057	3922
849.192	3972
849.328	3945
849.463	3922
849.598	3937
849.734	3899
849.869	3823
850.004	3835
850.14	3819
850.275	3793
850.41	3774
850.545	3781
850.68	3812
850.815	3819
850.95	3789
851.085	3956
851.22	3850
851.355	3827
851.49	3736
851.625	3812
851.76	3800
851.895	3751
852.03	3759
852.165	3819
852.299	3835
852.434	3911
852.569	3880
852.703	3915
852.838	3968
852.973	4048
853.107	4002
853.242	3888
853.376	3854
853.511	3781
853.645	3850
853.78	3983
853.914	3888
854.048	3945
854.183	3899
854.317	3956
854.451	4074
854.585	3960
854.72	3934
854.854	4082
854.988	3991
855.122	4036
855.256	3945
855.39	4036
855.524	4090
855.658	4128
855.792	4131
855.926	4177
856.06	4166
856.194	4196
856.327	4143
856.461	4196
856.595	4139
856.729	4166
856.862	4299
856.996	4265
857.13	4341
857.263	4344
857.397	4344
857.53	4272
857.664	4371
857.797	4440
857.931	4402
858.064	4398
858.197	4470
858.331	4398
858.464	4379
858.597	4356
858.731	4481
858.864	4485
858.997	4455
859.13	4516
859.263	4538
859.396	4588
859.529	4535
859.662	4565
859.795	4500
859.928	4615
860.061	4706
860.194	4755
860.327	4706
860.46	4668
860.592	4736
860.725	4729
860.858	4797
860.99	4706
861.123	4668
861.256	4725
861.388	4816
861.521	5368
861.653	4744
861.786	4717
861.918	4736
862.05	4786
862.183	4889
862.315	4881
862.447	4923
862.58	4896
862.712	4786
862.844	4744
862.976	4892
863.108	4892
863.24	5235
863.372	4828
863.504	4911
863.636	4965
863.768	4987
863.9	4953
864.032	4930
864.164	4953
864.296	5052
864.428	5098
864.559	5181
864.691	5113
864.823	5124
864.954	5083
865.086	5185
865.217	5117
865.349	5113
865.48	5143
865.612	5242
865.743	5284
865.875	5174
866.006	5185
866.137	5269
866.269	5227
866.4	5265
866.531	5246
866.662	5258
866.793	5292
866.924	5349
867.055	5307
867.186	5406
867.317	5322
867.448	5368
867.579	5425
867.71	5379
867.841	5395
867.972	5493
868.103	5433
868.233	5463
868.364	5554
868.495	5547
868.625	5707
868.756	5809
868.886	5657
869.017	5748
869.147	5824
869.278	5904
869.408	5817
869.539	5946
869.669	5908
869.799	5980
869.929	6011
870.06	6072
870.19	6186
870.32	6205
870.45	6251
870.58	6361
870.71	6452
870.84	6483
870.97	6448
871.1	6448
871.23	6623
871.36	6711
871.489	6631
871.619	6703
871.749	6867
871.879	6844
872.008	6993
872.138	7019
872.267	6943
872.397	6935
872.526	7008
872.656	7152
872.785	7228
872.915	7472
873.044	7518
873.173	7556
873.303	7662
873.432	7734
873.561	7845
873.69	7852
873.819	8012
873.948	8119
874.077	8187
874.206	8415
874.335	8484
874.464	8610
874.593	8864
874.722	8944
874.851	9203
874.979	9275
875.108	9370
875.237	9481
875.365	9450
875.494	9736
875.623	9797
875.751	9759
875.88	9930
876.008	10131
876.136	10333
876.265	10565
876.393	10622
876.521	10714
876.65	10740
876.778	10843
876.906	10904
877.034	10961
877.162	11067
877.29	11166
877.418	11223
877.546	11414
877.674	11433
877.802	11455
877.93	11516
878.058	11539
878.185	11581
878.313	11722
878.441	11783
878.568	11634
878.696	11809
878.824	11828
878.951	11923
879.079	12038
879.206	12155
879.333	12022
879.461	12087
879.588	12175
879.715	12087
879.842	12235
879.97	12114
880.097	11870
880.224	11836
880.351	11920
880.478	11897
880.605	11863
880.732	11863
880.859	11969
880.986	11771
881.112	11817
881.239	11775
881.366	11627
881.493	11684
881.619	11638
881.746	11630
881.872	11520
881.999	11615
882.125	11509
882.252	11493
882.378	11554
882.505	11524
882.631	11360
882.757	11292
882.883	11318
883.01	11269
883.136	11292
883.262	11181
883.388	11029
883.514	11193
883.64	11166
883.766	11064
883.892	10987
884.018	11025
884.143	11037
884.269	11113
884.395	10892
884.52	10774
884.646	10740
884.772	10786
884.897	10630
885.023	10683
885.148	10733
885.274	10755
885.399	10691
885.524	10607
885.65	10626
885.775	10683
885.9	10599
886.025	10599
886.15	10493
886.275	10413
886.4	10432
886.525	10447
886.65	10421
886.775	10314
886.9	10462
887.025	10489
887.149	10325
887.274	10333
887.399	10143
887.523	10291
887.648	10192
887.773	10116
887.897	10234
888.021	10352
888.146	10124
888.27	10268
888.395	10207
888.519	10242
888.643	10158
888.767	10230
888.891	10112
889.015	10006
889.139	10097
889.263	10067
889.387	10154
889.511	10086
889.635	10097
889.759	10021
889.883	9979
890.006	10036
890.13	10082
890.254	9899
890.377	10021
890.501	9831
890.624	10010
890.748	9998
890.871	9781
890.995	9827
891.118	9804
891.241	9774
891.364	9785
891.488	9816
891.611	9759
891.734	9713
891.857	9804
891.98	9759
892.103	9762
892.226	9648
892.349	9641
892.471	9564
892.594	9538
892.717	9610
892.839	9614
892.962	9572
893.085	9701
893.207	9629
893.33	9515
893.452	9481
893.575	9625
893.697	9492
893.819	9629
893.941	9633
894.064	9637
894.186	9496
894.308	9412
894.43	9580
894.552	9614
894.674	9515
894.796	9481
894.918	9412
895.04	9329
895.161	9344
895.283	9310
895.405	9226
895.526	9332
895.648	9241
895.769	9329
895.891	9233
896.012	9321
896.134	9230
896.255	9192
896.376	9131
896.498	9195
896.619	9135
896.74	9108
896.861	9077
896.982	9287
897.103	9237
897.224	9135
897.345	9028
897.466	8952
897.587	8986
897.708	9085
897.828	9081
897.949	8967
898.07	8891
898.19	8921
898.311	9017
898.431	8937
898.552	8975
898.672	9028
898.792	8921
898.913	8880
899.033	8800
899.153	8727
899.273	8678
899.393	8689
899.513	8792
899.633	8754
899.753	8804
899.873	8766
899.993	8792
900.113	8693
900.232	8724
900.352	8682
900.472	8632
900.591	8549
900.711	8590
900.83	8537
900.95	8739
901.069	8686
901.189	8564
901.308	8492
901.427	8332
901.546	8457
901.665	8503
901.784	8522
901.904	8320
902.023	8317
902.141	8229
902.26	8279
902.379	8324
902.498	8210
902.617	8183
902.735	8339
902.854	8320
902.973	8244
903.091	8103
903.21	8138
903.328	8172
903.446	8092
903.565	8100
903.683	8119
903.801	8043
903.919	8142
904.038	8206
904.156	8001
904.274	8096
904.392	8039
904.51	8069
904.627	8069
904.745	8069
904.863	8069
904.981	7967
905.098	7860
905.216	7925
905.334	8008
905.451	7940
905.569	7887
905.686	7856
905.803	7963
905.921	7734
906.038	7898
906.155	7753
906.272	7715
906.389	7670
906.506	7674
906.623	7670
906.74	7666
906.857	7533
906.974	7582
907.091	7708
907.208	7708
907.324	7658
907.441	7643
907.557	7495
907.674	7472
907.79	7343
907.907	7419
908.023	7445
908.139	7491
908.256	7403
908.372	7331
908.488	7346
908.604	7305
908.72	7266
908.836	7308
908.952	7316
909.068	7282
909.184	7400
909.3	7225
909.415	7255
909.531	7312
909.647	7114
909.762	7126
909.878	7164
909.993	7126
910.108	7057
910.224	7099
910.339	7080
910.454	7038
910.57	6977
910.685	6985
910.8	7160
910.915	7141
911.03	7050
911.145	6966
911.259	6867
911.374	6878
911.489	6848
911.604	6833
911.718	6722
911.833	6776
911.947	6612
912.062	6654
912.176	6681
912.291	6753
912.405	6688
912.519	6871
912.633	6848
912.748	6798
912.862	6730
912.976	6623
913.09	6559
913.204	6608
913.318	6650
913.431	6642
913.545	6692
913.659	6703
913.772	6688
913.886	6597
914	6559
914.113	6604
914.226	6719
914.34	6665
914.453	6490
914.566	6612
914.68	6506
914.793	6498
914.906	6498
915.019	6388
915.132	6350
915.245	6391
915.358	6441
915.47	6467
915.583	6486
915.696	6475
915.809	6570
915.921	6578
916.034	6479
916.146	6414
916.259	6361
916.371	6494
916.483	6475
916.595	6372
916.708	6475
916.82	6437
916.932	6422
917.044	6376
917.156	6426
917.268	6308
917.38	6338
917.491	6331
917.603	6323
917.715	6426
917.826	6448
917.938	6342
918.049	6224
918.161	6315
918.272	6407
918.384	6464
918.495	6380
918.606	6232
918.717	6182
918.828	6304
918.939	6315
919.05	6178
919.161	6201
919.272	6144
919.383	6140
919.494	6342
919.604	6471
919.715	6285
919.826	6220
919.936	6277
920.047	6319
920.157	6289
920.267	6479
920.378	6338
920.488	6281
920.598	6486
920.708	6540
920.818	6509
920.928	6494
921.038	6544
921.148	6582
921.258	6384
921.368	6331
921.477	6197
921.587	6152
921.697	6125
921.806	6213
921.916	6106
922.025	5996
922.134	5920
922.244	5889
922.353	5954
922.462	5904
922.571	5783
922.68	5718
922.789	5623
922.898	5733
923.007	5676
923.116	5638
923.224	5695
923.333	5680
923.442	5566
923.55	5589
923.659	5577
923.767	5611
923.876	5558
923.984	5623
924.092	5512
924.201	5573
924.309	5600
924.417	5551
924.525	5516
924.633	5532
924.741	6281
924.849	5414
924.956	5452
925.064	5349
925.172	5322
925.279	5341
925.387	5345
925.494	5303
925.602	5417
925.709	5391
925.816	5357
925.924	5372
926.031	5372
926.138	5337
926.245	5326
926.352	5292
926.459	5383
926.566	5296
926.673	5197
926.779	5128
926.886	5166
926.993	5033
927.099	5025
927.206	4968
927.312	4957
927.419	5056
927.525	4965
927.631	5014
927.737	4896
927.843	4854
927.95	4759
928.056	4820
928.162	4835
928.267	4870
928.373	5296
928.479	4904
928.585	4748
928.69	4793
928.796	4778
928.901	4714
929.007	4626
929.112	4721
929.218	4630
929.323	4622
929.428	4569
929.533	4698
929.638	4516
929.743	4618
929.848	4580
929.953	4516
930.058	4447
930.163	4360
930.267	4383
930.372	4436
930.477	4352
930.581	4519
930.685	4371
930.79	4249
930.894	4268
930.998	4223
931.103	4409
931.207	4105
931.311	4120
931.415	4044
931.519	3922
931.623	3991
