Data from glass_V78500241_1552.txt Node
Date: Wed Sep 01 19:25:15 CST 2021
User: usil
Spectrometer: V785-0024
Trigger mode: 0
Integration Time (sec): 4.000000E-1
Scans to average: 1
Nonlinearity correction enabled: false
Boxcar width: 0
Storing dark spectrum: false
XAxis mode: Wavelengths
Number of Pixels in Spectrum: 1024
>>>>>Begin Spectral Data<<<<<
801.071	3743
801.214	3720
801.356	3720
801.499	3740
801.641	3740
801.783	3774
801.926	3838
802.068	3842
802.211	3842
802.353	3846
802.496	3850
802.638	3907
802.78	3869
802.923	3937
803.065	3884
803.208	3873
803.35	3884
803.492	3907
803.635	3892
803.777	3823
803.919	3888
804.061	4147
804.204	3945
804.346	3941
804.488	3941
804.63	4059
804.773	3953
804.915	4025
805.057	4143
805.199	4029
805.341	4059
805.483	4147
805.626	4120
805.768	4139
805.91	4234
806.052	4284
806.194	4207
806.336	4375
806.478	4207
806.62	4204
806.762	4166
806.904	4287
807.046	4360
807.188	4257
807.33	4177
807.472	4200
807.614	4166
807.756	4246
807.898	4207
808.04	4230
808.182	4344
808.324	4360
808.465	4383
808.607	4462
808.749	4466
808.891	4459
809.033	4478
809.174	4394
809.316	4284
809.458	4234
809.6	4139
809.741	4158
809.883	4147
810.025	4242
810.166	4215
810.308	4227
810.45	4249
810.591	4227
810.733	4306
810.875	4523
811.016	4793
811.158	5159
811.299	5284
811.441	5284
811.582	5075
811.724	4653
811.865	4478
812.007	4489
812.148	4436
812.29	4417
812.431	4432
812.573	4386
812.714	4325
812.855	4417
812.997	4398
813.138	4478
813.279	4398
813.421	4348
813.562	4360
813.703	4329
813.845	4341
813.986	4261
814.127	4230
814.268	4276
814.41	4253
814.551	4287
814.692	4337
814.833	4253
814.974	4306
815.115	4352
815.256	4261
815.397	4211
815.539	4276
815.68	4177
815.821	4215
815.962	4337
816.103	4287
816.244	4268
816.385	4234
816.526	4303
816.666	4200
816.807	4105
816.948	4173
817.089	4181
817.23	4112
817.371	4036
817.512	4021
817.653	4090
817.793	4044
817.934	4025
818.075	4082
818.216	4074
818.356	4086
818.497	3975
818.638	3922
818.778	3911
818.919	3854
819.06	3827
819.2	3915
819.341	3869
819.481	3865
819.622	3907
819.762	4010
819.903	3983
820.043	3850
820.184	3873
820.324	3797
820.465	3873
820.605	3846
820.746	3842
820.886	3804
821.026	3945
821.167	3922
821.307	3972
821.447	4002
821.588	3937
821.728	3937
821.868	3930
822.008	3876
822.149	3892
822.289	3880
822.429	3781
822.569	3751
822.709	3842
822.849	3717
822.99	3717
823.13	3740
823.27	3740
823.41	3713
823.55	3709
823.69	3667
823.83	3759
823.97	3671
824.11	3595
824.25	3564
824.389	3641
824.529	3698
824.669	3667
824.809	3724
824.949	3751
825.089	3736
825.228	3679
825.368	3610
825.508	3519
825.648	3576
825.787	3591
825.927	3622
826.067	3584
826.206	3671
826.346	3778
826.485	3835
826.625	3823
826.765	3934
826.904	3816
827.044	3644
827.183	3580
827.323	3458
827.462	3504
827.601	3443
827.741	3477
827.88	3458
828.02	3370
828.159	3462
828.298	3500
828.437	3523
828.577	3469
828.716	3637
828.855	3500
828.994	3351
829.134	3355
829.273	3393
829.412	3351
829.551	3336
829.69	3389
829.829	3412
829.968	3492
830.107	3443
830.246	3389
830.385	3386
830.524	3306
830.663	3306
830.802	3287
830.941	3203
831.08	3192
831.219	3253
831.357	3287
831.496	3393
831.635	3256
831.774	3207
831.913	3176
832.051	3138
832.19	3119
832.329	3192
832.467	3157
832.606	3123
832.744	3203
832.883	3169
833.022	3165
833.16	3260
833.299	3294
833.437	3329
833.576	3374
833.714	3401
833.852	3435
833.991	3431
834.129	3481
834.267	3439
834.406	3435
834.544	3450
834.682	3382
834.821	3428
834.959	3519
835.097	3401
835.235	3523
835.373	3492
835.511	3511
835.65	3420
835.788	3481
835.926	3393
836.064	3370
836.202	3378
836.34	3564
836.478	3614
836.615	3523
836.753	3633
836.891	3641
837.029	3606
837.167	3641
837.305	3572
837.443	3545
837.58	3481
837.718	3610
837.856	3542
837.993	3564
838.131	3606
838.269	3587
838.406	3610
838.544	3561
838.681	3477
838.819	3443
838.956	3351
839.094	3416
839.231	3450
839.369	3496
839.506	3728
839.643	3599
839.781	3530
839.918	3477
840.055	3545
840.193	3523
840.33	3545
840.467	3576
840.604	3625
840.742	3808
840.879	3530
841.016	3564
841.153	3572
841.29	3743
841.427	3724
841.564	3747
841.701	3740
841.838	3728
841.975	3686
842.112	3686
842.249	3667
842.385	3610
842.522	3857
842.659	3671
842.796	3652
842.933	3759
843.069	3705
843.206	3720
843.343	3778
843.479	3812
843.616	3838
843.752	3679
843.889	3671
844.025	3865
844.162	3713
844.298	3838
844.435	3766
844.571	3774
844.708	3915
844.844	3979
844.98	4029
845.117	4002
845.253	3907
845.389	3918
845.525	3972
845.661	3979
845.798	3903
845.934	4025
846.07	3975
846.206	4067
846.342	4158
846.478	4078
846.614	4006
846.75	3968
846.886	3880
847.022	4006
847.158	3979
847.294	3979
847.429	4029
847.565	3987
847.701	4227
847.837	3880
847.972	3896
848.108	3975
848.244	3983
848.379	3861
848.515	3793
848.65	3812
848.786	3819
848.921	3876
849.057	3903
849.192	3987
849.328	3953
849.463	3926
849.598	3861
849.734	3823
849.869	3816
850.004	3778
850.14	3800
850.275	3816
850.41	3728
850.545	3789
850.68	3770
850.815	3804
850.95	3793
851.085	3915
851.22	3884
851.355	3838
851.49	3804
851.625	3762
851.76	3816
851.895	3724
852.03	3751
852.165	3774
852.299	3869
852.434	3911
852.569	3831
852.703	3865
852.838	3911
852.973	4006
853.107	4017
853.242	3884
853.376	3846
853.511	3808
853.645	3804
853.78	3956
853.914	3945
854.048	3896
854.183	3869
854.317	3972
854.451	4120
854.585	3937
854.72	3918
854.854	4006
854.988	3968
855.122	4006
855.256	3899
855.39	4017
855.524	4078
855.658	4097
855.792	4105
855.926	4135
856.06	4131
856.194	4261
856.327	4105
856.461	4135
856.595	4143
856.729	4177
856.862	4265
856.996	4272
857.13	4280
857.263	4325
857.397	4341
857.53	4276
857.664	4306
857.797	4360
857.931	4402
858.064	4443
858.197	4447
858.331	4424
858.464	4394
858.597	4344
858.731	4436
858.864	4500
858.997	4459
859.13	4508
859.263	4535
859.396	4519
859.529	4535
859.662	4508
859.795	4542
859.928	4558
860.061	4672
860.194	4717
860.327	4653
860.46	4630
860.592	4714
860.725	4748
860.858	4790
860.99	4687
861.123	4691
861.256	4736
861.388	4831
861.521	5516
861.653	4740
861.786	4679
861.918	4782
862.05	4828
862.183	4866
862.315	4919
862.447	5010
862.58	4904
862.712	4767
862.844	4771
862.976	4847
863.108	4862
863.24	5204
863.372	4839
863.504	4919
863.636	4927
863.768	5025
863.9	4991
864.032	4927
864.164	4949
864.296	5041
864.428	5075
864.559	5079
864.691	5117
864.823	5128
864.954	5113
865.086	5170
865.217	5143
865.349	5117
865.48	5124
865.612	5208
865.743	5303
865.875	5178
866.006	5170
866.137	5261
866.269	5170
866.4	5223
866.531	5246
866.662	5197
866.793	5258
866.924	5307
867.055	5307
867.186	5326
867.317	5303
867.448	5269
867.579	5383
867.71	5482
867.841	5425
867.972	5417
868.103	5471
868.233	5452
868.364	5471
868.495	5505
868.625	5661
868.756	5821
868.886	5661
869.017	5718
869.147	5878
869.278	5824
869.408	5824
869.539	5840
869.669	5939
869.799	5901
869.929	5946
870.06	6030
870.19	6175
870.32	6197
870.45	6277
870.58	6346
870.71	6433
870.84	6479
870.97	6414
871.1	6490
871.23	6616
871.36	6692
871.489	6692
871.619	6749
871.749	6783
871.879	6871
872.008	6996
872.138	6947
872.267	6973
872.397	7000
872.526	7088
872.656	7145
872.785	7221
872.915	7392
873.044	7575
873.173	7582
873.303	7655
873.432	7811
873.561	7795
873.69	7887
873.819	8024
873.948	8153
874.077	8267
874.206	8282
874.335	8473
874.464	8644
874.593	8895
874.722	8902
874.851	9165
874.979	9260
875.108	9348
875.237	9428
875.365	9538
875.494	9663
875.623	9800
875.751	9819
875.88	9956
876.008	10120
876.136	10295
876.265	10531
876.393	10607
876.521	10675
876.65	10854
876.778	10908
876.906	10877
877.034	10915
877.162	11102
877.29	11174
877.418	11292
877.546	11398
877.674	11421
877.802	11452
877.93	11570
878.058	11520
878.185	11539
878.313	11684
878.441	11722
878.568	11691
878.696	11745
878.824	11817
878.951	11908
879.079	11931
879.206	12102
879.333	12091
879.461	12026
879.588	12053
879.715	12079
879.842	12205
879.97	12098
880.097	11920
880.224	11863
880.351	11870
880.478	11965
880.605	11824
880.732	11843
880.859	11965
880.986	11843
881.112	11840
881.239	11611
881.366	11619
881.493	11570
881.619	11524
881.746	11493
881.872	11535
881.999	11467
882.125	11516
882.252	11551
882.378	11535
882.505	11551
882.631	11429
882.757	11296
882.883	11318
883.01	11204
883.136	11166
883.262	11113
883.388	11113
883.514	11155
883.64	11178
883.766	11132
883.892	11025
884.018	11045
884.143	11079
884.269	11109
884.395	10805
884.52	10675
884.646	10793
884.772	10714
884.897	10656
885.023	10596
885.148	10714
885.274	10698
885.399	10694
885.524	10645
885.65	10596
885.775	10626
885.9	10573
886.025	10626
886.15	10607
886.275	10481
886.4	10447
886.525	10409
886.65	10352
886.775	10284
886.9	10398
887.025	10554
887.149	10348
887.274	10181
887.399	10261
887.523	10128
887.648	10109
887.773	10181
887.897	10154
888.021	10181
888.146	10177
888.27	10253
888.395	10192
888.519	10154
888.643	10310
888.767	10249
888.891	10128
889.015	10078
889.139	10032
889.263	9968
889.387	10143
889.511	10055
889.635	10135
889.759	9930
889.883	9987
890.006	10017
890.13	10074
890.254	10025
890.377	10017
890.501	9888
890.624	9922
890.748	9850
890.871	9720
890.995	9766
891.118	9759
891.241	9785
891.364	9747
891.488	9800
891.611	9751
891.734	9698
891.857	9793
891.98	9618
892.103	9800
892.226	9743
892.349	9709
892.471	9534
892.594	9606
892.717	9663
892.839	9606
892.962	9625
893.085	9637
893.207	9663
893.33	9458
893.452	9542
893.575	9656
893.697	9492
893.819	9625
893.941	9542
894.064	9595
894.186	9454
894.308	9340
894.43	9584
894.552	9538
894.674	9580
894.796	9435
894.918	9428
895.04	9340
895.161	9374
895.283	9340
895.405	9302
895.526	9230
895.648	9291
895.769	9245
895.891	9241
896.012	9226
896.134	9249
896.255	9188
896.376	9108
896.498	9161
896.619	9104
896.74	9020
896.861	9066
896.982	9260
897.103	9287
897.224	9192
897.345	9108
897.466	8975
897.587	9055
897.708	9119
897.828	9036
897.949	8914
898.07	8864
898.19	8929
898.311	9036
898.431	8921
898.552	8902
898.672	8990
898.792	8979
898.913	8868
899.033	8830
899.153	8762
899.273	8716
899.393	8746
899.513	8762
899.633	8754
899.753	8716
899.873	8625
899.993	8773
900.113	8674
900.232	8777
900.352	8693
900.472	8667
900.591	8537
900.711	8606
900.83	8564
900.95	8625
901.069	8716
901.189	8606
901.308	8469
901.427	8396
901.546	8469
901.665	8412
901.784	8461
901.904	8370
902.023	8351
902.141	8259
902.26	8142
902.379	8332
902.498	8168
902.617	8286
902.735	8309
902.854	8309
902.973	8290
903.091	8107
903.21	8100
903.328	8145
903.446	8138
903.565	8062
903.683	8039
903.801	8115
903.919	8054
904.038	8100
904.156	8005
904.274	8103
904.392	8069
904.51	8020
904.627	8103
904.745	8077
904.863	8103
904.981	7978
905.098	7822
905.216	7887
905.334	7963
905.451	7928
905.569	7830
905.686	7917
905.803	7917
905.921	7765
906.038	7917
906.155	7799
906.272	7700
906.389	7696
906.506	7655
906.623	7620
906.74	7670
906.857	7506
906.974	7601
907.091	7658
907.208	7712
907.324	7639
907.441	7575
907.557	7487
907.674	7430
907.79	7415
907.907	7502
908.023	7441
908.139	7453
908.256	7403
908.372	7381
908.488	7327
908.604	7293
908.72	7244
908.836	7327
908.952	7232
909.068	7263
909.184	7263
909.3	7263
909.415	7232
909.531	7320
909.647	7095
909.762	7152
909.878	7046
909.993	7149
910.108	7053
910.224	7126
910.339	7175
910.454	7053
910.57	7023
910.685	6951
910.8	7141
910.915	7118
911.03	7015
911.145	6878
911.259	6856
911.374	6916
911.489	6863
911.604	6768
911.718	6741
911.833	6760
911.947	6608
912.062	6608
912.176	6734
912.291	6631
912.405	6711
912.519	6802
912.633	6856
912.748	6726
912.862	6700
912.976	6616
913.09	6601
913.204	6620
913.318	6582
913.431	6654
913.545	6631
913.659	6662
913.772	6639
913.886	6570
914	6555
914.113	6673
914.226	6639
914.34	6585
914.453	6441
914.566	6593
914.68	6490
914.793	6536
914.906	6483
915.019	6407
915.132	6376
915.245	6433
915.358	6475
915.47	6448
915.583	6475
915.696	6479
915.809	6578
915.921	6521
916.034	6464
916.146	6452
916.259	6384
916.371	6479
916.483	6467
916.595	6422
916.708	6414
916.82	6391
916.932	6384
917.044	6361
917.156	6391
917.268	6323
917.38	6315
917.491	6300
917.603	6365
917.715	6342
917.826	6414
917.938	6350
918.049	6224
918.161	6395
918.272	6433
918.384	6433
918.495	6350
918.606	6213
918.717	6197
918.828	6311
918.939	6277
919.05	6224
919.161	6281
919.272	6159
919.383	6190
919.494	6285
919.604	6426
919.715	6292
919.826	6194
919.936	6247
920.047	6342
920.157	6273
920.267	6452
920.378	6308
920.488	6296
920.598	6429
920.708	6559
920.818	6460
920.928	6429
921.038	6585
921.148	6536
921.258	6327
921.368	6296
921.477	6251
921.587	6171
921.697	6068
921.806	6197
921.916	6117
922.025	5923
922.134	5920
922.244	5923
922.353	5992
922.462	5821
922.571	5882
922.68	5722
922.789	5695
922.898	5748
923.007	5630
923.116	5760
923.224	5748
923.333	5676
923.442	5551
923.55	5585
923.659	5604
923.767	5608
923.876	5562
923.984	5634
924.092	5501
924.201	5566
924.309	5547
924.417	5516
924.525	5543
924.633	5486
924.741	6133
924.849	5406
924.956	5425
925.064	5387
925.172	5292
925.279	5318
925.387	5372
925.494	5315
925.602	5341
925.709	5364
925.816	5242
925.924	5246
926.031	5410
926.138	5296
926.245	5311
926.352	5220
926.459	5258
926.566	5360
926.673	5269
926.779	5155
926.886	5147
926.993	5025
927.099	5022
927.206	4976
927.312	4930
927.419	5022
927.525	4934
927.631	4980
927.737	4900
927.843	4801
927.95	4759
928.056	4839
928.162	4801
928.267	4809
928.373	5296
928.479	4885
928.585	4706
928.69	4774
928.796	4820
928.901	4687
929.007	4577
929.112	4653
929.218	4645
929.323	4630
929.428	4554
929.533	4656
929.638	4512
929.743	4542
929.848	4519
929.953	4504
930.058	4466
930.163	4348
930.267	4344
930.372	4440
930.477	4375
930.581	4500
930.685	4341
930.79	4261
930.894	4276
930.998	4280
931.103	4371
931.207	4090
931.311	4109
931.415	4059
931.519	3922
931.623	3926
