Data from glass_V78500241_311.txt Node
Date: Wed Sep 01 19:16:39 CST 2021
User: usil
Spectrometer: V785-0024
Trigger mode: 0
Integration Time (sec): 4.000000E-1
Scans to average: 1
Nonlinearity correction enabled: false
Boxcar width: 0
Storing dark spectrum: false
XAxis mode: Wavelengths
Number of Pixels in Spectrum: 1024
>>>>>Begin Spectral Data<<<<<
801.071	3740
801.214	3755
801.356	3717
801.499	3762
801.641	3751
801.783	3778
801.926	3873
802.068	3873
802.211	3850
802.353	3907
802.496	3850
802.638	3926
802.78	3899
802.923	3960
803.065	3918
803.208	3865
803.35	3884
803.492	3888
803.635	3964
803.777	3816
803.919	3922
804.061	4166
804.204	3956
804.346	3956
804.488	3934
804.63	4017
804.773	3968
804.915	4074
805.057	4147
805.199	4017
805.341	4048
805.483	4162
805.626	4169
805.768	4101
805.91	4246
806.052	4284
806.194	4219
806.336	4363
806.478	4272
806.62	4162
806.762	4188
806.904	4265
807.046	4383
807.188	4253
807.33	4173
807.472	4287
807.614	4219
807.756	4295
807.898	4280
808.04	4238
808.182	4310
808.324	4329
808.465	4379
808.607	4512
808.749	4493
808.891	4489
809.033	4508
809.174	4455
809.316	4272
809.458	4249
809.6	4188
809.741	4143
809.883	4124
810.025	4253
810.166	4272
810.308	4200
810.45	4257
810.591	4249
810.733	4318
810.875	4542
811.016	4835
811.158	5140
811.299	5258
811.441	5265
811.582	5102
811.724	4721
811.865	4481
812.007	4474
812.148	4447
812.29	4405
812.431	4409
812.573	4409
812.714	4383
812.855	4451
812.997	4432
813.138	4485
813.279	4383
813.421	4394
813.562	4390
813.703	4322
813.845	4341
813.986	4253
814.127	4242
814.268	4322
814.41	4314
814.551	4310
814.692	4356
814.833	4284
814.974	4280
815.115	4318
815.256	4268
815.397	4257
815.539	4268
815.68	4204
815.821	4242
815.962	4356
816.103	4322
816.244	4246
816.385	4257
816.526	4268
816.666	4242
816.807	4120
816.948	4177
817.089	4227
817.23	4143
817.371	4074
817.512	4063
817.653	4112
817.793	4013
817.934	4048
818.075	4120
818.216	4086
818.356	4124
818.497	3968
818.638	3922
818.778	3915
818.919	3903
819.06	3869
819.2	3945
819.341	3857
819.481	3816
819.622	3918
819.762	3991
819.903	4010
820.043	3854
820.184	3846
820.324	3800
820.465	3884
820.605	3823
820.746	3896
820.886	3854
821.026	3968
821.167	3915
821.307	3960
821.447	3998
821.588	3983
821.728	3949
821.868	3949
822.008	3880
822.149	3953
822.289	3896
822.429	3816
822.569	3778
822.709	3800
822.849	3740
822.99	3724
823.13	3778
823.27	3816
823.41	3770
823.55	3740
823.69	3740
823.83	3759
823.97	3675
824.11	3622
824.25	3648
824.389	3667
824.529	3686
824.669	3644
824.809	3728
824.949	3781
825.089	3747
825.228	3732
825.368	3549
825.508	3538
825.648	3587
825.787	3629
825.927	3618
826.067	3648
826.206	3671
826.346	3781
826.485	3842
826.625	3827
826.765	3994
826.904	3876
827.044	3629
827.183	3538
827.323	3443
827.462	3481
827.601	3526
827.741	3431
827.88	3458
828.02	3378
828.159	3431
828.298	3496
828.437	3580
828.577	3485
828.716	3606
828.855	3504
828.994	3393
829.134	3389
829.273	3393
829.412	3378
829.551	3344
829.69	3378
829.829	3386
829.968	3526
830.107	3431
830.246	3462
830.385	3397
830.524	3363
830.663	3279
830.802	3268
830.941	3249
831.08	3237
831.219	3287
831.357	3287
831.496	3409
831.635	3253
831.774	3245
831.913	3230
832.051	3104
832.19	3169
832.329	3237
832.467	3157
832.606	3146
832.744	3188
832.883	3184
833.022	3253
833.16	3279
833.299	3310
833.437	3374
833.576	3405
833.714	3420
833.852	3447
833.991	3416
834.129	3462
834.267	3409
834.406	3405
834.544	3492
834.682	3473
834.821	3439
834.959	3580
835.097	3431
835.235	3538
835.373	3584
835.511	3549
835.65	3466
835.788	3469
835.926	3370
836.064	3397
836.202	3416
836.34	3572
836.478	3648
836.615	3557
836.753	3606
836.891	3622
837.029	3591
837.167	3606
837.305	3591
837.443	3568
837.58	3488
837.718	3633
837.856	3549
837.993	3515
838.131	3587
838.269	3557
838.406	3614
838.544	3595
838.681	3481
838.819	3462
838.956	3412
839.094	3428
839.231	3481
839.369	3504
839.506	3770
839.643	3629
839.781	3507
839.918	3435
840.055	3564
840.193	3557
840.33	3488
840.467	3587
840.604	3576
840.742	3823
840.879	3572
841.016	3595
841.153	3587
841.29	3759
841.427	3720
841.564	3713
841.701	3770
841.838	3724
841.975	3701
842.112	3770
842.249	3644
842.385	3648
842.522	3854
842.659	3698
842.796	3682
842.933	3724
843.069	3740
843.206	3694
843.343	3816
843.479	3819
843.616	3819
843.752	3648
843.889	3736
844.025	3941
844.162	3736
844.298	3880
844.435	3800
844.571	3781
844.708	3903
844.844	3983
844.98	4002
845.117	4036
845.253	3937
845.389	3937
845.525	4010
845.661	3979
845.798	3960
845.934	4013
846.07	3972
846.206	4078
846.342	4131
846.478	4090
846.614	3975
846.75	3987
846.886	3922
847.022	4051
847.158	4006
847.294	4025
847.429	4025
847.565	3998
847.701	4295
847.837	3918
847.972	3880
848.108	4006
848.244	3983
848.379	3842
848.515	3873
848.65	3831
848.786	3842
848.921	3922
849.057	3953
849.192	3972
849.328	3888
849.463	3960
849.598	3869
849.734	3869
849.869	3838
850.004	3804
850.14	3823
850.275	3789
850.41	3728
850.545	3736
850.68	3762
850.815	3808
850.95	3835
851.085	3949
851.22	3907
851.355	3831
851.49	3797
851.625	3766
851.76	3793
851.895	3797
852.03	3740
852.165	3827
852.299	3857
852.434	3941
852.569	3884
852.703	3876
852.838	3949
852.973	4044
853.107	4040
853.242	3903
853.376	3869
853.511	3827
853.645	3857
853.78	4002
853.914	3926
854.048	3915
854.183	3880
854.317	3983
854.451	4090
854.585	3968
854.72	3960
854.854	4082
854.988	3930
855.122	4006
855.256	3941
855.39	4029
855.524	4135
855.658	4067
855.792	4143
855.926	4109
856.06	4154
856.194	4207
856.327	4139
856.461	4181
856.595	4116
856.729	4215
856.862	4337
856.996	4246
857.13	4337
857.263	4390
857.397	4386
857.53	4295
857.664	4344
857.797	4413
857.931	4440
858.064	4367
858.197	4455
858.331	4424
858.464	4428
858.597	4371
858.731	4440
858.864	4459
858.997	4474
859.13	4542
859.263	4603
859.396	4630
859.529	4573
859.662	4531
859.795	4558
859.928	4630
860.061	4748
860.194	4748
860.327	4645
860.46	4698
860.592	4736
860.725	4736
860.858	4778
860.99	4702
861.123	4683
861.256	4694
861.388	4740
861.521	5296
861.653	4744
861.786	4717
861.918	4790
862.05	4790
862.183	4850
862.315	4934
862.447	4957
862.58	4904
862.712	4847
862.844	4759
862.976	4854
863.108	4881
863.24	5288
863.372	4850
863.504	4953
863.636	4900
863.768	4980
863.9	4923
864.032	4904
864.164	4957
864.296	4999
864.428	5045
864.559	5117
864.691	5098
864.823	5151
864.954	5128
865.086	5143
865.217	5181
865.349	5117
865.48	5143
865.612	5223
865.743	5330
865.875	5235
866.006	5220
866.137	5277
866.269	5239
866.4	5277
866.531	5246
866.662	5261
866.793	5299
866.924	5250
867.055	5330
867.186	5311
867.317	5337
867.448	5307
867.579	5406
867.71	5414
867.841	5436
867.972	5410
868.103	5463
868.233	5528
868.364	5505
868.495	5535
868.625	5722
868.756	5798
868.886	5688
869.017	5729
869.147	5802
869.278	5863
869.408	5840
869.539	5855
869.669	5950
869.799	5901
869.929	5988
870.06	6030
870.19	6186
870.32	6239
870.45	6235
870.58	6357
870.71	6479
870.84	6494
870.97	6448
871.1	6452
871.23	6696
871.36	6757
871.489	6681
871.619	6753
871.749	6814
871.879	6909
872.008	7012
872.138	6951
872.267	7015
872.397	7042
872.526	7046
872.656	7099
872.785	7217
872.915	7392
873.044	7563
873.173	7521
873.303	7639
873.432	7757
873.561	7959
873.69	7894
873.819	7978
873.948	8237
874.077	8282
874.206	8332
874.335	8488
874.464	8659
874.593	8906
874.722	8899
874.851	9051
874.979	9192
875.108	9359
875.237	9458
875.365	9462
875.494	9667
875.623	9732
875.751	9804
875.88	10048
876.008	10192
876.136	10253
876.265	10523
876.393	10653
876.521	10717
876.65	10816
876.778	10854
876.906	10919
877.034	10999
877.162	11045
877.29	11151
877.418	11318
877.546	11376
877.674	11425
877.802	11509
877.93	11547
878.058	11486
878.185	11551
878.313	11665
878.441	11802
878.568	11718
878.696	11722
878.824	11855
878.951	11946
879.079	12007
879.206	12114
879.333	12095
879.461	12019
879.588	12038
879.715	12083
879.842	12273
879.97	12114
880.097	11939
880.224	11999
880.351	11870
880.478	11843
880.605	11901
880.732	11878
880.859	12049
880.986	11764
881.112	11874
881.239	11760
881.366	11619
881.493	11722
881.619	11474
881.746	11600
881.872	11532
881.999	11501
882.125	11406
882.252	11566
882.378	11509
882.505	11543
882.631	11307
882.757	11299
882.883	11303
883.01	11239
883.136	11121
883.262	11159
883.388	11086
883.514	11208
883.64	11143
883.766	11193
883.892	11064
884.018	10991
884.143	11181
884.269	11037
884.395	10831
884.52	10771
884.646	10835
884.772	10759
884.897	10702
885.023	10740
885.148	10778
885.274	10797
885.399	10668
885.524	10630
885.65	10588
885.775	10618
885.9	10554
886.025	10691
886.15	10542
886.275	10462
886.4	10428
886.525	10424
886.65	10363
886.775	10299
886.9	10523
887.025	10504
887.149	10413
887.274	10280
887.399	10215
887.523	10177
887.648	10067
887.773	10131
887.897	10215
888.021	10215
888.146	10196
888.27	10173
888.395	10314
888.519	10204
888.643	10162
888.767	10188
888.891	10055
889.015	10017
889.139	10093
889.263	9937
889.387	10048
889.511	10082
889.635	10063
889.759	9998
889.883	9953
890.006	10086
890.13	10109
890.254	9869
890.377	9956
890.501	9873
890.624	9857
890.748	9880
890.871	9778
890.995	9755
891.118	9759
891.241	9819
891.364	9709
891.488	9812
891.611	9717
891.734	9774
891.857	9835
891.98	9724
892.103	9717
892.226	9679
892.349	9690
892.471	9447
892.594	9603
892.717	9713
892.839	9675
892.962	9610
893.085	9671
893.207	9610
893.33	9473
893.452	9530
893.575	9667
893.697	9420
893.819	9587
893.941	9648
894.064	9568
894.186	9515
894.308	9397
894.43	9538
894.552	9549
894.674	9530
894.796	9275
894.918	9439
895.04	9370
895.161	9431
895.283	9378
895.405	9226
895.526	9310
895.648	9283
895.769	9260
895.891	9230
896.012	9260
896.134	9241
896.255	9211
896.376	9176
896.498	9104
896.619	9146
896.74	9074
896.861	9119
896.982	9256
897.103	9393
897.224	9127
897.345	9028
897.466	9070
897.587	9089
897.708	9112
897.828	9081
897.949	8963
898.07	8823
898.19	8800
898.311	8982
898.431	8948
898.552	8918
898.672	8952
898.792	8971
898.913	8944
899.033	8731
899.153	8750
899.273	8739
899.393	8758
899.513	8731
899.633	8766
899.753	8743
899.873	8682
899.993	8735
900.113	8629
900.232	8724
900.352	8621
900.472	8564
900.591	8530
900.711	8667
900.83	8590
900.95	8708
901.069	8648
901.189	8610
901.308	8457
901.427	8355
901.546	8457
901.665	8442
901.784	8503
901.904	8408
902.023	8320
902.141	8271
902.26	8252
902.379	8225
902.498	8263
902.617	8221
902.735	8275
902.854	8290
902.973	8305
903.091	8119
903.21	8168
903.328	8240
903.446	8157
903.565	8073
903.683	8153
903.801	8054
903.919	8088
904.038	8149
904.156	8008
904.274	8069
904.392	8134
904.51	8031
904.627	8054
904.745	8069
904.863	8164
904.981	7959
905.098	7890
905.216	7913
905.334	7917
905.451	7928
905.569	7898
905.686	7993
905.803	7947
905.921	7792
906.038	7871
906.155	7841
906.272	7677
906.389	7670
906.506	7658
906.623	7601
906.74	7620
906.857	7643
906.974	7601
907.091	7666
907.208	7696
907.324	7628
907.441	7575
907.557	7521
907.674	7441
907.79	7381
907.907	7434
908.023	7392
908.139	7460
908.256	7392
908.372	7369
908.488	7407
908.604	7282
908.72	7240
908.836	7293
908.952	7289
909.068	7228
909.184	7240
909.3	7270
909.415	7301
909.531	7312
909.647	7168
909.762	7076
909.878	7137
909.993	7149
910.108	7133
910.224	7107
910.339	7122
910.454	7027
910.57	7050
910.685	6954
910.8	7149
910.915	7137
911.03	7057
911.145	6951
911.259	6871
911.374	6905
911.489	6806
911.604	6852
911.718	6738
911.833	6722
911.947	6681
912.062	6650
912.176	6677
912.291	6753
912.405	6703
912.519	6783
912.633	6795
912.748	6772
912.862	6707
912.976	6521
913.09	6498
913.204	6536
913.318	6620
913.431	6715
913.545	6654
913.659	6719
913.772	6642
913.886	6601
914	6563
914.113	6639
914.226	6669
914.34	6521
914.453	6528
914.566	6616
914.68	6540
914.793	6467
914.906	6433
915.019	6448
915.132	6395
915.245	6441
915.358	6441
915.47	6372
915.583	6486
915.696	6498
915.809	6509
915.921	6563
916.034	6426
916.146	6441
916.259	6407
916.371	6452
916.483	6456
916.595	6380
916.708	6475
916.82	6422
916.932	6361
917.044	6376
917.156	6426
917.268	6296
917.38	6350
917.491	6327
917.603	6350
917.715	6414
917.826	6418
917.938	6331
918.049	6254
918.161	6361
918.272	6426
918.384	6403
918.495	6331
918.606	6289
918.717	6281
918.828	6266
918.939	6315
919.05	6178
919.161	6251
919.272	6144
919.383	6136
919.494	6296
919.604	6391
919.715	6319
919.826	6224
919.936	6247
920.047	6384
920.157	6292
920.267	6486
920.378	6289
920.488	6247
920.598	6460
920.708	6547
920.818	6452
920.928	6471
921.038	6582
921.148	6585
921.258	6399
921.368	6334
921.477	6205
921.587	6171
921.697	6129
921.806	6186
921.916	6133
922.025	5958
922.134	5901
922.244	5866
922.353	5965
922.462	5904
922.571	5878
922.68	5703
922.789	5630
922.898	5703
923.007	5638
923.116	5710
923.224	5684
923.333	5680
923.442	5623
923.55	5554
923.659	5638
923.767	5623
923.876	5532
923.984	5600
924.092	5524
924.201	5547
924.309	5581
924.417	5581
924.525	5463
924.633	5474
924.741	6285
924.849	5387
924.956	5493
925.064	5353
925.172	5341
925.279	5326
925.387	5379
925.494	5429
925.602	5474
925.709	5429
925.816	5280
925.924	5322
926.031	5364
926.138	5284
926.245	5353
926.352	5258
926.459	5360
926.566	5379
926.673	5265
926.779	5185
926.886	5117
926.993	5033
927.099	5018
927.206	4968
927.312	5010
927.419	5025
927.525	4995
927.631	4995
927.737	4889
927.843	4885
927.95	4793
928.056	4847
928.162	4843
928.267	4892
928.373	5261
928.479	4900
928.585	4710
928.69	4805
928.796	4831
928.901	4740
929.007	4588
929.112	4714
929.218	4660
929.323	4599
929.428	4596
929.533	4710
929.638	4542
929.743	4584
929.848	4565
929.953	4519
930.058	4470
930.163	4363
930.267	4348
930.372	4432
930.477	4325
930.581	4512
930.685	4405
930.79	4280
930.894	4314
930.998	4295
931.103	4348
931.207	4101
931.311	4120
931.415	4086
931.519	3953
931.623	3987
