Data from glass_V78500241_2104.txt Node
Date: Wed Sep 01 19:29:05 CST 2021
User: usil
Spectrometer: V785-0024
Trigger mode: 0
Integration Time (sec): 4.000000E-1
Scans to average: 1
Nonlinearity correction enabled: false
Boxcar width: 0
Storing dark spectrum: false
XAxis mode: Wavelengths
Number of Pixels in Spectrum: 1024
>>>>>Begin Spectral Data<<<<<
801.071	3736
801.214	3694
801.356	3694
801.499	3728
801.641	3694
801.783	3800
801.926	3873
802.068	3804
802.211	3797
802.353	3861
802.496	3842
802.638	3861
802.78	3854
802.923	3918
803.065	3884
803.208	3857
803.35	3850
803.492	3896
803.635	3956
803.777	3816
803.919	3903
804.061	4124
804.204	3930
804.346	3968
804.488	3896
804.63	4002
804.773	3972
804.915	4029
805.057	4227
805.199	3994
805.341	4120
805.483	4143
805.626	4154
805.768	4124
805.91	4234
806.052	4207
806.194	4230
806.336	4348
806.478	4215
806.62	4188
806.762	4143
806.904	4249
807.046	4333
807.188	4211
807.33	4143
807.472	4230
807.614	4219
807.756	4227
807.898	4234
808.04	4219
808.182	4291
808.324	4310
808.465	4344
808.607	4470
808.749	4512
808.891	4432
809.033	4565
809.174	4432
809.316	4295
809.458	4276
809.6	4177
809.741	4154
809.883	4105
810.025	4177
810.166	4211
810.308	4173
810.45	4249
810.591	4192
810.733	4295
810.875	4489
811.016	4858
811.158	5121
811.299	5265
811.441	5296
811.582	5098
811.724	4698
811.865	4428
812.007	4462
812.148	4443
812.29	4405
812.431	4451
812.573	4436
812.714	4402
812.855	4394
812.997	4386
813.138	4455
813.279	4367
813.421	4386
813.562	4424
813.703	4341
813.845	4303
813.986	4253
814.127	4246
814.268	4234
814.41	4291
814.551	4257
814.692	4337
814.833	4276
814.974	4284
815.115	4356
815.256	4230
815.397	4230
815.539	4242
815.68	4230
815.821	4219
815.962	4310
816.103	4284
816.244	4238
816.385	4261
816.526	4306
816.666	4204
816.807	4093
816.948	4200
817.089	4188
817.23	4074
817.371	4059
817.512	4074
817.653	4071
817.793	4010
817.934	4059
818.075	4086
818.216	4139
818.356	4055
818.497	4032
818.638	3941
818.778	3884
818.919	3903
819.06	3808
819.2	3945
819.341	3876
819.481	3865
819.622	3892
819.762	3994
819.903	3915
820.043	3850
820.184	3831
820.324	3766
820.465	3857
820.605	3869
820.746	3846
820.886	3800
821.026	3983
821.167	3930
821.307	3945
821.447	3987
821.588	3922
821.728	3918
821.868	3915
822.008	3846
822.149	3873
822.289	3892
822.429	3804
822.569	3800
822.709	3781
822.849	3660
822.99	3717
823.13	3762
823.27	3740
823.41	3732
823.55	3755
823.69	3713
823.83	3732
823.97	3644
824.11	3576
824.25	3584
824.389	3644
824.529	3633
824.669	3629
824.809	3686
824.949	3736
825.089	3698
825.228	3660
825.368	3606
825.508	3534
825.648	3572
825.787	3625
825.927	3625
826.067	3622
826.206	3660
826.346	3789
826.485	3793
826.625	3827
826.765	3915
826.904	3816
827.044	3637
827.183	3523
827.323	3458
827.462	3542
827.601	3447
827.741	3401
827.88	3420
828.02	3340
828.159	3420
828.298	3485
828.437	3519
828.577	3469
828.716	3549
828.855	3515
828.994	3409
829.134	3359
829.273	3389
829.412	3351
829.551	3310
829.69	3344
829.829	3435
829.968	3504
830.107	3416
830.246	3473
830.385	3378
830.524	3332
830.663	3302
830.802	3287
830.941	3199
831.08	3199
831.219	3249
831.357	3233
831.496	3363
831.635	3188
831.774	3173
831.913	3165
832.051	3135
832.19	3142
832.329	3207
832.467	3131
832.606	3104
832.744	3150
832.883	3146
833.022	3192
833.16	3237
833.299	3313
833.437	3329
833.576	3329
833.714	3367
833.852	3424
833.991	3443
834.129	3469
834.267	3416
834.406	3401
834.544	3397
834.682	3401
834.821	3443
834.959	3603
835.097	3389
835.235	3515
835.373	3466
835.511	3496
835.65	3450
835.788	3466
835.926	3393
836.064	3393
836.202	3416
836.34	3515
836.478	3580
836.615	3534
836.753	3584
836.891	3637
837.029	3618
837.167	3557
837.305	3530
837.443	3534
837.58	3538
837.718	3587
837.856	3557
837.993	3515
838.131	3595
838.269	3584
838.406	3618
838.544	3580
838.681	3477
838.819	3454
838.956	3397
839.094	3370
839.231	3386
839.369	3507
839.506	3717
839.643	3648
839.781	3485
839.918	3431
840.055	3538
840.193	3564
840.33	3485
840.467	3534
840.604	3564
840.742	3793
840.879	3511
841.016	3557
841.153	3545
841.29	3713
841.427	3713
841.564	3728
841.701	3720
841.838	3728
841.975	3663
842.112	3694
842.249	3633
842.385	3629
842.522	3812
842.659	3648
842.796	3694
842.933	3717
843.069	3694
843.206	3705
843.343	3823
843.479	3797
843.616	3793
843.752	3660
843.889	3663
844.025	3823
844.162	3713
844.298	3819
844.435	3770
844.571	3743
844.708	3896
844.844	3972
844.98	4010
845.117	3987
845.253	3922
845.389	3937
845.525	3956
845.661	3960
845.798	3926
845.934	3975
846.07	3907
846.206	4010
846.342	4101
846.478	4006
846.614	3930
846.75	3918
846.886	3930
847.022	4078
847.158	3960
847.294	4044
847.429	4036
847.565	3979
847.701	4234
847.837	3850
847.972	3888
848.108	3945
848.244	3979
848.379	3869
848.515	3835
848.65	3774
848.786	3846
848.921	3865
849.057	3941
849.192	3964
849.328	3911
849.463	3907
849.598	3869
849.734	3876
849.869	3827
850.004	3808
850.14	3808
850.275	3751
850.41	3747
850.545	3747
850.68	3762
850.815	3800
850.95	3812
851.085	3930
851.22	3854
851.355	3827
851.49	3762
851.625	3766
851.76	3808
851.895	3755
852.03	3652
852.165	3755
852.299	3835
852.434	3915
852.569	3854
852.703	3861
852.838	3930
852.973	4067
853.107	4036
853.242	3892
853.376	3880
853.511	3751
853.645	3823
853.78	3991
853.914	3865
854.048	3857
854.183	3857
854.317	3934
854.451	4036
854.585	3949
854.72	3930
854.854	4013
854.988	3930
855.122	3994
855.256	3884
855.39	4048
855.524	4055
855.658	4082
855.792	4067
855.926	4147
856.06	4158
856.194	4177
856.327	4139
856.461	4131
856.595	4082
856.729	4188
856.862	4295
856.996	4223
857.13	4299
857.263	4295
857.397	4360
857.53	4276
857.664	4371
857.797	4424
857.931	4424
858.064	4405
858.197	4459
858.331	4383
858.464	4363
858.597	4371
858.731	4436
858.864	4402
858.997	4500
859.13	4527
859.263	4516
859.396	4561
859.529	4523
859.662	4493
859.795	4519
859.928	4538
860.061	4687
860.194	4767
860.327	4656
860.46	4653
860.592	4733
860.725	4725
860.858	4767
860.99	4687
861.123	4679
861.256	4698
861.388	4782
861.521	5497
861.653	4706
861.786	4714
861.918	4755
862.05	4752
862.183	4850
862.315	4900
862.447	4908
862.58	4915
862.712	4816
862.844	4801
862.976	4858
863.108	4843
863.24	5178
863.372	4797
863.504	4904
863.636	4930
863.768	4927
863.9	4915
864.032	4900
864.164	4976
864.296	5010
864.428	5086
864.559	5132
864.691	5121
864.823	5151
864.954	5079
865.086	5124
865.217	5147
865.349	5071
865.48	5162
865.612	5178
865.743	5273
865.875	5178
866.006	5223
866.137	5277
866.269	5235
866.4	5235
866.531	5235
866.662	5208
866.793	5201
866.924	5303
867.055	5353
867.186	5299
867.317	5349
867.448	5250
867.579	5391
867.71	5387
867.841	5421
867.972	5467
868.103	5417
868.233	5440
868.364	5509
868.495	5570
868.625	5627
868.756	5756
868.886	5668
869.017	5733
869.147	5901
869.278	5798
869.408	5794
869.539	5824
869.669	5897
869.799	5912
869.929	5958
870.06	6064
870.19	6209
870.32	6201
870.45	6270
870.58	6357
870.71	6410
870.84	6498
870.97	6429
871.1	6414
871.23	6631
871.36	6703
871.489	6631
871.619	6814
871.749	6753
871.879	6875
872.008	6985
872.138	7008
872.267	6977
872.397	6993
872.526	6981
872.656	7061
872.785	7209
872.915	7358
873.044	7502
873.173	7571
873.303	7662
873.432	7757
873.561	7860
873.69	7849
873.819	7982
873.948	8183
874.077	8256
874.206	8298
874.335	8408
874.464	8617
874.593	8823
874.722	8842
874.851	9093
874.979	9218
875.108	9382
875.237	9367
875.365	9397
875.494	9618
875.623	9911
875.751	9838
875.88	10029
876.008	10082
876.136	10299
876.265	10497
876.393	10694
876.521	10744
876.65	10786
876.778	10854
876.906	10915
877.034	10991
877.162	11159
877.29	11143
877.418	11296
877.546	11322
877.674	11395
877.802	11455
877.93	11516
878.058	11532
878.185	11589
878.313	11642
878.441	11630
878.568	11668
878.696	11737
878.824	11889
878.951	11908
879.079	11946
879.206	12045
879.333	11969
879.461	11927
879.588	12152
879.715	11984
879.842	12224
879.97	12045
880.097	11958
880.224	11786
880.351	11832
880.478	11893
880.605	11733
880.732	11783
880.859	12011
880.986	11870
881.112	11870
881.239	11699
881.366	11596
881.493	11600
881.619	11558
881.746	11474
881.872	11524
881.999	11509
882.125	11444
882.252	11649
882.378	11486
882.505	11505
882.631	11330
882.757	11277
882.883	11349
883.01	11254
883.136	11216
883.262	11159
883.388	11060
883.514	11208
883.64	11105
883.766	11178
883.892	10972
884.018	10995
884.143	11086
884.269	11155
884.395	10850
884.52	10790
884.646	10793
884.772	10691
884.897	10672
885.023	10721
885.148	10687
885.274	10805
885.399	10634
885.524	10596
885.65	10626
885.775	10618
885.9	10569
886.025	10622
886.15	10630
886.275	10443
886.4	10447
886.525	10402
886.65	10398
886.775	10390
886.9	10508
887.025	10523
887.149	10322
887.274	10204
887.399	10204
887.523	10215
887.648	10074
887.773	10116
887.897	10375
888.021	10150
888.146	10090
888.27	10257
888.395	10166
888.519	10162
888.643	10200
888.767	10166
888.891	10093
889.015	10029
889.139	10017
889.263	9979
889.387	10002
889.511	10071
889.635	10105
889.759	9953
889.883	9956
890.006	9949
890.13	10059
890.254	9930
890.377	9960
890.501	9778
890.624	9949
890.748	9827
890.871	9804
890.995	9789
891.118	9698
891.241	9701
891.364	9755
891.488	9770
891.611	9808
891.734	9720
891.857	9781
891.98	9705
892.103	9724
892.226	9736
892.349	9679
892.471	9481
892.594	9515
892.717	9580
892.839	9549
892.962	9595
893.085	9663
893.207	9542
893.33	9523
893.452	9564
893.575	9564
893.697	9526
893.819	9606
893.941	9591
894.064	9591
894.186	9447
894.308	9416
894.43	9549
894.552	9584
894.674	9553
894.796	9405
894.918	9447
895.04	9317
895.161	9306
895.283	9370
895.405	9241
895.526	9264
895.648	9184
895.769	9256
895.891	9230
896.012	9249
896.134	9226
896.255	9119
896.376	9135
896.498	9138
896.619	9123
896.74	9119
896.861	9108
896.982	9207
897.103	9272
897.224	9211
897.345	9077
897.466	9001
897.587	9070
897.708	9100
897.828	8998
897.949	8933
898.07	8853
898.19	8895
898.311	8994
898.431	8918
898.552	8819
898.672	8944
898.792	8937
898.913	8902
899.033	8800
899.153	8750
899.273	8689
899.393	8712
899.513	8743
899.633	8670
899.753	8727
899.873	8644
899.993	8739
900.113	8644
900.232	8773
900.352	8625
900.472	8655
900.591	8530
900.711	8587
900.83	8507
900.95	8693
901.069	8708
901.189	8545
901.308	8355
901.427	8393
901.546	8446
901.665	8434
901.784	8526
901.904	8347
902.023	8290
902.141	8199
902.26	8225
902.379	8259
902.498	8191
902.617	8240
902.735	8267
902.854	8259
902.973	8279
903.091	8180
903.21	8142
903.328	8161
903.446	8176
903.565	7974
903.683	8111
903.801	8039
903.919	8142
904.038	8119
904.156	8065
904.274	8046
904.392	7997
904.51	8050
904.627	8005
904.745	8096
904.863	8088
904.981	7890
905.098	7841
905.216	7879
905.334	7879
905.451	7818
905.569	7822
905.686	7864
905.803	7887
905.921	7727
906.038	7845
906.155	7826
906.272	7719
906.389	7761
906.506	7658
906.623	7594
906.74	7605
906.857	7575
906.974	7559
907.091	7685
907.208	7601
907.324	7624
907.441	7636
907.557	7487
907.674	7400
907.79	7384
907.907	7335
908.023	7438
908.139	7460
908.256	7403
908.372	7403
908.488	7362
908.604	7259
908.72	7198
908.836	7282
908.952	7278
909.068	7244
909.184	7312
909.3	7263
909.415	7190
909.531	7251
909.647	7038
909.762	7050
909.878	7088
909.993	7076
910.108	7107
910.224	7076
910.339	7129
910.454	7042
910.57	7027
910.685	6962
910.8	7133
910.915	7050
911.03	7015
911.145	6871
911.259	6886
911.374	6875
911.489	6821
911.604	6791
911.718	6715
911.833	6745
911.947	6700
912.062	6601
912.176	6658
912.291	6715
912.405	6620
912.519	6825
912.633	6848
912.748	6692
912.862	6673
912.976	6665
913.09	6589
913.204	6639
913.318	6513
913.431	6726
913.545	6703
913.659	6688
913.772	6650
913.886	6547
914	6494
914.113	6612
914.226	6677
914.34	6593
914.453	6506
914.566	6635
914.68	6479
914.793	6467
914.906	6399
915.019	6418
915.132	6365
915.245	6426
915.358	6410
915.47	6464
915.583	6521
915.696	6414
915.809	6547
915.921	6601
916.034	6437
916.146	6384
916.259	6391
916.371	6448
916.483	6464
916.595	6380
916.708	6422
916.82	6376
916.932	6414
917.044	6376
917.156	6399
917.268	6292
917.38	6403
917.491	6304
917.603	6319
917.715	6429
917.826	6350
917.938	6331
918.049	6220
918.161	6334
918.272	6407
918.384	6429
918.495	6327
918.606	6228
918.717	6243
918.828	6281
918.939	6331
919.05	6205
919.161	6205
919.272	6148
919.383	6098
919.494	6300
919.604	6403
919.715	6258
919.826	6178
919.936	6262
920.047	6296
920.157	6205
920.267	6486
920.378	6327
920.488	6270
920.598	6448
920.708	6528
920.818	6471
920.928	6494
921.038	6536
921.148	6601
921.258	6372
921.368	6342
921.477	6247
921.587	6152
921.697	6068
921.806	6194
921.916	6079
922.025	5912
922.134	5942
922.244	5935
922.353	5923
922.462	5824
922.571	5824
922.68	5688
922.789	5661
922.898	5752
923.007	5600
923.116	5668
923.224	5653
923.333	5638
923.442	5600
923.55	5592
923.659	5627
923.767	5611
923.876	5543
923.984	5615
924.092	5455
924.201	5551
924.309	5535
924.417	5581
924.525	5474
924.633	5520
924.741	6285
924.849	5364
924.956	5463
925.064	5326
925.172	5311
925.279	5277
925.387	5387
925.494	5334
925.602	5372
925.709	5421
925.816	5223
925.924	5303
926.031	5341
926.138	5269
926.245	5322
926.352	5216
926.459	5307
926.566	5307
926.673	5235
926.779	5121
926.886	5124
926.993	5014
927.099	5014
927.206	5018
927.312	4961
927.419	5010
927.525	4984
927.631	4965
927.737	4900
927.843	4927
927.95	4714
928.056	4843
928.162	4854
928.267	4843
928.373	5273
928.479	4870
928.585	4683
928.69	4759
928.796	4763
928.901	4668
929.007	4649
929.112	4675
929.218	4645
929.323	4607
929.428	4527
929.533	4569
929.638	4531
929.743	4531
929.848	4554
929.953	4512
930.058	4424
930.163	4360
930.267	4306
930.372	4421
930.477	4314
930.581	4413
930.685	4322
930.79	4253
930.894	4265
930.998	4227
931.103	4390
931.207	4128
931.311	4074
931.415	4082
931.519	3873
931.623	3953
