Data from glass_V78500241_908.txt Node
Date: Wed Sep 01 19:20:47 CST 2021
User: usil
Spectrometer: V785-0024
Trigger mode: 0
Integration Time (sec): 4.000000E-1
Scans to average: 1
Nonlinearity correction enabled: false
Boxcar width: 0
Storing dark spectrum: false
XAxis mode: Wavelengths
Number of Pixels in Spectrum: 1024
>>>>>Begin Spectral Data<<<<<
801.071	3717
801.214	3751
801.356	3709
801.499	3736
801.641	3804
801.783	3781
801.926	3823
802.068	3816
802.211	3873
802.353	3880
802.496	3857
802.638	3884
802.78	3937
802.923	3937
803.065	3880
803.208	3854
803.35	3854
803.492	3861
803.635	3968
803.777	3827
803.919	3922
804.061	4139
804.204	3975
804.346	3949
804.488	3934
804.63	4071
804.773	3964
804.915	4048
805.057	4158
805.199	3998
805.341	4090
805.483	4135
805.626	4158
805.768	4147
805.91	4215
806.052	4272
806.194	4207
806.336	4394
806.478	4249
806.62	4181
806.762	4192
806.904	4265
807.046	4344
807.188	4230
807.33	4196
807.472	4211
807.614	4238
807.756	4322
807.898	4200
808.04	4246
808.182	4291
808.324	4367
808.465	4348
808.607	4512
808.749	4497
808.891	4459
809.033	4512
809.174	4436
809.316	4284
809.458	4253
809.6	4192
809.741	4128
809.883	4143
810.025	4204
810.166	4242
810.308	4234
810.45	4242
810.591	4215
810.733	4280
810.875	4550
811.016	4835
811.158	5105
811.299	5246
811.441	5246
811.582	5075
811.724	4717
811.865	4481
812.007	4474
812.148	4413
812.29	4493
812.431	4417
812.573	4421
812.714	4402
812.855	4447
812.997	4421
813.138	4478
813.279	4413
813.421	4432
813.562	4390
813.703	4299
813.845	4314
813.986	4272
814.127	4207
814.268	4234
814.41	4322
814.551	4242
814.692	4337
814.833	4318
814.974	4303
815.115	4291
815.256	4287
815.397	4257
815.539	4261
815.68	4185
815.821	4230
815.962	4371
816.103	4227
816.244	4253
816.385	4215
816.526	4284
816.666	4272
816.807	4147
816.948	4166
817.089	4169
817.23	4139
817.371	4074
817.512	4040
817.653	4055
817.793	4048
817.934	4051
818.075	4131
818.216	4135
818.356	4078
818.497	3983
818.638	3918
818.778	3915
818.919	3880
819.06	3896
819.2	3953
819.341	3922
819.481	3873
819.622	3956
819.762	4074
819.903	3922
820.043	3861
820.184	3865
820.324	3827
820.465	3896
820.605	3861
820.746	3888
820.886	3819
821.026	3934
821.167	3926
821.307	3994
821.447	3983
821.588	3956
821.728	3983
821.868	3949
822.008	3873
822.149	3922
822.289	3930
822.429	3797
822.569	3857
822.709	3838
822.849	3717
822.99	3713
823.13	3759
823.27	3793
823.41	3698
823.55	3720
823.69	3686
823.83	3724
823.97	3667
824.11	3606
824.25	3614
824.389	3660
824.529	3675
824.669	3686
824.809	3751
824.949	3751
825.089	3755
825.228	3709
825.368	3629
825.508	3545
825.648	3553
825.787	3610
825.927	3656
826.067	3663
826.206	3701
826.346	3816
826.485	3846
826.625	3892
826.765	3945
826.904	3842
827.044	3656
827.183	3511
827.323	3447
827.462	3450
827.601	3462
827.741	3431
827.88	3496
828.02	3428
828.159	3473
828.298	3515
828.437	3557
828.577	3511
828.716	3584
828.855	3488
828.994	3409
829.134	3393
829.273	3416
829.412	3351
829.551	3340
829.69	3367
829.829	3469
829.968	3519
830.107	3458
830.246	3450
830.385	3367
830.524	3348
830.663	3355
830.802	3283
830.941	3237
831.08	3214
831.219	3332
831.357	3306
831.496	3412
831.635	3260
831.774	3226
831.913	3233
832.051	3165
832.19	3142
832.329	3203
832.467	3127
832.606	3127
832.744	3157
832.883	3188
833.022	3173
833.16	3268
833.299	3298
833.437	3378
833.576	3367
833.714	3447
833.852	3439
833.991	3481
834.129	3504
834.267	3458
834.406	3382
834.544	3450
834.682	3443
834.821	3431
834.959	3587
835.097	3367
835.235	3568
835.373	3511
835.511	3542
835.65	3450
835.788	3485
835.926	3416
836.064	3378
836.202	3420
836.34	3580
836.478	3637
836.615	3557
836.753	3648
836.891	3675
837.029	3656
837.167	3606
837.305	3599
837.443	3523
837.58	3496
837.718	3618
837.856	3572
837.993	3561
838.131	3614
838.269	3587
838.406	3614
838.544	3595
838.681	3481
838.819	3458
838.956	3389
839.094	3397
839.231	3447
839.369	3534
839.506	3766
839.643	3633
839.781	3523
839.918	3473
840.055	3557
840.193	3523
840.33	3507
840.467	3564
840.604	3599
840.742	3812
840.879	3580
841.016	3587
841.153	3561
841.29	3785
841.427	3713
841.564	3728
841.701	3770
841.838	3698
841.975	3728
842.112	3759
842.249	3648
842.385	3675
842.522	3835
842.659	3720
842.796	3679
842.933	3732
843.069	3698
843.206	3724
843.343	3842
843.479	3808
843.616	3857
843.752	3671
843.889	3713
844.025	3838
844.162	3732
844.298	3854
844.435	3797
844.571	3778
844.708	3884
844.844	3983
844.98	4010
845.117	3975
845.253	3956
845.389	3945
845.525	3994
845.661	3987
845.798	3945
845.934	4055
846.07	3926
846.206	4051
846.342	4181
846.478	4109
846.614	3968
846.75	3907
846.886	3937
847.022	4063
847.158	3968
847.294	4017
847.429	4063
847.565	4025
847.701	4238
847.837	3915
847.972	3896
848.108	3994
848.244	3998
848.379	3873
848.515	3800
848.65	3850
848.786	3850
848.921	3907
849.057	3994
849.192	3941
849.328	3930
849.463	3907
849.598	3903
849.734	3857
849.869	3876
850.004	3785
850.14	3842
850.275	3816
850.41	3747
850.545	3747
850.68	3766
850.815	3819
850.95	3789
851.085	3945
851.22	3861
851.355	3896
851.49	3819
851.625	3800
851.76	3789
851.895	3732
852.03	3766
852.165	3812
852.299	3842
852.434	3880
852.569	3873
852.703	3888
852.838	3953
852.973	4063
853.107	4006
853.242	3926
853.376	3816
853.511	3785
853.645	3835
853.78	3975
853.914	3926
854.048	3903
854.183	3884
854.317	3972
854.451	4036
854.585	3960
854.72	3949
854.854	4036
854.988	3934
855.122	4021
855.256	3918
855.39	4051
855.524	4109
855.658	4082
855.792	4128
855.926	4169
856.06	4200
856.194	4207
856.327	4215
856.461	4166
856.595	4147
856.729	4200
856.862	4303
856.996	4253
857.13	4299
857.263	4337
857.397	4424
857.53	4276
857.664	4398
857.797	4470
857.931	4413
858.064	4428
858.197	4481
858.331	4386
858.464	4402
858.597	4360
858.731	4386
858.864	4478
858.997	4447
859.13	4478
859.263	4554
859.396	4622
859.529	4504
859.662	4550
859.795	4550
859.928	4603
860.061	4675
860.194	4733
860.327	4626
860.46	4683
860.592	4782
860.725	4812
860.858	4805
860.99	4702
861.123	4729
861.256	4763
861.388	4790
861.521	5509
861.653	4729
861.786	4714
861.918	4717
862.05	4816
862.183	4839
862.315	4854
862.447	4911
862.58	4923
862.712	4816
862.844	4774
862.976	4934
863.108	4839
863.24	5155
863.372	4847
863.504	4850
863.636	4877
863.768	4965
863.9	4908
864.032	4885
864.164	4946
864.296	5010
864.428	5121
864.559	5105
864.691	5159
864.823	5113
864.954	5105
865.086	5121
865.217	5113
865.349	5189
865.48	5155
865.612	5193
865.743	5315
865.875	5223
866.006	5162
866.137	5246
866.269	5231
866.4	5311
866.531	5216
866.662	5223
866.793	5280
866.924	5337
867.055	5406
867.186	5261
867.317	5345
867.448	5299
867.579	5410
867.71	5387
867.841	5391
867.972	5387
868.103	5425
868.233	5539
868.364	5448
868.495	5524
868.625	5680
868.756	5813
868.886	5665
869.017	5707
869.147	5813
869.278	5912
869.408	5809
869.539	5893
869.669	5973
869.799	5893
869.929	5927
870.06	5999
870.19	6171
870.32	6213
870.45	6285
870.58	6304
870.71	6418
870.84	6486
870.97	6464
871.1	6467
871.23	6658
871.36	6696
871.489	6646
871.619	6814
871.749	6852
871.879	6867
872.008	7027
872.138	6966
872.267	7019
872.397	7008
872.526	7061
872.656	7129
872.785	7217
872.915	7346
873.044	7540
873.173	7552
873.303	7601
873.432	7696
873.561	7902
873.69	7917
873.819	7989
873.948	8202
874.077	8301
874.206	8347
874.335	8454
874.464	8663
874.593	8937
874.722	9020
874.851	9116
874.979	9268
875.108	9386
875.237	9348
875.365	9477
875.494	9606
875.623	9800
875.751	9873
875.88	10029
876.008	10143
876.136	10299
876.265	10481
876.393	10637
876.521	10767
876.65	10763
876.778	10911
876.906	10835
877.034	10930
877.162	11113
877.29	11208
877.418	11417
877.546	11376
877.674	11452
877.802	11490
877.93	11497
878.058	11524
878.185	11570
878.313	11623
878.441	11767
878.568	11604
878.696	11802
878.824	11912
878.951	11992
879.079	11961
879.206	12064
879.333	12015
879.461	11893
879.588	12079
879.715	12030
879.842	12270
879.97	12083
880.097	11897
880.224	11863
880.351	11920
880.478	11889
880.605	11866
880.732	11802
880.859	12038
880.986	11813
881.112	11878
881.239	11752
881.366	11710
881.493	11688
881.619	11501
881.746	11535
881.872	11581
881.999	11505
882.125	11436
882.252	11512
882.378	11414
882.505	11532
882.631	11349
882.757	11345
882.883	11277
883.01	11197
883.136	11201
883.262	11124
883.388	11136
883.514	11235
883.64	11193
883.766	11079
883.892	10980
884.018	11003
884.143	11048
884.269	11128
884.395	10824
884.52	10778
884.646	10771
884.772	10702
884.897	10683
885.023	10725
885.148	10744
885.274	10782
885.399	10736
885.524	10675
885.65	10630
885.775	10588
885.9	10630
886.025	10577
886.15	10653
886.275	10531
886.4	10386
886.525	10428
886.65	10421
886.775	10371
886.9	10440
887.025	10512
887.149	10356
887.274	10249
887.399	10227
887.523	10204
887.648	10177
887.773	10150
887.897	10265
888.021	10230
888.146	10200
888.27	10287
888.395	10211
888.519	10211
888.643	10139
888.767	10261
888.891	10093
889.015	10086
889.139	10040
889.263	10013
889.387	10059
889.511	10101
889.635	10086
889.759	9930
889.883	10013
890.006	9994
890.13	10109
890.254	9934
890.377	9865
890.501	9861
890.624	9899
890.748	9915
890.871	9857
890.995	9781
891.118	9675
891.241	9747
891.364	9686
891.488	9857
891.611	9713
891.734	9717
891.857	9793
891.98	9671
892.103	9740
892.226	9709
892.349	9751
892.471	9603
892.594	9599
892.717	9625
892.839	9622
892.962	9652
893.085	9641
893.207	9523
893.33	9496
893.452	9561
893.575	9591
893.697	9439
893.819	9625
893.941	9686
894.064	9584
894.186	9458
894.308	9321
894.43	9618
894.552	9580
894.674	9553
894.796	9382
894.918	9351
895.04	9329
895.161	9393
895.283	9386
895.405	9241
895.526	9222
895.648	9211
895.769	9275
895.891	9256
896.012	9355
896.134	9192
896.255	9169
896.376	9192
896.498	9199
896.619	9184
896.74	9013
896.861	9097
896.982	9310
897.103	9359
897.224	9199
897.345	9180
897.466	9047
897.587	9017
897.708	9089
897.828	8998
897.949	8937
898.07	8902
898.19	8857
898.311	9005
898.431	8895
898.552	8914
898.672	8937
898.792	8956
898.913	8857
899.033	8766
899.153	8731
899.273	8693
899.393	8678
899.513	8777
899.633	8678
899.753	8766
899.873	8678
899.993	8667
900.113	8632
900.232	8792
900.352	8735
900.472	8564
900.591	8552
900.711	8594
900.83	8469
900.95	8735
901.069	8689
901.189	8533
901.308	8457
901.427	8343
901.546	8370
901.665	8446
901.784	8518
901.904	8396
902.023	8389
902.141	8195
902.26	8218
902.379	8237
902.498	8259
902.617	8229
902.735	8320
902.854	8214
902.973	8298
903.091	8161
903.21	8145
903.328	8134
903.446	8111
903.565	8088
903.683	8119
903.801	8024
903.919	8096
904.038	8145
904.156	8062
904.274	8138
904.392	8016
904.51	8115
904.627	8069
904.745	8058
904.863	8069
904.981	7894
905.098	7845
905.216	7887
905.334	7864
905.451	7944
905.569	7909
905.686	7898
905.803	7974
905.921	7776
906.038	7811
906.155	7845
906.272	7734
906.389	7742
906.506	7620
906.623	7605
906.74	7647
906.857	7544
906.974	7521
907.091	7639
907.208	7715
907.324	7601
907.441	7586
907.557	7449
907.674	7415
907.79	7343
907.907	7377
908.023	7491
908.139	7411
908.256	7422
908.372	7346
908.488	7415
908.604	7289
908.72	7221
908.836	7293
908.952	7282
909.068	7282
909.184	7331
909.3	7331
909.415	7316
909.531	7285
909.647	7137
909.762	7126
909.878	7145
909.993	7126
910.108	7069
910.224	7076
910.339	7114
910.454	7031
910.57	6962
910.685	6981
910.8	7160
910.915	7133
911.03	7046
911.145	6947
911.259	6935
911.374	6932
911.489	6825
911.604	6814
911.718	6726
911.833	6726
911.947	6650
912.062	6616
912.176	6722
912.291	6757
912.405	6726
912.519	6840
912.633	6814
912.748	6692
912.862	6722
912.976	6616
913.09	6517
913.204	6574
913.318	6635
913.431	6646
913.545	6779
913.659	6753
913.772	6616
913.886	6612
914	6551
914.113	6639
914.226	6616
914.34	6662
914.453	6528
914.566	6612
914.68	6563
914.793	6570
914.906	6426
915.019	6441
915.132	6407
915.245	6418
915.358	6414
915.47	6479
915.583	6467
915.696	6437
915.809	6490
915.921	6509
916.034	6388
916.146	6456
916.259	6403
916.371	6479
916.483	6525
916.595	6464
916.708	6456
916.82	6361
916.932	6357
917.044	6353
917.156	6452
917.268	6357
917.38	6346
917.491	6323
917.603	6361
917.715	6441
917.826	6407
917.938	6346
918.049	6254
918.161	6315
918.272	6410
918.384	6441
918.495	6365
918.606	6289
918.717	6228
918.828	6292
918.939	6266
919.05	6216
919.161	6266
919.272	6152
919.383	6129
919.494	6308
919.604	6410
919.715	6311
919.826	6209
919.936	6296
920.047	6296
920.157	6266
920.267	6509
920.378	6334
920.488	6342
920.598	6460
920.708	6578
920.818	6448
920.928	6509
921.038	6700
921.148	6593
921.258	6346
921.368	6331
921.477	6228
921.587	6205
921.697	6087
921.806	6201
921.916	6079
922.025	5988
922.134	5942
922.244	5908
922.353	5961
922.462	5847
922.571	5840
922.68	5688
922.789	5676
922.898	5707
923.007	5619
923.116	5733
923.224	5710
923.333	5710
923.442	5570
923.55	5543
923.659	5600
923.767	5649
923.876	5505
923.984	5611
924.092	5493
924.201	5554
924.309	5524
924.417	5600
924.525	5490
924.633	5558
924.741	6106
924.849	5410
924.956	5478
925.064	5337
925.172	5307
925.279	5303
925.387	5364
925.494	5315
925.602	5440
925.709	5395
925.816	5273
925.924	5364
926.031	5410
926.138	5311
926.245	5330
926.352	5288
926.459	5337
926.566	5379
926.673	5261
926.779	5151
926.886	5121
926.993	5071
927.099	4991
927.206	4987
927.312	4946
927.419	5041
927.525	4991
927.631	5006
927.737	4892
927.843	4927
927.95	4763
928.056	4816
928.162	4835
928.267	4831
928.373	5307
928.479	4850
928.585	4683
928.69	4843
928.796	4763
928.901	4679
929.007	4615
929.112	4694
929.218	4641
929.323	4618
929.428	4584
929.533	4630
929.638	4478
929.743	4565
929.848	4561
929.953	4546
930.058	4493
930.163	4322
930.267	4360
930.372	4440
930.477	4333
930.581	4459
930.685	4371
930.79	4280
930.894	4253
930.998	4295
931.103	4413
931.207	4169
931.311	4112
931.415	4029
931.519	3972
931.623	3949
