Data from glass_V78500241_674.txt Node
Date: Wed Sep 01 19:19:10 CST 2021
User: usil
Spectrometer: V785-0024
Trigger mode: 0
Integration Time (sec): 4.000000E-1
Scans to average: 1
Nonlinearity correction enabled: false
Boxcar width: 0
Storing dark spectrum: false
XAxis mode: Wavelengths
Number of Pixels in Spectrum: 1024
>>>>>Begin Spectral Data<<<<<
801.071	3770
801.214	3762
801.356	3717
801.499	3774
801.641	3705
801.783	3827
801.926	3854
802.068	3884
802.211	3869
802.353	3884
802.496	3861
802.638	3903
802.78	3930
802.923	3918
803.065	3918
803.208	3838
803.35	3884
803.492	3945
803.635	3907
803.777	3808
803.919	3903
804.061	4166
804.204	3956
804.346	3949
804.488	3945
804.63	4090
804.773	4048
804.915	4021
805.057	4143
805.199	4071
805.341	4051
805.483	4188
805.626	4082
805.768	4139
805.91	4242
806.052	4268
806.194	4173
806.336	4363
806.478	4211
806.62	4143
806.762	4166
806.904	4234
807.046	4367
807.188	4204
807.33	4169
807.472	4253
807.614	4166
807.756	4306
807.898	4268
808.04	4265
808.182	4322
808.324	4329
808.465	4398
808.607	4478
808.749	4500
808.891	4470
809.033	4478
809.174	4375
809.316	4280
809.458	4234
809.6	4147
809.741	4112
809.883	4143
810.025	4185
810.166	4211
810.308	4207
810.45	4200
810.591	4280
810.733	4299
810.875	4535
811.016	4847
811.158	5155
811.299	5239
811.441	5368
811.582	5102
811.724	4752
811.865	4478
812.007	4485
812.148	4470
812.29	4462
812.431	4451
812.573	4470
812.714	4394
812.855	4413
812.997	4447
813.138	4519
813.279	4432
813.421	4379
813.562	4436
813.703	4318
813.845	4329
813.986	4276
814.127	4261
814.268	4276
814.41	4314
814.551	4242
814.692	4295
814.833	4329
814.974	4303
815.115	4375
815.256	4318
815.397	4219
815.539	4257
815.68	4211
815.821	4166
815.962	4322
816.103	4249
816.244	4192
816.385	4230
816.526	4253
816.666	4230
816.807	4135
816.948	4162
817.089	4173
817.23	4154
817.371	4093
817.512	4059
817.653	4086
817.793	4040
817.934	4059
818.075	4093
818.216	4093
818.356	4063
818.497	4036
818.638	3964
818.778	3926
818.919	3903
819.06	3854
819.2	3953
819.341	3854
819.481	3854
819.622	3907
819.762	4017
819.903	4006
820.043	3869
820.184	3831
820.324	3819
820.465	3888
820.605	3857
820.746	3861
820.886	3819
821.026	3941
821.167	3899
821.307	3987
821.447	4013
821.588	3991
821.728	3949
821.868	3953
822.008	3869
822.149	3918
822.289	3930
822.429	3789
822.569	3808
822.709	3808
822.849	3743
822.99	3743
823.13	3736
823.27	3831
823.41	3747
823.55	3720
823.69	3755
823.83	3747
823.97	3717
824.11	3572
824.25	3595
824.389	3667
824.529	3701
824.669	3603
824.809	3728
824.949	3755
825.089	3759
825.228	3686
825.368	3618
825.508	3564
825.648	3629
825.787	3603
825.927	3694
826.067	3606
826.206	3671
826.346	3755
826.485	3850
826.625	3896
826.765	3945
826.904	3850
827.044	3644
827.183	3534
827.323	3405
827.462	3523
827.601	3447
827.741	3443
827.88	3473
828.02	3409
828.159	3454
828.298	3545
828.437	3557
828.577	3473
828.716	3614
828.855	3481
828.994	3397
829.134	3439
829.273	3374
829.412	3344
829.551	3401
829.69	3393
829.829	3409
829.968	3481
830.107	3500
830.246	3447
830.385	3397
830.524	3386
830.663	3340
830.802	3253
830.941	3157
831.08	3180
831.219	3298
831.357	3291
831.496	3458
831.635	3279
831.774	3218
831.913	3218
832.051	3157
832.19	3157
832.329	3214
832.467	3165
832.606	3100
832.744	3195
832.883	3222
833.022	3214
833.16	3283
833.299	3340
833.437	3329
833.576	3405
833.714	3386
833.852	3439
833.991	3477
834.129	3469
834.267	3431
834.406	3389
834.544	3431
834.682	3462
834.821	3454
834.959	3603
835.097	3424
835.235	3545
835.373	3462
835.511	3549
835.65	3477
835.788	3507
835.926	3424
836.064	3424
836.202	3424
836.34	3610
836.478	3637
836.615	3534
836.753	3599
836.891	3667
837.029	3641
837.167	3603
837.305	3530
837.443	3564
837.58	3515
837.718	3603
837.856	3591
837.993	3568
838.131	3587
838.269	3606
838.406	3599
838.544	3564
838.681	3439
838.819	3466
838.956	3405
839.094	3401
839.231	3462
839.369	3515
839.506	3743
839.643	3660
839.781	3496
839.918	3447
840.055	3549
840.193	3530
840.33	3564
840.467	3557
840.604	3610
840.742	3842
840.879	3557
841.016	3584
841.153	3603
841.29	3781
841.427	3740
841.564	3740
841.701	3762
841.838	3705
841.975	3743
842.112	3690
842.249	3648
842.385	3633
842.522	3850
842.659	3701
842.796	3698
842.933	3755
843.069	3755
843.206	3701
843.343	3838
843.479	3819
843.616	3816
843.752	3705
843.889	3671
844.025	3854
844.162	3736
844.298	3892
844.435	3785
844.571	3816
844.708	3968
844.844	3994
844.98	4059
845.117	4025
845.253	3937
845.389	3930
845.525	3956
845.661	3979
845.798	3911
845.934	3998
846.07	3956
846.206	4044
846.342	4124
846.478	4067
846.614	4013
846.75	3930
846.886	3892
847.022	4017
847.158	3964
847.294	3998
847.429	4017
847.565	4071
847.701	4284
847.837	3865
847.972	3831
848.108	3975
848.244	3960
848.379	3876
848.515	3854
848.65	3804
848.786	3850
848.921	3922
849.057	3956
849.192	3956
849.328	3941
849.463	3922
849.598	3930
849.734	3892
849.869	3857
850.004	3838
850.14	3861
850.275	3797
850.41	3766
850.545	3747
850.68	3785
850.815	3804
850.95	3804
851.085	3937
851.22	3892
851.355	3831
851.49	3766
851.625	3789
851.76	3800
851.895	3759
852.03	3747
852.165	3793
852.299	3846
852.434	3915
852.569	3865
852.703	3896
852.838	3972
852.973	4044
853.107	4006
853.242	3907
853.376	3892
853.511	3785
853.645	3842
853.78	4006
853.914	3934
854.048	3903
854.183	3937
854.317	3998
854.451	4071
854.585	3926
854.72	3888
854.854	4086
854.988	3956
855.122	4029
855.256	3937
855.39	4044
855.524	4090
855.658	4143
855.792	4074
855.926	4131
856.06	4150
856.194	4223
856.327	4128
856.461	4150
856.595	4143
856.729	4192
856.862	4287
856.996	4227
857.13	4318
857.263	4360
857.397	4348
857.53	4322
857.664	4379
857.797	4436
857.931	4413
858.064	4402
858.197	4459
858.331	4394
858.464	4417
858.597	4367
858.731	4447
858.864	4386
858.997	4500
859.13	4546
859.263	4561
859.396	4569
859.529	4527
859.662	4565
859.795	4550
859.928	4626
860.061	4710
860.194	4771
860.327	4679
860.46	4668
860.592	4809
860.725	4752
860.858	4767
860.99	4687
861.123	4717
861.256	4748
861.388	4782
861.521	5311
861.653	4744
861.786	4729
861.918	4782
862.05	4786
862.183	4850
862.315	4866
862.447	4972
862.58	4870
862.712	4809
862.844	4797
862.976	4873
863.108	4911
863.24	5204
863.372	4812
863.504	4896
863.636	4915
863.768	4999
863.9	4980
864.032	4930
864.164	4961
864.296	5022
864.428	5045
864.559	5098
864.691	5113
864.823	5132
864.954	5105
865.086	5155
865.217	5128
865.349	5140
865.48	5155
865.612	5159
865.743	5277
865.875	5223
866.006	5136
866.137	5284
866.269	5181
866.4	5250
866.531	5284
866.662	5258
866.793	5307
866.924	5299
867.055	5360
867.186	5315
867.317	5326
867.448	5326
867.579	5425
867.71	5406
867.841	5417
867.972	5520
868.103	5474
868.233	5524
868.364	5501
868.495	5585
868.625	5668
868.756	5756
868.886	5680
869.017	5710
869.147	5836
869.278	5889
869.408	5779
869.539	5885
869.669	5973
869.799	5840
869.929	6034
870.06	5992
870.19	6201
870.32	6216
870.45	6281
870.58	6315
870.71	6441
870.84	6525
870.97	6445
871.1	6467
871.23	6650
871.36	6658
871.489	6665
871.619	6806
871.749	6878
871.879	6886
872.008	6981
872.138	7004
872.267	6943
872.397	7012
872.526	7057
872.656	7141
872.785	7190
872.915	7403
873.044	7559
873.173	7552
873.303	7685
873.432	7803
873.561	7868
873.69	7879
873.819	8157
873.948	8199
874.077	8290
874.206	8377
874.335	8446
874.464	8629
874.593	8842
874.722	8929
874.851	9165
874.979	9272
875.108	9374
875.237	9458
875.365	9447
875.494	9622
875.623	9823
875.751	9835
875.88	10006
876.008	10219
876.136	10280
876.265	10516
876.393	10778
876.521	10774
876.65	10869
876.778	10854
876.906	10976
877.034	10915
877.162	11117
877.29	11166
877.418	11299
877.546	11353
877.674	11406
877.802	11482
877.93	11532
878.058	11608
878.185	11535
878.313	11653
878.441	11695
878.568	11680
878.696	11802
878.824	11817
878.951	11923
879.079	11988
879.206	12091
879.333	12049
879.461	11946
879.588	12095
879.715	12053
879.842	12243
879.97	12041
880.097	11840
880.224	11904
880.351	11923
880.478	11893
880.605	11946
880.732	11783
880.859	12019
880.986	11832
881.112	11843
881.239	11767
881.366	11661
881.493	11661
881.619	11535
881.746	11539
881.872	11596
881.999	11493
882.125	11562
882.252	11562
882.378	11516
882.505	11615
882.631	11455
882.757	11349
882.883	11299
883.01	11311
883.136	11235
883.262	11102
883.388	11105
883.514	11216
883.64	11193
883.766	11174
883.892	10999
884.018	11022
884.143	11090
884.269	11178
884.395	10850
884.52	10805
884.646	10752
884.772	10687
884.897	10668
885.023	10733
885.148	10691
885.274	10809
885.399	10656
885.524	10603
885.65	10580
885.775	10615
885.9	10542
886.025	10607
886.15	10626
886.275	10489
886.4	10341
886.525	10409
886.65	10459
886.775	10356
886.9	10462
887.025	10580
887.149	10413
887.274	10234
887.399	10227
887.523	10185
887.648	10112
887.773	10067
887.897	10166
888.021	10265
888.146	10173
888.27	10253
888.395	10272
888.519	10215
888.643	10162
888.767	10246
888.891	10051
889.015	10131
889.139	10097
889.263	10055
889.387	10101
889.511	10051
889.635	10082
889.759	10013
889.883	9960
890.006	10010
890.13	10044
890.254	9991
890.377	9960
890.501	9907
890.624	9960
890.748	9865
890.871	9857
890.995	9713
891.118	9713
891.241	9797
891.364	9770
891.488	9895
891.611	9781
891.734	9705
891.857	9823
891.98	9732
892.103	9747
892.226	9751
892.349	9660
892.471	9580
892.594	9648
892.717	9637
892.839	9599
892.962	9591
893.085	9709
893.207	9584
893.33	9481
893.452	9526
893.575	9599
893.697	9515
893.819	9603
893.941	9648
894.064	9568
894.186	9469
894.308	9336
894.43	9580
894.552	9549
894.674	9496
894.796	9367
894.918	9382
895.04	9363
895.161	9397
895.283	9393
895.405	9268
895.526	9279
895.648	9287
895.769	9329
895.891	9241
896.012	9283
896.134	9291
896.255	9173
896.376	9157
896.498	9150
896.619	9108
896.74	9047
896.861	9070
896.982	9275
897.103	9336
897.224	9108
897.345	9066
897.466	9005
897.587	9017
897.708	9138
897.828	9074
897.949	8963
898.07	8933
898.19	8872
898.311	8990
898.431	8979
898.552	8956
898.672	8986
898.792	8861
898.913	8952
899.033	8815
899.153	8804
899.273	8670
899.393	8766
899.513	8788
899.633	8708
899.753	8758
899.873	8708
899.993	8743
900.113	8724
900.232	8667
900.352	8651
900.472	8613
900.591	8606
900.711	8625
900.83	8594
900.95	8655
901.069	8708
901.189	8610
901.308	8389
901.427	8328
901.546	8442
901.665	8469
901.784	8511
901.904	8385
902.023	8339
902.141	8240
902.26	8328
902.379	8301
902.498	8157
902.617	8244
902.735	8339
902.854	8271
902.973	8244
903.091	8142
903.21	8062
903.328	8153
903.446	8096
903.565	8107
903.683	8065
903.801	8058
903.919	8088
904.038	8157
904.156	8088
904.274	8107
904.392	8031
904.51	8039
904.627	8043
904.745	8062
904.863	8145
904.981	8027
905.098	7898
905.216	7906
905.334	7932
905.451	7871
905.569	7887
905.686	7940
905.803	7909
905.921	7849
906.038	7932
906.155	7734
906.272	7712
906.389	7734
906.506	7632
906.623	7559
906.74	7685
906.857	7590
906.974	7586
907.091	7647
907.208	7685
907.324	7685
907.441	7662
907.557	7487
907.674	7487
907.79	7373
907.907	7365
908.023	7449
908.139	7449
908.256	7373
908.372	7441
908.488	7289
908.604	7278
908.72	7274
908.836	7297
908.952	7209
909.068	7278
909.184	7331
909.3	7274
909.415	7343
909.531	7320
909.647	7171
909.762	7114
909.878	7076
909.993	7076
910.108	7084
910.224	7084
910.339	7061
910.454	7008
910.57	7012
910.685	6993
910.8	7179
910.915	7114
911.03	7012
911.145	6932
911.259	6909
911.374	6867
911.489	6844
911.604	6795
911.718	6760
911.833	6768
911.947	6719
912.062	6566
912.176	6738
912.291	6760
912.405	6696
912.519	6802
912.633	6814
912.748	6669
912.862	6681
912.976	6642
913.09	6551
913.204	6593
913.318	6578
913.431	6692
913.545	6719
913.659	6719
913.772	6662
913.886	6551
914	6563
914.113	6650
914.226	6639
914.34	6582
914.453	6464
914.566	6620
914.68	6498
914.793	6544
914.906	6414
915.019	6399
915.132	6365
915.245	6452
915.358	6506
915.47	6437
915.583	6467
915.696	6471
915.809	6547
915.921	6589
916.034	6445
916.146	6448
916.259	6410
916.371	6464
916.483	6479
916.595	6410
916.708	6486
916.82	6384
916.932	6437
917.044	6399
917.156	6441
917.268	6285
917.38	6395
917.491	6334
917.603	6372
917.715	6418
917.826	6418
917.938	6350
918.049	6251
918.161	6376
918.272	6426
918.384	6471
918.495	6357
918.606	6300
918.717	6182
918.828	6311
918.939	6300
919.05	6190
919.161	6216
919.272	6167
919.383	6224
919.494	6308
919.604	6399
919.715	6289
919.826	6258
919.936	6266
920.047	6410
920.157	6262
920.267	6490
920.378	6403
920.488	6258
920.598	6422
920.708	6601
920.818	6429
920.928	6494
921.038	6604
921.148	6608
921.258	6380
921.368	6292
921.477	6186
921.587	6235
921.697	6125
921.806	6194
921.916	6079
922.025	5931
922.134	5958
922.244	5901
922.353	5996
922.462	5866
922.571	5828
922.68	5668
922.789	5722
922.898	5695
923.007	5649
923.116	5680
923.224	5638
923.333	5623
923.442	5615
923.55	5596
923.659	5577
923.767	5646
923.876	5592
923.984	5646
924.092	5512
924.201	5600
924.309	5608
924.417	5581
924.525	5490
924.633	5482
924.741	6148
924.849	5376
924.956	5497
925.064	5414
925.172	5307
925.279	5353
925.387	5368
925.494	5334
925.602	5425
925.709	5387
925.816	5231
925.924	5318
926.031	5406
926.138	5326
926.245	5326
926.352	5250
926.459	5353
926.566	5288
926.673	5212
926.779	5181
926.886	5162
926.993	5083
927.099	5018
927.206	4972
927.312	4965
927.419	4984
927.525	4991
927.631	4991
927.737	4892
927.843	4824
927.95	4782
928.056	4771
928.162	4843
928.267	4870
928.373	5330
928.479	4847
928.585	4733
928.69	4771
928.796	4797
928.901	4744
929.007	4596
929.112	4710
929.218	4672
929.323	4660
929.428	4603
929.533	4653
929.638	4561
929.743	4573
929.848	4577
929.953	4500
930.058	4440
930.163	4348
930.267	4383
930.372	4432
930.477	4329
930.581	4478
930.685	4352
930.79	4246
930.894	4268
930.998	4257
931.103	4348
931.207	4154
931.311	4093
931.415	4067
931.519	3975
931.623	3926
