Data from glass_V78500241_967.txt Node
Date: Wed Sep 01 19:21:12 CST 2021
User: usil
Spectrometer: V785-0024
Trigger mode: 0
Integration Time (sec): 4.000000E-1
Scans to average: 1
Nonlinearity correction enabled: false
Boxcar width: 0
Storing dark spectrum: false
XAxis mode: Wavelengths
Number of Pixels in Spectrum: 1024
>>>>>Begin Spectral Data<<<<<
801.071	3778
801.214	3789
801.356	3694
801.499	3789
801.641	3740
801.783	3800
801.926	3869
802.068	3827
802.211	3892
802.353	3884
802.496	3819
802.638	3907
802.78	3888
802.923	3911
803.065	3915
803.208	3865
803.35	3884
803.492	3915
803.635	3926
803.777	3827
803.919	3899
804.061	4196
804.204	3949
804.346	3983
804.488	3941
804.63	4055
804.773	3941
804.915	4086
805.057	4143
805.199	4071
805.341	4082
805.483	4177
805.626	4101
805.768	4131
805.91	4246
806.052	4211
806.194	4246
806.336	4363
806.478	4227
806.62	4211
806.762	4196
806.904	4284
807.046	4333
807.188	4253
807.33	4181
807.472	4257
807.614	4242
807.756	4295
807.898	4238
808.04	4223
808.182	4291
808.324	4344
808.465	4424
808.607	4466
808.749	4451
808.891	4455
809.033	4523
809.174	4428
809.316	4276
809.458	4219
809.6	4181
809.741	4162
809.883	4139
810.025	4219
810.166	4223
810.308	4219
810.45	4280
810.591	4215
810.733	4341
810.875	4504
811.016	4850
811.158	5201
811.299	5322
811.441	5277
811.582	5067
811.724	4744
811.865	4466
812.007	4455
812.148	4432
812.29	4481
812.431	4443
812.573	4394
812.714	4379
812.855	4390
812.997	4409
813.138	4512
813.279	4394
813.421	4417
813.562	4390
813.703	4409
813.845	4344
813.986	4284
814.127	4227
814.268	4284
814.41	4314
814.551	4280
814.692	4295
814.833	4299
814.974	4265
815.115	4379
815.256	4268
815.397	4242
815.539	4284
815.68	4238
815.821	4204
815.962	4360
816.103	4249
816.244	4249
816.385	4188
816.526	4310
816.666	4211
816.807	4071
816.948	4207
817.089	4230
817.23	4204
817.371	4067
817.512	4078
817.653	4074
817.793	4025
817.934	4036
818.075	4086
818.216	4120
818.356	4097
818.497	4021
818.638	3934
818.778	3930
818.919	3907
819.06	3899
819.2	3926
819.341	3896
819.481	3854
819.622	3911
819.762	4013
819.903	3945
820.043	3899
820.184	3857
820.324	3823
820.465	3888
820.605	3899
820.746	3892
820.886	3846
821.026	3949
821.167	3922
821.307	3945
821.447	3983
821.588	3979
821.728	3956
821.868	3968
822.008	3873
822.149	3903
822.289	3968
822.429	3831
822.569	3766
822.709	3831
822.849	3728
822.99	3698
823.13	3751
823.27	3819
823.41	3732
823.55	3736
823.69	3713
823.83	3766
823.97	3698
824.11	3625
824.25	3584
824.389	3667
824.529	3667
824.669	3641
824.809	3732
824.949	3736
825.089	3724
825.228	3701
825.368	3557
825.508	3564
825.648	3568
825.787	3641
825.927	3671
826.067	3625
826.206	3671
826.346	3793
826.485	3884
826.625	3865
826.765	3968
826.904	3819
827.044	3656
827.183	3538
827.323	3443
827.462	3477
827.601	3420
827.741	3412
827.88	3454
828.02	3336
828.159	3435
828.298	3504
828.437	3526
828.577	3511
828.716	3625
828.855	3542
828.994	3401
829.134	3393
829.273	3424
829.412	3317
829.551	3348
829.69	3397
829.829	3450
829.968	3504
830.107	3439
830.246	3428
830.385	3386
830.524	3363
830.663	3332
830.802	3268
830.941	3192
831.08	3207
831.219	3283
831.357	3302
831.496	3382
831.635	3253
831.774	3230
831.913	3214
832.051	3138
832.19	3169
832.329	3214
832.467	3127
832.606	3154
832.744	3180
832.883	3154
833.022	3214
833.16	3291
833.299	3249
833.437	3336
833.576	3409
833.714	3409
833.852	3435
833.991	3435
834.129	3443
834.267	3443
834.406	3393
834.544	3435
834.682	3420
834.821	3416
834.959	3599
835.097	3416
835.235	3534
835.373	3492
835.511	3500
835.65	3462
835.788	3485
835.926	3374
836.064	3405
836.202	3416
836.34	3599
836.478	3622
836.615	3553
836.753	3618
836.891	3671
837.029	3595
837.167	3564
837.305	3572
837.443	3526
837.58	3466
837.718	3610
837.856	3553
837.993	3538
838.131	3576
838.269	3599
838.406	3652
838.544	3591
838.681	3450
838.819	3492
838.956	3393
839.094	3389
839.231	3450
839.369	3526
839.506	3781
839.643	3637
839.781	3515
839.918	3447
840.055	3526
840.193	3515
840.33	3534
840.467	3538
840.604	3614
840.742	3797
840.879	3530
841.016	3542
841.153	3610
841.29	3732
841.427	3736
841.564	3724
841.701	3747
841.838	3698
841.975	3701
842.112	3747
842.249	3610
842.385	3652
842.522	3838
842.659	3682
842.796	3705
842.933	3732
843.069	3682
843.206	3724
843.343	3838
843.479	3819
843.616	3854
843.752	3679
843.889	3743
844.025	3831
844.162	3743
844.298	3850
844.435	3816
844.571	3804
844.708	3941
844.844	4002
844.98	4006
845.117	4029
845.253	3968
845.389	3907
845.525	3964
845.661	4017
845.798	3972
845.934	4017
846.07	4002
846.206	4040
846.342	4120
846.478	4063
846.614	3987
846.75	3934
846.886	3926
847.022	4021
847.158	3983
847.294	4029
847.429	4029
847.565	4013
847.701	4249
847.837	3880
847.972	3865
848.108	3972
848.244	3960
848.379	3873
848.515	3835
848.65	3888
848.786	3831
848.921	3918
849.057	3972
849.192	3953
849.328	3941
849.463	3926
849.598	3907
849.734	3899
849.869	3876
850.004	3835
850.14	3808
850.275	3819
850.41	3778
850.545	3766
850.68	3827
850.815	3785
850.95	3785
851.085	3922
851.22	3854
851.355	3823
851.49	3827
851.625	3857
851.76	3793
851.895	3766
852.03	3755
852.165	3838
852.299	3846
852.434	3888
852.569	3892
852.703	3892
852.838	3930
852.973	3987
853.107	3991
853.242	3892
853.376	3835
853.511	3770
853.645	3842
853.78	3987
853.914	3884
854.048	3918
854.183	3896
854.317	3907
854.451	4021
854.585	3945
854.72	3945
854.854	4067
854.988	3930
855.122	3968
855.256	3964
855.39	4017
855.524	4124
855.658	4097
855.792	4112
855.926	4135
856.06	4162
856.194	4223
856.327	4234
856.461	4150
856.595	4124
856.729	4147
856.862	4249
856.996	4211
857.13	4344
857.263	4341
857.397	4375
857.53	4299
857.664	4333
857.797	4432
857.931	4421
858.064	4405
858.197	4462
858.331	4428
858.464	4436
858.597	4405
858.731	4493
858.864	4489
858.997	4466
859.13	4554
859.263	4546
859.396	4599
859.529	4569
859.662	4565
859.795	4546
859.928	4592
860.061	4748
860.194	4717
860.327	4622
860.46	4694
860.592	4729
860.725	4729
860.858	4759
860.99	4656
861.123	4694
861.256	4725
861.388	4767
861.521	5505
861.653	4714
861.786	4706
861.918	4725
862.05	4755
862.183	4812
862.315	4919
862.447	4904
862.58	4934
862.712	4801
862.844	4805
862.976	4854
863.108	4858
863.24	5296
863.372	4805
863.504	4900
863.636	4938
863.768	4980
863.9	4987
864.032	4957
864.164	4961
864.296	5029
864.428	5071
864.559	5102
864.691	5143
864.823	5113
864.954	5166
865.086	5155
865.217	5075
865.349	5124
865.48	5204
865.612	5185
865.743	5322
865.875	5204
866.006	5204
866.137	5250
866.269	5303
866.4	5231
866.531	5296
866.662	5216
866.793	5235
866.924	5307
867.055	5357
867.186	5315
867.317	5349
867.448	5307
867.579	5337
867.71	5402
867.841	5379
867.972	5455
868.103	5516
868.233	5444
868.364	5493
868.495	5562
868.625	5634
868.756	5775
868.886	5714
869.017	5760
869.147	5832
869.278	5874
869.408	5786
869.539	5809
869.669	5897
869.799	5901
869.929	5980
870.06	5992
870.19	6201
870.32	6247
870.45	6235
870.58	6418
870.71	6399
870.84	6502
870.97	6426
871.1	6464
871.23	6635
871.36	6707
871.489	6669
871.619	6760
871.749	6821
871.879	6871
872.008	7004
872.138	6947
872.267	7004
872.397	7034
872.526	7080
872.656	7118
872.785	7232
872.915	7365
873.044	7480
873.173	7605
873.303	7670
873.432	7734
873.561	7879
873.69	7917
873.819	8035
873.948	8195
874.077	8279
874.206	8370
874.335	8450
874.464	8735
874.593	8842
874.722	8925
874.851	9127
874.979	9176
875.108	9424
875.237	9507
875.365	9473
875.494	9671
875.623	9827
875.751	9899
875.88	9991
876.008	10215
876.136	10280
876.265	10497
876.393	10714
876.521	10736
876.65	10824
876.778	10885
876.906	10911
877.034	11029
877.162	11083
877.29	11181
877.418	11292
877.546	11398
877.674	11391
877.802	11505
877.93	11592
878.058	11535
878.185	11642
878.313	11703
878.441	11684
878.568	11714
878.696	11840
878.824	11855
878.951	11912
879.079	11961
879.206	12117
879.333	12102
879.461	12003
879.588	12083
879.715	12098
879.842	12270
879.97	12057
880.097	11870
880.224	11988
880.351	11866
880.478	11809
880.605	11882
880.732	11767
880.859	11984
880.986	11836
881.112	11805
881.239	11813
881.366	11630
881.493	11737
881.619	11493
881.746	11608
881.872	11524
881.999	11482
882.125	11493
882.252	11646
882.378	11493
882.505	11581
882.631	11372
882.757	11299
882.883	11345
883.01	11170
883.136	11246
883.262	11227
883.388	11128
883.514	11220
883.64	11204
883.766	11098
883.892	11010
884.018	10995
884.143	11140
884.269	11197
884.395	10767
884.52	10820
884.646	10793
884.772	10710
884.897	10755
885.023	10672
885.148	10706
885.274	10816
885.399	10702
885.524	10626
885.65	10580
885.775	10618
885.9	10565
886.025	10592
886.15	10596
886.275	10436
886.4	10348
886.525	10386
886.65	10360
886.775	10291
886.9	10432
887.025	10527
887.149	10405
887.274	10276
887.399	10234
887.523	10185
887.648	10093
887.773	10169
887.897	10223
888.021	10284
888.146	10188
888.27	10287
888.395	10173
888.519	10249
888.643	10181
888.767	10246
888.891	10135
889.015	10002
889.139	10029
889.263	10002
889.387	10078
889.511	10147
889.635	10135
889.759	9972
889.883	10032
890.006	9983
890.13	10135
890.254	10010
890.377	9930
890.501	9838
890.624	9945
890.748	9949
890.871	9819
890.995	9766
891.118	9751
891.241	9774
891.364	9724
891.488	9831
891.611	9755
891.734	9709
891.857	9797
891.98	9675
892.103	9789
892.226	9633
892.349	9682
892.471	9561
892.594	9572
892.717	9660
892.839	9568
892.962	9667
893.085	9637
893.207	9622
893.33	9488
893.452	9492
893.575	9587
893.697	9523
893.819	9610
893.941	9663
894.064	9679
894.186	9351
894.308	9393
894.43	9439
894.552	9656
894.674	9462
894.796	9416
894.918	9313
895.04	9382
895.161	9386
895.283	9428
895.405	9336
895.526	9287
895.648	9332
895.769	9230
895.891	9279
896.012	9294
896.134	9275
896.255	9135
896.376	9173
896.498	9169
896.619	9135
896.74	9077
896.861	9074
896.982	9256
897.103	9294
897.224	9211
897.345	9112
897.466	9058
897.587	8998
897.708	9085
897.828	9028
897.949	8979
898.07	8857
898.19	8887
898.311	9085
898.431	8948
898.552	8910
898.672	8921
898.792	8979
898.913	8891
899.033	8800
899.153	8834
899.273	8636
899.393	8750
899.513	8689
899.633	8746
899.753	8838
899.873	8743
899.993	8746
900.113	8648
900.232	8651
900.352	8659
900.472	8640
900.591	8545
900.711	8606
900.83	8617
900.95	8674
901.069	8754
901.189	8587
901.308	8469
901.427	8431
901.546	8442
901.665	8461
901.784	8549
901.904	8370
902.023	8347
902.141	8263
902.26	8267
902.379	8267
902.498	8164
902.617	8180
902.735	8294
902.854	8286
902.973	8317
903.091	8176
903.21	8199
903.328	8142
903.446	8145
903.565	8069
903.683	8134
903.801	8001
903.919	8111
904.038	8210
904.156	8024
904.274	8020
904.392	8012
904.51	8058
904.627	7978
904.745	8050
904.863	8096
904.981	8012
905.098	7860
905.216	7860
905.334	7951
905.451	7883
905.569	7890
905.686	7932
905.803	7879
905.921	7795
906.038	7928
906.155	7811
906.272	7765
906.389	7750
906.506	7563
906.623	7681
906.74	7613
906.857	7518
906.974	7666
907.091	7708
907.208	7704
907.324	7670
907.441	7540
907.557	7457
907.674	7476
907.79	7430
907.907	7460
908.023	7445
908.139	7419
908.256	7403
908.372	7373
908.488	7384
908.604	7293
908.72	7217
908.836	7259
908.952	7263
909.068	7244
909.184	7297
909.3	7206
909.415	7316
909.531	7293
909.647	7152
909.762	7114
909.878	7107
909.993	7160
910.108	7141
910.224	7065
910.339	7107
910.454	7012
910.57	6962
910.685	6970
910.8	7213
910.915	7065
911.03	6993
911.145	6951
911.259	6833
911.374	6913
911.489	6878
911.604	6821
911.718	6696
911.833	6711
911.947	6620
912.062	6627
912.176	6715
912.291	6665
912.405	6738
912.519	6810
912.633	6844
912.748	6734
912.862	6772
912.976	6585
913.09	6521
913.204	6601
913.318	6665
913.431	6677
913.545	6677
913.659	6741
913.772	6684
913.886	6563
914	6540
914.113	6631
914.226	6673
914.34	6639
914.453	6532
914.566	6612
914.68	6498
914.793	6544
914.906	6467
915.019	6395
915.132	6433
915.245	6437
915.358	6483
915.47	6467
915.583	6479
915.696	6528
915.809	6551
915.921	6601
916.034	6422
916.146	6437
916.259	6422
916.371	6475
916.483	6479
916.595	6388
916.708	6475
916.82	6429
916.932	6388
917.044	6433
917.156	6441
917.268	6300
917.38	6376
917.491	6357
917.603	6391
917.715	6384
917.826	6456
917.938	6350
918.049	6235
918.161	6391
918.272	6433
918.384	6441
918.495	6388
918.606	6254
918.717	6266
918.828	6308
918.939	6251
919.05	6273
919.161	6228
919.272	6117
919.383	6163
919.494	6281
919.604	6467
919.715	6323
919.826	6209
919.936	6232
920.047	6357
920.157	6292
920.267	6452
920.378	6327
920.488	6266
920.598	6452
920.708	6563
920.818	6551
920.928	6471
921.038	6574
921.148	6601
921.258	6391
921.368	6292
921.477	6190
921.587	6220
921.697	6110
921.806	6247
921.916	6117
922.025	5996
922.134	5935
922.244	5870
922.353	5965
922.462	5882
922.571	5790
922.68	5752
922.789	5672
922.898	5726
923.007	5638
923.116	5733
923.224	5707
923.333	5676
923.442	5657
923.55	5608
923.659	5608
923.767	5573
923.876	5589
923.984	5581
924.092	5528
924.201	5604
924.309	5532
924.417	5596
924.525	5463
924.633	5539
924.741	6155
924.849	5379
924.956	5493
925.064	5360
925.172	5277
925.279	5273
925.387	5395
925.494	5360
925.602	5440
925.709	5421
925.816	5315
925.924	5303
926.031	5402
926.138	5330
926.245	5345
926.352	5250
926.459	5341
926.566	5318
926.673	5185
926.779	5155
926.886	5117
926.993	5060
927.099	4972
927.206	4961
927.312	5010
927.419	5041
927.525	5041
927.631	5018
927.737	4862
927.843	4889
927.95	4812
928.056	4881
928.162	4850
928.267	4854
928.373	5436
928.479	4858
928.585	4698
928.69	4839
928.796	4839
928.901	4656
929.007	4527
929.112	4679
929.218	4641
929.323	4630
929.428	4580
929.533	4706
929.638	4516
929.743	4550
929.848	4588
929.953	4542
930.058	4512
930.163	4356
930.267	4310
930.372	4413
930.477	4352
930.581	4455
930.685	4379
930.79	4268
930.894	4291
930.998	4230
931.103	4398
931.207	4109
931.311	4101
931.415	4067
931.519	3934
931.623	3937
