Data from glass_V78500241_1881.txt Node
Date: Wed Sep 01 19:27:32 CST 2021
User: usil
Spectrometer: V785-0024
Trigger mode: 0
Integration Time (sec): 4.000000E-1
Scans to average: 1
Nonlinearity correction enabled: false
Boxcar width: 0
Storing dark spectrum: false
XAxis mode: Wavelengths
Number of Pixels in Spectrum: 1024
>>>>>Begin Spectral Data<<<<<
801.071	3755
801.214	3732
801.356	3701
801.499	3781
801.641	3728
801.783	3778
801.926	3857
802.068	3842
802.211	3857
802.353	3854
802.496	3835
802.638	3865
802.78	3937
802.923	3918
803.065	3873
803.208	3873
803.35	3861
803.492	3873
803.635	3930
803.777	3797
803.919	3937
804.061	4158
804.204	3972
804.346	3903
804.488	3926
804.63	4021
804.773	3972
804.915	4025
805.057	4143
805.199	4002
805.341	4090
805.483	4128
805.626	4116
805.768	4109
805.91	4204
806.052	4219
806.194	4219
806.336	4341
806.478	4219
806.62	4169
806.762	4204
806.904	4238
807.046	4299
807.188	4185
807.33	4185
807.472	4215
807.614	4162
807.756	4238
807.898	4219
808.04	4246
808.182	4261
808.324	4341
808.465	4375
808.607	4436
808.749	4440
808.891	4436
809.033	4535
809.174	4443
809.316	4265
809.458	4257
809.6	4128
809.741	4128
809.883	4162
810.025	4181
810.166	4242
810.308	4207
810.45	4204
810.591	4219
810.733	4284
810.875	4485
811.016	4793
811.158	5102
811.299	5250
811.441	5220
811.582	5098
811.724	4698
811.865	4447
812.007	4489
812.148	4424
812.29	4405
812.431	4424
812.573	4390
812.714	4375
812.855	4455
812.997	4390
813.138	4447
813.279	4485
813.421	4428
813.562	4383
813.703	4344
813.845	4341
813.986	4249
814.127	4223
814.268	4257
814.41	4333
814.551	4257
814.692	4333
814.833	4272
814.974	4303
815.115	4329
815.256	4276
815.397	4230
815.539	4280
815.68	4207
815.821	4207
815.962	4329
816.103	4287
816.244	4257
816.385	4219
816.526	4295
816.666	4196
816.807	4112
816.948	4162
817.089	4166
817.23	4105
817.371	4021
817.512	4010
817.653	4059
817.793	3994
817.934	4082
818.075	4090
818.216	4093
818.356	4086
818.497	3979
818.638	3888
818.778	3930
818.919	3876
819.06	3865
819.2	3903
819.341	3907
819.481	3873
819.622	3918
819.762	3991
819.903	3926
820.043	3888
820.184	3823
820.324	3835
820.465	3884
820.605	3854
820.746	3861
820.886	3785
821.026	3918
821.167	3964
821.307	3956
821.447	3941
821.588	3960
821.728	3956
821.868	3934
822.008	3880
822.149	3926
822.289	3896
822.429	3766
822.569	3720
822.709	3804
822.849	3648
822.99	3755
823.13	3724
823.27	3774
823.41	3709
823.55	3667
823.69	3682
823.83	3751
823.97	3652
824.11	3618
824.25	3614
824.389	3637
824.529	3641
824.669	3595
824.809	3728
824.949	3751
825.089	3705
825.228	3709
825.368	3580
825.508	3625
825.648	3591
825.787	3595
825.927	3625
826.067	3637
826.206	3686
826.346	3789
826.485	3876
826.625	3823
826.765	3968
826.904	3804
827.044	3580
827.183	3530
827.323	3401
827.462	3439
827.601	3412
827.741	3424
827.88	3485
828.02	3378
828.159	3469
828.298	3485
828.437	3530
828.577	3469
828.716	3576
828.855	3466
828.994	3409
829.134	3378
829.273	3386
829.412	3325
829.551	3378
829.69	3370
829.829	3393
829.968	3542
830.107	3462
830.246	3439
830.385	3389
830.524	3355
830.663	3294
830.802	3256
830.941	3161
831.08	3188
831.219	3256
831.357	3233
831.496	3378
831.635	3268
831.774	3214
831.913	3218
832.051	3119
832.19	3146
832.329	3192
832.467	3131
832.606	3112
832.744	3161
832.883	3192
833.022	3176
833.16	3279
833.299	3313
833.437	3317
833.576	3389
833.714	3386
833.852	3405
833.991	3454
834.129	3469
834.267	3420
834.406	3393
834.544	3409
834.682	3447
834.821	3393
834.959	3561
835.097	3443
835.235	3530
835.373	3507
835.511	3492
835.65	3412
835.788	3469
835.926	3382
836.064	3409
836.202	3382
836.34	3557
836.478	3568
836.615	3530
836.753	3545
836.891	3637
837.029	3564
837.167	3595
837.305	3564
837.443	3542
837.58	3507
837.718	3610
837.856	3576
837.993	3504
838.131	3622
838.269	3572
838.406	3576
838.544	3564
838.681	3439
838.819	3439
838.956	3367
839.094	3405
839.231	3435
839.369	3500
839.506	3724
839.643	3625
839.781	3500
839.918	3447
840.055	3534
840.193	3530
840.33	3523
840.467	3534
840.604	3580
840.742	3808
840.879	3564
841.016	3553
841.153	3572
841.29	3732
841.427	3759
841.564	3701
841.701	3732
841.838	3671
841.975	3694
842.112	3717
842.249	3614
842.385	3633
842.522	3800
842.659	3740
842.796	3644
842.933	3671
843.069	3671
843.206	3698
843.343	3793
843.479	3797
843.616	3831
843.752	3663
843.889	3682
844.025	3850
844.162	3701
844.298	3846
844.435	3812
844.571	3781
844.708	3861
844.844	3972
844.98	4017
845.117	4055
845.253	3915
845.389	3876
845.525	3968
845.661	3926
845.798	3949
845.934	4013
846.07	3930
846.206	4059
846.342	4124
846.478	4059
846.614	4006
846.75	3915
846.886	3953
847.022	4002
847.158	3979
847.294	4017
847.429	4029
847.565	3956
847.701	4253
847.837	3876
847.972	3892
848.108	3975
848.244	4059
848.379	3854
848.515	3785
848.65	3831
848.786	3857
848.921	3831
849.057	3903
849.192	3960
849.328	3880
849.463	3903
849.598	3918
849.734	3812
849.869	3816
850.004	3759
850.14	3831
850.275	3778
850.41	3778
850.545	3740
850.68	3755
850.815	3831
850.95	3762
851.085	3937
851.22	3861
851.355	3808
851.49	3793
851.625	3759
851.76	3789
851.895	3743
852.03	3717
852.165	3778
852.299	3808
852.434	3903
852.569	3827
852.703	3865
852.838	3896
852.973	3979
853.107	4029
853.242	3896
853.376	3846
853.511	3789
853.645	3808
853.78	3949
853.914	3876
854.048	3835
854.183	3865
854.317	3972
854.451	4105
854.585	3972
854.72	3960
854.854	4029
854.988	3979
855.122	3994
855.256	3918
855.39	4017
855.524	4105
855.658	4158
855.792	4074
855.926	4135
856.06	4185
856.194	4227
856.327	4147
856.461	4158
856.595	4105
856.729	4177
856.862	4268
856.996	4204
857.13	4257
857.263	4306
857.397	4306
857.53	4287
857.664	4390
857.797	4367
857.931	4432
858.064	4379
858.197	4455
858.331	4394
858.464	4390
858.597	4344
858.731	4459
858.864	4459
858.997	4440
859.13	4504
859.263	4497
859.396	4535
859.529	4478
859.662	4531
859.795	4474
859.928	4550
860.061	4763
860.194	4714
860.327	4645
860.46	4626
860.592	4736
860.725	4793
860.858	4767
860.99	4675
861.123	4656
861.256	4672
861.388	4744
861.521	5372
861.653	4687
861.786	4767
861.918	4793
862.05	4767
862.183	4854
862.315	4858
862.447	4911
862.58	4847
862.712	4809
862.844	4744
862.976	4843
863.108	4877
863.24	5189
863.372	4820
863.504	4877
863.636	4824
863.768	4938
863.9	4938
864.032	4934
864.164	4930
864.296	5052
864.428	5143
864.559	5094
864.691	5174
864.823	5132
864.954	5094
865.086	5124
865.217	5094
865.349	5102
865.48	5170
865.612	5208
865.743	5288
865.875	5216
866.006	5181
866.137	5265
866.269	5258
866.4	5231
866.531	5246
866.662	5216
866.793	5277
866.924	5330
867.055	5315
867.186	5345
867.317	5383
867.448	5292
867.579	5315
867.71	5364
867.841	5387
867.972	5440
868.103	5528
868.233	5452
868.364	5524
868.495	5512
868.625	5665
868.756	5802
868.886	5642
869.017	5714
869.147	5844
869.278	5844
869.408	5832
869.539	5859
869.669	5874
869.799	5870
869.929	5961
870.06	6019
870.19	6182
870.32	6205
870.45	6254
870.58	6342
870.71	6384
870.84	6418
870.97	6384
871.1	6475
871.23	6631
871.36	6658
871.489	6696
871.619	6738
871.749	6848
871.879	6890
872.008	7004
872.138	6947
872.267	6993
872.397	7000
872.526	7038
872.656	7088
872.785	7194
872.915	7335
873.044	7521
873.173	7552
873.303	7613
873.432	7746
873.561	7807
873.69	7928
873.819	8043
873.948	8183
874.077	8259
874.206	8320
874.335	8473
874.464	8682
874.593	8880
874.722	8941
874.851	9154
874.979	9218
875.108	9363
875.237	9370
875.365	9523
875.494	9599
875.623	9831
875.751	9857
875.88	9994
876.008	10109
876.136	10322
876.265	10497
876.393	10679
876.521	10759
876.65	10793
876.778	10847
876.906	10923
877.034	11022
877.162	11029
877.29	11140
877.418	11258
877.546	11334
877.674	11360
877.802	11490
877.93	11497
878.058	11520
878.185	11516
878.313	11688
878.441	11703
878.568	11657
878.696	11752
878.824	11920
878.951	11897
879.079	12007
879.206	12175
879.333	12041
879.461	12007
879.588	12064
879.715	12045
879.842	12262
879.97	12026
880.097	11935
880.224	11954
880.351	11897
880.478	11843
880.605	11847
880.732	11695
880.859	11954
880.986	11889
881.112	11813
881.239	11733
881.366	11615
881.493	11577
881.619	11566
881.746	11562
881.872	11478
881.999	11547
882.125	11490
882.252	11528
882.378	11566
882.505	11528
882.631	11391
882.757	11273
882.883	11296
883.01	11258
883.136	11147
883.262	11071
883.388	11105
883.514	11170
883.64	11201
883.766	11159
883.892	10911
884.018	11025
884.143	11029
884.269	11102
884.395	10744
884.52	10744
884.646	10801
884.772	10664
884.897	10672
885.023	10675
885.148	10714
885.274	10816
885.399	10668
885.524	10535
885.65	10596
885.775	10634
885.9	10592
886.025	10580
886.15	10554
886.275	10462
886.4	10402
886.525	10344
886.65	10299
886.775	10341
886.9	10413
887.025	10500
887.149	10360
887.274	10230
887.399	10166
887.523	10139
887.648	10207
887.773	10166
887.897	10280
888.021	10284
888.146	10169
888.27	10154
888.395	10188
888.519	10188
888.643	10211
888.767	10154
888.891	10067
889.015	10044
889.139	10036
889.263	10002
889.387	9998
889.511	10071
889.635	9975
889.759	9922
889.883	9941
890.006	9991
890.13	10086
890.254	9934
890.377	9949
890.501	9880
890.624	9861
890.748	9899
890.871	9762
890.995	9770
891.118	9774
891.241	9770
891.364	9774
891.488	9759
891.611	9724
891.734	9690
891.857	9740
891.98	9686
892.103	9797
892.226	9717
892.349	9736
892.471	9610
892.594	9614
892.717	9648
892.839	9542
892.962	9572
893.085	9614
893.207	9549
893.33	9481
893.452	9431
893.575	9568
893.697	9504
893.819	9641
893.941	9599
894.064	9660
894.186	9504
894.308	9359
894.43	9542
894.552	9572
894.674	9549
894.796	9370
894.918	9389
895.04	9374
895.161	9401
895.283	9344
895.405	9184
895.526	9275
895.648	9294
895.769	9287
895.891	9184
896.012	9272
896.134	9157
896.255	9173
896.376	9142
896.498	9142
896.619	9138
896.74	9047
896.861	9116
896.982	9230
897.103	9275
897.224	9154
897.345	9024
897.466	9020
897.587	8914
897.708	9081
897.828	9047
897.949	8960
898.07	8845
898.19	8853
898.311	8979
898.431	8872
898.552	8941
898.672	8998
898.792	8952
898.913	8899
899.033	8849
899.153	8750
899.273	8731
899.393	8697
899.513	8686
899.633	8735
899.753	8754
899.873	8720
899.993	8785
900.113	8731
900.232	8640
900.352	8689
900.472	8587
900.591	8571
900.711	8560
900.83	8594
900.95	8743
901.069	8644
901.189	8617
901.308	8419
901.427	8385
901.546	8400
901.665	8461
901.784	8469
901.904	8385
902.023	8385
902.141	8214
902.26	8168
902.379	8237
902.498	8237
902.617	8176
902.735	8290
902.854	8320
902.973	8290
903.091	8096
903.21	8096
903.328	8210
903.446	8088
903.565	8073
903.683	8115
903.801	8084
903.919	8088
904.038	8130
904.156	8035
904.274	8062
904.392	7974
904.51	8065
904.627	8084
904.745	8043
904.863	8100
904.981	7936
905.098	7860
905.216	7856
905.334	7944
905.451	7875
905.569	7830
905.686	7951
905.803	7917
905.921	7784
906.038	7849
906.155	7788
906.272	7746
906.389	7715
906.506	7647
906.623	7594
906.74	7594
906.857	7563
906.974	7559
907.091	7632
907.208	7655
907.324	7624
907.441	7537
907.557	7480
907.674	7384
907.79	7365
907.907	7331
908.023	7502
908.139	7426
908.256	7411
908.372	7400
908.488	7362
908.604	7247
908.72	7202
908.836	7247
908.952	7274
909.068	7251
909.184	7278
909.3	7282
909.415	7263
909.531	7289
909.647	7088
909.762	7152
909.878	7057
909.993	7084
910.108	7126
910.224	7069
910.339	7103
910.454	7080
910.57	6939
910.685	6901
910.8	7141
910.915	7004
911.03	6970
911.145	6901
911.259	6871
911.374	6901
911.489	6783
911.604	6768
911.718	6749
911.833	6711
911.947	6627
912.062	6540
912.176	6601
912.291	6696
912.405	6730
912.519	6798
912.633	6894
912.748	6688
912.862	6696
912.976	6646
913.09	6506
913.204	6574
913.318	6593
913.431	6665
913.545	6681
913.659	6673
913.772	6623
913.886	6582
914	6566
914.113	6646
914.226	6654
914.34	6585
914.453	6540
914.566	6620
914.68	6574
914.793	6498
914.906	6361
915.019	6342
915.132	6342
915.245	6418
915.358	6407
915.47	6448
915.583	6395
915.696	6513
915.809	6525
915.921	6517
916.034	6418
916.146	6361
916.259	6391
916.371	6506
916.483	6433
916.595	6395
916.708	6437
916.82	6384
916.932	6388
917.044	6395
917.156	6391
917.268	6319
917.38	6327
917.491	6304
917.603	6372
917.715	6395
917.826	6327
917.938	6296
918.049	6197
918.161	6327
918.272	6433
918.384	6391
918.495	6353
918.606	6273
918.717	6190
918.828	6281
918.939	6292
919.05	6228
919.161	6247
919.272	6144
919.383	6167
919.494	6277
919.604	6426
919.715	6300
919.826	6235
919.936	6243
920.047	6327
920.157	6262
920.267	6376
920.378	6258
920.488	6300
920.598	6464
920.708	6467
920.818	6467
920.928	6486
921.038	6639
921.148	6642
921.258	6327
921.368	6311
921.477	6205
921.587	6205
921.697	6102
921.806	6178
921.916	6030
922.025	5889
922.134	5923
922.244	5935
922.353	5935
922.462	5889
922.571	5703
922.68	5703
922.789	5680
922.898	5699
923.007	5668
923.116	5752
923.224	5653
923.333	5680
923.442	5600
923.55	5554
923.659	5642
923.767	5634
923.876	5589
923.984	5577
924.092	5490
924.201	5551
924.309	5528
924.417	5512
924.525	5512
924.633	5501
924.741	6289
924.849	5387
924.956	5509
925.064	5326
925.172	5307
925.279	5372
925.387	5322
925.494	5372
925.602	5436
925.709	5330
925.816	5296
925.924	5258
926.031	5372
926.138	5307
926.245	5299
926.352	5189
926.459	5277
926.566	5284
926.673	5185
926.779	5121
926.886	5136
926.993	5018
927.099	5018
927.206	4938
927.312	4976
927.419	5033
927.525	5010
927.631	5014
927.737	4866
927.843	4892
927.95	4767
928.056	4812
928.162	4835
928.267	4847
928.373	5242
928.479	4843
928.585	4672
928.69	4729
928.796	4748
928.901	4653
929.007	4573
929.112	4653
929.218	4565
929.323	4592
929.428	4584
929.533	4668
929.638	4489
929.743	4489
929.848	4558
929.953	4561
930.058	4474
930.163	4344
930.267	4367
930.372	4409
930.477	4295
930.581	4481
930.685	4386
930.79	4238
930.894	4322
930.998	4261
931.103	4363
931.207	4109
931.311	4109
931.415	4082
931.519	3945
931.623	3918
