Data from glass_V78500241_1468.txt Node
Date: Wed Sep 01 19:24:40 CST 2021
User: usil
Spectrometer: V785-0024
Trigger mode: 0
Integration Time (sec): 4.000000E-1
Scans to average: 1
Nonlinearity correction enabled: false
Boxcar width: 0
Storing dark spectrum: false
XAxis mode: Wavelengths
Number of Pixels in Spectrum: 1024
>>>>>Begin Spectral Data<<<<<
801.071	3724
801.214	3751
801.356	3736
801.499	3770
801.641	3732
801.783	3759
801.926	3857
802.068	3846
802.211	3873
802.353	3861
802.496	3831
802.638	3888
802.78	3930
802.923	3930
803.065	3876
803.208	3865
803.35	3850
803.492	3918
803.635	3956
803.777	3770
803.919	3876
804.061	4196
804.204	3956
804.346	3941
804.488	3873
804.63	4013
804.773	3998
804.915	4048
805.057	4128
805.199	4048
805.341	4097
805.483	4150
805.626	4128
805.768	4128
805.91	4234
806.052	4211
806.194	4185
806.336	4379
806.478	4192
806.62	4200
806.762	4188
806.904	4196
807.046	4360
807.188	4211
807.33	4211
807.472	4246
807.614	4181
807.756	4276
807.898	4196
808.04	4227
808.182	4280
808.324	4318
808.465	4329
808.607	4508
808.749	4512
808.891	4432
809.033	4481
809.174	4432
809.316	4230
809.458	4227
809.6	4166
809.741	4185
809.883	4192
810.025	4169
810.166	4177
810.308	4204
810.45	4287
810.591	4242
810.733	4291
810.875	4558
811.016	4881
811.158	5102
811.299	5284
811.441	5288
811.582	5045
811.724	4679
811.865	4443
812.007	4455
812.148	4440
812.29	4421
812.431	4402
812.573	4375
812.714	4405
812.855	4424
812.997	4424
813.138	4443
813.279	4424
813.421	4348
813.562	4390
813.703	4348
813.845	4363
813.986	4219
814.127	4215
814.268	4215
814.41	4287
814.551	4303
814.692	4356
814.833	4295
814.974	4325
815.115	4352
815.256	4280
815.397	4215
815.539	4272
815.68	4200
815.821	4257
815.962	4363
816.103	4276
816.244	4287
816.385	4265
816.526	4318
816.666	4181
816.807	4120
816.948	4143
817.089	4139
817.23	4135
817.371	4021
817.512	4074
817.653	4071
817.793	4021
817.934	4048
818.075	4067
818.216	4063
818.356	4105
818.497	4010
818.638	3911
818.778	3949
818.919	3876
819.06	3873
819.2	3922
819.341	3892
819.481	3884
819.622	3930
819.762	4032
819.903	3949
820.043	3873
820.184	3835
820.324	3812
820.465	3892
820.605	3907
820.746	3857
820.886	3770
821.026	3907
821.167	3869
821.307	3991
821.447	3975
821.588	3968
821.728	3968
821.868	3960
822.008	3842
822.149	3934
822.289	3937
822.429	3800
822.569	3762
822.709	3755
822.849	3682
822.99	3736
823.13	3781
823.27	3797
823.41	3663
823.55	3713
823.69	3740
823.83	3728
823.97	3709
824.11	3622
824.25	3587
824.389	3622
824.529	3641
824.669	3633
824.809	3724
824.949	3759
825.089	3743
825.228	3717
825.368	3580
825.508	3610
825.648	3576
825.787	3572
825.927	3633
826.067	3610
826.206	3732
826.346	3740
826.485	3838
826.625	3869
826.765	3956
826.904	3842
827.044	3644
827.183	3511
827.323	3488
827.462	3477
827.601	3443
827.741	3412
827.88	3454
828.02	3386
828.159	3447
828.298	3496
828.437	3557
828.577	3492
828.716	3584
828.855	3462
828.994	3378
829.134	3382
829.273	3363
829.412	3363
829.551	3302
829.69	3409
829.829	3401
829.968	3496
830.107	3477
830.246	3454
830.385	3367
830.524	3336
830.663	3294
830.802	3287
830.941	3192
831.08	3222
831.219	3260
831.357	3291
831.496	3370
831.635	3226
831.774	3207
831.913	3203
832.051	3131
832.19	3138
832.329	3180
832.467	3131
832.606	3104
832.744	3150
832.883	3214
833.022	3226
833.16	3214
833.299	3329
833.437	3336
833.576	3374
833.714	3393
833.852	3431
833.991	3462
834.129	3485
834.267	3412
834.406	3405
834.544	3447
834.682	3389
834.821	3401
834.959	3603
835.097	3469
835.235	3523
835.373	3447
835.511	3545
835.65	3488
835.788	3519
835.926	3412
836.064	3374
836.202	3382
836.34	3591
836.478	3599
836.615	3561
836.753	3610
836.891	3633
837.029	3622
837.167	3572
837.305	3538
837.443	3542
837.58	3504
837.718	3641
837.856	3549
837.993	3523
838.131	3618
838.269	3599
838.406	3545
838.544	3625
838.681	3458
838.819	3458
838.956	3374
839.094	3374
839.231	3454
839.369	3515
839.506	3690
839.643	3610
839.781	3504
839.918	3469
840.055	3542
840.193	3538
840.33	3492
840.467	3584
840.604	3633
840.742	3793
840.879	3557
841.016	3572
841.153	3572
841.29	3747
841.427	3740
841.564	3732
841.701	3743
841.838	3644
841.975	3698
842.112	3724
842.249	3656
842.385	3633
842.522	3835
842.659	3694
842.796	3644
842.933	3720
843.069	3717
843.206	3709
843.343	3835
843.479	3804
843.616	3857
843.752	3705
843.889	3698
844.025	3861
844.162	3728
844.298	3835
844.435	3770
844.571	3789
844.708	3899
844.844	4051
844.98	4002
845.117	4044
845.253	3972
845.389	3903
845.525	3949
845.661	3945
845.798	3937
845.934	3998
846.07	4013
846.206	4048
846.342	4109
846.478	4055
846.614	3964
846.75	3903
846.886	3888
847.022	4086
847.158	4010
847.294	4040
847.429	4032
847.565	4010
847.701	4257
847.837	3918
847.972	3880
848.108	3941
848.244	3987
848.379	3861
848.515	3835
848.65	3778
848.786	3816
848.921	3831
849.057	3930
849.192	3964
849.328	3888
849.463	3899
849.598	3823
849.734	3865
849.869	3819
850.004	3778
850.14	3793
850.275	3797
850.41	3743
850.545	3747
850.68	3793
850.815	3819
850.95	3816
851.085	3949
851.22	3888
851.355	3869
851.49	3755
851.625	3800
851.76	3774
851.895	3701
852.03	3759
852.165	3785
852.299	3831
852.434	3888
852.569	3896
852.703	3892
852.838	3903
852.973	3983
853.107	4013
853.242	3896
853.376	3835
853.511	3789
853.645	3808
853.78	3975
853.914	3915
854.048	3907
854.183	3857
854.317	3975
854.451	4063
854.585	3956
854.72	3972
854.854	4055
854.988	3918
855.122	4013
855.256	3949
855.39	4044
855.524	4120
855.658	4067
855.792	4078
855.926	4131
856.06	4154
856.194	4192
856.327	4135
856.461	4173
856.595	4158
856.729	4188
856.862	4246
856.996	4223
857.13	4325
857.263	4314
857.397	4360
857.53	4253
857.664	4325
857.797	4413
857.931	4398
858.064	4383
858.197	4436
858.331	4356
858.464	4413
858.597	4379
858.731	4440
858.864	4516
858.997	4440
859.13	4542
859.263	4519
859.396	4542
859.529	4440
859.662	4497
859.795	4538
859.928	4569
860.061	4717
860.194	4691
860.327	4660
860.46	4630
860.592	4725
860.725	4759
860.858	4755
860.99	4725
861.123	4702
861.256	4729
861.388	4805
861.521	5292
861.653	4752
861.786	4702
861.918	4736
862.05	4767
862.183	4805
862.315	4892
862.447	4972
862.58	4930
862.712	4748
862.844	4694
862.976	4911
863.108	4908
863.24	5261
863.372	4885
863.504	4915
863.636	4877
863.768	4984
863.9	4968
864.032	4877
864.164	4965
864.296	5022
864.428	5064
864.559	5113
864.691	5124
864.823	5113
864.954	5090
865.086	5105
865.217	5117
865.349	5113
865.48	5181
865.612	5231
865.743	5296
865.875	5181
866.006	5185
866.137	5261
866.269	5269
866.4	5273
866.531	5216
866.662	5235
866.793	5261
866.924	5330
867.055	5364
867.186	5368
867.317	5311
867.448	5337
867.579	5330
867.71	5368
867.841	5398
867.972	5455
868.103	5486
868.233	5471
868.364	5528
868.495	5615
868.625	5657
868.756	5779
868.886	5688
869.017	5691
869.147	5851
869.278	5874
869.408	5786
869.539	5790
869.669	5946
869.799	5870
869.929	5977
870.06	6041
870.19	6182
870.32	6148
870.45	6224
870.58	6353
870.71	6464
870.84	6445
870.97	6445
871.1	6494
871.23	6684
871.36	6753
871.489	6627
871.619	6677
871.749	6787
871.879	6840
872.008	6966
872.138	6996
872.267	7008
872.397	6947
872.526	7031
872.656	7046
872.785	7263
872.915	7377
873.044	7514
873.173	7518
873.303	7681
873.432	7795
873.561	7871
873.69	7890
873.819	7955
873.948	8172
874.077	8187
874.206	8271
874.335	8457
874.464	8659
874.593	8887
874.722	8921
874.851	9131
874.979	9298
875.108	9355
875.237	9428
875.365	9431
875.494	9614
875.623	9835
875.751	9755
875.88	10025
876.008	10112
876.136	10310
876.265	10470
876.393	10664
876.521	10672
876.65	10866
876.778	10866
876.906	10919
877.034	11022
877.162	11124
877.29	11197
877.418	11311
877.546	11356
877.674	11440
877.802	11429
877.93	11509
878.058	11497
878.185	11570
878.313	11604
878.441	11764
878.568	11688
878.696	11767
878.824	11912
878.951	11893
879.079	11996
879.206	12182
879.333	12049
879.461	11996
879.588	12015
879.715	12095
879.842	12235
879.97	12121
880.097	11950
880.224	11961
880.351	11870
880.478	11843
880.605	11748
880.732	11828
880.859	11973
880.986	11794
881.112	11878
881.239	11672
881.366	11726
881.493	11642
881.619	11600
881.746	11554
881.872	11634
881.999	11528
882.125	11539
882.252	11642
882.378	11512
882.505	11589
882.631	11429
882.757	11181
882.883	11246
883.01	11292
883.136	11143
883.262	11151
883.388	11105
883.514	11181
883.64	11216
883.766	11132
883.892	10999
884.018	11075
884.143	11121
884.269	11121
884.395	10900
884.52	10801
884.646	10790
884.772	10645
884.897	10656
885.023	10729
885.148	10603
885.274	10752
885.399	10691
885.524	10561
885.65	10546
885.775	10592
885.9	10550
886.025	10672
886.15	10546
886.275	10489
886.4	10424
886.525	10424
886.65	10367
886.775	10337
886.9	10428
887.025	10542
887.149	10428
887.274	10314
887.399	10154
887.523	10124
887.648	10135
887.773	10120
887.897	10261
888.021	10265
888.146	10200
888.27	10272
888.395	10169
888.519	10116
888.643	10230
888.767	10200
888.891	10036
889.015	10051
889.139	10131
889.263	9956
889.387	10093
889.511	10116
889.635	10150
889.759	9895
889.883	9987
890.006	9945
890.13	10067
890.254	9930
890.377	9979
890.501	9793
890.624	9835
890.748	9937
890.871	9774
890.995	9816
891.118	9690
891.241	9789
891.364	9797
891.488	9956
891.611	9751
891.734	9720
891.857	9770
891.98	9698
892.103	9797
892.226	9656
892.349	9701
892.471	9553
892.594	9618
892.717	9553
892.839	9591
892.962	9576
893.085	9709
893.207	9606
893.33	9534
893.452	9458
893.575	9641
893.697	9526
893.819	9587
893.941	9610
894.064	9599
894.186	9424
894.308	9370
894.43	9530
894.552	9542
894.674	9477
894.796	9351
894.918	9469
895.04	9344
895.161	9329
895.283	9321
895.405	9256
895.526	9294
895.648	9241
895.769	9256
895.891	9199
896.012	9249
896.134	9264
896.255	9203
896.376	9184
896.498	9150
896.619	9135
896.74	9081
896.861	9085
896.982	9222
897.103	9260
897.224	9127
897.345	9100
897.466	9058
897.587	8960
897.708	9081
897.828	9036
897.949	8971
898.07	8887
898.19	8899
898.311	9013
898.431	8834
898.552	8925
898.672	8963
898.792	8933
898.913	8891
899.033	8785
899.153	8758
899.273	8667
899.393	8788
899.513	8743
899.633	8727
899.753	8788
899.873	8724
899.993	8758
900.113	8686
900.232	8701
900.352	8686
900.472	8716
900.591	8480
900.711	8610
900.83	8480
900.95	8644
901.069	8712
901.189	8552
901.308	8389
901.427	8419
901.546	8454
901.665	8427
901.784	8537
901.904	8381
902.023	8400
902.141	8279
902.26	8282
902.379	8267
902.498	8218
902.617	8210
902.735	8347
902.854	8275
902.973	8259
903.091	8126
903.21	8153
903.328	8172
903.446	8123
903.565	8096
903.683	8176
903.801	8043
903.919	8138
904.038	8161
904.156	8020
904.274	8092
904.392	8020
904.51	8020
904.627	8058
904.745	8073
904.863	8115
904.981	7909
905.098	7833
905.216	7890
905.334	7871
905.451	7902
905.569	7890
905.686	7978
905.803	7944
905.921	7795
906.038	7883
906.155	7765
906.272	7712
906.389	7723
906.506	7586
906.623	7594
906.74	7620
906.857	7518
906.974	7605
907.091	7681
907.208	7772
907.324	7616
907.441	7556
907.557	7487
907.674	7407
907.79	7381
907.907	7354
908.023	7491
908.139	7415
908.256	7438
908.372	7392
908.488	7308
908.604	7247
908.72	7175
908.836	7259
908.952	7301
909.068	7270
909.184	7255
909.3	7259
909.415	7331
909.531	7365
909.647	7145
909.762	7122
909.878	7091
909.993	7126
910.108	7050
910.224	7114
910.339	7133
910.454	7050
910.57	7015
910.685	6924
910.8	7156
910.915	7057
911.03	7034
911.145	6882
911.259	6878
911.374	6871
911.489	6867
911.604	6825
911.718	6772
911.833	6730
911.947	6612
912.062	6635
912.176	6719
912.291	6703
912.405	6707
912.519	6856
912.633	6814
912.748	6772
912.862	6642
912.976	6582
913.09	6582
913.204	6551
913.318	6589
913.431	6700
913.545	6703
913.659	6688
913.772	6635
913.886	6563
914	6563
914.113	6662
914.226	6635
914.34	6589
914.453	6486
914.566	6623
914.68	6585
914.793	6547
914.906	6441
915.019	6384
915.132	6372
915.245	6441
915.358	6471
915.47	6448
915.583	6494
915.696	6452
915.809	6525
915.921	6513
916.034	6384
916.146	6426
916.259	6395
916.371	6525
916.483	6456
916.595	6369
916.708	6437
916.82	6384
916.932	6384
917.044	6395
917.156	6380
917.268	6372
917.38	6384
917.491	6262
917.603	6331
917.715	6388
917.826	6410
917.938	6270
918.049	6285
918.161	6334
918.272	6361
918.384	6395
918.495	6407
918.606	6216
918.717	6216
918.828	6258
918.939	6304
919.05	6258
919.161	6216
919.272	6091
919.383	6144
919.494	6273
919.604	6460
919.715	6281
919.826	6285
919.936	6254
920.047	6311
920.157	6281
920.267	6418
920.378	6334
920.488	6300
920.598	6483
920.708	6513
920.818	6513
920.928	6467
921.038	6635
921.148	6604
921.258	6372
921.368	6273
921.477	6216
921.587	6194
921.697	6057
921.806	6194
921.916	5969
922.025	6072
922.134	5923
922.244	5901
922.353	5927
922.462	5844
922.571	5813
922.68	5752
922.789	5661
922.898	5676
923.007	5665
923.116	5646
923.224	5688
923.333	5699
923.442	5642
923.55	5619
923.659	5638
923.767	5581
923.876	5566
923.984	5592
924.092	5474
924.201	5623
924.309	5592
924.417	5623
924.525	5486
924.633	5509
924.741	6209
924.849	5387
924.956	5448
925.064	5360
925.172	5315
925.279	5315
925.387	5345
925.494	5307
925.602	5433
925.709	5341
925.816	5246
925.924	5273
926.031	5406
926.138	5258
926.245	5326
926.352	5212
926.459	5284
926.566	5318
926.673	5216
926.779	5201
926.886	5102
926.993	5029
927.099	5052
927.206	5033
927.312	4957
927.419	4968
927.525	5022
927.631	4984
927.737	4881
927.843	4831
927.95	4763
928.056	4816
928.162	4843
928.267	4870
928.373	5227
928.479	4900
928.585	4702
928.69	4812
928.796	4736
928.901	4698
929.007	4584
929.112	4694
929.218	4634
929.323	4611
929.428	4519
929.533	4672
929.638	4546
929.743	4519
929.848	4558
929.953	4538
930.058	4398
930.163	4322
930.267	4322
930.372	4375
930.477	4280
930.581	4478
930.685	4322
930.79	4299
930.894	4303
930.998	4291
931.103	4352
931.207	4093
931.311	4067
931.415	4032
931.519	3972
931.623	3949
