Data from glass_V78500241_357.txt Node
Date: Wed Sep 01 19:16:58 CST 2021
User: usil
Spectrometer: V785-0024
Trigger mode: 0
Integration Time (sec): 4.000000E-1
Scans to average: 1
Nonlinearity correction enabled: false
Boxcar width: 0
Storing dark spectrum: false
XAxis mode: Wavelengths
Number of Pixels in Spectrum: 1024
>>>>>Begin Spectral Data<<<<<
801.071	3766
801.214	3755
801.356	3705
801.499	3762
801.641	3720
801.783	3850
801.926	3861
802.068	3770
802.211	3876
802.353	3880
802.496	3838
802.638	3915
802.78	3892
802.923	3934
803.065	3884
803.208	3808
803.35	3873
803.492	3915
803.635	3907
803.777	3876
803.919	3896
804.061	4173
804.204	4017
804.346	3983
804.488	3953
804.63	4029
804.773	4002
804.915	4071
805.057	4158
805.199	4063
805.341	4128
805.483	4105
805.626	4166
805.768	4120
805.91	4227
806.052	4253
806.194	4185
806.336	4325
806.478	4242
806.62	4177
806.762	4219
806.904	4295
807.046	4325
807.188	4268
807.33	4169
807.472	4215
807.614	4234
807.756	4291
807.898	4185
808.04	4230
808.182	4344
808.324	4318
808.465	4417
808.607	4493
808.749	4417
808.891	4447
809.033	4535
809.174	4405
809.316	4280
809.458	4314
809.6	4147
809.741	4173
809.883	4135
810.025	4238
810.166	4261
810.308	4261
810.45	4268
810.591	4219
810.733	4291
810.875	4542
811.016	4843
811.158	5181
811.299	5288
811.441	5372
811.582	5079
811.724	4702
811.865	4443
812.007	4470
812.148	4417
812.29	4432
812.431	4432
812.573	4390
812.714	4375
812.855	4409
812.997	4470
813.138	4493
813.279	4436
813.421	4383
813.562	4386
813.703	4352
813.845	4371
813.986	4249
814.127	4204
814.268	4257
814.41	4280
814.551	4249
814.692	4344
814.833	4284
814.974	4242
815.115	4299
815.256	4249
815.397	4306
815.539	4230
815.68	4246
815.821	4242
815.962	4333
816.103	4299
816.244	4246
816.385	4265
816.526	4276
816.666	4227
816.807	4120
816.948	4219
817.089	4158
817.23	4185
817.371	4090
817.512	4078
817.653	4059
817.793	4044
817.934	4086
818.075	4086
818.216	4131
818.356	4063
818.497	4036
818.638	3922
818.778	3896
818.919	3918
819.06	3922
819.2	3899
819.341	3880
819.481	3827
819.622	3873
819.762	4105
819.903	3953
820.043	3876
820.184	3842
820.324	3842
820.465	3876
820.605	3918
820.746	3888
820.886	3808
821.026	3953
821.167	3956
821.307	3968
821.447	3991
821.588	3994
821.728	3975
821.868	3960
822.008	3857
822.149	3918
822.289	3907
822.429	3819
822.569	3774
822.709	3770
822.849	3717
822.99	3762
823.13	3781
823.27	3812
823.41	3694
823.55	3770
823.69	3747
823.83	3755
823.97	3694
824.11	3580
824.25	3625
824.389	3648
824.529	3713
824.669	3618
824.809	3747
824.949	3747
825.089	3751
825.228	3720
825.368	3648
825.508	3568
825.648	3614
825.787	3610
825.927	3633
826.067	3679
826.206	3663
826.346	3804
826.485	3808
826.625	3827
826.765	3953
826.904	3842
827.044	3633
827.183	3584
827.323	3466
827.462	3511
827.601	3424
827.741	3420
827.88	3447
828.02	3401
828.159	3431
828.298	3488
828.437	3530
828.577	3485
828.716	3595
828.855	3530
828.994	3351
829.134	3374
829.273	3382
829.412	3401
829.551	3348
829.69	3397
829.829	3473
829.968	3534
830.107	3481
830.246	3458
830.385	3431
830.524	3401
830.663	3332
830.802	3287
830.941	3218
831.08	3241
831.219	3272
831.357	3253
831.496	3424
831.635	3237
831.774	3211
831.913	3203
832.051	3157
832.19	3119
832.329	3222
832.467	3127
832.606	3119
832.744	3169
832.883	3211
833.022	3233
833.16	3272
833.299	3310
833.437	3306
833.576	3363
833.714	3431
833.852	3477
833.991	3473
834.129	3462
834.267	3481
834.406	3431
834.544	3496
834.682	3439
834.821	3443
834.959	3572
835.097	3428
835.235	3519
835.373	3511
835.511	3515
835.65	3450
835.788	3519
835.926	3367
836.064	3443
836.202	3409
836.34	3564
836.478	3679
836.615	3572
836.753	3614
836.891	3644
837.029	3633
837.167	3622
837.305	3618
837.443	3576
837.58	3519
837.718	3572
837.856	3584
837.993	3553
838.131	3622
838.269	3564
838.406	3648
838.544	3606
838.681	3496
838.819	3466
838.956	3370
839.094	3458
839.231	3454
839.369	3553
839.506	3793
839.643	3656
839.781	3538
839.918	3488
840.055	3530
840.193	3526
840.33	3572
840.467	3580
840.604	3580
840.742	3850
840.879	3564
841.016	3614
841.153	3633
841.29	3709
841.427	3728
841.564	3690
841.701	3755
841.838	3728
841.975	3663
842.112	3759
842.249	3660
842.385	3629
842.522	3838
842.659	3743
842.796	3709
842.933	3698
843.069	3762
843.206	3755
843.343	3823
843.479	3812
843.616	3850
843.752	3690
843.889	3720
844.025	3869
844.162	3717
844.298	3876
844.435	3846
844.571	3781
844.708	3903
844.844	4029
844.98	4021
845.117	4029
845.253	3972
845.389	3945
845.525	3994
845.661	3949
845.798	3945
845.934	4032
846.07	3998
846.206	4029
846.342	4112
846.478	4063
846.614	3998
846.75	3937
846.886	3918
847.022	4082
847.158	3983
847.294	3994
847.429	4063
847.565	4063
847.701	4230
847.837	3854
847.972	3892
848.108	4032
848.244	3998
848.379	3865
848.515	3816
848.65	3793
848.786	3865
848.921	3903
849.057	3998
849.192	3964
849.328	3922
849.463	3918
849.598	3857
849.734	3869
849.869	3869
850.004	3854
850.14	3816
850.275	3800
850.41	3747
850.545	3743
850.68	3762
850.815	3857
850.95	3819
851.085	3945
851.22	3876
851.355	3850
851.49	3831
851.625	3819
851.76	3770
851.895	3816
852.03	3747
852.165	3785
852.299	3857
852.434	3915
852.569	3918
852.703	3865
852.838	3964
852.973	3994
853.107	4032
853.242	3880
853.376	3838
853.511	3759
853.645	3888
853.78	3994
853.914	3911
854.048	3983
854.183	3934
854.317	3949
854.451	4097
854.585	3991
854.72	3956
854.854	4040
854.988	4013
855.122	3964
855.256	3949
855.39	4017
855.524	4105
855.658	4051
855.792	4044
855.926	4124
856.06	4177
856.194	4207
856.327	4158
856.461	4128
856.595	4188
856.729	4196
856.862	4265
856.996	4291
857.13	4333
857.263	4299
857.397	4375
857.53	4310
857.664	4394
857.797	4394
857.931	4504
858.064	4405
858.197	4470
858.331	4417
858.464	4379
858.597	4383
858.731	4390
858.864	4485
858.997	4481
859.13	4478
859.263	4512
859.396	4615
859.529	4527
859.662	4516
859.795	4512
859.928	4584
860.061	4748
860.194	4816
860.327	4675
860.46	4714
860.592	4725
860.725	4805
860.858	4782
860.99	4721
861.123	4763
861.256	4717
861.388	4793
861.521	5455
861.653	4744
861.786	4725
861.918	4755
862.05	4786
862.183	4870
862.315	4843
862.447	4980
862.58	4908
862.712	4778
862.844	4782
862.976	4892
863.108	4873
863.24	5273
863.372	4835
863.504	4915
863.636	4927
863.768	4972
863.9	4999
864.032	4938
864.164	4972
864.296	5025
864.428	5075
864.559	5166
864.691	5140
864.823	5143
864.954	5128
865.086	5140
865.217	5132
865.349	5102
865.48	5189
865.612	5216
865.743	5273
865.875	5197
866.006	5258
866.137	5208
866.269	5265
866.4	5242
866.531	5258
866.662	5239
866.793	5231
866.924	5277
867.055	5357
867.186	5391
867.317	5402
867.448	5341
867.579	5372
867.71	5360
867.841	5349
867.972	5429
868.103	5528
868.233	5520
868.364	5558
868.495	5592
868.625	5714
868.756	5802
868.886	5695
869.017	5722
869.147	5904
869.278	5859
869.408	5836
869.539	5813
869.669	5901
869.799	5931
869.929	6034
870.06	6041
870.19	6201
870.32	6186
870.45	6281
870.58	6369
870.71	6452
870.84	6494
870.97	6410
871.1	6506
871.23	6677
871.36	6654
871.489	6646
871.619	6741
871.749	6852
871.879	6905
872.008	7015
872.138	6989
872.267	6981
872.397	7008
872.526	7034
872.656	7110
872.785	7263
872.915	7419
873.044	7563
873.173	7590
873.303	7674
873.432	7742
873.561	7875
873.69	7898
873.819	8024
873.948	8187
874.077	8252
874.206	8358
874.335	8473
874.464	8693
874.593	8861
874.722	8963
874.851	9161
874.979	9195
875.108	9355
875.237	9439
875.365	9450
875.494	9694
875.623	9804
875.751	9857
875.88	9945
876.008	10120
876.136	10257
876.265	10504
876.393	10752
876.521	10691
876.65	10904
876.778	10881
876.906	10980
877.034	10942
877.162	11140
877.29	11197
877.418	11299
877.546	11326
877.674	11474
877.802	11436
877.93	11512
878.058	11581
878.185	11543
878.313	11665
878.441	11733
878.568	11684
878.696	11882
878.824	11802
878.951	11908
879.079	11999
879.206	12144
879.333	12038
879.461	11965
879.588	12019
879.715	12201
879.842	12205
879.97	12159
880.097	11870
880.224	11897
880.351	11851
880.478	11923
880.605	11847
880.732	11878
880.859	12034
880.986	11904
881.112	11885
881.239	11748
881.366	11653
881.493	11608
881.619	11512
881.746	11604
881.872	11444
881.999	11528
882.125	11440
882.252	11528
882.378	11539
882.505	11558
882.631	11459
882.757	11288
882.883	11318
883.01	11258
883.136	11197
883.262	11086
883.388	11071
883.514	11269
883.64	11216
883.766	11147
883.892	10976
884.018	10980
884.143	11098
884.269	11094
884.395	10850
884.52	10752
884.646	10824
884.772	10641
884.897	10649
885.023	10634
885.148	10672
885.274	10797
885.399	10740
885.524	10653
885.65	10615
885.775	10694
885.9	10573
886.025	10622
886.15	10554
886.275	10451
886.4	10436
886.525	10379
886.65	10344
886.775	10352
886.9	10428
887.025	10455
887.149	10481
887.274	10204
887.399	10242
887.523	10188
887.648	10215
887.773	10196
887.897	10268
888.021	10272
888.146	10147
888.27	10322
888.395	10310
888.519	10192
888.643	10238
888.767	10196
888.891	10074
889.015	9991
889.139	10139
889.263	9987
889.387	10025
889.511	10109
889.635	9987
889.759	10036
889.883	10017
890.006	10048
890.13	10109
890.254	9926
890.377	9960
890.501	9797
890.624	9895
890.748	9846
890.871	9804
890.995	9838
891.118	9736
891.241	9740
891.364	9800
891.488	9785
891.611	9679
891.734	9728
891.857	9751
891.98	9736
892.103	9819
892.226	9717
892.349	9682
892.471	9656
892.594	9641
892.717	9500
892.839	9641
892.962	9633
893.085	9686
893.207	9526
893.33	9523
893.452	9530
893.575	9599
893.697	9488
893.819	9701
893.941	9660
894.064	9622
894.186	9485
894.308	9439
894.43	9549
894.552	9519
894.674	9526
894.796	9439
894.918	9435
895.04	9302
895.161	9416
895.283	9389
895.405	9298
895.526	9294
895.648	9332
895.769	9272
895.891	9226
896.012	9325
896.134	9237
896.255	9150
896.376	9150
896.498	9233
896.619	9226
896.74	9085
896.861	9119
896.982	9275
897.103	9374
897.224	9203
897.345	9097
897.466	9047
897.587	9066
897.708	9146
897.828	9135
897.949	8967
898.07	8956
898.19	8944
898.311	9066
898.431	8990
898.552	8899
898.672	8933
898.792	8937
898.913	8967
899.033	8788
899.153	8792
899.273	8693
899.393	8731
899.513	8811
899.633	8705
899.753	8766
899.873	8716
899.993	8777
900.113	8762
900.232	8781
900.352	8617
900.472	8552
900.591	8606
900.711	8568
900.83	8552
900.95	8610
901.069	8697
901.189	8533
901.308	8473
901.427	8374
901.546	8495
901.665	8423
901.784	8484
901.904	8423
902.023	8412
902.141	8267
902.26	8244
902.379	8221
902.498	8214
902.617	8191
902.735	8347
902.854	8248
902.973	8282
903.091	8092
903.21	8164
903.328	8210
903.446	8142
903.565	8088
903.683	8134
903.801	8024
903.919	8142
904.038	8065
904.156	8065
904.274	8084
904.392	8027
904.51	8065
904.627	8081
904.745	8103
904.863	8111
904.981	7978
905.098	7936
905.216	7906
905.334	7906
905.451	7921
905.569	7921
905.686	7913
905.803	7860
905.921	7807
906.038	7849
906.155	7830
906.272	7731
906.389	7693
906.506	7670
906.623	7647
906.74	7628
906.857	7571
906.974	7586
907.091	7681
907.208	7738
907.324	7651
907.441	7578
907.557	7453
907.674	7396
907.79	7445
907.907	7316
908.023	7472
908.139	7438
908.256	7384
908.372	7285
908.488	7331
908.604	7324
908.72	7316
908.836	7331
908.952	7198
909.068	7263
909.184	7301
909.3	7225
909.415	7305
909.531	7240
909.647	7149
909.762	7122
909.878	7141
909.993	7080
910.108	7099
910.224	7069
910.339	7110
910.454	7065
910.57	7053
910.685	6996
910.8	7232
910.915	7114
911.03	7000
911.145	6913
911.259	6935
911.374	6882
911.489	6886
911.604	6844
911.718	6745
911.833	6745
911.947	6593
912.062	6559
912.176	6719
912.291	6764
912.405	6662
912.519	6856
912.633	6844
912.748	6749
912.862	6715
912.976	6601
913.09	6570
913.204	6551
913.318	6616
913.431	6658
913.545	6760
913.659	6764
913.772	6707
913.886	6597
914	6616
914.113	6650
914.226	6612
914.34	6582
914.453	6544
914.566	6582
914.68	6525
914.793	6521
914.906	6471
915.019	6388
915.132	6365
915.245	6490
915.358	6429
915.47	6486
915.583	6445
915.696	6479
915.809	6570
915.921	6555
916.034	6410
916.146	6403
916.259	6376
916.371	6448
916.483	6479
916.595	6403
916.708	6346
916.82	6410
916.932	6418
917.044	6414
917.156	6372
917.268	6331
917.38	6308
917.491	6369
917.603	6376
917.715	6410
917.826	6350
917.938	6338
918.049	6239
918.161	6331
918.272	6471
918.384	6502
918.495	6361
918.606	6243
918.717	6209
918.828	6270
918.939	6281
919.05	6251
919.161	6239
919.272	6136
919.383	6197
919.494	6289
919.604	6391
919.715	6266
919.826	6262
919.936	6220
920.047	6350
920.157	6308
920.267	6399
920.378	6319
920.488	6281
920.598	6483
920.708	6574
920.818	6494
920.928	6445
921.038	6646
921.148	6601
921.258	6376
921.368	6273
921.477	6228
921.587	6239
921.697	6102
921.806	6182
921.916	6053
922.025	6022
922.134	5923
922.244	5904
922.353	6003
922.462	5916
922.571	5786
922.68	5718
922.789	5661
922.898	5722
923.007	5714
923.116	5680
923.224	5691
923.333	5699
923.442	5638
923.55	5543
923.659	5615
923.767	5661
923.876	5532
923.984	5577
924.092	5532
924.201	5608
924.309	5535
924.417	5566
924.525	5516
924.633	5516
924.741	6331
924.849	5402
924.956	5497
925.064	5383
925.172	5299
925.279	5299
925.387	5326
925.494	5376
925.602	5417
925.709	5349
925.816	5288
925.924	5296
926.031	5341
926.138	5303
926.245	5395
926.352	5223
926.459	5330
926.566	5395
926.673	5227
926.779	5166
926.886	5140
926.993	5064
927.099	4980
927.206	4961
927.312	4999
927.419	5014
927.525	4949
927.631	5022
927.737	4881
927.843	4885
927.95	4816
928.056	4896
928.162	4797
928.267	4889
928.373	5273
928.479	4850
928.585	4725
928.69	4801
928.796	4786
928.901	4668
929.007	4577
929.112	4725
929.218	4622
929.323	4607
929.428	4599
929.533	4706
929.638	4538
929.743	4558
929.848	4596
929.953	4516
930.058	4459
930.163	4337
930.267	4329
930.372	4424
930.477	4367
930.581	4409
930.685	4375
930.79	4265
930.894	4291
930.998	4303
931.103	4405
931.207	4204
931.311	4086
931.415	4078
931.519	3968
931.623	3964
