Data from glass_V78500241_1723.txt Node
Date: Wed Sep 01 19:26:26 CST 2021
User: usil
Spectrometer: V785-0024
Trigger mode: 0
Integration Time (sec): 4.000000E-1
Scans to average: 1
Nonlinearity correction enabled: false
Boxcar width: 0
Storing dark spectrum: false
XAxis mode: Wavelengths
Number of Pixels in Spectrum: 1024
>>>>>Begin Spectral Data<<<<<
801.071	3747
801.214	3743
801.356	3701
801.499	3762
801.641	3728
801.783	3728
801.926	3861
802.068	3835
802.211	3827
802.353	3873
802.496	3857
802.638	3865
802.78	3892
802.923	3926
803.065	3899
803.208	3838
803.35	3842
803.492	3899
803.635	3949
803.777	3835
803.919	3861
804.061	4173
804.204	3964
804.346	3911
804.488	3911
804.63	4006
804.773	3975
804.915	4013
805.057	4128
805.199	3983
805.341	4063
805.483	4105
805.626	4166
805.768	4109
805.91	4204
806.052	4223
806.194	4211
806.336	4371
806.478	4215
806.62	4192
806.762	4227
806.904	4257
807.046	4379
807.188	4200
807.33	4196
807.472	4265
807.614	4219
807.756	4284
807.898	4238
808.04	4207
808.182	4291
808.324	4363
808.465	4424
808.607	4481
808.749	4485
808.891	4459
809.033	4485
809.174	4402
809.316	4268
809.458	4299
809.6	4131
809.741	4166
809.883	4173
810.025	4234
810.166	4204
810.308	4188
810.45	4234
810.591	4242
810.733	4295
810.875	4546
811.016	4831
811.158	5124
811.299	5265
811.441	5299
811.582	5094
811.724	4694
811.865	4478
812.007	4500
812.148	4413
812.29	4447
812.431	4413
812.573	4428
812.714	4363
812.855	4424
812.997	4402
813.138	4485
813.279	4428
813.421	4375
813.562	4394
813.703	4325
813.845	4386
813.986	4230
814.127	4192
814.268	4268
814.41	4306
814.551	4253
814.692	4348
814.833	4238
814.974	4287
815.115	4375
815.256	4234
815.397	4215
815.539	4265
815.68	4257
815.821	4200
815.962	4287
816.103	4261
816.244	4257
816.385	4223
816.526	4299
816.666	4238
816.807	4074
816.948	4188
817.089	4188
817.23	4109
817.371	4074
817.512	4059
817.653	4120
817.793	4063
817.934	4032
818.075	4090
818.216	4071
818.356	4074
818.497	3964
818.638	3911
818.778	3922
818.919	3873
819.06	3896
819.2	3911
819.341	3835
819.481	3846
819.622	3896
819.762	4002
819.903	3945
820.043	3876
820.184	3808
820.324	3785
820.465	3869
820.605	3831
820.746	3884
820.886	3793
821.026	3884
821.167	3907
821.307	3979
821.447	3953
821.588	3953
821.728	3937
821.868	3960
822.008	3873
822.149	3899
822.289	3888
822.429	3774
822.569	3766
822.709	3770
822.849	3675
822.99	3747
823.13	3743
823.27	3770
823.41	3724
823.55	3751
823.69	3705
823.83	3736
823.97	3686
824.11	3614
824.25	3606
824.389	3663
824.529	3663
824.669	3614
824.809	3698
824.949	3743
825.089	3720
825.228	3675
825.368	3557
825.508	3561
825.648	3614
825.787	3614
825.927	3595
826.067	3606
826.206	3671
826.346	3728
826.485	3812
826.625	3880
826.765	3949
826.904	3827
827.044	3622
827.183	3561
827.323	3447
827.462	3481
827.601	3397
827.741	3458
827.88	3481
828.02	3378
828.159	3409
828.298	3469
828.437	3538
828.577	3504
828.716	3618
828.855	3477
828.994	3367
829.134	3348
829.273	3443
829.412	3359
829.551	3310
829.69	3321
829.829	3428
829.968	3561
830.107	3416
830.246	3447
830.385	3428
830.524	3359
830.663	3279
830.802	3245
830.941	3203
831.08	3214
831.219	3264
831.357	3279
831.496	3363
831.635	3275
831.774	3180
831.913	3195
832.051	3154
832.19	3138
832.329	3188
832.467	3116
832.606	3100
832.744	3192
832.883	3192
833.022	3214
833.16	3253
833.299	3287
833.437	3344
833.576	3389
833.714	3431
833.852	3477
833.991	3439
834.129	3530
834.267	3420
834.406	3401
834.544	3431
834.682	3420
834.821	3412
834.959	3549
835.097	3412
835.235	3564
835.373	3469
835.511	3515
835.65	3462
835.788	3477
835.926	3370
836.064	3370
836.202	3405
836.34	3572
836.478	3641
836.615	3564
836.753	3603
836.891	3648
837.029	3622
837.167	3568
837.305	3587
837.443	3534
837.58	3488
837.718	3587
837.856	3568
837.993	3576
838.131	3606
838.269	3610
838.406	3564
838.544	3542
838.681	3458
838.819	3469
838.956	3367
839.094	3431
839.231	3507
839.369	3515
839.506	3762
839.643	3644
839.781	3488
839.918	3450
840.055	3500
840.193	3553
840.33	3534
840.467	3572
840.604	3618
840.742	3816
840.879	3538
841.016	3561
841.153	3606
841.29	3740
841.427	3724
841.564	3740
841.701	3732
841.838	3679
841.975	3660
842.112	3724
842.249	3603
842.385	3622
842.522	3846
842.659	3720
842.796	3660
842.933	3667
843.069	3698
843.206	3705
843.343	3816
843.479	3838
843.616	3846
843.752	3660
843.889	3644
844.025	3819
844.162	3736
844.298	3865
844.435	3800
844.571	3759
844.708	3892
844.844	3998
844.98	4029
845.117	4006
845.253	3922
845.389	3911
845.525	3972
845.661	3983
845.798	3937
845.934	3983
846.07	3930
846.206	4059
846.342	4090
846.478	4044
846.614	3968
846.75	3918
846.886	3896
847.022	4051
847.158	3983
847.294	3987
847.429	4067
847.565	3998
847.701	4238
847.837	3896
847.972	3857
848.108	3972
848.244	3960
848.379	3880
848.515	3812
848.65	3812
848.786	3819
848.921	3888
849.057	3880
849.192	3949
849.328	3915
849.463	3945
849.598	3876
849.734	3842
849.869	3838
850.004	3770
850.14	3823
850.275	3816
850.41	3720
850.545	3789
850.68	3797
850.815	3781
850.95	3816
851.085	3918
851.22	3873
851.355	3816
851.49	3781
851.625	3838
851.76	3781
851.895	3759
852.03	3736
852.165	3835
852.299	3861
852.434	3899
852.569	3865
852.703	3869
852.838	3949
852.973	4032
853.107	3983
853.242	3846
853.376	3812
853.511	3759
853.645	3842
853.78	3937
853.914	3854
854.048	3926
854.183	3892
854.317	3930
854.451	4051
854.585	3968
854.72	3968
854.854	4025
854.988	3953
855.122	4017
855.256	3911
855.39	4029
855.524	4116
855.658	4063
855.792	4086
855.926	4139
856.06	4219
856.194	4223
856.327	4154
856.461	4074
856.595	4188
856.729	4169
856.862	4215
856.996	4227
857.13	4341
857.263	4322
857.397	4344
857.53	4272
857.664	4352
857.797	4436
857.931	4398
858.064	4402
858.197	4459
858.331	4413
858.464	4371
858.597	4352
858.731	4470
858.864	4443
858.997	4440
859.13	4519
859.263	4497
859.396	4573
859.529	4542
859.662	4538
859.795	4519
859.928	4569
860.061	4687
860.194	4759
860.327	4706
860.46	4649
860.592	4725
860.725	4752
860.858	4717
860.99	4675
861.123	4679
861.256	4626
861.388	4759
861.521	5391
861.653	4714
861.786	4725
861.918	4778
862.05	4793
862.183	4809
862.315	4866
862.447	4930
862.58	4900
862.712	4809
862.844	4790
862.976	4847
863.108	4831
863.24	5246
863.372	4828
863.504	4862
863.636	4892
863.768	5010
863.9	4980
864.032	4889
864.164	4980
864.296	4999
864.428	5102
864.559	5086
864.691	5105
864.823	5128
864.954	5147
865.086	5132
865.217	5109
865.349	5083
865.48	5136
865.612	5189
865.743	5303
865.875	5227
866.006	5197
866.137	5239
866.269	5235
866.4	5223
866.531	5261
866.662	5132
866.793	5242
866.924	5296
867.055	5368
867.186	5337
867.317	5368
867.448	5280
867.579	5387
867.71	5372
867.841	5379
867.972	5452
868.103	5474
868.233	5532
868.364	5436
868.495	5558
868.625	5642
868.756	5786
868.886	5729
869.017	5707
869.147	5851
869.278	5855
869.408	5809
869.539	5863
869.669	5916
869.799	5874
869.929	5961
870.06	5961
870.19	6175
870.32	6159
870.45	6254
870.58	6407
870.71	6380
870.84	6426
870.97	6403
871.1	6414
871.23	6646
871.36	6700
871.489	6593
871.619	6764
871.749	6901
871.879	6844
872.008	6954
872.138	6890
872.267	6989
872.397	7038
872.526	7057
872.656	7110
872.785	7251
872.915	7430
873.044	7548
873.173	7567
873.303	7609
873.432	7734
873.561	7856
873.69	7887
873.819	8050
873.948	8142
874.077	8248
874.206	8286
874.335	8473
874.464	8678
874.593	8853
874.722	8929
874.851	9108
874.979	9127
875.108	9340
875.237	9420
875.365	9458
875.494	9675
875.623	9747
875.751	9819
875.88	10040
876.008	10120
876.136	10333
876.265	10531
876.393	10577
876.521	10698
876.65	10858
876.778	10858
876.906	10915
877.034	10949
877.162	11117
877.29	11159
877.418	11223
877.546	11379
877.674	11455
877.802	11459
877.93	11532
878.058	11604
878.185	11592
878.313	11741
878.441	11707
878.568	11710
878.696	11866
878.824	11885
878.951	11912
879.079	11946
879.206	12155
879.333	12041
879.461	12049
879.588	12057
879.715	12129
879.842	12213
879.97	12060
880.097	11920
880.224	11950
880.351	11817
880.478	11851
880.605	11832
880.732	11783
880.859	11992
880.986	11786
881.112	11828
881.239	11786
881.366	11657
881.493	11619
881.619	11543
881.746	11547
881.872	11509
881.999	11512
882.125	11474
882.252	11581
882.378	11433
882.505	11528
882.631	11398
882.757	11201
882.883	11307
883.01	11239
883.136	11193
883.262	11105
883.388	11064
883.514	11280
883.64	11239
883.766	11109
883.892	11086
884.018	10987
884.143	11064
884.269	11109
884.395	10927
884.52	10797
884.646	10790
884.772	10767
884.897	10694
885.023	10729
885.148	10691
885.274	10755
885.399	10634
885.524	10660
885.65	10577
885.775	10531
885.9	10531
886.025	10588
886.15	10489
886.275	10432
886.4	10367
886.525	10398
886.65	10325
886.775	10341
886.9	10447
887.025	10573
887.149	10306
887.274	10242
887.399	10204
887.523	10219
887.648	10101
887.773	10135
887.897	10242
888.021	10253
888.146	10150
888.27	10276
888.395	10219
888.519	10200
888.643	10166
888.767	10200
888.891	10090
889.015	9991
889.139	10097
889.263	9945
889.387	10036
889.511	10143
889.635	10124
889.759	10010
889.883	9979
890.006	10029
890.13	10093
890.254	9960
890.377	9907
890.501	9842
890.624	9865
890.748	9915
890.871	9827
890.995	9778
891.118	9762
891.241	9778
891.364	9694
891.488	9838
891.611	9724
891.734	9778
891.857	9724
891.98	9682
892.103	9827
892.226	9671
892.349	9629
892.471	9511
892.594	9561
892.717	9538
892.839	9549
892.962	9614
893.085	9690
893.207	9549
893.33	9469
893.452	9485
893.575	9641
893.697	9466
893.819	9629
893.941	9644
894.064	9603
894.186	9435
894.308	9454
894.43	9534
894.552	9641
894.674	9500
894.796	9420
894.918	9420
895.04	9408
895.161	9420
895.283	9359
895.405	9214
895.526	9226
895.648	9256
895.769	9237
895.891	9264
896.012	9325
896.134	9184
896.255	9119
896.376	9157
896.498	9214
896.619	9142
896.74	9028
896.861	9093
896.982	9245
897.103	9302
897.224	9165
897.345	9089
897.466	9051
897.587	9085
897.708	9009
897.828	9020
897.949	8944
898.07	8887
898.19	8899
898.311	9001
898.431	8906
898.552	8937
898.672	8952
898.792	8944
898.913	8899
899.033	8773
899.153	8758
899.273	8674
899.393	8777
899.513	8785
899.633	8682
899.753	8693
899.873	8644
899.993	8731
900.113	8705
900.232	8720
900.352	8663
900.472	8651
900.591	8552
900.711	8587
900.83	8568
900.95	8705
901.069	8754
901.189	8602
901.308	8492
901.427	8408
901.546	8400
901.665	8415
901.784	8488
901.904	8370
902.023	8389
902.141	8282
902.26	8294
902.379	8301
902.498	8244
902.617	8225
902.735	8324
902.854	8256
902.973	8252
903.091	8142
903.21	8172
903.328	8199
903.446	8069
903.565	8115
903.683	8100
903.801	8073
903.919	8126
904.038	8134
904.156	7944
904.274	8043
904.392	8035
904.51	8054
904.627	8046
904.745	8058
904.863	8115
904.981	7997
905.098	7856
905.216	7860
905.334	7997
905.451	7856
905.569	7852
905.686	7963
905.803	7879
905.921	7742
906.038	7868
906.155	7845
906.272	7677
906.389	7712
906.506	7734
906.623	7651
906.74	7609
906.857	7578
906.974	7480
907.091	7628
907.208	7708
907.324	7571
907.441	7586
907.557	7384
907.674	7499
907.79	7419
907.907	7384
908.023	7457
908.139	7453
908.256	7407
908.372	7377
908.488	7396
908.604	7255
908.72	7206
908.836	7320
908.952	7168
909.068	7236
909.184	7274
909.3	7209
909.415	7282
909.531	7278
909.647	7114
909.762	7126
909.878	7061
909.993	7107
910.108	7065
910.224	7080
910.339	7103
910.454	7034
910.57	6993
910.685	6954
910.8	7114
910.915	7050
911.03	7050
911.145	6905
911.259	6913
911.374	6871
911.489	6882
911.604	6856
911.718	6738
911.833	6779
911.947	6623
912.062	6532
912.176	6654
912.291	6696
912.405	6700
912.519	6852
912.633	6886
912.748	6764
912.862	6722
912.976	6597
913.09	6506
913.204	6623
913.318	6616
913.431	6673
913.545	6677
913.659	6734
913.772	6650
913.886	6551
914	6589
914.113	6608
914.226	6681
914.34	6616
914.453	6498
914.566	6566
914.68	6551
914.793	6490
914.906	6445
915.019	6422
915.132	6346
915.245	6403
915.358	6498
915.47	6429
915.583	6479
915.696	6441
915.809	6540
915.921	6521
916.034	6395
916.146	6410
916.259	6384
916.371	6486
916.483	6475
916.595	6403
916.708	6414
916.82	6357
916.932	6365
917.044	6414
917.156	6388
917.268	6296
917.38	6300
917.491	6243
917.603	6372
917.715	6403
917.826	6403
917.938	6338
918.049	6292
918.161	6285
918.272	6410
918.384	6418
918.495	6388
918.606	6228
918.717	6194
918.828	6304
918.939	6266
919.05	6228
919.161	6194
919.272	6133
919.383	6136
919.494	6251
919.604	6429
919.715	6300
919.826	6167
919.936	6224
920.047	6300
920.157	6308
920.267	6399
920.378	6304
920.488	6323
920.598	6441
920.708	6559
920.818	6433
920.928	6528
921.038	6654
921.148	6547
921.258	6365
921.368	6254
921.477	6155
921.587	6194
921.697	6068
921.806	6171
921.916	6140
922.025	5984
922.134	5961
922.244	5927
922.353	5977
922.462	5870
922.571	5794
922.68	5653
922.789	5680
922.898	5718
923.007	5604
923.116	5688
923.224	5714
923.333	5718
923.442	5604
923.55	5547
923.659	5562
923.767	5653
923.876	5543
923.984	5611
924.092	5558
924.201	5630
924.309	5532
924.417	5535
924.525	5573
924.633	5528
924.741	6224
924.849	5410
924.956	5509
925.064	5360
925.172	5311
925.279	5254
925.387	5402
925.494	5322
925.602	5379
925.709	5402
925.816	5307
925.924	5311
926.031	5368
926.138	5299
926.245	5318
926.352	5178
926.459	5311
926.566	5311
926.673	5250
926.779	5162
926.886	5155
926.993	4995
927.099	5006
927.206	5003
927.312	4927
927.419	4987
927.525	5025
927.631	5048
927.737	4870
927.843	4866
927.95	4797
928.056	4809
928.162	4847
928.267	4862
928.373	5387
928.479	4831
928.585	4668
928.69	4790
928.796	4809
928.901	4721
929.007	4577
929.112	4649
929.218	4645
929.323	4649
929.428	4630
929.533	4672
929.638	4500
929.743	4561
929.848	4546
929.953	4508
930.058	4440
930.163	4333
930.267	4322
930.372	4447
930.477	4341
930.581	4451
930.685	4356
930.79	4257
930.894	4333
930.998	4257
931.103	4390
931.207	4139
931.311	4074
931.415	4013
931.519	3907
931.623	3987
