Data from glass_V78500241_2642.txt Node
Date: Wed Sep 01 19:32:48 CST 2021
User: usil
Spectrometer: V785-0024
Trigger mode: 0
Integration Time (sec): 4.000000E-1
Scans to average: 1
Nonlinearity correction enabled: false
Boxcar width: 0
Storing dark spectrum: false
XAxis mode: Wavelengths
Number of Pixels in Spectrum: 1024
>>>>>Begin Spectral Data<<<<<
801.071	3751
801.214	3728
801.356	3667
801.499	3720
801.641	3698
801.783	3751
801.926	3884
802.068	3816
802.211	3846
802.353	3865
802.496	3884
802.638	3838
802.78	3884
802.923	3922
803.065	3896
803.208	3846
803.35	3876
803.492	3892
803.635	3880
803.777	3789
803.919	3926
804.061	4116
804.204	3968
804.346	3934
804.488	3934
804.63	4002
804.773	3926
804.915	4002
805.057	4128
805.199	4040
805.341	4078
805.483	4090
805.626	4116
805.768	4166
805.91	4169
806.052	4242
806.194	4158
806.336	4303
806.478	4200
806.62	4188
806.762	4215
806.904	4207
807.046	4348
807.188	4223
807.33	4215
807.472	4223
807.614	4173
807.756	4284
807.898	4200
808.04	4223
808.182	4291
808.324	4329
808.465	4379
808.607	4451
808.749	4440
808.891	4451
809.033	4516
809.174	4402
809.316	4200
809.458	4261
809.6	4135
809.741	4109
809.883	4131
810.025	4181
810.166	4177
810.308	4147
810.45	4207
810.591	4227
810.733	4268
810.875	4493
811.016	4771
811.158	5143
811.299	5261
811.441	5261
811.582	5060
811.724	4691
811.865	4485
812.007	4504
812.148	4443
812.29	4417
812.431	4405
812.573	4379
812.714	4367
812.855	4413
812.997	4409
813.138	4478
813.279	4394
813.421	4363
813.562	4341
813.703	4318
813.845	4299
813.986	4265
814.127	4223
814.268	4234
814.41	4265
814.551	4261
814.692	4299
814.833	4249
814.974	4272
815.115	4314
815.256	4181
815.397	4227
815.539	4249
815.68	4204
815.821	4204
815.962	4306
816.103	4291
816.244	4223
816.385	4227
816.526	4257
816.666	4227
816.807	4109
816.948	4181
817.089	4154
817.23	4116
817.371	4071
817.512	4074
817.653	4059
817.793	4044
817.934	4048
818.075	4067
818.216	4029
818.356	4086
818.497	4002
818.638	3907
818.778	3896
818.919	3869
819.06	3857
819.2	3861
819.341	3884
819.481	3819
819.622	3888
819.762	4013
819.903	3934
820.043	3827
820.184	3812
820.324	3846
820.465	3854
820.605	3808
820.746	3857
820.886	3800
821.026	3934
821.167	3876
821.307	3972
821.447	3953
821.588	3926
821.728	3926
821.868	3960
822.008	3857
822.149	3934
822.289	3896
822.429	3774
822.569	3781
822.709	3766
822.849	3682
822.99	3694
823.13	3732
823.27	3816
823.41	3720
823.55	3724
823.69	3694
823.83	3743
823.97	3671
824.11	3587
824.25	3572
824.389	3633
824.529	3667
824.669	3606
824.809	3701
824.949	3759
825.089	3720
825.228	3694
825.368	3576
825.508	3553
825.648	3545
825.787	3587
825.927	3625
826.067	3599
826.206	3648
826.346	3774
826.485	3819
826.625	3892
826.765	3911
826.904	3793
827.044	3603
827.183	3526
827.323	3435
827.462	3492
827.601	3397
827.741	3382
827.88	3458
828.02	3424
828.159	3431
828.298	3462
828.437	3507
828.577	3454
828.716	3614
828.855	3492
828.994	3393
829.134	3344
829.273	3382
829.412	3363
829.551	3321
829.69	3374
829.829	3428
829.968	3462
830.107	3443
830.246	3393
830.385	3332
830.524	3313
830.663	3302
830.802	3275
830.941	3161
831.08	3169
831.219	3241
831.357	3268
831.496	3389
831.635	3214
831.774	3180
831.913	3180
832.051	3093
832.19	3138
832.329	3207
832.467	3108
832.606	3058
832.744	3184
832.883	3188
833.022	3176
833.16	3237
833.299	3279
833.437	3321
833.576	3367
833.714	3378
833.852	3412
833.991	3431
834.129	3466
834.267	3428
834.406	3397
834.544	3428
834.682	3374
834.821	3435
834.959	3530
835.097	3416
835.235	3526
835.373	3500
835.511	3504
835.65	3466
835.788	3466
835.926	3348
836.064	3370
836.202	3393
836.34	3587
836.478	3599
836.615	3523
836.753	3614
836.891	3599
837.029	3561
837.167	3584
837.305	3587
837.443	3507
837.58	3500
837.718	3603
837.856	3504
837.993	3515
838.131	3561
838.269	3572
838.406	3523
838.544	3564
838.681	3420
838.819	3439
838.956	3355
839.094	3367
839.231	3428
839.369	3500
839.506	3709
839.643	3629
839.781	3477
839.918	3435
840.055	3488
840.193	3504
840.33	3534
840.467	3538
840.604	3595
840.742	3774
840.879	3564
841.016	3576
841.153	3561
841.29	3759
841.427	3705
841.564	3713
841.701	3770
841.838	3698
841.975	3675
842.112	3717
842.249	3625
842.385	3667
842.522	3812
842.659	3629
842.796	3637
842.933	3709
843.069	3682
843.206	3675
843.343	3819
843.479	3751
843.616	3789
843.752	3656
843.889	3732
844.025	3800
844.162	3713
844.298	3827
844.435	3759
844.571	3740
844.708	3903
844.844	3941
844.98	4017
845.117	3975
845.253	3850
845.389	3876
845.525	3964
845.661	3956
845.798	3949
845.934	4017
846.07	3956
846.206	4029
846.342	4109
846.478	4097
846.614	3953
846.75	3937
846.886	3869
847.022	3991
847.158	3979
847.294	4025
847.429	3979
847.565	3994
847.701	4181
847.837	3892
847.972	3823
848.108	3960
848.244	3983
848.379	3808
848.515	3797
848.65	3808
848.786	3831
848.921	3838
849.057	3880
849.192	3918
849.328	3930
849.463	3934
849.598	3873
849.734	3846
849.869	3797
850.004	3789
850.14	3831
850.275	3793
850.41	3724
850.545	3759
850.68	3751
850.815	3751
850.95	3751
851.085	3949
851.22	3819
851.355	3781
851.49	3778
851.625	3751
851.76	3793
851.895	3728
852.03	3740
852.165	3800
852.299	3838
852.434	3884
852.569	3816
852.703	3873
852.838	3972
852.973	3979
853.107	3968
853.242	3865
853.376	3854
853.511	3785
853.645	3827
853.78	3975
853.914	3869
854.048	3854
854.183	3869
854.317	3911
854.451	3998
854.585	3941
854.72	3941
854.854	4036
854.988	3896
855.122	3979
855.256	3903
855.39	4021
855.524	4067
855.658	4074
855.792	4101
855.926	4124
856.06	4154
856.194	4185
856.327	4139
856.461	4105
856.595	4116
856.729	4177
856.862	4268
856.996	4249
857.13	4314
857.263	4322
857.397	4318
857.53	4223
857.664	4318
857.797	4413
857.931	4383
858.064	4341
858.197	4421
858.331	4367
858.464	4398
858.597	4333
858.731	4451
858.864	4402
858.997	4462
859.13	4493
859.263	4527
859.396	4561
859.529	4508
859.662	4550
859.795	4497
859.928	4592
860.061	4710
860.194	4755
860.327	4622
860.46	4656
860.592	4725
860.725	4736
860.858	4767
860.99	4656
861.123	4687
861.256	4710
861.388	4805
861.521	5235
861.653	4698
861.786	4649
861.918	4725
862.05	4778
862.183	4831
862.315	4862
862.447	4927
862.58	4824
862.712	4816
862.844	4797
862.976	4892
863.108	4866
863.24	5220
863.372	4805
863.504	4881
863.636	4877
863.768	4949
863.9	4972
864.032	4904
864.164	4949
864.296	5025
864.428	5045
864.559	5128
864.691	5067
864.823	5128
864.954	5128
865.086	5102
865.217	5136
865.349	5079
865.48	5178
865.612	5178
865.743	5261
865.875	5109
866.006	5239
866.137	5159
866.269	5242
866.4	5231
866.531	5223
866.662	5216
866.793	5315
866.924	5265
867.055	5353
867.186	5296
867.317	5292
867.448	5326
867.579	5376
867.71	5398
867.841	5357
867.972	5402
868.103	5471
868.233	5429
868.364	5455
868.495	5581
868.625	5649
868.756	5771
868.886	5707
869.017	5726
869.147	5828
869.278	5882
869.408	5729
869.539	5802
869.669	5931
869.799	5870
869.929	5942
870.06	5980
870.19	6171
870.32	6144
870.45	6285
870.58	6327
870.71	6388
870.84	6399
870.97	6369
871.1	6479
871.23	6635
871.36	6642
871.489	6608
871.619	6711
871.749	6760
871.879	6833
872.008	6981
872.138	6943
872.267	6977
872.397	6947
872.526	7023
872.656	7072
872.785	7164
872.915	7362
873.044	7495
873.173	7506
873.303	7689
873.432	7734
873.561	7845
873.69	7928
873.819	8046
873.948	8210
874.077	8199
874.206	8267
874.335	8507
874.464	8613
874.593	8872
874.722	8823
874.851	9142
874.979	9275
875.108	9378
875.237	9393
875.365	9405
875.494	9614
875.623	9880
875.751	9846
875.88	9960
876.008	10150
876.136	10322
876.265	10538
876.393	10774
876.521	10736
876.65	10694
876.778	10854
876.906	10854
877.034	10984
877.162	11090
877.29	11178
877.418	11307
877.546	11307
877.674	11440
877.802	11512
877.93	11509
878.058	11577
878.185	11623
878.313	11600
878.441	11726
878.568	11688
878.696	11813
878.824	11828
878.951	11889
879.079	12011
879.206	12175
879.333	12091
879.461	11999
879.588	11954
879.715	12076
879.842	12273
879.97	12110
880.097	11805
880.224	11817
880.351	11935
880.478	11847
880.605	11851
880.732	11786
880.859	11992
880.986	11707
881.112	11805
881.239	11684
881.366	11665
881.493	11566
881.619	11547
881.746	11596
881.872	11532
881.999	11440
882.125	11505
882.252	11570
882.378	11505
882.505	11577
882.631	11299
882.757	11254
882.883	11307
883.01	11299
883.136	11162
883.262	11155
883.388	11147
883.514	11109
883.64	11231
883.766	11060
883.892	11014
884.018	10896
884.143	11052
884.269	11185
884.395	10835
884.52	10809
884.646	10672
884.772	10717
884.897	10596
885.023	10729
885.148	10710
885.274	10774
885.399	10714
885.524	10622
885.65	10634
885.775	10607
885.9	10573
886.025	10516
886.15	10558
886.275	10485
886.4	10436
886.525	10394
886.65	10481
886.775	10363
886.9	10470
887.025	10535
887.149	10322
887.274	10207
887.399	10143
887.523	10192
887.648	10181
887.773	10116
887.897	10238
888.021	10207
888.146	10086
888.27	10169
888.395	10200
888.519	10204
888.643	10101
888.767	10192
888.891	10082
889.015	9994
889.139	10002
889.263	9987
889.387	10029
889.511	10029
889.635	10074
889.759	10006
889.883	10040
890.006	9994
890.13	10124
890.254	9895
890.377	9922
890.501	9823
890.624	9800
890.748	9876
890.871	9835
890.995	9751
891.118	9774
891.241	9720
891.364	9701
891.488	9873
891.611	9656
891.734	9709
891.857	9762
891.98	9736
892.103	9724
892.226	9743
892.349	9705
892.471	9534
892.594	9614
892.717	9572
892.839	9682
892.962	9584
893.085	9656
893.207	9610
893.33	9485
893.452	9549
893.575	9622
893.697	9485
893.819	9633
893.941	9606
894.064	9637
894.186	9420
894.308	9397
894.43	9485
894.552	9542
894.674	9523
894.796	9321
894.918	9367
895.04	9416
895.161	9363
895.283	9336
895.405	9306
895.526	9279
895.648	9264
895.769	9249
895.891	9199
896.012	9275
896.134	9203
896.255	9192
896.376	9104
896.498	9085
896.619	9116
896.74	9036
896.861	9154
896.982	9173
897.103	9332
897.224	9131
897.345	9077
897.466	8994
897.587	9009
897.708	9138
897.828	9028
897.949	8975
898.07	8868
898.19	8906
898.311	8944
898.431	8925
898.552	8899
898.672	8971
898.792	8910
898.913	8887
899.033	8823
899.153	8739
899.273	8670
899.393	8716
899.513	8766
899.633	8785
899.753	8739
899.873	8762
899.993	8743
900.113	8674
900.232	8701
900.352	8606
900.472	8651
900.591	8511
900.711	8571
900.83	8533
900.95	8663
901.069	8705
901.189	8526
901.308	8450
901.427	8336
901.546	8469
901.665	8412
901.784	8415
901.904	8358
902.023	8263
902.141	8221
902.26	8195
902.379	8267
902.498	8218
902.617	8237
902.735	8248
902.854	8286
902.973	8244
903.091	8134
903.21	8134
903.328	8229
903.446	8115
903.565	7986
903.683	8031
903.801	8035
903.919	8096
904.038	8088
904.156	8039
904.274	8008
904.392	8016
904.51	7967
904.627	8035
904.745	8107
904.863	8012
904.981	7898
905.098	7833
905.216	7837
905.334	7917
905.451	7868
905.569	7841
905.686	7959
905.803	7925
905.921	7788
906.038	7860
906.155	7784
906.272	7753
906.389	7712
906.506	7624
906.623	7586
906.74	7597
906.857	7544
906.974	7594
907.091	7681
907.208	7723
907.324	7636
907.441	7578
907.557	7457
907.674	7407
907.79	7407
907.907	7388
908.023	7434
908.139	7430
908.256	7403
908.372	7350
908.488	7282
908.604	7255
908.72	7209
908.836	7263
908.952	7320
909.068	7305
909.184	7285
909.3	7266
909.415	7274
909.531	7251
909.647	7122
909.762	7053
909.878	7046
909.993	7042
910.108	7050
910.224	7069
910.339	7080
910.454	6989
910.57	6985
910.685	6913
910.8	7137
910.915	7046
911.03	7004
911.145	6920
911.259	6837
911.374	6863
911.489	6821
911.604	6776
911.718	6707
911.833	6787
911.947	6650
912.062	6612
912.176	6700
912.291	6677
912.405	6677
912.519	6802
912.633	6867
912.748	6726
912.862	6658
912.976	6582
913.09	6532
913.204	6612
913.318	6627
913.431	6684
913.545	6673
913.659	6639
913.772	6631
913.886	6608
914	6486
914.113	6620
914.226	6593
914.34	6528
914.453	6509
914.566	6525
914.68	6532
914.793	6479
914.906	6346
915.019	6353
915.132	6429
915.245	6433
915.358	6418
915.47	6456
915.583	6414
915.696	6410
915.809	6509
915.921	6502
916.034	6456
916.146	6429
916.259	6365
916.371	6460
916.483	6490
916.595	6399
916.708	6433
916.82	6388
916.932	6365
917.044	6357
917.156	6426
917.268	6270
917.38	6300
917.491	6296
917.603	6357
917.715	6441
917.826	6441
917.938	6334
918.049	6216
918.161	6346
918.272	6357
918.384	6365
918.495	6369
918.606	6228
918.717	6197
918.828	6277
918.939	6285
919.05	6220
919.161	6254
919.272	6121
919.383	6098
919.494	6296
919.604	6426
919.715	6277
919.826	6262
919.936	6285
920.047	6323
920.157	6224
920.267	6441
920.378	6311
920.488	6311
920.598	6475
920.708	6509
920.818	6490
920.928	6426
921.038	6601
921.148	6540
921.258	6334
921.368	6262
921.477	6270
921.587	6140
921.697	6053
921.806	6182
921.916	6049
922.025	5935
922.134	5927
922.244	5847
922.353	5980
922.462	5859
922.571	5794
922.68	5688
922.789	5623
922.898	5707
923.007	5646
923.116	5672
923.224	5703
923.333	5672
923.442	5634
923.55	5585
923.659	5573
923.767	5619
923.876	5497
923.984	5592
924.092	5497
924.201	5570
924.309	5520
924.417	5516
924.525	5490
924.633	5501
924.741	6254
924.849	5357
924.956	5398
925.064	5311
925.172	5330
925.279	5307
925.387	5337
925.494	5391
925.602	5425
925.709	5349
925.816	5273
925.924	5326
926.031	5334
926.138	5307
926.245	5292
926.352	5216
926.459	5330
926.566	5307
926.673	5227
926.779	5181
926.886	5143
926.993	5060
927.099	4968
927.206	4968
927.312	4942
927.419	5022
927.525	4980
927.631	4942
927.737	4892
927.843	4858
927.95	4782
928.056	4873
928.162	4839
928.267	4889
928.373	5311
928.479	4831
928.585	4664
928.69	4702
928.796	4771
928.901	4656
929.007	4535
929.112	4649
929.218	4634
929.323	4592
929.428	4550
929.533	4691
929.638	4516
929.743	4542
929.848	4535
929.953	4527
930.058	4485
930.163	4333
930.267	4276
930.372	4466
930.477	4268
930.581	4459
930.685	4322
930.79	4215
930.894	4291
930.998	4211
931.103	4356
931.207	4112
931.311	4086
931.415	4032
931.519	3884
931.623	3934
