Data from glass_V78500241_2555.txt Node
Date: Wed Sep 01 19:32:12 CST 2021
User: usil
Spectrometer: V785-0024
Trigger mode: 0
Integration Time (sec): 4.000000E-1
Scans to average: 1
Nonlinearity correction enabled: false
Boxcar width: 0
Storing dark spectrum: false
XAxis mode: Wavelengths
Number of Pixels in Spectrum: 1024
>>>>>Begin Spectral Data<<<<<
801.071	3747
801.214	3766
801.356	3690
801.499	3736
801.641	3728
801.783	3751
801.926	3804
802.068	3869
802.211	3854
802.353	3865
802.496	3812
802.638	3876
802.78	3884
802.923	3934
803.065	3838
803.208	3823
803.35	3842
803.492	3911
803.635	3918
803.777	3800
803.919	3873
804.061	4120
804.204	3922
804.346	3956
804.488	3880
804.63	4067
804.773	3979
804.915	4006
805.057	4093
805.199	4071
805.341	4090
805.483	4135
805.626	4147
805.768	4139
805.91	4238
806.052	4188
806.194	4207
806.336	4306
806.478	4196
806.62	4234
806.762	4188
806.904	4261
807.046	4310
807.188	4166
807.33	4135
807.472	4207
807.614	4162
807.756	4227
807.898	4181
808.04	4234
808.182	4265
808.324	4329
808.465	4337
808.607	4451
808.749	4451
808.891	4402
809.033	4447
809.174	4394
809.316	4265
809.458	4242
809.6	4109
809.741	4128
809.883	4128
810.025	4162
810.166	4188
810.308	4223
810.45	4272
810.591	4188
810.733	4276
810.875	4478
811.016	4809
811.158	5086
811.299	5212
811.441	5280
811.582	5075
811.724	4721
811.865	4421
812.007	4409
812.148	4417
812.29	4424
812.431	4424
812.573	4390
812.714	4398
812.855	4390
812.997	4405
813.138	4516
813.279	4428
813.421	4390
813.562	4333
813.703	4291
813.845	4325
813.986	4192
814.127	4230
814.268	4268
814.41	4318
814.551	4223
814.692	4318
814.833	4280
814.974	4272
815.115	4363
815.256	4257
815.397	4230
815.539	4284
815.68	4169
815.821	4204
815.962	4329
816.103	4268
816.244	4253
816.385	4207
816.526	4310
816.666	4223
816.807	4067
816.948	4204
817.089	4219
817.23	4086
817.371	4051
817.512	4055
817.653	4063
817.793	4010
817.934	3994
818.075	4135
818.216	4063
818.356	4063
818.497	3998
818.638	3926
818.778	3899
818.919	3884
819.06	3831
819.2	3899
819.341	3857
819.481	3835
819.622	3861
819.762	3994
819.903	3926
820.043	3861
820.184	3838
820.324	3846
820.465	3888
820.605	3857
820.746	3865
820.886	3778
821.026	3930
821.167	3865
821.307	3956
821.447	3964
821.588	3953
821.728	3960
821.868	3903
822.008	3880
822.149	3865
822.289	3884
822.429	3789
822.569	3762
822.709	3816
822.849	3686
822.99	3736
823.13	3736
823.27	3766
823.41	3717
823.55	3713
823.69	3705
823.83	3713
823.97	3656
824.11	3587
824.25	3557
824.389	3637
824.529	3656
824.669	3572
824.809	3671
824.949	3743
825.089	3724
825.228	3720
825.368	3557
825.508	3526
825.648	3587
825.787	3622
825.927	3622
826.067	3610
826.206	3648
826.346	3808
826.485	3812
826.625	3850
826.765	3918
826.904	3781
827.044	3618
827.183	3511
827.323	3420
827.462	3469
827.601	3443
827.741	3382
827.88	3473
828.02	3367
828.159	3428
828.298	3431
828.437	3504
828.577	3500
828.716	3572
828.855	3473
828.994	3363
829.134	3389
829.273	3409
829.412	3351
829.551	3310
829.69	3363
829.829	3355
829.968	3485
830.107	3469
830.246	3454
830.385	3306
830.524	3355
830.663	3279
830.802	3249
830.941	3245
831.08	3188
831.219	3260
831.357	3256
831.496	3428
831.635	3237
831.774	3154
831.913	3207
832.051	3127
832.19	3123
832.329	3176
832.467	3142
832.606	3104
832.744	3142
832.883	3173
833.022	3195
833.16	3237
833.299	3306
833.437	3329
833.576	3370
833.714	3363
833.852	3397
833.991	3431
834.129	3431
834.267	3424
834.406	3401
834.544	3454
834.682	3378
834.821	3428
834.959	3545
835.097	3454
835.235	3519
835.373	3485
835.511	3466
835.65	3450
835.788	3454
835.926	3374
836.064	3382
836.202	3428
836.34	3580
836.478	3545
836.615	3526
836.753	3568
836.891	3641
837.029	3637
837.167	3606
837.305	3557
837.443	3526
837.58	3488
837.718	3538
837.856	3515
837.993	3530
838.131	3587
838.269	3542
838.406	3568
838.544	3603
838.681	3458
838.819	3416
838.956	3340
839.094	3370
839.231	3473
839.369	3462
839.506	3720
839.643	3587
839.781	3443
839.918	3428
840.055	3530
840.193	3553
840.33	3507
840.467	3557
840.604	3603
840.742	3755
840.879	3526
841.016	3553
841.153	3625
841.29	3743
841.427	3713
841.564	3694
841.701	3762
841.838	3671
841.975	3701
842.112	3705
842.249	3656
842.385	3625
842.522	3827
842.659	3671
842.796	3701
842.933	3663
843.069	3686
843.206	3660
843.343	3861
843.479	3713
843.616	3804
843.752	3690
843.889	3652
844.025	3842
844.162	3690
844.298	3835
844.435	3804
844.571	3781
844.708	3854
844.844	3941
844.98	4002
845.117	4010
845.253	3911
845.389	3884
845.525	3937
845.661	3941
845.798	3956
845.934	3968
846.07	3994
846.206	4040
846.342	4112
846.478	4021
846.614	3975
846.75	3907
846.886	3896
847.022	3987
847.158	3953
847.294	3979
847.429	4021
847.565	4021
847.701	4230
847.837	3850
847.972	3873
848.108	3960
848.244	3941
848.379	3873
848.515	3857
848.65	3842
848.786	3838
848.921	3842
849.057	3876
849.192	3918
849.328	3903
849.463	3876
849.598	3861
849.734	3857
849.869	3812
850.004	3770
850.14	3793
850.275	3781
850.41	3694
850.545	3751
850.68	3724
850.815	3789
850.95	3755
851.085	3941
851.22	3816
851.355	3827
851.49	3789
851.625	3785
851.76	3743
851.895	3770
852.03	3686
852.165	3800
852.299	3789
852.434	3876
852.569	3823
852.703	3857
852.838	3941
852.973	3979
853.107	3968
853.242	3892
853.376	3861
853.511	3785
853.645	3838
853.78	3968
853.914	3892
854.048	3865
854.183	3911
854.317	3918
854.451	4055
854.585	3937
854.72	3945
854.854	4040
854.988	3941
855.122	4032
855.256	3907
855.39	3975
855.524	4063
855.658	4112
855.792	4078
855.926	4082
856.06	4124
856.194	4211
856.327	4101
856.461	4112
856.595	4215
856.729	4154
856.862	4257
856.996	4215
857.13	4329
857.263	4306
857.397	4371
857.53	4291
857.664	4306
857.797	4383
857.931	4417
858.064	4360
858.197	4436
858.331	4363
858.464	4379
858.597	4325
858.731	4394
858.864	4470
858.997	4466
859.13	4470
859.263	4470
859.396	4569
859.529	4527
859.662	4550
859.795	4527
859.928	4569
860.061	4748
860.194	4691
860.327	4672
860.46	4634
860.592	4706
860.725	4752
860.858	4797
860.99	4672
861.123	4702
861.256	4679
861.388	4778
861.521	5417
861.653	4687
861.786	4733
861.918	4698
862.05	4782
862.183	4847
862.315	4923
862.447	4938
862.58	4854
862.712	4759
862.844	4740
862.976	4885
863.108	4870
863.24	5162
863.372	4801
863.504	4923
863.636	4858
863.768	4919
863.9	4976
864.032	4946
864.164	4961
864.296	5014
864.428	5060
864.559	5086
864.691	5105
864.823	5102
864.954	5117
865.086	5102
865.217	5109
865.349	5159
865.48	5140
865.612	5227
865.743	5326
865.875	5185
866.006	5197
866.137	5212
866.269	5220
866.4	5235
866.531	5223
866.662	5220
866.793	5273
866.924	5273
867.055	5303
867.186	5318
867.317	5330
867.448	5280
867.579	5391
867.71	5353
867.841	5364
867.972	5414
868.103	5471
868.233	5440
868.364	5516
868.495	5547
868.625	5695
868.756	5786
868.886	5596
869.017	5710
869.147	5844
869.278	5863
869.408	5824
869.539	5821
869.669	5866
869.799	5927
869.929	5999
870.06	6038
870.19	6194
870.32	6144
870.45	6289
870.58	6327
870.71	6410
870.84	6525
870.97	6414
871.1	6403
871.23	6673
871.36	6715
871.489	6662
871.619	6760
871.749	6802
871.879	6852
872.008	6920
872.138	6977
872.267	7000
872.397	6954
872.526	6981
872.656	7095
872.785	7141
872.915	7331
873.044	7537
873.173	7571
873.303	7651
873.432	7727
873.561	7875
873.69	7955
873.819	8008
873.948	8123
874.077	8229
874.206	8309
874.335	8465
874.464	8689
874.593	8872
874.722	8918
874.851	9142
874.979	9207
875.108	9325
875.237	9389
875.365	9458
875.494	9591
875.623	9804
875.751	9755
875.88	10067
876.008	10173
876.136	10253
876.265	10569
876.393	10740
876.521	10763
876.65	10873
876.778	10801
876.906	10942
877.034	11025
877.162	11064
877.29	11166
877.418	11181
877.546	11326
877.674	11379
877.802	11471
877.93	11497
878.058	11543
878.185	11634
878.313	11589
878.441	11783
878.568	11657
878.696	11863
878.824	11813
878.951	11916
879.079	12022
879.206	12064
879.333	12034
879.461	11988
879.588	12007
879.715	12095
879.842	12213
879.97	12022
880.097	11901
880.224	11832
880.351	11855
880.478	11889
880.605	11779
880.732	11908
880.859	11999
880.986	11851
881.112	11767
881.239	11779
881.366	11707
881.493	11604
881.619	11535
881.746	11611
881.872	11505
881.999	11589
882.125	11417
882.252	11467
882.378	11543
882.505	11547
882.631	11349
882.757	11265
882.883	11307
883.01	11273
883.136	11181
883.262	11109
883.388	11083
883.514	11140
883.64	11212
883.766	11083
883.892	11003
884.018	11029
884.143	11105
884.269	11105
884.395	10771
884.52	10805
884.646	10816
884.772	10664
884.897	10717
885.023	10725
885.148	10694
885.274	10793
885.399	10714
885.524	10561
885.65	10565
885.775	10523
885.9	10512
886.025	10649
886.15	10535
886.275	10485
886.4	10394
886.525	10344
886.65	10428
886.775	10314
886.9	10519
887.025	10531
887.149	10371
887.274	10215
887.399	10150
887.523	10181
887.648	10234
887.773	10124
887.897	10234
888.021	10238
888.146	10181
888.27	10204
888.395	10162
888.519	10169
888.643	10147
888.767	10268
888.891	10082
889.015	9953
889.139	10006
889.263	9918
889.387	10055
889.511	10059
889.635	10101
889.759	9941
889.883	9945
890.006	10032
890.13	10101
890.254	9987
890.377	9937
890.501	9804
890.624	9895
890.748	9846
890.871	9766
890.995	9720
891.118	9690
891.241	9717
891.364	9770
891.488	9793
891.611	9682
891.734	9804
891.857	9797
891.98	9701
892.103	9789
892.226	9720
892.349	9724
892.471	9412
892.594	9629
892.717	9667
892.839	9656
892.962	9625
893.085	9629
893.207	9595
893.33	9443
893.452	9492
893.575	9587
893.697	9488
893.819	9530
893.941	9534
894.064	9614
894.186	9431
894.308	9393
894.43	9435
894.552	9576
894.674	9435
894.796	9363
894.918	9386
895.04	9336
895.161	9408
895.283	9332
895.405	9245
895.526	9249
895.648	9272
895.769	9298
895.891	9222
896.012	9237
896.134	9264
896.255	9176
896.376	9077
896.498	9081
896.619	9127
896.74	9055
896.861	9085
896.982	9298
897.103	9317
897.224	9192
897.345	9077
897.466	9024
897.587	9017
897.708	9077
897.828	9089
897.949	8933
898.07	8861
898.19	8975
898.311	9032
898.431	8910
898.552	8963
898.672	8975
898.792	8994
898.913	8906
899.033	8777
899.153	8746
899.273	8644
899.393	8689
899.513	8731
899.633	8811
899.753	8708
899.873	8655
899.993	8689
900.113	8735
900.232	8708
900.352	8697
900.472	8564
900.591	8511
900.711	8621
900.83	8583
900.95	8632
901.069	8697
901.189	8556
901.308	8389
901.427	8366
901.546	8366
901.665	8469
901.784	8473
901.904	8374
902.023	8332
902.141	8187
902.26	8183
902.379	8225
902.498	8233
902.617	8290
902.735	8301
902.854	8267
902.973	8244
903.091	8119
903.21	8123
903.328	8145
903.446	8050
903.565	8088
903.683	8081
903.801	8073
903.919	8126
904.038	8107
904.156	8020
904.274	8062
904.392	7986
904.51	8001
904.627	8043
904.745	8069
904.863	8073
904.981	7913
905.098	7868
905.216	7833
905.334	7849
905.451	7860
905.569	7871
905.686	7913
905.803	7936
905.921	7761
906.038	7845
906.155	7750
906.272	7712
906.389	7704
906.506	7636
906.623	7620
906.74	7681
906.857	7445
906.974	7567
907.091	7636
907.208	7715
907.324	7605
907.441	7605
907.557	7373
907.674	7487
907.79	7377
907.907	7407
908.023	7460
908.139	7407
908.256	7327
908.372	7377
908.488	7381
908.604	7225
908.72	7263
908.836	7244
908.952	7213
909.068	7244
909.184	7259
909.3	7225
909.415	7316
909.531	7282
909.647	7164
909.762	7122
909.878	7061
909.993	7053
910.108	7042
910.224	7069
910.339	7072
910.454	7031
910.57	7008
910.685	6924
910.8	7141
910.915	7145
911.03	7023
911.145	6913
911.259	6856
911.374	6852
911.489	6833
911.604	6791
911.718	6707
911.833	6749
911.947	6612
912.062	6601
912.176	6719
912.291	6722
912.405	6707
912.519	6837
912.633	6810
912.748	6772
912.862	6650
912.976	6620
913.09	6582
913.204	6547
913.318	6601
913.431	6673
913.545	6669
913.659	6703
913.772	6688
913.886	6551
914	6525
914.113	6654
914.226	6669
914.34	6566
914.453	6498
914.566	6589
914.68	6498
914.793	6486
914.906	6361
915.019	6376
915.132	6376
915.245	6410
915.358	6376
915.47	6479
915.583	6445
915.696	6498
915.809	6464
915.921	6563
916.034	6376
916.146	6426
916.259	6338
916.371	6483
916.483	6445
916.595	6353
916.708	6365
916.82	6350
916.932	6353
917.044	6407
917.156	6407
917.268	6353
917.38	6334
917.491	6365
917.603	6281
917.715	6308
917.826	6334
917.938	6311
918.049	6258
918.161	6315
918.272	6467
918.384	6475
918.495	6311
918.606	6228
918.717	6209
918.828	6262
918.939	6270
919.05	6197
919.161	6262
919.272	6140
919.383	6155
919.494	6277
919.604	6388
919.715	6224
919.826	6224
919.936	6262
920.047	6289
920.157	6327
920.267	6391
920.378	6342
920.488	6311
920.598	6486
920.708	6570
920.818	6372
920.928	6490
921.038	6559
921.148	6521
921.258	6350
921.368	6273
921.477	6273
921.587	6201
921.697	6068
921.806	6220
921.916	6068
922.025	5912
922.134	5939
922.244	5874
922.353	5904
922.462	5790
922.571	5828
922.68	5634
922.789	5691
922.898	5714
923.007	5676
923.116	5714
923.224	5661
923.333	5668
923.442	5570
923.55	5589
923.659	5600
923.767	5592
923.876	5524
923.984	5535
924.092	5497
924.201	5570
924.309	5573
924.417	5516
924.525	5463
924.633	5497
924.741	6194
924.849	5353
924.956	5452
925.064	5341
925.172	5303
925.279	5288
925.387	5372
925.494	5322
925.602	5425
925.709	5376
925.816	5341
925.924	5307
926.031	5326
926.138	5280
926.245	5307
926.352	5227
926.459	5307
926.566	5345
926.673	5170
926.779	5170
926.886	5109
926.993	4980
927.099	5041
927.206	4987
927.312	4953
927.419	4995
927.525	4946
927.631	4972
927.737	4870
927.843	4824
927.95	4755
928.056	4835
928.162	4839
928.267	4904
928.373	5258
928.479	4816
928.585	4672
928.69	4809
928.796	4679
928.901	4675
929.007	4588
929.112	4687
929.218	4637
929.323	4588
929.428	4527
929.533	4626
929.638	4500
929.743	4542
929.848	4569
929.953	4516
930.058	4443
930.163	4337
930.267	4348
930.372	4440
930.477	4291
930.581	4489
930.685	4325
930.79	4314
930.894	4238
930.998	4227
931.103	4371
931.207	4150
931.311	4021
931.415	4067
931.519	3915
931.623	3907
