Data from glass_V78500241_2453.txt Node
Date: Wed Sep 01 19:31:30 CST 2021
User: usil
Spectrometer: V785-0024
Trigger mode: 0
Integration Time (sec): 4.000000E-1
Scans to average: 1
Nonlinearity correction enabled: false
Boxcar width: 0
Storing dark spectrum: false
XAxis mode: Wavelengths
Number of Pixels in Spectrum: 1024
>>>>>Begin Spectral Data<<<<<
801.071	3717
801.214	3747
801.356	3713
801.499	3766
801.641	3747
801.783	3762
801.926	3873
802.068	3804
802.211	3819
802.353	3861
802.496	3857
802.638	3873
802.78	3876
802.923	3926
803.065	3865
803.208	3816
803.35	3831
803.492	3861
803.635	3880
803.777	3838
803.919	3846
804.061	4147
804.204	3987
804.346	3956
804.488	3930
804.63	4006
804.773	3983
804.915	4040
805.057	4150
805.199	3998
805.341	4055
805.483	4124
805.626	4116
805.768	4109
805.91	4166
806.052	4177
806.194	4215
806.336	4337
806.478	4242
806.62	4166
806.762	4196
806.904	4234
807.046	4299
807.188	4219
807.33	4143
807.472	4295
807.614	4169
807.756	4265
807.898	4211
808.04	4211
808.182	4238
808.324	4295
808.465	4344
808.607	4485
808.749	4455
808.891	4474
809.033	4508
809.174	4356
809.316	4207
809.458	4257
809.6	4173
809.741	4166
809.883	4112
810.025	4169
810.166	4246
810.308	4169
810.45	4181
810.591	4257
810.733	4272
810.875	4497
811.016	4782
811.158	5155
811.299	5269
811.441	5239
811.582	5048
811.724	4691
811.865	4451
812.007	4481
812.148	4424
812.29	4367
812.431	4402
812.573	4390
812.714	4318
812.855	4360
812.997	4409
813.138	4466
813.279	4390
813.421	4344
813.562	4344
813.703	4284
813.845	4322
813.986	4223
814.127	4211
814.268	4261
814.41	4246
814.551	4242
814.692	4310
814.833	4215
814.974	4314
815.115	4310
815.256	4284
815.397	4207
815.539	4211
815.68	4158
815.821	4246
815.962	4318
816.103	4246
816.244	4211
816.385	4238
816.526	4280
816.666	4173
816.807	4063
816.948	4169
817.089	4162
817.23	4147
817.371	4071
817.512	4032
817.653	4086
817.793	4010
817.934	4067
818.075	4044
818.216	4063
818.356	4051
818.497	3956
818.638	3953
818.778	3892
818.919	3888
819.06	3857
819.2	3915
819.341	3842
819.481	3846
819.622	3861
819.762	4006
819.903	3937
820.043	3846
820.184	3884
820.324	3835
820.465	3899
820.605	3884
820.746	3888
820.886	3785
821.026	3930
821.167	3930
821.307	3949
821.447	4025
821.588	3934
821.728	3949
821.868	3934
822.008	3857
822.149	3888
822.289	3930
822.429	3755
822.569	3732
822.709	3819
822.849	3690
822.99	3686
823.13	3732
823.27	3785
823.41	3675
823.55	3724
823.69	3755
823.83	3732
823.97	3694
824.11	3576
824.25	3549
824.389	3591
824.529	3618
824.669	3599
824.809	3724
824.949	3732
825.089	3736
825.228	3671
825.368	3568
825.508	3564
825.648	3557
825.787	3587
825.927	3580
826.067	3644
826.206	3682
826.346	3797
826.485	3842
826.625	3869
826.765	3930
826.904	3755
827.044	3576
827.183	3526
827.323	3409
827.462	3530
827.601	3439
827.741	3416
827.88	3439
828.02	3351
828.159	3420
828.298	3454
828.437	3538
828.577	3450
828.716	3580
828.855	3507
828.994	3386
829.134	3359
829.273	3397
829.412	3374
829.551	3310
829.69	3374
829.829	3389
829.968	3553
830.107	3420
830.246	3386
830.385	3374
830.524	3310
830.663	3291
830.802	3279
830.941	3169
831.08	3173
831.219	3230
831.357	3279
831.496	3367
831.635	3222
831.774	3176
831.913	3214
832.051	3131
832.19	3146
832.329	3207
832.467	3104
832.606	3108
832.744	3161
832.883	3154
833.022	3154
833.16	3268
833.299	3310
833.437	3374
833.576	3359
833.714	3370
833.852	3405
833.991	3443
834.129	3485
834.267	3428
834.406	3386
834.544	3450
834.682	3386
834.821	3348
834.959	3549
835.097	3405
835.235	3507
835.373	3450
835.511	3477
835.65	3450
835.788	3504
835.926	3386
836.064	3386
836.202	3405
836.34	3587
836.478	3591
836.615	3553
836.753	3591
836.891	3629
837.029	3641
837.167	3591
837.305	3523
837.443	3511
837.58	3473
837.718	3595
837.856	3500
837.993	3557
838.131	3618
838.269	3580
838.406	3584
838.544	3576
838.681	3458
838.819	3458
838.956	3367
839.094	3374
839.231	3431
839.369	3447
839.506	3690
839.643	3641
839.781	3526
839.918	3485
840.055	3542
840.193	3481
840.33	3545
840.467	3530
840.604	3584
840.742	3774
840.879	3549
841.016	3511
841.153	3584
841.29	3736
841.427	3728
841.564	3698
841.701	3736
841.838	3690
841.975	3698
842.112	3717
842.249	3637
842.385	3568
842.522	3759
842.659	3652
842.796	3663
842.933	3698
843.069	3701
843.206	3682
843.343	3778
843.479	3732
843.616	3797
843.752	3694
843.889	3690
844.025	3850
844.162	3705
844.298	3873
844.435	3808
844.571	3747
844.708	3899
844.844	3964
844.98	3998
845.117	3979
845.253	3892
845.389	3899
845.525	3911
845.661	3941
845.798	3888
845.934	4032
846.07	3937
846.206	3979
846.342	4128
846.478	4067
846.614	3941
846.75	3873
846.886	3937
847.022	4036
847.158	3964
847.294	3968
847.429	4044
847.565	3998
847.701	4177
847.837	3930
847.972	3884
848.108	3987
848.244	3983
848.379	3842
848.515	3846
848.65	3797
848.786	3838
848.921	3915
849.057	3926
849.192	3945
849.328	3899
849.463	3903
849.598	3850
849.734	3869
849.869	3774
850.004	3751
850.14	3781
850.275	3766
850.41	3732
850.545	3720
850.68	3770
850.815	3793
850.95	3800
851.085	3903
851.22	3846
851.355	3808
851.49	3774
851.625	3789
851.76	3797
851.895	3686
852.03	3713
852.165	3778
852.299	3869
852.434	3907
852.569	3861
852.703	3865
852.838	3915
852.973	4059
853.107	3968
853.242	3873
853.376	3793
853.511	3751
853.645	3812
853.78	3968
853.914	3899
854.048	3911
854.183	3899
854.317	3945
854.451	4074
854.585	3956
854.72	3983
854.854	4021
854.988	3911
855.122	3983
855.256	3876
855.39	3987
855.524	4109
855.658	4078
855.792	4086
855.926	4116
856.06	4143
856.194	4185
856.327	4116
856.461	4116
856.595	4147
856.729	4154
856.862	4291
856.996	4234
857.13	4295
857.263	4329
857.397	4318
857.53	4284
857.664	4348
857.797	4402
857.931	4474
858.064	4386
858.197	4447
858.331	4390
858.464	4451
858.597	4341
858.731	4451
858.864	4405
858.997	4421
859.13	4542
859.263	4535
859.396	4558
859.529	4485
859.662	4531
859.795	4531
859.928	4615
860.061	4675
860.194	4736
860.327	4687
860.46	4603
860.592	4752
860.725	4748
860.858	4797
860.99	4717
861.123	4630
861.256	4702
861.388	4763
861.521	5543
861.653	4694
861.786	4714
861.918	4763
862.05	4782
862.183	4801
862.315	4885
862.447	4915
862.58	4839
862.712	4801
862.844	4786
862.976	4885
863.108	4843
863.24	5273
863.372	4847
863.504	4854
863.636	4896
863.768	4953
863.9	4923
864.032	4949
864.164	4976
864.296	4972
864.428	5056
864.559	5105
864.691	5132
864.823	5124
864.954	5045
865.086	5143
865.217	5113
865.349	5071
865.48	5136
865.612	5208
865.743	5315
865.875	5162
866.006	5212
866.137	5231
866.269	5223
866.4	5254
866.531	5250
866.662	5223
866.793	5242
866.924	5265
867.055	5353
867.186	5307
867.317	5288
867.448	5296
867.579	5337
867.71	5315
867.841	5395
867.972	5436
868.103	5429
868.233	5455
868.364	5467
868.495	5562
868.625	5638
868.756	5783
868.886	5665
869.017	5729
869.147	5866
869.278	5893
869.408	5756
869.539	5824
869.669	5980
869.799	5946
869.929	5958
870.06	5984
870.19	6235
870.32	6182
870.45	6209
870.58	6346
870.71	6399
870.84	6464
870.97	6403
871.1	6433
871.23	6604
871.36	6711
871.489	6681
871.619	6711
871.749	6795
871.879	6833
872.008	6916
872.138	6962
872.267	6966
872.397	7004
872.526	7019
872.656	7061
872.785	7175
872.915	7373
873.044	7457
873.173	7510
873.303	7616
873.432	7723
873.561	7909
873.69	7909
873.819	8020
873.948	8195
874.077	8286
874.206	8279
874.335	8488
874.464	8617
874.593	8880
874.722	8891
874.851	9077
874.979	9199
875.108	9348
875.237	9370
875.365	9481
875.494	9663
875.623	9949
875.751	9850
875.88	10010
876.008	10116
876.136	10242
876.265	10470
876.393	10645
876.521	10759
876.65	10820
876.778	10843
876.906	10847
877.034	11052
877.162	11067
877.29	11155
877.418	11280
877.546	11326
877.674	11463
877.802	11406
877.93	11520
878.058	11474
878.185	11551
878.313	11638
878.441	11741
878.568	11665
878.696	11718
878.824	11843
878.951	11939
879.079	11946
879.206	12201
879.333	11999
879.461	11973
879.588	12057
879.715	12098
879.842	12228
879.97	12019
880.097	11866
880.224	11874
880.351	11855
880.478	11927
880.605	11726
880.732	11798
880.859	11927
880.986	11775
881.112	11847
881.239	11741
881.366	11623
881.493	11653
881.619	11532
881.746	11551
881.872	11585
881.999	11516
882.125	11497
882.252	11566
882.378	11471
882.505	11570
882.631	11387
882.757	11334
882.883	11311
883.01	11311
883.136	11159
883.262	11109
883.388	11090
883.514	11174
883.64	11090
883.766	11052
883.892	10919
884.018	11041
884.143	11117
884.269	11048
884.395	10869
884.52	10710
884.646	10740
884.772	10630
884.897	10588
885.023	10755
885.148	10679
885.274	10771
885.399	10565
885.524	10626
885.65	10577
885.775	10622
885.9	10474
886.025	10550
886.15	10466
886.275	10447
886.4	10371
886.525	10398
886.65	10341
886.775	10230
886.9	10436
887.025	10474
887.149	10322
887.274	10192
887.399	10177
887.523	10166
887.648	10181
887.773	10173
887.897	10272
888.021	10181
888.146	10051
888.27	10200
888.395	10207
888.519	10131
888.643	10158
888.767	10177
888.891	10055
889.015	10029
889.139	10048
889.263	9991
889.387	9987
889.511	10150
889.635	10078
889.759	9918
889.883	9975
890.006	9991
890.13	10109
890.254	9903
890.377	9915
890.501	9800
890.624	9922
890.748	9895
890.871	9774
890.995	9766
891.118	9785
891.241	9736
891.364	9819
891.488	9857
891.611	9663
891.734	9622
891.857	9755
891.98	9743
892.103	9717
892.226	9652
892.349	9679
892.471	9511
892.594	9572
892.717	9603
892.839	9511
892.962	9584
893.085	9690
893.207	9488
893.33	9473
893.452	9511
893.575	9595
893.697	9473
893.819	9591
893.941	9603
894.064	9561
894.186	9481
894.308	9435
894.43	9500
894.552	9557
894.674	9488
894.796	9363
894.918	9412
895.04	9370
895.161	9355
895.283	9355
895.405	9268
895.526	9207
895.648	9245
895.769	9176
895.891	9332
896.012	9310
896.134	9218
896.255	9142
896.376	9116
896.498	9169
896.619	9051
896.74	9123
896.861	9047
896.982	9313
897.103	9283
897.224	9154
897.345	9047
897.466	8990
897.587	8963
897.708	9097
897.828	9051
897.949	8925
898.07	8864
898.19	8906
898.311	8921
898.431	8937
898.552	8952
898.672	8967
898.792	8910
898.913	8899
899.033	8834
899.153	8792
899.273	8667
899.393	8701
899.513	8750
899.633	8727
899.753	8705
899.873	8670
899.993	8750
900.113	8663
900.232	8754
900.352	8667
900.472	8568
900.591	8495
900.711	8640
900.83	8564
900.95	8629
901.069	8720
901.189	8560
901.308	8412
901.427	8412
901.546	8507
901.665	8412
901.784	8499
901.904	8305
902.023	8377
902.141	8279
902.26	8180
902.379	8256
902.498	8195
902.617	8229
902.735	8275
902.854	8263
902.973	8259
903.091	8084
903.21	8138
903.328	8187
903.446	8069
903.565	8103
903.683	8115
903.801	8058
903.919	8096
904.038	8161
904.156	8008
904.274	8031
904.392	8031
904.51	8058
904.627	8001
904.745	8046
904.863	8065
904.981	7879
905.098	7883
905.216	7917
905.334	7909
905.451	7879
905.569	7887
905.686	7837
905.803	7856
905.921	7731
906.038	7833
906.155	7708
906.272	7761
906.389	7727
906.506	7586
906.623	7643
906.74	7578
906.857	7525
906.974	7529
907.091	7636
907.208	7738
907.324	7636
907.441	7544
907.557	7460
907.674	7392
907.79	7400
907.907	7449
908.023	7464
908.139	7419
908.256	7381
908.372	7381
908.488	7384
908.604	7244
908.72	7244
908.836	7274
908.952	7270
909.068	7251
909.184	7285
909.3	7141
909.415	7274
909.531	7202
909.647	7103
909.762	7110
909.878	7126
909.993	7069
910.108	7084
910.224	7057
910.339	7122
910.454	6993
910.57	6993
910.685	6890
910.8	7145
910.915	7061
911.03	7000
911.145	6897
911.259	6913
911.374	6810
911.489	6897
911.604	6760
911.718	6684
911.833	6696
911.947	6703
912.062	6585
912.176	6692
912.291	6711
912.405	6688
912.519	6844
912.633	6833
912.748	6760
912.862	6673
912.976	6646
913.09	6563
913.204	6547
913.318	6551
913.431	6677
913.545	6719
913.659	6669
913.772	6623
913.886	6547
914	6559
914.113	6604
914.226	6563
914.34	6593
914.453	6544
914.566	6585
914.68	6506
914.793	6490
914.906	6414
915.019	6365
915.132	6410
915.245	6422
915.358	6414
915.47	6460
915.583	6410
915.696	6452
915.809	6479
915.921	6559
916.034	6441
916.146	6369
916.259	6300
916.371	6448
916.483	6403
916.595	6315
916.708	6433
916.82	6437
916.932	6399
917.044	6448
917.156	6353
917.268	6266
917.38	6304
917.491	6304
917.603	6331
917.715	6441
917.826	6369
917.938	6323
918.049	6232
918.161	6308
918.272	6395
918.384	6479
918.495	6331
918.606	6228
918.717	6213
918.828	6205
918.939	6273
919.05	6194
919.161	6224
919.272	6140
919.383	6125
919.494	6251
919.604	6448
919.715	6300
919.826	6224
919.936	6213
920.047	6323
920.157	6232
920.267	6414
920.378	6353
920.488	6270
920.598	6471
920.708	6498
920.818	6372
920.928	6448
921.038	6540
921.148	6536
921.258	6384
921.368	6300
921.477	6205
921.587	6171
921.697	6076
921.806	6163
921.916	6129
922.025	5946
922.134	5969
922.244	5923
922.353	5942
922.462	5813
922.571	5790
922.68	5672
922.789	5684
922.898	5737
923.007	5600
923.116	5699
923.224	5672
923.333	5627
923.442	5600
923.55	5554
923.659	5573
923.767	5611
923.876	5554
923.984	5554
924.092	5501
924.201	5581
924.309	5558
924.417	5585
924.525	5474
924.633	5516
924.741	6243
924.849	5330
924.956	5452
925.064	5337
925.172	5280
925.279	5288
925.387	5322
925.494	5337
925.602	5353
925.709	5368
925.816	5296
925.924	5349
926.031	5330
926.138	5322
926.245	5315
926.352	5204
926.459	5311
926.566	5296
926.673	5212
926.779	5098
926.886	5086
926.993	5014
927.099	4980
927.206	4957
927.312	4934
927.419	4972
927.525	4995
927.631	5003
927.737	4896
927.843	4892
927.95	4774
928.056	4866
928.162	4809
928.267	4858
928.373	5280
928.479	4835
928.585	4672
928.69	4752
928.796	4759
928.901	4687
929.007	4577
929.112	4641
929.218	4596
929.323	4538
929.428	4542
929.533	4675
929.638	4478
929.743	4558
929.848	4588
929.953	4508
930.058	4436
930.163	4287
930.267	4341
930.372	4409
930.477	4299
930.581	4466
930.685	4341
930.79	4257
930.894	4322
930.998	4280
931.103	4398
931.207	4120
931.311	4059
931.415	4006
931.519	3892
931.623	3922
