Data from glass_V78500241_946.txt Node
Date: Wed Sep 01 19:21:03 CST 2021
User: usil
Spectrometer: V785-0024
Trigger mode: 0
Integration Time (sec): 4.000000E-1
Scans to average: 1
Nonlinearity correction enabled: false
Boxcar width: 0
Storing dark spectrum: false
XAxis mode: Wavelengths
Number of Pixels in Spectrum: 1024
>>>>>Begin Spectral Data<<<<<
801.071	3759
801.214	3755
801.356	3762
801.499	3720
801.641	3724
801.783	3762
801.926	3857
802.068	3823
802.211	3888
802.353	3880
802.496	3831
802.638	3880
802.78	3884
802.923	3926
803.065	3930
803.208	3850
803.35	3880
803.492	3960
803.635	3937
803.777	3812
803.919	3937
804.061	4135
804.204	3953
804.346	3949
804.488	3903
804.63	4059
804.773	4021
804.915	4032
805.057	4177
805.199	4021
805.341	4116
805.483	4173
805.626	4093
805.768	4135
805.91	4207
806.052	4238
806.194	4246
806.336	4394
806.478	4211
806.62	4211
806.762	4169
806.904	4253
807.046	4363
807.188	4242
807.33	4223
807.472	4265
807.614	4219
807.756	4253
807.898	4249
808.04	4207
808.182	4306
808.324	4329
808.465	4394
808.607	4508
808.749	4440
808.891	4466
809.033	4531
809.174	4455
809.316	4265
809.458	4242
809.6	4192
809.741	4169
809.883	4177
810.025	4238
810.166	4238
810.308	4204
810.45	4261
810.591	4200
810.733	4299
810.875	4474
811.016	4816
811.158	5140
811.299	5303
811.441	5330
811.582	5105
811.724	4710
811.865	4459
812.007	4474
812.148	4436
812.29	4405
812.431	4417
812.573	4440
812.714	4371
812.855	4451
812.997	4443
813.138	4531
813.279	4405
813.421	4383
813.562	4402
813.703	4394
813.845	4398
813.986	4322
814.127	4238
814.268	4261
814.41	4322
814.551	4253
814.692	4284
814.833	4287
814.974	4383
815.115	4356
815.256	4253
815.397	4310
815.539	4291
815.68	4238
815.821	4219
815.962	4325
816.103	4246
816.244	4215
816.385	4249
816.526	4287
816.666	4211
816.807	4093
816.948	4219
817.089	4230
817.23	4090
817.371	4112
817.512	4086
817.653	4090
817.793	4074
817.934	4082
818.075	4112
818.216	4055
818.356	4097
818.497	4029
818.638	3937
818.778	3956
818.919	3907
819.06	3846
819.2	3926
819.341	3907
819.481	3835
819.622	3911
819.762	4071
819.903	3930
820.043	3861
820.184	3835
820.324	3838
820.465	3865
820.605	3850
820.746	3888
820.886	3789
821.026	3949
821.167	3907
821.307	3956
821.447	3991
821.588	3998
821.728	3979
821.868	3915
822.008	3869
822.149	3884
822.289	3918
822.429	3785
822.569	3740
822.709	3816
822.849	3740
822.99	3690
823.13	3800
823.27	3789
823.41	3713
823.55	3774
823.69	3724
823.83	3732
823.97	3652
824.11	3595
824.25	3663
824.389	3633
824.529	3694
824.669	3595
824.809	3694
824.949	3781
825.089	3717
825.228	3743
825.368	3606
825.508	3572
825.648	3584
825.787	3618
825.927	3629
826.067	3637
826.206	3667
826.346	3781
826.485	3846
826.625	3884
826.765	3956
826.904	3857
827.044	3629
827.183	3599
827.323	3447
827.462	3504
827.601	3473
827.741	3420
827.88	3450
828.02	3386
828.159	3439
828.298	3511
828.437	3553
828.577	3473
828.716	3629
828.855	3500
828.994	3340
829.134	3367
829.273	3412
829.412	3340
829.551	3351
829.69	3401
829.829	3458
829.968	3530
830.107	3454
830.246	3450
830.385	3351
830.524	3351
830.663	3306
830.802	3256
830.941	3203
831.08	3203
831.219	3306
831.357	3264
831.496	3428
831.635	3233
831.774	3176
831.913	3253
832.051	3161
832.19	3207
832.329	3237
832.467	3150
832.606	3119
832.744	3199
832.883	3180
833.022	3218
833.16	3272
833.299	3291
833.437	3378
833.576	3389
833.714	3447
833.852	3462
833.991	3477
834.129	3454
834.267	3458
834.406	3363
834.544	3412
834.682	3454
834.821	3447
834.959	3633
835.097	3416
835.235	3557
835.373	3500
835.511	3545
835.65	3462
835.788	3526
835.926	3439
836.064	3389
836.202	3439
836.34	3587
836.478	3644
836.615	3568
836.753	3610
836.891	3648
837.029	3633
837.167	3591
837.305	3644
837.443	3526
837.58	3481
837.718	3576
837.856	3584
837.993	3511
838.131	3599
838.269	3591
838.406	3591
838.544	3625
838.681	3504
838.819	3485
838.956	3389
839.094	3439
839.231	3469
839.369	3557
839.506	3747
839.643	3606
839.781	3507
839.918	3428
840.055	3523
840.193	3568
840.33	3557
840.467	3534
840.604	3603
840.742	3797
840.879	3561
841.016	3545
841.153	3618
841.29	3762
841.427	3762
841.564	3728
841.701	3762
841.838	3728
841.975	3694
842.112	3705
842.249	3622
842.385	3595
842.522	3880
842.659	3713
842.796	3660
842.933	3713
843.069	3709
843.206	3713
843.343	3766
843.479	3774
843.616	3838
843.752	3682
843.889	3667
844.025	3876
844.162	3728
844.298	3850
844.435	3781
844.571	3835
844.708	3937
844.844	3975
844.98	3991
845.117	4040
845.253	3949
845.389	3899
845.525	3941
845.661	3975
845.798	3949
845.934	4010
846.07	3964
846.206	4051
846.342	4097
846.478	4032
846.614	3987
846.75	3915
846.886	3937
847.022	4032
847.158	3991
847.294	3991
847.429	4036
847.565	4017
847.701	4291
847.837	3873
847.972	3896
848.108	3979
848.244	4002
848.379	3827
848.515	3819
848.65	3865
848.786	3842
848.921	3873
849.057	3915
849.192	3956
849.328	3899
849.463	3915
849.598	3930
849.734	3880
849.869	3857
850.004	3770
850.14	3869
850.275	3770
850.41	3743
850.545	3793
850.68	3774
850.815	3804
850.95	3831
851.085	3926
851.22	3918
851.355	3857
851.49	3823
851.625	3774
851.76	3793
851.895	3732
852.03	3740
852.165	3838
852.299	3869
852.434	3903
852.569	3850
852.703	3903
852.838	3953
852.973	3964
853.107	4055
853.242	3892
853.376	3842
853.511	3770
853.645	3854
853.78	3918
853.914	3964
854.048	3968
854.183	3937
854.317	3911
854.451	4029
854.585	3994
854.72	3930
854.854	4051
854.988	3926
855.122	3991
855.256	3899
855.39	4002
855.524	4128
855.658	4090
855.792	4097
855.926	4181
856.06	4188
856.194	4188
856.327	4166
856.461	4109
856.595	4158
856.729	4158
856.862	4299
856.996	4242
857.13	4352
857.263	4367
857.397	4356
857.53	4299
857.664	4371
857.797	4413
857.931	4386
858.064	4394
858.197	4455
858.331	4402
858.464	4428
858.597	4390
858.731	4440
858.864	4504
858.997	4478
859.13	4550
859.263	4531
859.396	4649
859.529	4546
859.662	4535
859.795	4504
859.928	4622
860.061	4725
860.194	4771
860.327	4725
860.46	4649
860.592	4740
860.725	4748
860.858	4801
860.99	4698
861.123	4714
861.256	4694
861.388	4755
861.521	5532
861.653	4714
861.786	4736
861.918	4755
862.05	4771
862.183	4824
862.315	4938
862.447	4919
862.58	4889
862.712	4763
862.844	4809
862.976	4862
863.108	4900
863.24	5216
863.372	4858
863.504	4904
863.636	4843
863.768	5014
863.9	5006
864.032	4946
864.164	4972
864.296	5052
864.428	5121
864.559	5086
864.691	5147
864.823	5151
864.954	5166
865.086	5102
865.217	5132
865.349	5098
865.48	5185
865.612	5159
865.743	5315
865.875	5204
866.006	5174
866.137	5258
866.269	5258
866.4	5265
866.531	5261
866.662	5227
866.793	5303
866.924	5265
867.055	5353
867.186	5307
867.317	5330
867.448	5258
867.579	5360
867.71	5345
867.841	5364
867.972	5406
868.103	5505
868.233	5452
868.364	5490
868.495	5524
868.625	5672
868.756	5840
868.886	5649
869.017	5680
869.147	5851
869.278	5931
869.408	5851
869.539	5817
869.669	5954
869.799	5931
869.929	6038
870.06	6049
870.19	6216
870.32	6213
870.45	6266
870.58	6300
870.71	6399
870.84	6475
870.97	6433
871.1	6410
871.23	6642
871.36	6665
871.489	6684
871.619	6768
871.749	6848
871.879	6878
872.008	6962
872.138	6977
872.267	7057
872.397	6962
872.526	7118
872.656	7164
872.785	7236
872.915	7384
873.044	7502
873.173	7571
873.303	7556
873.432	7792
873.561	7887
873.69	7890
873.819	7997
873.948	8157
874.077	8279
874.206	8336
874.335	8419
874.464	8674
874.593	8906
874.722	8910
874.851	9146
874.979	9199
875.108	9332
875.237	9424
875.365	9466
875.494	9648
875.623	9808
875.751	9869
875.88	10002
876.008	10207
876.136	10287
876.265	10512
876.393	10782
876.521	10691
876.65	10835
876.778	10965
876.906	10847
877.034	10923
877.162	11113
877.29	11155
877.418	11212
877.546	11387
877.674	11425
877.802	11532
877.93	11471
878.058	11535
878.185	11638
878.313	11668
878.441	11733
878.568	11741
878.696	11733
878.824	11843
878.951	12003
879.079	11984
879.206	12098
879.333	12079
879.461	12022
879.588	12034
879.715	12091
879.842	12175
879.97	11992
880.097	12034
880.224	11859
880.351	11916
880.478	11939
880.605	11840
880.732	11889
880.859	12034
880.986	11840
881.112	11847
881.239	11802
881.366	11722
881.493	11676
881.619	11535
881.746	11562
881.872	11516
881.999	11478
882.125	11448
882.252	11528
882.378	11520
882.505	11509
882.631	11334
882.757	11280
882.883	11334
883.01	11337
883.136	11166
883.262	11166
883.388	11071
883.514	11235
883.64	11246
883.766	11102
883.892	11003
884.018	10980
884.143	11033
884.269	11162
884.395	10801
884.52	10767
884.646	10725
884.772	10706
884.897	10725
885.023	10672
885.148	10774
885.274	10786
885.399	10736
885.524	10672
885.65	10584
885.775	10569
885.9	10607
886.025	10626
886.15	10618
886.275	10504
886.4	10363
886.525	10409
886.65	10417
886.775	10333
886.9	10538
887.025	10603
887.149	10341
887.274	10337
887.399	10188
887.523	10109
887.648	10169
887.773	10181
887.897	10314
888.021	10227
888.146	10143
888.27	10318
888.395	10215
888.519	10230
888.643	10204
888.767	10196
888.891	10036
889.015	10040
889.139	10036
889.263	9941
889.387	10101
889.511	10086
889.635	10090
889.759	10010
889.883	10025
890.006	9975
890.13	10128
890.254	10059
890.377	9991
890.501	9907
890.624	9873
890.748	9915
890.871	9857
890.995	9876
891.118	9804
891.241	9781
891.364	9865
891.488	9823
891.611	9751
891.734	9850
891.857	9880
891.98	9709
892.103	9747
892.226	9823
892.349	9694
892.471	9549
892.594	9572
892.717	9671
892.839	9568
892.962	9576
893.085	9633
893.207	9523
893.33	9564
893.452	9519
893.575	9652
893.697	9568
893.819	9591
893.941	9675
894.064	9682
894.186	9447
894.308	9378
894.43	9595
894.552	9580
894.674	9549
894.796	9393
894.918	9355
895.04	9370
895.161	9359
895.283	9291
895.405	9211
895.526	9214
895.648	9264
895.769	9188
895.891	9260
896.012	9351
896.134	9199
896.255	9222
896.376	9097
896.498	9123
896.619	9142
896.74	9097
896.861	9112
896.982	9260
897.103	9355
897.224	9154
897.345	9077
897.466	8952
897.587	9009
897.708	9066
897.828	9043
897.949	8994
898.07	8845
898.19	8929
898.311	8994
898.431	8994
898.552	8941
898.672	9005
898.792	8998
898.913	8918
899.033	8830
899.153	8792
899.273	8701
899.393	8716
899.513	8762
899.633	8777
899.753	8754
899.873	8678
899.993	8705
900.113	8708
900.232	8727
900.352	8746
900.472	8632
900.591	8583
900.711	8583
900.83	8533
900.95	8648
901.069	8705
901.189	8598
901.308	8434
901.427	8465
901.546	8476
901.665	8480
901.784	8530
901.904	8404
902.023	8320
902.141	8256
902.26	8248
902.379	8301
902.498	8259
902.617	8214
902.735	8294
902.854	8259
902.973	8263
903.091	8134
903.21	8172
903.328	8187
903.446	8062
903.565	8092
903.683	8115
903.801	8012
903.919	8142
904.038	8161
904.156	8027
904.274	8130
904.392	8043
904.51	8084
904.627	8084
904.745	8081
904.863	8096
904.981	7913
905.098	7830
905.216	7894
905.334	7841
905.451	7932
905.569	7906
905.686	7925
905.803	7890
905.921	7814
906.038	7913
906.155	7822
906.272	7696
906.389	7708
906.506	7681
906.623	7601
906.74	7632
906.857	7525
906.974	7499
907.091	7662
907.208	7674
907.324	7689
907.441	7590
907.557	7502
907.674	7441
907.79	7419
907.907	7464
908.023	7476
908.139	7445
908.256	7350
908.372	7403
908.488	7358
908.604	7202
908.72	7206
908.836	7369
908.952	7259
909.068	7209
909.184	7369
909.3	7339
909.415	7343
909.531	7335
909.647	7129
909.762	7160
909.878	7057
909.993	7091
910.108	7057
910.224	7065
910.339	7088
910.454	7038
910.57	7015
910.685	6977
910.8	7190
910.915	7099
911.03	7069
911.145	6901
911.259	6852
911.374	6928
911.489	6890
911.604	6848
911.718	6673
911.833	6753
911.947	6646
912.062	6631
912.176	6658
912.291	6719
912.405	6703
912.519	6894
912.633	6890
912.748	6715
912.862	6764
912.976	6646
913.09	6563
913.204	6620
913.318	6601
913.431	6726
913.545	6734
913.659	6764
913.772	6654
913.886	6601
914	6593
914.113	6662
914.226	6673
914.34	6631
914.453	6540
914.566	6635
914.68	6506
914.793	6612
914.906	6467
915.019	6372
915.132	6388
915.245	6456
915.358	6460
915.47	6460
915.583	6506
915.696	6509
915.809	6528
915.921	6521
916.034	6426
916.146	6414
916.259	6441
916.371	6464
916.483	6506
916.595	6426
916.708	6460
916.82	6403
916.932	6338
917.044	6433
917.156	6414
917.268	6369
917.38	6376
917.491	6353
917.603	6372
917.715	6414
917.826	6414
917.938	6323
918.049	6228
918.161	6361
918.272	6448
918.384	6414
918.495	6407
918.606	6277
918.717	6247
918.828	6308
918.939	6285
919.05	6140
919.161	6254
919.272	6114
919.383	6171
919.494	6285
919.604	6494
919.715	6289
919.826	6190
919.936	6273
920.047	6376
920.157	6277
920.267	6464
920.378	6350
920.488	6292
920.598	6521
920.708	6566
920.818	6460
920.928	6509
921.038	6612
921.148	6574
921.258	6403
921.368	6331
921.477	6273
921.587	6220
921.697	6091
921.806	6228
921.916	6129
922.025	5958
922.134	5923
922.244	5965
922.353	5961
922.462	5805
922.571	5805
922.68	5699
922.789	5714
922.898	5688
923.007	5642
923.116	5718
923.224	5729
923.333	5611
923.442	5608
923.55	5558
923.659	5592
923.767	5649
923.876	5554
923.984	5623
924.092	5471
924.201	5589
924.309	5577
924.417	5592
924.525	5482
924.633	5520
924.741	6106
924.849	5349
924.956	5505
925.064	5387
925.172	5292
925.279	5353
925.387	5353
925.494	5341
925.602	5425
925.709	5425
925.816	5269
925.924	5330
926.031	5410
926.138	5258
926.245	5368
926.352	5258
926.459	5349
926.566	5315
926.673	5181
926.779	5109
926.886	5067
926.993	5102
927.099	5045
927.206	5025
927.312	4991
927.419	5018
927.525	5010
927.631	5018
927.737	4900
927.843	4828
927.95	4778
928.056	4801
928.162	4831
928.267	4850
928.373	5364
928.479	4896
928.585	4683
928.69	4820
928.796	4816
928.901	4736
929.007	4577
929.112	4691
929.218	4592
929.323	4542
929.428	4531
929.533	4706
929.638	4592
929.743	4535
929.848	4561
929.953	4554
930.058	4409
930.163	4329
930.267	4325
930.372	4481
930.477	4333
930.581	4497
930.685	4337
930.79	4249
930.894	4310
930.998	4265
931.103	4398
931.207	4185
931.311	4143
931.415	4025
931.519	3926
931.623	3934
