Data from glass_V78500241_2074.txt Node
Date: Wed Sep 01 19:28:52 CST 2021
User: usil
Spectrometer: V785-0024
Trigger mode: 0
Integration Time (sec): 4.000000E-1
Scans to average: 1
Nonlinearity correction enabled: false
Boxcar width: 0
Storing dark spectrum: false
XAxis mode: Wavelengths
Number of Pixels in Spectrum: 1024
>>>>>Begin Spectral Data<<<<<
801.071	3728
801.214	3736
801.356	3679
801.499	3778
801.641	3732
801.783	3732
801.926	3880
802.068	3838
802.211	3831
802.353	3907
802.496	3880
802.638	3899
802.78	3903
802.923	3922
803.065	3911
803.208	3835
803.35	3850
803.492	3922
803.635	3926
803.777	3816
803.919	3892
804.061	4109
804.204	3964
804.346	3930
804.488	3892
804.63	4013
804.773	3983
804.915	4044
805.057	4124
805.199	4055
805.341	4097
805.483	4150
805.626	4055
805.768	4139
805.91	4215
806.052	4234
806.194	4181
806.336	4303
806.478	4207
806.62	4147
806.762	4215
806.904	4242
807.046	4333
807.188	4200
807.33	4177
807.472	4234
807.614	4207
807.756	4291
807.898	4185
808.04	4177
808.182	4287
808.324	4329
808.465	4379
808.607	4451
808.749	4489
808.891	4470
809.033	4470
809.174	4367
809.316	4280
809.458	4204
809.6	4139
809.741	4143
809.883	4196
810.025	4215
810.166	4173
810.308	4188
810.45	4299
810.591	4230
810.733	4272
810.875	4508
811.016	4816
811.158	5155
811.299	5284
811.441	5284
811.582	4999
811.724	4694
811.865	4478
812.007	4466
812.148	4398
812.29	4455
812.431	4394
812.573	4440
812.714	4386
812.855	4394
812.997	4405
813.138	4512
813.279	4405
813.421	4386
813.562	4367
813.703	4352
813.845	4329
813.986	4272
814.127	4200
814.268	4268
814.41	4299
814.551	4230
814.692	4333
814.833	4310
814.974	4276
815.115	4325
815.256	4238
815.397	4215
815.539	4219
815.68	4192
815.821	4185
815.962	4272
816.103	4265
816.244	4276
816.385	4234
816.526	4257
816.666	4169
816.807	4051
816.948	4181
817.089	4147
817.23	4105
817.371	4036
817.512	4090
817.653	4048
817.793	4029
817.934	4086
818.075	4139
818.216	4097
818.356	4055
818.497	4010
818.638	3934
818.778	3865
818.919	3854
819.06	3880
819.2	3960
819.341	3857
819.481	3831
819.622	3907
819.762	3983
819.903	3956
820.043	3846
820.184	3854
820.324	3804
820.465	3857
820.605	3896
820.746	3842
820.886	3785
821.026	3934
821.167	3880
821.307	3956
821.447	3960
821.588	3956
821.728	3964
821.868	3945
822.008	3869
822.149	3907
822.289	3926
822.429	3819
822.569	3755
822.709	3819
822.849	3679
822.99	3747
823.13	3724
823.27	3770
823.41	3732
823.55	3755
823.69	3694
823.83	3701
823.97	3660
824.11	3580
824.25	3595
824.389	3641
824.529	3667
824.669	3622
824.809	3709
824.949	3751
825.089	3713
825.228	3701
825.368	3587
825.508	3572
825.648	3591
825.787	3622
825.927	3606
826.067	3656
826.206	3652
826.346	3759
826.485	3816
826.625	3827
826.765	3922
826.904	3816
827.044	3614
827.183	3545
827.323	3428
827.462	3447
827.601	3424
827.741	3412
827.88	3473
828.02	3359
828.159	3443
828.298	3447
828.437	3496
828.577	3492
828.716	3568
828.855	3500
828.994	3401
829.134	3348
829.273	3363
829.412	3355
829.551	3351
829.69	3355
829.829	3420
829.968	3496
830.107	3412
830.246	3469
830.385	3363
830.524	3389
830.663	3310
830.802	3268
830.941	3146
831.08	3161
831.219	3253
831.357	3241
831.496	3378
831.635	3222
831.774	3203
831.913	3180
832.051	3135
832.19	3150
832.329	3207
832.467	3150
832.606	3077
832.744	3207
832.883	3176
833.022	3222
833.16	3230
833.299	3317
833.437	3332
833.576	3370
833.714	3412
833.852	3458
833.991	3469
834.129	3477
834.267	3424
834.406	3431
834.544	3401
834.682	3424
834.821	3389
834.959	3564
835.097	3424
835.235	3526
835.373	3469
835.511	3500
835.65	3447
835.788	3481
835.926	3416
836.064	3367
836.202	3447
836.34	3557
836.478	3568
836.615	3534
836.753	3572
836.891	3584
837.029	3584
837.167	3572
837.305	3572
837.443	3584
837.58	3511
837.718	3606
837.856	3572
837.993	3526
838.131	3625
838.269	3564
838.406	3564
838.544	3561
838.681	3466
838.819	3428
838.956	3401
839.094	3409
839.231	3454
839.369	3458
839.506	3724
839.643	3595
839.781	3523
839.918	3458
840.055	3526
840.193	3504
840.33	3481
840.467	3568
840.604	3599
840.742	3804
840.879	3519
841.016	3526
841.153	3557
841.29	3770
841.427	3732
841.564	3724
841.701	3732
841.838	3675
841.975	3724
842.112	3679
842.249	3614
842.385	3633
842.522	3831
842.659	3694
842.796	3648
842.933	3709
843.069	3694
843.206	3713
843.343	3808
843.479	3793
843.616	3831
843.752	3633
843.889	3705
844.025	3835
844.162	3743
844.298	3816
844.435	3774
844.571	3732
844.708	3896
844.844	3918
844.98	4032
845.117	3979
845.253	3918
845.389	3873
845.525	4017
845.661	3934
845.798	3960
845.934	3979
846.07	3934
846.206	4071
846.342	4078
846.478	4097
846.614	3972
846.75	3915
846.886	3903
847.022	4040
847.158	3998
847.294	4017
847.429	4055
847.565	3964
847.701	4227
847.837	3876
847.972	3857
848.108	3956
848.244	3899
848.379	3873
848.515	3797
848.65	3816
848.786	3854
848.921	3842
849.057	3918
849.192	3930
849.328	3903
849.463	3949
849.598	3873
849.734	3846
849.869	3861
850.004	3808
850.14	3819
850.275	3759
850.41	3709
850.545	3736
850.68	3759
850.815	3797
850.95	3797
851.085	3907
851.22	3831
851.355	3835
851.49	3747
851.625	3785
851.76	3797
851.895	3770
852.03	3701
852.165	3827
852.299	3880
852.434	3930
852.569	3953
852.703	3896
852.838	3892
852.973	3979
853.107	3941
853.242	3911
853.376	3857
853.511	3751
853.645	3808
853.78	3960
853.914	3899
854.048	3918
854.183	3869
854.317	3926
854.451	4032
854.585	3945
854.72	3892
854.854	4067
854.988	3888
855.122	3991
855.256	3934
855.39	4029
855.524	4143
855.658	4067
855.792	4101
855.926	4116
856.06	4128
856.194	4196
856.327	4143
856.461	4131
856.595	4154
856.729	4173
856.862	4287
856.996	4227
857.13	4276
857.263	4314
857.397	4367
857.53	4299
857.664	4363
857.797	4398
857.931	4447
858.064	4375
858.197	4470
858.331	4379
858.464	4329
858.597	4344
858.731	4424
858.864	4497
858.997	4478
859.13	4542
859.263	4497
859.396	4561
859.529	4527
859.662	4569
859.795	4489
859.928	4596
860.061	4706
860.194	4683
860.327	4664
860.46	4561
860.592	4721
860.725	4771
860.858	4782
860.99	4687
861.123	4702
861.256	4706
861.388	4733
861.521	5284
861.653	4733
861.786	4710
861.918	4744
862.05	4786
862.183	4843
862.315	4858
862.447	4968
862.58	4904
862.712	4797
862.844	4801
862.976	4839
863.108	4850
863.24	5170
863.372	4847
863.504	4923
863.636	4908
863.768	4938
863.9	4972
864.032	4942
864.164	4957
864.296	5041
864.428	5086
864.559	5105
864.691	5140
864.823	5117
864.954	5147
865.086	5124
865.217	5102
865.349	5170
865.48	5151
865.612	5197
865.743	5250
865.875	5273
866.006	5174
866.137	5189
866.269	5193
866.4	5208
866.531	5246
866.662	5246
866.793	5254
866.924	5280
867.055	5360
867.186	5368
867.317	5322
867.448	5299
867.579	5353
867.71	5395
867.841	5376
867.972	5433
868.103	5471
868.233	5482
868.364	5512
868.495	5558
868.625	5642
868.756	5802
868.886	5623
869.017	5767
869.147	5844
869.278	5847
869.408	5836
869.539	5802
869.669	5935
869.799	5885
869.929	5984
870.06	6030
870.19	6186
870.32	6114
870.45	6258
870.58	6300
870.71	6380
870.84	6452
870.97	6395
871.1	6460
871.23	6597
871.36	6662
871.489	6608
871.619	6741
871.749	6840
871.879	6882
872.008	7000
872.138	6943
872.267	7034
872.397	6996
872.526	7000
872.656	7080
872.785	7190
872.915	7362
873.044	7499
873.173	7544
873.303	7662
873.432	7677
873.561	7898
873.69	7921
873.819	7993
873.948	8134
874.077	8172
874.206	8339
874.335	8480
874.464	8632
874.593	8918
874.722	8971
874.851	9112
874.979	9173
875.108	9382
875.237	9386
875.365	9477
875.494	9675
875.623	9800
875.751	9823
875.88	10006
876.008	10147
876.136	10230
876.265	10451
876.393	10725
876.521	10729
876.65	10812
876.778	10953
876.906	10908
877.034	10984
877.162	11121
877.29	11166
877.418	11379
877.546	11360
877.674	11406
877.802	11497
877.93	11497
878.058	11619
878.185	11486
878.313	11642
878.441	11741
878.568	11577
878.696	11779
878.824	11889
878.951	11843
879.079	12060
879.206	12110
879.333	12079
879.461	11942
879.588	12038
879.715	12148
879.842	12133
879.97	12079
880.097	11764
880.224	11889
880.351	11885
880.478	11847
880.605	11904
880.732	11817
880.859	11996
880.986	11745
881.112	11927
881.239	11688
881.366	11676
881.493	11642
881.619	11596
881.746	11543
881.872	11490
881.999	11547
882.125	11493
882.252	11573
882.378	11512
882.505	11524
882.631	11444
882.757	11280
882.883	11349
883.01	11288
883.136	11128
883.262	11136
883.388	11067
883.514	11170
883.64	11174
883.766	11121
883.892	10927
884.018	11060
884.143	11037
884.269	11094
884.395	10873
884.52	10725
884.646	10763
884.772	10679
884.897	10637
885.023	10561
885.148	10729
885.274	10698
885.399	10691
885.524	10622
885.65	10588
885.775	10607
885.9	10603
886.025	10588
886.15	10637
886.275	10379
886.4	10481
886.525	10436
886.65	10421
886.775	10249
886.9	10470
887.025	10459
887.149	10341
887.274	10162
887.399	10230
887.523	10173
887.648	10177
887.773	10101
887.897	10249
888.021	10139
888.146	10105
888.27	10215
888.395	10169
888.519	10139
888.643	10188
888.767	10158
888.891	9983
889.015	10032
889.139	10029
889.263	9953
889.387	10040
889.511	10128
889.635	10078
889.759	9964
889.883	10017
890.006	9987
890.13	10048
890.254	10006
890.377	9979
890.501	9869
890.624	9876
890.748	9907
890.871	9762
890.995	9667
891.118	9686
891.241	9793
891.364	9740
891.488	9854
891.611	9747
891.734	9774
891.857	9747
891.98	9762
892.103	9785
892.226	9686
892.349	9728
892.471	9549
892.594	9580
892.717	9576
892.839	9641
892.962	9584
893.085	9671
893.207	9519
893.33	9549
893.452	9519
893.575	9561
893.697	9431
893.819	9584
893.941	9530
894.064	9618
894.186	9473
894.308	9359
894.43	9545
894.552	9580
894.674	9462
894.796	9325
894.918	9416
895.04	9363
895.161	9325
895.283	9401
895.405	9275
895.526	9169
895.648	9279
895.769	9218
895.891	9192
896.012	9313
896.134	9161
896.255	9161
896.376	9097
896.498	9135
896.619	9074
896.74	9043
896.861	9157
896.982	9211
897.103	9386
897.224	9123
897.345	9028
897.466	9043
897.587	8979
897.708	9062
897.828	9024
897.949	8944
898.07	8933
898.19	8925
898.311	8956
898.431	8891
898.552	8910
898.672	9036
898.792	8971
898.913	8937
899.033	8872
899.153	8788
899.273	8651
899.393	8670
899.513	8705
899.633	8819
899.753	8762
899.873	8701
899.993	8758
900.113	8746
900.232	8674
900.352	8640
900.472	8522
900.591	8549
900.711	8575
900.83	8530
900.95	8610
901.069	8689
901.189	8564
901.308	8393
901.427	8412
901.546	8370
901.665	8469
901.784	8530
901.904	8351
902.023	8370
902.141	8199
902.26	8218
902.379	8279
902.498	8195
902.617	8195
902.735	8252
902.854	8282
902.973	8252
903.091	8172
903.21	8138
903.328	8168
903.446	8126
903.565	8062
903.683	8142
903.801	8054
903.919	8088
904.038	8123
904.156	7963
904.274	8058
904.392	8043
904.51	8031
904.627	8035
904.745	8058
904.863	8084
904.981	7906
905.098	7864
905.216	7856
905.334	7921
905.451	7887
905.569	7826
905.686	7906
905.803	7875
905.921	7769
906.038	7841
906.155	7765
906.272	7723
906.389	7742
906.506	7655
906.623	7609
906.74	7594
906.857	7582
906.974	7533
907.091	7620
907.208	7738
907.324	7658
907.441	7601
907.557	7483
907.674	7400
907.79	7419
907.907	7373
908.023	7422
908.139	7411
908.256	7362
908.372	7346
908.488	7339
908.604	7316
908.72	7266
908.836	7259
908.952	7244
909.068	7289
909.184	7297
909.3	7293
909.415	7289
909.531	7240
909.647	7095
909.762	7133
909.878	7114
909.993	7129
910.108	7080
910.224	7133
910.339	7057
910.454	7027
910.57	6981
910.685	6943
910.8	7133
910.915	7103
911.03	7053
911.145	6909
911.259	6856
911.374	6848
911.489	6798
911.604	6840
911.718	6692
911.833	6749
911.947	6589
912.062	6563
912.176	6734
912.291	6711
912.405	6715
912.519	6779
912.633	6798
912.748	6665
912.862	6665
912.976	6589
913.09	6589
913.204	6574
913.318	6631
913.431	6669
913.545	6673
913.659	6745
913.772	6566
913.886	6547
914	6623
914.113	6525
914.226	6646
914.34	6650
914.453	6517
914.566	6547
914.68	6517
914.793	6513
914.906	6422
915.019	6410
915.132	6353
915.245	6388
915.358	6407
915.47	6448
915.583	6448
915.696	6456
915.809	6494
915.921	6536
916.034	6380
916.146	6422
916.259	6388
916.371	6448
916.483	6410
916.595	6388
916.708	6418
916.82	6346
916.932	6384
917.044	6350
917.156	6350
917.268	6334
917.38	6319
917.491	6300
917.603	6346
917.715	6353
917.826	6365
917.938	6315
918.049	6251
918.161	6300
918.272	6388
918.384	6426
918.495	6281
918.606	6232
918.717	6190
918.828	6281
918.939	6243
919.05	6235
919.161	6232
919.272	6121
919.383	6129
919.494	6273
919.604	6429
919.715	6308
919.826	6201
919.936	6216
920.047	6239
920.157	6342
920.267	6410
920.378	6346
920.488	6270
920.598	6441
920.708	6570
920.818	6452
920.928	6513
921.038	6574
921.148	6559
921.258	6388
921.368	6346
921.477	6258
921.587	6167
921.697	6038
921.806	6098
921.916	6072
922.025	5954
922.134	5908
922.244	5878
922.353	5927
922.462	5775
922.571	5844
922.68	5718
922.789	5668
922.898	5729
923.007	5646
923.116	5661
923.224	5642
923.333	5649
923.442	5592
923.55	5547
923.659	5570
923.767	5592
923.876	5512
923.984	5547
924.092	5478
924.201	5566
924.309	5539
924.417	5570
924.525	5505
924.633	5535
924.741	6262
924.849	5379
924.956	5463
925.064	5372
925.172	5296
925.279	5326
925.387	5318
925.494	5368
925.602	5429
925.709	5395
925.816	5242
925.924	5315
926.031	5337
926.138	5292
926.245	5326
926.352	5201
926.459	5322
926.566	5269
926.673	5193
926.779	5151
926.886	5056
926.993	5010
927.099	4999
927.206	4987
927.312	4980
927.419	5045
927.525	4946
927.631	4999
927.737	4953
927.843	4870
927.95	4755
928.056	4809
928.162	4873
928.267	4870
928.373	5231
928.479	4847
928.585	4679
928.69	4801
928.796	4702
928.901	4691
929.007	4599
929.112	4702
929.218	4649
929.323	4592
929.428	4554
929.533	4622
929.638	4523
929.743	4512
929.848	4535
929.953	4516
930.058	4451
930.163	4337
930.267	4363
930.372	4459
930.477	4295
930.581	4451
930.685	4375
930.79	4249
930.894	4310
930.998	4249
931.103	4390
931.207	4120
931.311	4051
931.415	4051
931.519	3960
931.623	3987
