Data from glass_V78500241_28.txt Node
Date: Wed Sep 01 19:14:41 CST 2021
User: usil
Spectrometer: V785-0024
Trigger mode: 0
Integration Time (sec): 4.000000E-1
Scans to average: 1
Nonlinearity correction enabled: false
Boxcar width: 0
Storing dark spectrum: false
XAxis mode: Wavelengths
Number of Pixels in Spectrum: 1024
>>>>>Begin Spectral Data<<<<<
801.071	3732
801.214	3785
801.356	3701
801.499	3793
801.641	3728
801.783	3755
801.926	3857
802.068	3854
802.211	3861
802.353	3896
802.496	3857
802.638	3934
802.78	3983
802.923	3949
803.065	3922
803.208	3880
803.35	3911
803.492	3926
803.635	3953
803.777	3804
803.919	3907
804.061	4177
804.204	3964
804.346	3994
804.488	3953
804.63	4074
804.773	3994
804.915	4051
805.057	4177
805.199	4051
805.341	4112
805.483	4147
805.626	4188
805.768	4112
805.91	4238
806.052	4219
806.194	4196
806.336	4386
806.478	4211
806.62	4204
806.762	4234
806.904	4310
807.046	4341
807.188	4196
807.33	4223
807.472	4276
807.614	4219
807.756	4299
807.898	4219
808.04	4204
808.182	4344
808.324	4383
808.465	4371
808.607	4508
808.749	4481
808.891	4489
809.033	4489
809.174	4421
809.316	4265
809.458	4230
809.6	4181
809.741	4188
809.883	4147
810.025	4192
810.166	4207
810.308	4223
810.45	4265
810.591	4261
810.733	4306
810.875	4561
811.016	4904
811.158	5147
811.299	5235
811.441	5307
811.582	5090
811.724	4679
811.865	4516
812.007	4462
812.148	4443
812.29	4421
812.431	4432
812.573	4436
812.714	4428
812.855	4386
812.997	4409
813.138	4546
813.279	4443
813.421	4443
813.562	4424
813.703	4299
813.845	4348
813.986	4291
814.127	4242
814.268	4272
814.41	4325
814.551	4303
814.692	4299
814.833	4265
814.974	4310
815.115	4329
815.256	4265
815.397	4280
815.539	4257
815.68	4188
815.821	4230
815.962	4291
816.103	4287
816.244	4276
816.385	4268
816.526	4314
816.666	4204
816.807	4173
816.948	4166
817.089	4215
817.23	4131
817.371	4055
817.512	4071
817.653	4139
817.793	4055
817.934	4032
818.075	4097
818.216	4078
818.356	4093
818.497	4010
818.638	3922
818.778	3922
818.919	3899
819.06	3846
819.2	3953
819.341	3896
819.481	3854
819.622	3934
819.762	4032
819.903	3907
820.043	3896
820.184	3850
820.324	3854
820.465	3915
820.605	3827
820.746	3876
820.886	3808
821.026	3941
821.167	3899
821.307	3960
821.447	4032
821.588	3972
821.728	3953
821.868	3949
822.008	3884
822.149	3941
822.289	3953
822.429	3835
822.569	3781
822.709	3778
822.849	3720
822.99	3766
823.13	3766
823.27	3827
823.41	3690
823.55	3762
823.69	3743
823.83	3766
823.97	3709
824.11	3644
824.25	3652
824.389	3679
824.529	3682
824.669	3660
824.809	3667
824.949	3762
825.089	3755
825.228	3690
825.368	3587
825.508	3553
825.648	3557
825.787	3641
825.927	3652
826.067	3622
826.206	3679
826.346	3808
826.485	3846
826.625	3854
826.765	3911
826.904	3835
827.044	3625
827.183	3538
827.323	3405
827.462	3519
827.601	3447
827.741	3412
827.88	3481
828.02	3355
828.159	3416
828.298	3488
828.437	3557
828.577	3511
828.716	3652
828.855	3500
828.994	3386
829.134	3370
829.273	3420
829.412	3317
829.551	3344
829.69	3336
829.829	3405
829.968	3542
830.107	3447
830.246	3450
830.385	3397
830.524	3359
830.663	3272
830.802	3268
830.941	3199
831.08	3218
831.219	3272
831.357	3253
831.496	3435
831.635	3272
831.774	3230
831.913	3203
832.051	3119
832.19	3135
832.329	3195
832.467	3127
832.606	3097
832.744	3195
832.883	3188
833.022	3199
833.16	3249
833.299	3355
833.437	3355
833.576	3409
833.714	3389
833.852	3458
833.991	3485
834.129	3496
834.267	3443
834.406	3405
834.544	3443
834.682	3420
834.821	3431
834.959	3587
835.097	3435
835.235	3542
835.373	3523
835.511	3511
835.65	3462
835.788	3519
835.926	3412
836.064	3397
836.202	3420
836.34	3564
836.478	3595
836.615	3542
836.753	3614
836.891	3671
837.029	3629
837.167	3641
837.305	3584
837.443	3584
837.58	3526
837.718	3610
837.856	3530
837.993	3568
838.131	3618
838.269	3618
838.406	3606
838.544	3576
838.681	3519
838.819	3469
838.956	3409
839.094	3435
839.231	3443
839.369	3511
839.506	3740
839.643	3633
839.781	3530
839.918	3481
840.055	3549
840.193	3523
840.33	3580
840.467	3595
840.604	3618
840.742	3823
840.879	3564
841.016	3603
841.153	3576
841.29	3793
841.427	3701
841.564	3720
841.701	3732
841.838	3766
841.975	3690
842.112	3732
842.249	3667
842.385	3667
842.522	3838
842.659	3728
842.796	3713
842.933	3759
843.069	3701
843.206	3740
843.343	3827
843.479	3778
843.616	3812
843.752	3713
843.889	3663
844.025	3876
844.162	3770
844.298	3857
844.435	3770
844.571	3793
844.708	3892
844.844	4017
844.98	3972
845.117	4002
845.253	3953
845.389	3930
845.525	3964
845.661	4002
845.798	3926
845.934	4010
846.07	3960
846.206	4078
846.342	4166
846.478	4071
846.614	3991
846.75	3934
846.886	3941
847.022	4021
847.158	4017
847.294	4029
847.429	4071
847.565	4013
847.701	4299
847.837	3899
847.972	3876
848.108	3983
848.244	3983
848.379	3865
848.515	3846
848.65	3846
848.786	3816
848.921	3907
849.057	3949
849.192	3983
849.328	3930
849.463	3903
849.598	3884
849.734	3918
849.869	3838
850.004	3819
850.14	3850
850.275	3778
850.41	3778
850.545	3770
850.68	3816
850.815	3797
850.95	3785
851.085	3930
851.22	3873
851.355	3831
851.49	3804
851.625	3812
851.76	3823
851.895	3755
852.03	3747
852.165	3797
852.299	3819
852.434	3911
852.569	3884
852.703	3888
852.838	3934
852.973	3991
853.107	4044
853.242	3911
853.376	3876
853.511	3781
853.645	3857
853.78	3991
853.914	3884
854.048	3937
854.183	3915
854.317	4013
854.451	4090
854.585	3979
854.72	3941
854.854	4097
854.988	3949
855.122	4013
855.256	3922
855.39	4051
855.524	4112
855.658	4112
855.792	4128
855.926	4177
856.06	4204
856.194	4219
856.327	4139
856.461	4166
856.595	4147
856.729	4211
856.862	4329
856.996	4299
857.13	4306
857.263	4383
857.397	4379
857.53	4291
857.664	4383
857.797	4383
857.931	4409
858.064	4424
858.197	4428
858.331	4390
858.464	4402
858.597	4371
858.731	4405
858.864	4478
858.997	4478
859.13	4531
859.263	4565
859.396	4592
859.529	4523
859.662	4538
859.795	4615
859.928	4603
860.061	4740
860.194	4744
860.327	4656
860.46	4683
860.592	4725
860.725	4790
860.858	4824
860.99	4710
861.123	4691
861.256	4683
861.388	4767
861.521	5444
861.653	4767
861.786	4710
861.918	4721
862.05	4797
862.183	4831
862.315	4881
862.447	4953
862.58	4915
862.712	4812
862.844	4755
862.976	4881
863.108	4889
863.24	5322
863.372	4870
863.504	4949
863.636	4854
863.768	4999
863.9	4908
864.032	4934
864.164	4991
864.296	5041
864.428	5113
864.559	5102
864.691	5105
864.823	5113
864.954	5109
865.086	5170
865.217	5181
865.349	5140
865.48	5178
865.612	5208
865.743	5292
865.875	5242
866.006	5227
866.137	5273
866.269	5254
866.4	5273
866.531	5250
866.662	5216
866.793	5239
866.924	5246
867.055	5406
867.186	5326
867.317	5357
867.448	5303
867.579	5280
867.71	5379
867.841	5360
867.972	5471
868.103	5516
868.233	5474
868.364	5543
868.495	5573
868.625	5657
868.756	5760
868.886	5668
869.017	5813
869.147	5916
869.278	5847
869.408	5771
869.539	5805
869.669	5950
869.799	5920
869.929	6003
870.06	6015
870.19	6213
870.32	6205
870.45	6205
870.58	6346
870.71	6441
870.84	6422
870.97	6467
871.1	6467
871.23	6734
871.36	6741
871.489	6703
871.619	6753
871.749	6852
871.879	6924
872.008	6985
872.138	7012
872.267	6970
872.397	7031
872.526	7099
872.656	7129
872.785	7190
872.915	7422
873.044	7510
873.173	7556
873.303	7655
873.432	7788
873.561	7898
873.69	7890
873.819	7997
873.948	8176
874.077	8244
874.206	8427
874.335	8499
874.464	8686
874.593	8887
874.722	9013
874.851	9093
874.979	9169
875.108	9378
875.237	9420
875.365	9485
875.494	9732
875.623	9812
875.751	9850
875.88	9922
876.008	10207
876.136	10238
876.265	10599
876.393	10710
876.521	10767
876.65	10801
876.778	10889
876.906	10862
877.034	11003
877.162	11197
877.29	11140
877.418	11296
877.546	11379
877.674	11425
877.802	11455
877.93	11505
878.058	11604
878.185	11623
878.313	11699
878.441	11771
878.568	11661
878.696	11878
878.824	11870
878.951	11935
879.079	11939
879.206	12194
879.333	12167
879.461	11999
879.588	12034
879.715	12079
879.842	12216
879.97	12121
880.097	11878
880.224	11832
880.351	11935
880.478	11901
880.605	11863
880.732	11802
880.859	12011
880.986	11885
881.112	11893
881.239	11779
881.366	11642
881.493	11627
881.619	11524
881.746	11516
881.872	11611
881.999	11528
882.125	11497
882.252	11585
882.378	11452
882.505	11543
882.631	11421
882.757	11322
882.883	11296
883.01	11284
883.136	11235
883.262	11117
883.388	11113
883.514	11288
883.64	11151
883.766	11113
883.892	10923
884.018	10987
884.143	11117
884.269	11102
884.395	10881
884.52	10816
884.646	10752
884.772	10710
884.897	10664
885.023	10755
885.148	10706
885.274	10755
885.399	10714
885.524	10573
885.65	10653
885.775	10630
885.9	10626
886.025	10656
886.15	10611
886.275	10402
886.4	10459
886.525	10329
886.65	10398
886.775	10363
886.9	10497
887.025	10512
887.149	10386
887.274	10219
887.399	10223
887.523	10158
887.648	10215
887.773	10120
887.897	10261
888.021	10215
888.146	10173
888.27	10265
888.395	10284
888.519	10215
888.643	10242
888.767	10173
888.891	10025
889.015	10032
889.139	10040
889.263	10036
889.387	10055
889.511	10078
889.635	10074
889.759	9991
889.883	9975
890.006	10017
890.13	10112
890.254	9968
890.377	9953
890.501	9895
890.624	9861
890.748	9930
890.871	9812
890.995	9770
891.118	9701
891.241	9709
891.364	9770
891.488	9854
891.611	9713
891.734	9778
891.857	9838
891.98	9682
892.103	9793
892.226	9736
892.349	9656
892.471	9545
892.594	9599
892.717	9599
892.839	9564
892.962	9679
893.085	9705
893.207	9568
893.33	9557
893.452	9606
893.575	9606
893.697	9500
893.819	9622
893.941	9618
894.064	9564
894.186	9488
894.308	9485
894.43	9614
894.552	9633
894.674	9561
894.796	9431
894.918	9374
895.04	9325
895.161	9389
895.283	9370
895.405	9245
895.526	9283
895.648	9264
895.769	9351
895.891	9253
896.012	9325
896.134	9264
896.255	9165
896.376	9150
896.498	9150
896.619	9169
896.74	9127
896.861	9142
896.982	9279
897.103	9325
897.224	9207
897.345	9081
897.466	9051
897.587	8952
897.708	9131
897.828	9013
897.949	8944
898.07	8861
898.19	8971
898.311	9013
898.431	8902
898.552	8941
898.672	9009
898.792	8986
898.913	8933
899.033	8811
899.153	8777
899.273	8682
899.393	8701
899.513	8727
899.633	8731
899.753	8739
899.873	8705
899.993	8720
900.113	8651
900.232	8750
900.352	8678
900.472	8549
900.591	8571
900.711	8613
900.83	8602
900.95	8777
901.069	8708
901.189	8663
901.308	8457
901.427	8454
901.546	8423
901.665	8473
901.784	8518
901.904	8450
902.023	8393
902.141	8187
902.26	8240
902.379	8263
902.498	8199
902.617	8221
902.735	8324
902.854	8271
902.973	8282
903.091	8206
903.21	8210
903.328	8077
903.446	8142
903.565	8088
903.683	8142
903.801	8081
903.919	8153
904.038	8134
904.156	7959
904.274	8100
904.392	8012
904.51	8096
904.627	8103
904.745	8126
904.863	8088
904.981	7955
905.098	7883
905.216	7845
905.334	7932
905.451	7887
905.569	7906
905.686	7898
905.803	7906
905.921	7788
906.038	7894
906.155	7894
906.272	7731
906.389	7674
906.506	7651
906.623	7632
906.74	7643
906.857	7529
906.974	7586
907.091	7719
907.208	7734
907.324	7704
907.441	7662
907.557	7491
907.674	7419
907.79	7377
907.907	7453
908.023	7453
908.139	7510
908.256	7407
908.372	7350
908.488	7373
908.604	7263
908.72	7244
908.836	7274
908.952	7194
909.068	7282
909.184	7263
909.3	7282
909.415	7263
909.531	7301
909.647	7145
909.762	7099
909.878	7126
909.993	7152
910.108	7149
910.224	7149
910.339	7110
910.454	7069
910.57	7012
910.685	6981
910.8	7168
910.915	7095
911.03	7027
911.145	6897
911.259	6867
911.374	6905
911.489	6837
911.604	6791
911.718	6764
911.833	6757
911.947	6696
912.062	6669
912.176	6696
912.291	6707
912.405	6696
912.519	6867
912.633	6882
912.748	6787
912.862	6707
912.976	6547
913.09	6559
913.204	6635
913.318	6639
913.431	6688
913.545	6715
913.659	6707
913.772	6688
913.886	6578
914	6513
914.113	6582
914.226	6631
914.34	6646
914.453	6486
914.566	6612
914.68	6551
914.793	6578
914.906	6456
915.019	6376
915.132	6376
915.245	6483
915.358	6361
915.47	6475
915.583	6483
915.696	6422
915.809	6582
915.921	6559
916.034	6429
916.146	6452
916.259	6410
916.371	6574
916.483	6483
916.595	6433
916.708	6350
916.82	6399
916.932	6388
917.044	6471
917.156	6395
917.268	6334
917.38	6467
917.491	6384
917.603	6315
917.715	6357
917.826	6414
917.938	6376
918.049	6262
918.161	6342
918.272	6365
918.384	6475
918.495	6334
918.606	6262
918.717	6224
918.828	6327
918.939	6281
919.05	6182
919.161	6323
919.272	6133
919.383	6213
919.494	6251
919.604	6464
919.715	6270
919.826	6220
919.936	6273
920.047	6277
920.157	6296
920.267	6467
920.378	6331
920.488	6346
920.598	6467
920.708	6582
920.818	6460
920.928	6471
921.038	6711
921.148	6574
921.258	6372
921.368	6384
921.477	6171
921.587	6163
921.697	6098
921.806	6144
921.916	6060
922.025	6030
922.134	5950
922.244	5946
922.353	5927
922.462	5817
922.571	5821
922.68	5699
922.789	5726
922.898	5722
923.007	5649
923.116	5729
923.224	5691
923.333	5642
923.442	5619
923.55	5615
923.659	5592
923.767	5638
923.876	5589
923.984	5585
924.092	5535
924.201	5535
924.309	5558
924.417	5535
924.525	5486
924.633	5490
924.741	6258
924.849	5379
924.956	5524
925.064	5368
925.172	5254
925.279	5299
925.387	5307
925.494	5357
925.602	5402
925.709	5383
925.816	5334
925.924	5307
926.031	5402
926.138	5357
926.245	5395
926.352	5208
926.459	5318
926.566	5261
926.673	5189
926.779	5159
926.886	5132
926.993	5052
927.099	5048
927.206	4984
927.312	4995
927.419	5045
927.525	4972
927.631	5014
927.737	4946
927.843	4915
927.95	4782
928.056	4805
928.162	4801
928.267	4870
928.373	5353
928.479	4881
928.585	4694
928.69	4847
928.796	4752
928.901	4672
929.007	4592
929.112	4698
929.218	4641
929.323	4630
929.428	4550
929.533	4698
929.638	4508
929.743	4573
929.848	4550
929.953	4508
930.058	4455
930.163	4318
930.267	4367
930.372	4443
930.477	4337
930.581	4493
930.685	4348
930.79	4291
930.894	4306
930.998	4246
931.103	4421
931.207	4135
931.311	4139
931.415	4040
931.519	3926
931.623	3941
