Data from glass_V78500241_1731.txt Node
Date: Wed Sep 01 19:26:29 CST 2021
User: usil
Spectrometer: V785-0024
Trigger mode: 0
Integration Time (sec): 4.000000E-1
Scans to average: 1
Nonlinearity correction enabled: false
Boxcar width: 0
Storing dark spectrum: false
XAxis mode: Wavelengths
Number of Pixels in Spectrum: 1024
>>>>>Begin Spectral Data<<<<<
801.071	3751
801.214	3762
801.356	3713
801.499	3755
801.641	3720
801.783	3797
801.926	3861
802.068	3819
802.211	3865
802.353	3918
802.496	3838
802.638	3907
802.78	3907
802.923	3865
803.065	3918
803.208	3827
803.35	3888
803.492	3884
803.635	3899
803.777	3816
803.919	3888
804.061	4166
804.204	3968
804.346	3926
804.488	3922
804.63	3998
804.773	3934
804.915	4029
805.057	4173
805.199	4029
805.341	4128
805.483	4135
805.626	4120
805.768	4063
805.91	4154
806.052	4211
806.194	4188
806.336	4318
806.478	4196
806.62	4173
806.762	4207
806.904	4230
807.046	4341
807.188	4230
807.33	4166
807.472	4230
807.614	4154
807.756	4280
807.898	4207
808.04	4219
808.182	4287
808.324	4325
808.465	4383
808.607	4424
808.749	4428
808.891	4462
809.033	4516
809.174	4409
809.316	4291
809.458	4223
809.6	4105
809.741	4158
809.883	4177
810.025	4162
810.166	4223
810.308	4207
810.45	4227
810.591	4204
810.733	4261
810.875	4497
811.016	4797
811.158	5159
811.299	5353
811.441	5258
811.582	5025
811.724	4706
811.865	4466
812.007	4462
812.148	4466
812.29	4398
812.431	4447
812.573	4413
812.714	4367
812.855	4462
812.997	4424
813.138	4462
813.279	4421
813.421	4352
813.562	4398
813.703	4333
813.845	4341
813.986	4253
814.127	4215
814.268	4238
814.41	4306
814.551	4234
814.692	4344
814.833	4265
814.974	4348
815.115	4333
815.256	4215
815.397	4268
815.539	4204
815.68	4162
815.821	4227
815.962	4318
816.103	4299
816.244	4268
816.385	4234
816.526	4276
816.666	4234
816.807	4120
816.948	4116
817.089	4173
817.23	4158
817.371	4082
817.512	4078
817.653	4025
817.793	4036
817.934	4048
818.075	4120
818.216	4040
818.356	4078
818.497	3994
818.638	3934
818.778	3922
818.919	3907
819.06	3854
819.2	3964
819.341	3915
819.481	3835
819.622	3911
819.762	4025
819.903	3934
820.043	3842
820.184	3793
820.324	3835
820.465	3865
820.605	3842
820.746	3812
820.886	3793
821.026	3907
821.167	3918
821.307	3956
821.447	3968
821.588	3945
821.728	3953
821.868	3937
822.008	3884
822.149	3918
822.289	3896
822.429	3762
822.569	3766
822.709	3835
822.849	3701
822.99	3740
823.13	3755
823.27	3766
823.41	3698
823.55	3762
823.69	3713
823.83	3705
823.97	3663
824.11	3576
824.25	3564
824.389	3606
824.529	3667
824.669	3641
824.809	3679
824.949	3781
825.089	3717
825.228	3724
825.368	3610
825.508	3564
825.648	3584
825.787	3644
825.927	3610
826.067	3633
826.206	3682
826.346	3785
826.485	3838
826.625	3842
826.765	3956
826.904	3865
827.044	3644
827.183	3526
827.323	3424
827.462	3477
827.601	3424
827.741	3447
827.88	3496
828.02	3329
828.159	3409
828.298	3469
828.437	3549
828.577	3496
828.716	3580
828.855	3492
828.994	3367
829.134	3344
829.273	3378
829.412	3340
829.551	3317
829.69	3340
829.829	3450
829.968	3496
830.107	3424
830.246	3462
830.385	3378
830.524	3351
830.663	3294
830.802	3233
830.941	3245
831.08	3207
831.219	3256
831.357	3298
831.496	3412
831.635	3253
831.774	3176
831.913	3211
832.051	3157
832.19	3116
832.329	3218
832.467	3127
832.606	3142
832.744	3150
832.883	3161
833.022	3211
833.16	3287
833.299	3344
833.437	3306
833.576	3336
833.714	3374
833.852	3420
833.991	3416
834.129	3447
834.267	3412
834.406	3405
834.544	3409
834.682	3416
834.821	3435
834.959	3603
835.097	3439
835.235	3534
835.373	3534
835.511	3534
835.65	3466
835.788	3504
835.926	3409
836.064	3382
836.202	3428
836.34	3553
836.478	3595
836.615	3515
836.753	3587
836.891	3656
837.029	3629
837.167	3603
837.305	3587
837.443	3545
837.58	3492
837.718	3595
837.856	3545
837.993	3511
838.131	3576
838.269	3568
838.406	3553
838.544	3603
838.681	3454
838.819	3462
838.956	3329
839.094	3386
839.231	3416
839.369	3519
839.506	3720
839.643	3660
839.781	3500
839.918	3466
840.055	3462
840.193	3561
840.33	3481
840.467	3530
840.604	3587
840.742	3789
840.879	3549
841.016	3568
841.153	3587
841.29	3709
841.427	3709
841.564	3682
841.701	3770
841.838	3736
841.975	3660
842.112	3698
842.249	3682
842.385	3614
842.522	3804
842.659	3641
842.796	3675
842.933	3686
843.069	3709
843.206	3705
843.343	3785
843.479	3797
843.616	3804
843.752	3686
843.889	3701
844.025	3816
844.162	3675
844.298	3808
844.435	3823
844.571	3800
844.708	3915
844.844	3964
844.98	3979
845.117	4002
845.253	3945
845.389	3861
845.525	3979
845.661	3911
845.798	3937
845.934	3998
846.07	3934
846.206	4044
846.342	4116
846.478	4082
846.614	3987
846.75	3922
846.886	3930
847.022	4055
847.158	3998
847.294	4010
847.429	4032
847.565	3975
847.701	4234
847.837	3892
847.972	3850
848.108	3953
848.244	3945
848.379	3873
848.515	3812
848.65	3793
848.786	3819
848.921	3861
849.057	3934
849.192	3934
849.328	3956
849.463	3911
849.598	3861
849.734	3876
849.869	3838
850.004	3770
850.14	3812
850.275	3766
850.41	3743
850.545	3785
850.68	3724
850.815	3797
850.95	3831
851.085	3934
851.22	3869
851.355	3846
851.49	3793
851.625	3778
851.76	3800
851.895	3766
852.03	3690
852.165	3812
852.299	3838
852.434	3896
852.569	3865
852.703	3876
852.838	3922
852.973	3994
853.107	4021
853.242	3884
853.376	3873
853.511	3751
853.645	3804
853.78	3979
853.914	3930
854.048	3884
854.183	3831
854.317	3964
854.451	4071
854.585	3934
854.72	3918
854.854	4032
854.988	3941
855.122	3991
855.256	3937
855.39	3991
855.524	4067
855.658	4082
855.792	4139
855.926	4135
856.06	4150
856.194	4249
856.327	4196
856.461	4143
856.595	4158
856.729	4188
856.862	4249
856.996	4242
857.13	4268
857.263	4322
857.397	4398
857.53	4284
857.664	4356
857.797	4405
857.931	4413
858.064	4352
858.197	4432
858.331	4402
858.464	4390
858.597	4348
858.731	4466
858.864	4474
858.997	4512
859.13	4538
859.263	4538
859.396	4573
859.529	4478
859.662	4580
859.795	4523
859.928	4607
860.061	4649
860.194	4763
860.327	4694
860.46	4630
860.592	4691
860.725	4752
860.858	4793
860.99	4687
861.123	4660
861.256	4694
861.388	4767
861.521	5376
861.653	4691
861.786	4702
861.918	4733
862.05	4812
862.183	4809
862.315	4900
862.447	4927
862.58	4892
862.712	4805
862.844	4778
862.976	4866
863.108	4885
863.24	5235
863.372	4820
863.504	4900
863.636	4923
863.768	4965
863.9	4972
864.032	4965
864.164	4995
864.296	5033
864.428	5105
864.559	5109
864.691	5083
864.823	5056
864.954	5071
865.086	5140
865.217	5124
865.349	5128
865.48	5170
865.612	5235
865.743	5307
865.875	5239
866.006	5178
866.137	5246
866.269	5227
866.4	5246
866.531	5258
866.662	5235
866.793	5277
866.924	5269
867.055	5337
867.186	5307
867.317	5326
867.448	5315
867.579	5379
867.71	5345
867.841	5429
867.972	5402
868.103	5452
868.233	5486
868.364	5516
868.495	5512
868.625	5665
868.756	5775
868.886	5581
869.017	5714
869.147	5863
869.278	5847
869.408	5809
869.539	5832
869.669	5912
869.799	5908
869.929	5958
870.06	6045
870.19	6171
870.32	6152
870.45	6232
870.58	6315
870.71	6475
870.84	6429
870.97	6395
871.1	6486
871.23	6646
871.36	6700
871.489	6642
871.619	6764
871.749	6814
871.879	6856
872.008	6973
872.138	7012
872.267	6954
872.397	7004
872.526	7019
872.656	7126
872.785	7255
872.915	7297
873.044	7590
873.173	7518
873.303	7670
873.432	7757
873.561	7925
873.69	7947
873.819	7982
873.948	8161
874.077	8237
874.206	8381
874.335	8419
874.464	8659
874.593	8845
874.722	8914
874.851	9089
874.979	9226
875.108	9351
875.237	9424
875.365	9458
875.494	9644
875.623	9797
875.751	9850
875.88	9998
876.008	10158
876.136	10287
876.265	10519
876.393	10729
876.521	10793
876.65	10752
876.778	10892
876.906	10881
877.034	11071
877.162	11155
877.29	11159
877.418	11353
877.546	11345
877.674	11383
877.802	11490
877.93	11532
878.058	11493
878.185	11532
878.313	11710
878.441	11760
878.568	11653
878.696	11691
878.824	11809
878.951	11893
879.079	12030
879.206	12197
879.333	12053
879.461	11954
879.588	12102
879.715	12117
879.842	12133
879.97	12125
880.097	11859
880.224	11878
880.351	11836
880.478	11920
880.605	11859
880.732	11809
880.859	12022
880.986	11809
881.112	11851
881.239	11764
881.366	11729
881.493	11589
881.619	11554
881.746	11554
881.872	11414
881.999	11520
882.125	11402
882.252	11532
882.378	11547
882.505	11581
882.631	11322
882.757	11258
882.883	11345
883.01	11242
883.136	11151
883.262	11113
883.388	11090
883.514	11220
883.64	11174
883.766	11067
883.892	11064
884.018	10915
884.143	11056
884.269	11109
884.395	10854
884.52	10790
884.646	10774
884.772	10752
884.897	10622
885.023	10656
885.148	10759
885.274	10771
885.399	10733
885.524	10675
885.65	10569
885.775	10519
885.9	10542
886.025	10577
886.15	10550
886.275	10402
886.4	10348
886.525	10436
886.65	10379
886.775	10325
886.9	10417
887.025	10497
887.149	10379
887.274	10280
887.399	10227
887.523	10196
887.648	10147
887.773	10162
887.897	10272
888.021	10227
888.146	10143
888.27	10265
888.395	10196
888.519	10188
888.643	10261
888.767	10196
888.891	10048
889.015	9941
889.139	10006
889.263	9964
889.387	10131
889.511	10143
889.635	9953
889.759	9911
889.883	10017
890.006	9983
890.13	10112
890.254	9941
890.377	9941
890.501	9884
890.624	9831
890.748	9930
890.871	9804
890.995	9781
891.118	9724
891.241	9831
891.364	9724
891.488	9812
891.611	9766
891.734	9743
891.857	9740
891.98	9751
892.103	9755
892.226	9755
892.349	9675
892.471	9538
892.594	9671
892.717	9595
892.839	9629
892.962	9663
893.085	9618
893.207	9549
893.33	9485
893.452	9386
893.575	9526
893.697	9576
893.819	9587
893.941	9553
894.064	9564
894.186	9507
894.308	9359
894.43	9534
894.552	9553
894.674	9447
894.796	9408
894.918	9382
895.04	9355
895.161	9393
895.283	9214
895.405	9256
895.526	9237
895.648	9195
895.769	9253
895.891	9195
896.012	9272
896.134	9211
896.255	9241
896.376	9070
896.498	9146
896.619	9135
896.74	9100
896.861	9093
896.982	9291
897.103	9287
897.224	9142
897.345	9089
897.466	8979
897.587	9024
897.708	9032
897.828	9066
897.949	8941
898.07	8861
898.19	8937
898.311	8994
898.431	8895
898.552	8906
898.672	8921
898.792	8929
898.913	8914
899.033	8811
899.153	8788
899.273	8731
899.393	8667
899.513	8743
899.633	8777
899.753	8739
899.873	8678
899.993	8663
900.113	8697
900.232	8670
900.352	8621
900.472	8613
900.591	8625
900.711	8621
900.83	8575
900.95	8670
901.069	8667
901.189	8575
901.308	8427
901.427	8389
901.546	8446
901.665	8454
901.784	8526
901.904	8415
902.023	8347
902.141	8294
902.26	8153
902.379	8282
902.498	8157
902.617	8221
902.735	8271
902.854	8256
902.973	8199
903.091	8210
903.21	8187
903.328	8210
903.446	8088
903.565	8077
903.683	8084
903.801	8012
903.919	8134
904.038	8172
904.156	7959
904.274	8100
904.392	8081
904.51	7970
904.627	8024
904.745	8065
904.863	8046
904.981	7902
905.098	7811
905.216	7932
905.334	7898
905.451	7906
905.569	7928
905.686	7864
905.803	7898
905.921	7784
906.038	7864
906.155	7753
906.272	7715
906.389	7715
906.506	7685
906.623	7597
906.74	7628
906.857	7529
906.974	7567
907.091	7636
907.208	7757
907.324	7670
907.441	7563
907.557	7480
907.674	7430
907.79	7384
907.907	7392
908.023	7518
908.139	7411
908.256	7415
908.372	7388
908.488	7392
908.604	7263
908.72	7209
908.836	7228
908.952	7202
909.068	7270
909.184	7324
909.3	7232
909.415	7236
909.531	7259
909.647	7107
909.762	7084
909.878	7099
909.993	7156
910.108	7110
910.224	7050
910.339	7084
910.454	7046
910.57	7023
910.685	6943
910.8	7160
910.915	7065
911.03	7046
911.145	6863
911.259	6863
911.374	6840
911.489	6848
911.604	6833
911.718	6749
911.833	6738
911.947	6677
912.062	6604
912.176	6749
912.291	6711
912.405	6684
912.519	6821
912.633	6783
912.748	6764
912.862	6692
912.976	6673
913.09	6570
913.204	6566
913.318	6616
913.431	6673
913.545	6700
913.659	6764
913.772	6696
913.886	6578
914	6574
914.113	6597
914.226	6684
914.34	6669
914.453	6475
914.566	6631
914.68	6509
914.793	6479
914.906	6460
915.019	6429
915.132	6327
915.245	6399
915.358	6441
915.47	6441
915.583	6456
915.696	6460
915.809	6555
915.921	6464
916.034	6380
916.146	6433
916.259	6384
916.371	6525
916.483	6475
916.595	6350
916.708	6357
916.82	6365
916.932	6357
917.044	6460
917.156	6391
917.268	6350
917.38	6331
917.491	6266
917.603	6304
917.715	6380
917.826	6441
917.938	6323
918.049	6266
918.161	6399
918.272	6410
918.384	6407
918.495	6338
918.606	6315
918.717	6148
918.828	6285
918.939	6289
919.05	6194
919.161	6292
919.272	6102
919.383	6110
919.494	6331
919.604	6433
919.715	6254
919.826	6281
919.936	6327
920.047	6376
920.157	6281
920.267	6429
920.378	6277
920.488	6346
920.598	6407
920.708	6536
920.818	6532
920.928	6456
921.038	6604
921.148	6578
921.258	6372
921.368	6273
921.477	6228
921.587	6190
921.697	6038
921.806	6167
921.916	6045
922.025	5885
922.134	5893
922.244	5885
922.353	5954
922.462	5824
922.571	5832
922.68	5676
922.789	5672
922.898	5680
923.007	5672
923.116	5688
923.224	5699
923.333	5661
923.442	5630
923.55	5649
923.659	5577
923.767	5627
923.876	5558
923.984	5608
924.092	5520
924.201	5611
924.309	5551
924.417	5558
924.525	5448
924.633	5478
924.741	6243
924.849	5357
924.956	5524
925.064	5364
925.172	5311
925.279	5357
925.387	5353
925.494	5345
925.602	5444
925.709	5383
925.816	5220
925.924	5345
926.031	5364
926.138	5299
926.245	5303
926.352	5201
926.459	5357
926.566	5322
926.673	5208
926.779	5128
926.886	5136
926.993	5018
927.099	4999
927.206	4934
927.312	4957
927.419	5037
927.525	4961
927.631	4949
927.737	4858
927.843	4847
927.95	4782
928.056	4797
928.162	4831
928.267	4870
928.373	5357
928.479	4786
928.585	4687
928.69	4774
928.796	4763
928.901	4717
929.007	4588
929.112	4675
929.218	4637
929.323	4603
929.428	4554
929.533	4660
929.638	4508
929.743	4565
929.848	4558
929.953	4535
930.058	4398
930.163	4295
930.267	4299
930.372	4421
930.477	4306
930.581	4470
930.685	4363
930.79	4268
930.894	4246
930.998	4303
931.103	4337
931.207	4101
931.311	4082
931.415	4051
931.519	3937
931.623	3945
