Data from glass_V78500241_1793.txt Node
Date: Wed Sep 01 19:26:55 CST 2021
User: usil
Spectrometer: V785-0024
Trigger mode: 0
Integration Time (sec): 4.000000E-1
Scans to average: 1
Nonlinearity correction enabled: false
Boxcar width: 0
Storing dark spectrum: false
XAxis mode: Wavelengths
Number of Pixels in Spectrum: 1024
>>>>>Begin Spectral Data<<<<<
801.071	3747
801.214	3747
801.356	3694
801.499	3736
801.641	3778
801.783	3759
801.926	3816
802.068	3827
802.211	3884
802.353	3880
802.496	3846
802.638	3873
802.78	3880
802.923	3945
803.065	3865
803.208	3842
803.35	3911
803.492	3880
803.635	3907
803.777	3808
803.919	3899
804.061	4116
804.204	3941
804.346	3949
804.488	3926
804.63	4063
804.773	3975
804.915	4071
805.057	4150
805.199	4021
805.341	4093
805.483	4109
805.626	4135
805.768	4086
805.91	4200
806.052	4242
806.194	4246
806.336	4348
806.478	4223
806.62	4181
806.762	4177
806.904	4219
807.046	4371
807.188	4223
807.33	4181
807.472	4272
807.614	4173
807.756	4272
807.898	4177
808.04	4207
808.182	4318
808.324	4310
808.465	4360
808.607	4466
808.749	4421
808.891	4436
809.033	4489
809.174	4379
809.316	4344
809.458	4227
809.6	4128
809.741	4120
809.883	4124
810.025	4185
810.166	4227
810.308	4219
810.45	4268
810.591	4287
810.733	4265
810.875	4504
811.016	4805
811.158	5121
811.299	5292
811.441	5258
811.582	5060
811.724	4714
811.865	4443
812.007	4470
812.148	4432
812.29	4462
812.431	4409
812.573	4402
812.714	4402
812.855	4402
812.997	4371
813.138	4516
813.279	4417
813.421	4398
813.562	4398
813.703	4291
813.845	4367
813.986	4253
814.127	4261
814.268	4238
814.41	4303
814.551	4242
814.692	4337
814.833	4261
814.974	4344
815.115	4325
815.256	4230
815.397	4253
815.539	4211
815.68	4143
815.821	4192
815.962	4329
816.103	4257
816.244	4211
816.385	4185
816.526	4276
816.666	4207
816.807	4109
816.948	4192
817.089	4166
817.23	4120
817.371	4059
817.512	4067
817.653	4078
817.793	4021
817.934	4036
818.075	4074
818.216	4086
818.356	4078
818.497	4013
818.638	3934
818.778	3896
818.919	3907
819.06	3861
819.2	3953
819.341	3838
819.481	3861
819.622	3907
819.762	4017
819.903	3960
820.043	3835
820.184	3816
820.324	3823
820.465	3850
820.605	3892
820.746	3884
820.886	3785
821.026	3922
821.167	3926
821.307	3991
821.447	3964
821.588	3960
821.728	3975
821.868	3960
822.008	3838
822.149	3922
822.289	3911
822.429	3789
822.569	3717
822.709	3778
822.849	3705
822.99	3679
823.13	3743
823.27	3774
823.41	3705
823.55	3728
823.69	3690
823.83	3724
823.97	3686
824.11	3595
824.25	3622
824.389	3622
824.529	3675
824.669	3625
824.809	3701
824.949	3728
825.089	3732
825.228	3656
825.368	3568
825.508	3561
825.648	3557
825.787	3625
825.927	3580
826.067	3648
826.206	3701
826.346	3812
826.485	3819
826.625	3876
826.765	3953
826.904	3831
827.044	3610
827.183	3534
827.323	3435
827.462	3466
827.601	3428
827.741	3424
827.88	3454
828.02	3374
828.159	3466
828.298	3473
828.437	3485
828.577	3488
828.716	3591
828.855	3492
828.994	3420
829.134	3332
829.273	3439
829.412	3348
829.551	3367
829.69	3378
829.829	3424
829.968	3511
830.107	3447
830.246	3420
830.385	3363
830.524	3332
830.663	3313
830.802	3294
830.941	3199
831.08	3226
831.219	3264
831.357	3268
831.496	3378
831.635	3256
831.774	3192
831.913	3195
832.051	3119
832.19	3104
832.329	3222
832.467	3116
832.606	3108
832.744	3154
832.883	3169
833.022	3176
833.16	3249
833.299	3325
833.437	3355
833.576	3378
833.714	3405
833.852	3435
833.991	3462
834.129	3454
834.267	3450
834.406	3397
834.544	3424
834.682	3416
834.821	3386
834.959	3557
835.097	3416
835.235	3530
835.373	3511
835.511	3469
835.65	3462
835.788	3481
835.926	3355
836.064	3416
836.202	3401
836.34	3568
836.478	3629
836.615	3530
836.753	3587
836.891	3648
837.029	3576
837.167	3564
837.305	3542
837.443	3523
837.58	3504
837.718	3580
837.856	3534
837.993	3549
838.131	3591
838.269	3549
838.406	3534
838.544	3568
838.681	3424
838.819	3454
838.956	3355
839.094	3409
839.231	3447
839.369	3530
839.506	3713
839.643	3633
839.781	3500
839.918	3462
840.055	3557
840.193	3519
840.33	3542
840.467	3576
840.604	3591
840.742	3797
840.879	3553
841.016	3542
841.153	3614
841.29	3755
841.427	3690
841.564	3728
841.701	3717
841.838	3690
841.975	3671
842.112	3717
842.249	3633
842.385	3625
842.522	3850
842.659	3641
842.796	3648
842.933	3675
843.069	3717
843.206	3701
843.343	3793
843.479	3759
843.616	3819
843.752	3698
843.889	3709
844.025	3804
844.162	3740
844.298	3823
844.435	3766
844.571	3778
844.708	3884
844.844	4021
844.98	3972
845.117	4017
845.253	3903
845.389	3907
845.525	3983
845.661	3960
845.798	3884
845.934	4051
846.07	4017
846.206	4036
846.342	4097
846.478	4051
846.614	3964
846.75	3968
846.886	3941
847.022	4093
847.158	4040
847.294	3979
847.429	4013
847.565	3968
847.701	4227
847.837	3865
847.972	3854
848.108	3983
848.244	3960
848.379	3865
848.515	3804
848.65	3835
848.786	3869
848.921	3873
849.057	3896
849.192	3975
849.328	3899
849.463	3922
849.598	3884
849.734	3838
849.869	3850
850.004	3800
850.14	3857
850.275	3759
850.41	3743
850.545	3751
850.68	3762
850.815	3797
850.95	3789
851.085	3945
851.22	3835
851.355	3793
851.49	3819
851.625	3797
851.76	3774
851.895	3793
852.03	3686
852.165	3800
852.299	3880
852.434	3880
852.569	3865
852.703	3880
852.838	3934
852.973	3972
853.107	4017
853.242	3861
853.376	3854
853.511	3778
853.645	3831
853.78	3975
853.914	3888
854.048	3903
854.183	3869
854.317	3934
854.451	4040
854.585	3934
854.72	3953
854.854	4067
854.988	3896
855.122	3991
855.256	3884
855.39	4021
855.524	4135
855.658	4078
855.792	4051
855.926	4131
856.06	4128
856.194	4215
856.327	4097
856.461	4097
856.595	4158
856.729	4219
856.862	4223
856.996	4261
857.13	4348
857.263	4348
857.397	4371
857.53	4268
857.664	4344
857.797	4371
857.931	4383
858.064	4375
858.197	4489
858.331	4375
858.464	4421
858.597	4363
858.731	4417
858.864	4455
858.997	4455
859.13	4504
859.263	4493
859.396	4569
859.529	4504
859.662	4535
859.795	4527
859.928	4584
860.061	4706
860.194	4725
860.327	4649
860.46	4645
860.592	4736
860.725	4710
860.858	4771
860.99	4702
861.123	4691
861.256	4660
861.388	4759
861.521	5345
861.653	4717
861.786	4710
861.918	4767
862.05	4759
862.183	4809
862.315	4870
862.447	4984
862.58	4885
862.712	4797
862.844	4744
862.976	4873
863.108	4858
863.24	5299
863.372	4786
863.504	4923
863.636	4961
863.768	4968
863.9	4927
864.032	4892
864.164	4984
864.296	5029
864.428	5113
864.559	5086
864.691	5098
864.823	5124
864.954	5102
865.086	5102
865.217	5086
865.349	5105
865.48	5140
865.612	5185
865.743	5246
865.875	5201
866.006	5181
866.137	5284
866.269	5231
866.4	5193
866.531	5265
866.662	5181
866.793	5231
866.924	5280
867.055	5345
867.186	5330
867.317	5318
867.448	5303
867.579	5341
867.71	5376
867.841	5334
867.972	5402
868.103	5444
868.233	5505
868.364	5512
868.495	5535
868.625	5672
868.756	5828
868.886	5695
869.017	5752
869.147	5798
869.278	5817
869.408	5790
869.539	5855
869.669	5923
869.799	5984
869.929	6030
870.06	6030
870.19	6136
870.32	6190
870.45	6254
870.58	6350
870.71	6429
870.84	6418
870.97	6426
871.1	6441
871.23	6665
871.36	6719
871.489	6665
871.619	6730
871.749	6753
871.879	6890
872.008	6989
872.138	6989
872.267	7034
872.397	7042
872.526	7019
872.656	7023
872.785	7198
872.915	7422
873.044	7540
873.173	7563
873.303	7624
873.432	7765
873.561	7871
873.69	7917
873.819	8050
873.948	8187
874.077	8218
874.206	8434
874.335	8480
874.464	8625
874.593	8853
874.722	8861
874.851	9154
874.979	9203
875.108	9386
875.237	9424
875.365	9504
875.494	9705
875.623	9911
875.751	9861
875.88	9941
876.008	10166
876.136	10295
876.265	10451
876.393	10675
876.521	10740
876.65	10866
876.778	10911
876.906	10812
877.034	10987
877.162	11060
877.29	11181
877.418	11311
877.546	11410
877.674	11509
877.802	11509
877.93	11532
878.058	11539
878.185	11532
878.313	11657
878.441	11726
878.568	11684
878.696	11798
878.824	11866
878.951	11939
879.079	12102
879.206	12136
879.333	12087
879.461	12030
879.588	12114
879.715	11996
879.842	12247
879.97	12057
880.097	11805
880.224	11999
880.351	11878
880.478	11878
880.605	11790
880.732	11805
880.859	11988
880.986	11904
881.112	11805
881.239	11745
881.366	11684
881.493	11566
881.619	11516
881.746	11623
881.872	11501
881.999	11570
882.125	11482
882.252	11551
882.378	11486
882.505	11547
882.631	11364
882.757	11292
882.883	11356
883.01	11254
883.136	11185
883.262	11147
883.388	11056
883.514	11189
883.64	11220
883.766	10965
883.892	10930
884.018	10987
884.143	11033
884.269	11098
884.395	10797
884.52	10793
884.646	10752
884.772	10752
884.897	10645
885.023	10664
885.148	10771
885.274	10736
885.399	10714
885.524	10580
885.65	10596
885.775	10626
885.9	10626
886.025	10687
886.15	10413
886.275	10466
886.4	10409
886.525	10398
886.65	10371
886.775	10325
886.9	10519
887.025	10485
887.149	10348
887.274	10154
887.399	10287
887.523	10173
887.648	10116
887.773	10154
887.897	10234
888.021	10249
888.146	10082
888.27	10215
888.395	10207
888.519	10261
888.643	10246
888.767	10181
888.891	10105
889.015	10074
889.139	10055
889.263	10040
889.387	10051
889.511	10101
889.635	10101
889.759	9983
889.883	9998
890.006	9941
890.13	10036
890.254	9937
890.377	9869
890.501	9831
890.624	9850
890.748	9823
890.871	9774
890.995	9751
891.118	9648
891.241	9751
891.364	9774
891.488	9793
891.611	9732
891.734	9743
891.857	9728
891.98	9770
892.103	9755
892.226	9682
892.349	9732
892.471	9511
892.594	9603
892.717	9622
892.839	9629
892.962	9618
893.085	9675
893.207	9584
893.33	9485
893.452	9492
893.575	9641
893.697	9507
893.819	9542
893.941	9633
894.064	9561
894.186	9424
894.308	9450
894.43	9477
894.552	9584
894.674	9564
894.796	9389
894.918	9435
895.04	9378
895.161	9408
895.283	9393
895.405	9233
895.526	9332
895.648	9260
895.769	9245
895.891	9253
896.012	9230
896.134	9207
896.255	9207
896.376	9142
896.498	9169
896.619	9188
896.74	9100
896.861	9119
896.982	9245
897.103	9348
897.224	9192
897.345	9097
897.466	8990
897.587	8982
897.708	9127
897.828	9089
897.949	8979
898.07	8910
898.19	8967
898.311	8906
898.431	8864
898.552	8853
898.672	8998
898.792	8925
898.913	8899
899.033	8826
899.153	8815
899.273	8629
899.393	8644
899.513	8739
899.633	8716
899.753	8708
899.873	8667
899.993	8773
900.113	8697
900.232	8766
900.352	8640
900.472	8564
900.591	8598
900.711	8632
900.83	8564
900.95	8667
901.069	8682
901.189	8560
901.308	8461
901.427	8339
901.546	8434
901.665	8457
901.784	8461
901.904	8374
902.023	8324
902.141	8206
902.26	8218
902.379	8336
902.498	8286
902.617	8233
902.735	8320
902.854	8294
902.973	8267
903.091	8130
903.21	8161
903.328	8157
903.446	8153
903.565	8035
903.683	8115
903.801	8100
903.919	8100
904.038	8111
904.156	8069
904.274	8031
904.392	8084
904.51	8054
904.627	7993
904.745	8115
904.863	8073
904.981	7879
905.098	7833
905.216	7818
905.334	7852
905.451	7868
905.569	7845
905.686	7894
905.803	7860
905.921	7852
906.038	7868
906.155	7818
906.272	7719
906.389	7750
906.506	7689
906.623	7643
906.74	7632
906.857	7514
906.974	7552
907.091	7597
907.208	7708
907.324	7632
907.441	7571
907.557	7422
907.674	7388
907.79	7365
907.907	7457
908.023	7468
908.139	7422
908.256	7343
908.372	7350
908.488	7362
908.604	7263
908.72	7247
908.836	7266
908.952	7251
909.068	7202
909.184	7346
909.3	7301
909.415	7346
909.531	7289
909.647	7107
909.762	7110
909.878	7099
909.993	7137
910.108	7076
910.224	7114
910.339	7133
910.454	7061
910.57	7061
910.685	6962
910.8	7141
910.915	7129
911.03	7004
911.145	6897
911.259	6897
911.374	6875
911.489	6848
911.604	6806
911.718	6749
911.833	6768
911.947	6669
912.062	6570
912.176	6749
912.291	6688
912.405	6692
912.519	6825
912.633	6821
912.748	6730
912.862	6639
912.976	6616
913.09	6528
913.204	6585
913.318	6585
913.431	6726
913.545	6688
913.659	6722
913.772	6711
913.886	6570
914	6517
914.113	6646
914.226	6639
914.34	6582
914.453	6555
914.566	6650
914.68	6494
914.793	6521
914.906	6418
915.019	6391
915.132	6319
915.245	6391
915.358	6437
915.47	6441
915.583	6464
915.696	6456
915.809	6528
915.921	6544
916.034	6410
916.146	6437
916.259	6410
916.371	6426
916.483	6388
916.595	6391
916.708	6350
916.82	6391
916.932	6426
917.044	6372
917.156	6357
917.268	6315
917.38	6353
917.491	6342
917.603	6285
917.715	6403
917.826	6376
917.938	6289
918.049	6258
918.161	6357
918.272	6441
918.384	6445
918.495	6418
918.606	6270
918.717	6197
918.828	6350
918.939	6289
919.05	6201
919.161	6197
919.272	6106
919.383	6197
919.494	6289
919.604	6490
919.715	6247
919.826	6243
919.936	6190
920.047	6331
920.157	6292
920.267	6460
920.378	6323
920.488	6266
920.598	6456
920.708	6597
920.818	6498
920.928	6441
921.038	6582
921.148	6585
921.258	6361
921.368	6308
921.477	6220
921.587	6186
921.697	6098
921.806	6148
921.916	6136
922.025	5931
922.134	5958
922.244	5885
922.353	5958
922.462	5863
922.571	5866
922.68	5703
922.789	5646
922.898	5688
923.007	5672
923.116	5691
923.224	5649
923.333	5703
923.442	5630
923.55	5608
923.659	5608
923.767	5649
923.876	5539
923.984	5573
924.092	5471
924.201	5573
924.309	5520
924.417	5543
924.525	5509
924.633	5486
924.741	6285
924.849	5379
924.956	5463
925.064	5296
925.172	5299
925.279	5330
925.387	5345
925.494	5284
925.602	5501
925.709	5402
925.816	5273
925.924	5334
926.031	5357
926.138	5303
926.245	5357
926.352	5197
926.459	5299
926.566	5303
926.673	5223
926.779	5064
926.886	5098
926.993	5037
927.099	4972
927.206	4938
927.312	4987
927.419	5003
927.525	4984
927.631	4961
927.737	4911
927.843	4843
927.95	4786
928.056	4824
928.162	4839
928.267	4858
928.373	5376
928.479	4866
928.585	4672
928.69	4774
928.796	4755
928.901	4698
929.007	4611
929.112	4656
929.218	4622
929.323	4645
929.428	4558
929.533	4592
929.638	4508
929.743	4550
929.848	4542
929.953	4535
930.058	4390
930.163	4325
930.267	4314
930.372	4462
930.477	4303
930.581	4474
930.685	4333
930.79	4306
930.894	4272
930.998	4246
931.103	4409
931.207	4109
931.311	4101
931.415	4032
931.519	3956
931.623	3945
