Data from glass_V78500241_385.txt Node
Date: Wed Sep 01 19:17:10 CST 2021
User: usil
Spectrometer: V785-0024
Trigger mode: 0
Integration Time (sec): 4.000000E-1
Scans to average: 1
Nonlinearity correction enabled: false
Boxcar width: 0
Storing dark spectrum: false
XAxis mode: Wavelengths
Number of Pixels in Spectrum: 1024
>>>>>Begin Spectral Data<<<<<
801.071	3797
801.214	3789
801.356	3701
801.499	3747
801.641	3747
801.783	3793
801.926	3857
802.068	3838
802.211	3880
802.353	3892
802.496	3854
802.638	3857
802.78	3945
802.923	3972
803.065	3899
803.208	3888
803.35	3911
803.492	3896
803.635	3953
803.777	3804
803.919	3918
804.061	4143
804.204	3964
804.346	3945
804.488	3918
804.63	4074
804.773	3960
804.915	4040
805.057	4112
805.199	4051
805.341	4090
805.483	4158
805.626	4139
805.768	4120
805.91	4230
806.052	4192
806.194	4196
806.336	4371
806.478	4192
806.62	4166
806.762	4177
806.904	4268
807.046	4333
807.188	4219
807.33	4185
807.472	4272
807.614	4234
807.756	4249
807.898	4246
808.04	4238
808.182	4322
808.324	4306
808.465	4386
808.607	4459
808.749	4478
808.891	4478
809.033	4512
809.174	4440
809.316	4276
809.458	4299
809.6	4188
809.741	4181
809.883	4162
810.025	4192
810.166	4196
810.308	4238
810.45	4261
810.591	4242
810.733	4291
810.875	4500
811.016	4809
811.158	5128
811.299	5284
811.441	5265
811.582	5067
811.724	4717
811.865	4440
812.007	4516
812.148	4455
812.29	4451
812.431	4394
812.573	4455
812.714	4402
812.855	4424
812.997	4417
813.138	4474
813.279	4447
813.421	4436
813.562	4360
813.703	4383
813.845	4375
813.986	4230
814.127	4280
814.268	4257
814.41	4284
814.551	4261
814.692	4329
814.833	4329
814.974	4306
815.115	4318
815.256	4246
815.397	4188
815.539	4268
815.68	4227
815.821	4257
815.962	4344
816.103	4329
816.244	4257
816.385	4299
816.526	4280
816.666	4230
816.807	4131
816.948	4185
817.089	4181
817.23	4154
817.371	4082
817.512	4086
817.653	4109
817.793	4051
817.934	4059
818.075	4082
818.216	4101
818.356	4131
818.497	4010
818.638	3956
818.778	3934
818.919	3941
819.06	3926
819.2	3930
819.341	3854
819.481	3846
819.622	3930
819.762	4021
819.903	3998
820.043	3865
820.184	3835
820.324	3838
820.465	3934
820.605	3892
820.746	3915
820.886	3800
821.026	3930
821.167	3926
821.307	4013
821.447	3972
821.588	3994
821.728	3953
821.868	3941
822.008	3915
822.149	3941
822.289	3922
822.429	3759
822.569	3751
822.709	3819
822.849	3720
822.99	3762
823.13	3770
823.27	3781
823.41	3720
823.55	3762
823.69	3705
823.83	3774
823.97	3663
824.11	3622
824.25	3652
824.389	3625
824.529	3667
824.669	3622
824.809	3747
824.949	3797
825.089	3736
825.228	3720
825.368	3557
825.508	3568
825.648	3587
825.787	3629
825.927	3637
826.067	3633
826.206	3648
826.346	3823
826.485	3838
826.625	3819
826.765	3998
826.904	3869
827.044	3641
827.183	3606
827.323	3447
827.462	3511
827.601	3435
827.741	3439
827.88	3515
828.02	3374
828.159	3439
828.298	3488
828.437	3523
828.577	3511
828.716	3614
828.855	3523
828.994	3382
829.134	3359
829.273	3386
829.412	3393
829.551	3367
829.69	3359
829.829	3469
829.968	3545
830.107	3454
830.246	3428
830.385	3389
830.524	3378
830.663	3329
830.802	3260
830.941	3222
831.08	3157
831.219	3275
831.357	3294
831.496	3389
831.635	3260
831.774	3199
831.913	3230
832.051	3165
832.19	3169
832.329	3218
832.467	3173
832.606	3116
832.744	3203
832.883	3226
833.022	3233
833.16	3283
833.299	3283
833.437	3332
833.576	3332
833.714	3458
833.852	3450
833.991	3492
834.129	3481
834.267	3481
834.406	3405
834.544	3450
834.682	3481
834.821	3420
834.959	3599
835.097	3424
835.235	3572
835.373	3469
835.511	3504
835.65	3469
835.788	3485
835.926	3393
836.064	3450
836.202	3382
836.34	3584
836.478	3633
836.615	3561
836.753	3644
836.891	3652
837.029	3663
837.167	3622
837.305	3538
837.443	3523
837.58	3469
837.718	3606
837.856	3545
837.993	3568
838.131	3580
838.269	3599
838.406	3572
838.544	3629
838.681	3485
838.819	3473
838.956	3443
839.094	3370
839.231	3485
839.369	3526
839.506	3732
839.643	3644
839.781	3485
839.918	3492
840.055	3530
840.193	3523
840.33	3568
840.467	3561
840.604	3641
840.742	3831
840.879	3549
841.016	3576
841.153	3614
841.29	3713
841.427	3755
841.564	3743
841.701	3743
841.838	3690
841.975	3751
842.112	3686
842.249	3663
842.385	3648
842.522	3808
842.659	3705
842.796	3720
842.933	3747
843.069	3679
843.206	3694
843.343	3831
843.479	3789
843.616	3816
843.752	3686
843.889	3690
844.025	3842
844.162	3747
844.298	3861
844.435	3827
844.571	3831
844.708	3915
844.844	3998
844.98	4067
845.117	3975
845.253	3941
845.389	3892
845.525	3941
845.661	3941
845.798	3915
845.934	4063
846.07	3972
846.206	4093
846.342	4147
846.478	4078
846.614	4029
846.75	3945
846.886	3934
847.022	4036
847.158	4021
847.294	4006
847.429	4032
847.565	4029
847.701	4150
847.837	3918
847.972	3861
848.108	4025
848.244	3968
848.379	3880
848.515	3838
848.65	3827
848.786	3816
848.921	3861
849.057	3968
849.192	3975
849.328	3964
849.463	3926
849.598	3865
849.734	3861
849.869	3876
850.004	3827
850.14	3812
850.275	3835
850.41	3785
850.545	3781
850.68	3831
850.815	3781
850.95	3808
851.085	3941
851.22	3880
851.355	3854
851.49	3778
851.625	3804
851.76	3781
851.895	3717
852.03	3766
852.165	3850
852.299	3880
852.434	3903
852.569	3876
852.703	3926
852.838	3945
852.973	4006
853.107	4006
853.242	3899
853.376	3869
853.511	3751
853.645	3819
853.78	3968
853.914	3922
854.048	3903
854.183	3892
854.317	3991
854.451	4101
854.585	3975
854.72	3934
854.854	4063
854.988	3934
855.122	3991
855.256	3888
855.39	4010
855.524	4143
855.658	4071
855.792	4143
855.926	4147
856.06	4204
856.194	4230
856.327	4128
856.461	4158
856.595	4158
856.729	4188
856.862	4280
856.996	4268
857.13	4325
857.263	4322
857.397	4413
857.53	4337
857.664	4367
857.797	4405
857.931	4440
858.064	4421
858.197	4497
858.331	4405
858.464	4405
858.597	4329
858.731	4398
858.864	4424
858.997	4493
859.13	4527
859.263	4558
859.396	4561
859.529	4538
859.662	4603
859.795	4531
859.928	4618
860.061	4771
860.194	4790
860.327	4706
860.46	4641
860.592	4714
860.725	4771
860.858	4812
860.99	4683
861.123	4675
861.256	4748
861.388	4771
861.521	5455
861.653	4740
861.786	4774
861.918	4740
862.05	4831
862.183	4889
862.315	4900
862.447	4919
862.58	4946
862.712	4824
862.844	4782
862.976	4854
863.108	4858
863.24	5284
863.372	4850
863.504	4911
863.636	4927
863.768	4980
863.9	4946
864.032	4957
864.164	4995
864.296	5014
864.428	5113
864.559	5098
864.691	5140
864.823	5155
864.954	5117
865.086	5189
865.217	5151
865.349	5166
865.48	5193
865.612	5227
865.743	5353
865.875	5140
866.006	5204
866.137	5220
866.269	5220
866.4	5235
866.531	5254
866.662	5299
866.793	5261
866.924	5326
867.055	5299
867.186	5387
867.317	5322
867.448	5307
867.579	5357
867.71	5364
867.841	5410
867.972	5482
868.103	5490
868.233	5474
868.364	5532
868.495	5490
868.625	5611
868.756	5775
868.886	5699
869.017	5718
869.147	5866
869.278	5958
869.408	5813
869.539	5840
869.669	5916
869.799	5931
869.929	6022
870.06	5969
870.19	6190
870.32	6239
870.45	6277
870.58	6315
870.71	6441
870.84	6448
870.97	6426
871.1	6483
871.23	6669
871.36	6722
871.489	6749
871.619	6772
871.749	6894
871.879	6856
872.008	6962
872.138	7019
872.267	6973
872.397	7000
872.526	7076
872.656	7118
872.785	7236
872.915	7320
873.044	7529
873.173	7563
873.303	7601
873.432	7765
873.561	7849
873.69	7894
873.819	8046
873.948	8092
874.077	8259
874.206	8294
874.335	8419
874.464	8632
874.593	8864
874.722	8902
874.851	9127
874.979	9317
875.108	9393
875.237	9462
875.365	9443
875.494	9667
875.623	9838
875.751	9800
875.88	9934
876.008	10192
876.136	10284
876.265	10538
876.393	10755
876.521	10740
876.65	10850
876.778	10831
876.906	10968
877.034	11029
877.162	11083
877.29	11166
877.418	11261
877.546	11425
877.674	11402
877.802	11512
877.93	11512
878.058	11497
878.185	11539
878.313	11661
878.441	11726
878.568	11703
878.696	11779
878.824	11813
878.951	12019
879.079	12022
879.206	12209
879.333	12102
879.461	12011
879.588	12019
879.715	12102
879.842	12163
879.97	12060
880.097	11893
880.224	11935
880.351	11885
880.478	11942
880.605	11878
880.732	11805
880.859	12072
880.986	11813
881.112	11828
881.239	11741
881.366	11551
881.493	11695
881.619	11585
881.746	11558
881.872	11493
881.999	11535
882.125	11535
882.252	11528
882.378	11467
882.505	11448
882.631	11490
882.757	11296
882.883	11326
883.01	11258
883.136	11140
883.262	11109
883.388	11098
883.514	11239
883.64	11147
883.766	11117
883.892	11006
884.018	11010
884.143	11109
884.269	11045
884.395	10900
884.52	10831
884.646	10809
884.772	10694
884.897	10687
885.023	10767
885.148	10736
885.274	10809
885.399	10717
885.524	10565
885.65	10596
885.775	10531
885.9	10561
886.025	10603
886.15	10538
886.275	10459
886.4	10379
886.525	10382
886.65	10375
886.775	10356
886.9	10447
887.025	10527
887.149	10440
887.274	10287
887.399	10261
887.523	10242
887.648	10067
887.773	10120
887.897	10253
888.021	10177
888.146	10219
888.27	10166
888.395	10306
888.519	10200
888.643	10192
888.767	10242
888.891	10101
889.015	10067
889.139	10055
889.263	10017
889.387	10101
889.511	10063
889.635	10078
889.759	9987
889.883	10036
890.006	10044
890.13	10112
890.254	10017
890.377	9949
890.501	9892
890.624	9888
890.748	9911
890.871	9789
890.995	9743
891.118	9743
891.241	9740
891.364	9743
891.488	9873
891.611	9740
891.734	9720
891.857	9751
891.98	9770
892.103	9770
892.226	9705
892.349	9709
892.471	9526
892.594	9557
892.717	9633
892.839	9610
892.962	9656
893.085	9663
893.207	9698
893.33	9485
893.452	9545
893.575	9549
893.697	9488
893.819	9587
893.941	9618
894.064	9572
894.186	9462
894.308	9393
894.43	9564
894.552	9584
894.674	9523
894.796	9374
894.918	9435
895.04	9378
895.161	9298
895.283	9329
895.405	9321
895.526	9264
895.648	9287
895.769	9260
895.891	9233
896.012	9294
896.134	9275
896.255	9176
896.376	9077
896.498	9161
896.619	9108
896.74	9074
896.861	9123
896.982	9310
897.103	9294
897.224	9192
897.345	9138
897.466	8986
897.587	8960
897.708	9131
897.828	9009
897.949	8982
898.07	8914
898.19	8937
898.311	8986
898.431	8933
898.552	8891
898.672	9009
898.792	8986
898.913	8887
899.033	8849
899.153	8762
899.273	8686
899.393	8769
899.513	8766
899.633	8746
899.753	8796
899.873	8701
899.993	8766
900.113	8693
900.232	8750
900.352	8648
900.472	8598
900.591	8522
900.711	8560
900.83	8579
900.95	8689
901.069	8766
901.189	8583
901.308	8419
901.427	8370
901.546	8434
901.665	8499
901.784	8492
901.904	8377
902.023	8332
902.141	8259
902.26	8244
902.379	8320
902.498	8161
902.617	8240
902.735	8294
902.854	8313
902.973	8164
903.091	8138
903.21	8069
903.328	8199
903.446	8157
903.565	8103
903.683	8096
903.801	8039
903.919	8073
904.038	8092
904.156	8001
904.274	8050
904.392	8054
904.51	8043
904.627	8012
904.745	8084
904.863	8062
904.981	7883
905.098	7883
905.216	7894
905.334	7875
905.451	8016
905.569	7875
905.686	7925
905.803	7890
905.921	7833
906.038	7906
906.155	7845
906.272	7708
906.389	7734
906.506	7636
906.623	7605
906.74	7597
906.857	7556
906.974	7559
907.091	7712
907.208	7715
907.324	7624
907.441	7540
907.557	7487
907.674	7426
907.79	7419
907.907	7392
908.023	7426
908.139	7476
908.256	7464
908.372	7407
908.488	7419
908.604	7266
908.72	7285
908.836	7297
908.952	7297
909.068	7301
909.184	7400
909.3	7282
909.415	7266
909.531	7308
909.647	7118
909.762	7099
909.878	7107
909.993	7133
910.108	7038
910.224	7145
910.339	7110
910.454	7046
910.57	6981
910.685	6973
910.8	7240
910.915	7122
911.03	7042
911.145	6882
911.259	6875
911.374	6920
911.489	6837
911.604	6821
911.718	6760
911.833	6738
911.947	6642
912.062	6597
912.176	6734
912.291	6757
912.405	6741
912.519	6859
912.633	6875
912.748	6764
912.862	6673
912.976	6616
913.09	6525
913.204	6627
913.318	6627
913.431	6673
913.545	6703
913.659	6662
913.772	6585
913.886	6604
914	6544
914.113	6608
914.226	6673
914.34	6559
914.453	6486
914.566	6623
914.68	6513
914.793	6585
914.906	6441
915.019	6441
915.132	6376
915.245	6410
915.358	6445
915.47	6486
915.583	6494
915.696	6525
915.809	6547
915.921	6517
916.034	6471
916.146	6365
916.259	6388
916.371	6490
916.483	6437
916.595	6407
916.708	6448
916.82	6380
916.932	6376
917.044	6384
917.156	6399
917.268	6357
917.38	6365
917.491	6350
917.603	6369
917.715	6418
917.826	6433
917.938	6292
918.049	6216
918.161	6376
918.272	6445
918.384	6498
918.495	6350
918.606	6304
918.717	6243
918.828	6254
918.939	6266
919.05	6178
919.161	6228
919.272	6159
919.383	6201
919.494	6292
919.604	6410
919.715	6304
919.826	6232
919.936	6220
920.047	6311
920.157	6304
920.267	6452
920.378	6376
920.488	6281
920.598	6475
920.708	6536
920.818	6407
920.928	6551
921.038	6597
921.148	6555
921.258	6376
921.368	6273
921.477	6205
921.587	6144
921.697	6110
921.806	6224
921.916	6136
922.025	5977
922.134	5958
922.244	5863
922.353	5927
922.462	5840
922.571	5756
922.68	5722
922.789	5684
922.898	5695
923.007	5649
923.116	5767
923.224	5657
923.333	5691
923.442	5623
923.55	5573
923.659	5630
923.767	5699
923.876	5535
923.984	5642
924.092	5543
924.201	5581
924.309	5551
924.417	5535
924.525	5501
924.633	5524
924.741	6258
924.849	5383
924.956	5482
925.064	5402
925.172	5292
925.279	5349
925.387	5364
925.494	5368
925.602	5436
925.709	5436
925.816	5231
925.924	5315
926.031	5398
926.138	5334
926.245	5334
926.352	5258
926.459	5326
926.566	5349
926.673	5235
926.779	5147
926.886	5105
926.993	5041
927.099	5014
927.206	4984
927.312	4968
927.419	5037
927.525	4995
927.631	5003
927.737	4885
927.843	4877
927.95	4816
928.056	4839
928.162	4801
928.267	4870
928.373	5288
928.479	4858
928.585	4725
928.69	4771
928.796	4793
928.901	4649
929.007	4607
929.112	4675
929.218	4637
929.323	4561
929.428	4577
929.533	4660
929.638	4546
929.743	4531
929.848	4611
929.953	4538
930.058	4459
930.163	4367
930.267	4371
930.372	4432
930.477	4318
930.581	4500
930.685	4341
930.79	4272
930.894	4318
930.998	4246
931.103	4394
931.207	4105
931.311	4093
931.415	4078
931.519	3949
931.623	3979
