Data from glass_V78500241_2060.txt Node
Date: Wed Sep 01 19:28:46 CST 2021
User: usil
Spectrometer: V785-0024
Trigger mode: 0
Integration Time (sec): 4.000000E-1
Scans to average: 1
Nonlinearity correction enabled: false
Boxcar width: 0
Storing dark spectrum: false
XAxis mode: Wavelengths
Number of Pixels in Spectrum: 1024
>>>>>Begin Spectral Data<<<<<
801.071	3732
801.214	3705
801.356	3698
801.499	3728
801.641	3747
801.783	3781
801.926	3850
802.068	3812
802.211	3857
802.353	3869
802.496	3819
802.638	3880
802.78	3892
802.923	3930
803.065	3873
803.208	3854
803.35	3896
803.492	3888
803.635	3941
803.777	3823
803.919	3876
804.061	4150
804.204	3941
804.346	3911
804.488	3934
804.63	4025
804.773	3968
804.915	4036
805.057	4139
805.199	3998
805.341	4036
805.483	4181
805.626	4112
805.768	4120
805.91	4192
806.052	4211
806.194	4188
806.336	4352
806.478	4150
806.62	4185
806.762	4223
806.904	4234
807.046	4306
807.188	4192
807.33	4173
807.472	4242
807.614	4139
807.756	4291
807.898	4291
808.04	4211
808.182	4238
808.324	4291
808.465	4360
808.607	4462
808.749	4443
808.891	4485
809.033	4474
809.174	4386
809.316	4257
809.458	4314
809.6	4135
809.741	4139
809.883	4169
810.025	4188
810.166	4188
810.308	4227
810.45	4280
810.591	4223
810.733	4276
810.875	4546
811.016	4847
811.158	5067
811.299	5250
811.441	5258
811.582	5064
811.724	4702
811.865	4474
812.007	4462
812.148	4451
812.29	4455
812.431	4367
812.573	4424
812.714	4405
812.855	4405
812.997	4409
813.138	4497
813.279	4405
813.421	4337
813.562	4405
813.703	4367
813.845	4333
813.986	4246
814.127	4242
814.268	4284
814.41	4242
814.551	4246
814.692	4291
814.833	4287
814.974	4310
815.115	4363
815.256	4253
815.397	4234
815.539	4242
815.68	4192
815.821	4227
815.962	4299
816.103	4276
816.244	4238
816.385	4207
816.526	4234
816.666	4166
816.807	4124
816.948	4116
817.089	4169
817.23	4131
817.371	4067
817.512	4044
817.653	4071
817.793	4021
817.934	4010
818.075	4059
818.216	4048
818.356	4067
818.497	3991
818.638	3899
818.778	3930
818.919	3899
819.06	3850
819.2	3930
819.341	3854
819.481	3819
819.622	3915
819.762	4017
819.903	3945
820.043	3835
820.184	3793
820.324	3812
820.465	3850
820.605	3861
820.746	3854
820.886	3781
821.026	3945
821.167	3865
821.307	3991
821.447	3979
821.588	3934
821.728	3930
821.868	3964
822.008	3835
822.149	3918
822.289	3937
822.429	3778
822.569	3736
822.709	3762
822.849	3637
822.99	3728
823.13	3743
823.27	3781
823.41	3713
823.55	3724
823.69	3698
823.83	3720
823.97	3698
824.11	3644
824.25	3622
824.389	3629
824.529	3663
824.669	3637
824.809	3709
824.949	3762
825.089	3709
825.228	3709
825.368	3599
825.508	3511
825.648	3587
825.787	3599
825.927	3599
826.067	3641
826.206	3625
826.346	3781
826.485	3827
826.625	3865
826.765	3888
826.904	3842
827.044	3576
827.183	3530
827.323	3389
827.462	3481
827.601	3412
827.741	3409
827.88	3424
828.02	3355
828.159	3420
828.298	3466
828.437	3526
828.577	3469
828.716	3610
828.855	3443
828.994	3412
829.134	3355
829.273	3401
829.412	3317
829.551	3313
829.69	3389
829.829	3397
829.968	3492
830.107	3378
830.246	3454
830.385	3363
830.524	3355
830.663	3298
830.802	3275
830.941	3180
831.08	3207
831.219	3241
831.357	3264
831.496	3405
831.635	3173
831.774	3161
831.913	3199
832.051	3138
832.19	3142
832.329	3176
832.467	3112
832.606	3104
832.744	3150
832.883	3173
833.022	3192
833.16	3237
833.299	3279
833.437	3325
833.576	3351
833.714	3409
833.852	3424
833.991	3416
834.129	3458
834.267	3450
834.406	3374
834.544	3439
834.682	3431
834.821	3412
834.959	3557
835.097	3420
835.235	3507
835.373	3477
835.511	3496
835.65	3428
835.788	3500
835.926	3405
836.064	3393
836.202	3397
836.34	3564
836.478	3599
836.615	3492
836.753	3606
836.891	3694
837.029	3603
837.167	3591
837.305	3568
837.443	3568
837.58	3473
837.718	3633
837.856	3568
837.993	3496
838.131	3587
838.269	3576
838.406	3545
838.544	3603
838.681	3435
838.819	3466
838.956	3317
839.094	3359
839.231	3412
839.369	3477
839.506	3736
839.643	3606
839.781	3500
839.918	3492
840.055	3542
840.193	3511
840.33	3523
840.467	3591
840.604	3614
840.742	3774
840.879	3534
841.016	3564
841.153	3641
841.29	3747
841.427	3679
841.564	3679
841.701	3736
841.838	3679
841.975	3682
842.112	3724
842.249	3660
842.385	3603
842.522	3819
842.659	3694
842.796	3679
842.933	3713
843.069	3720
843.206	3709
843.343	3781
843.479	3781
843.616	3800
843.752	3644
843.889	3667
844.025	3869
844.162	3705
844.298	3827
844.435	3778
844.571	3781
844.708	3892
844.844	3979
844.98	4002
845.117	3994
845.253	3896
845.389	3876
845.525	4010
845.661	3964
845.798	3922
845.934	3991
846.07	3972
846.206	4032
846.342	4086
846.478	4071
846.614	3941
846.75	3926
846.886	3903
847.022	4044
847.158	3945
847.294	3968
847.429	4006
847.565	3998
847.701	4276
847.837	3842
847.972	3907
848.108	3975
848.244	3903
848.379	3854
848.515	3831
848.65	3831
848.786	3823
848.921	3846
849.057	3911
849.192	3926
849.328	3884
849.463	3892
849.598	3884
849.734	3846
849.869	3797
850.004	3740
850.14	3808
850.275	3766
850.41	3736
850.545	3778
850.68	3797
850.815	3751
850.95	3759
851.085	3899
851.22	3861
851.355	3812
851.49	3812
851.625	3766
851.76	3797
851.895	3766
852.03	3743
852.165	3774
852.299	3888
852.434	3816
852.569	3869
852.703	3857
852.838	3949
852.973	3983
853.107	3956
853.242	3899
853.376	3835
853.511	3736
853.645	3800
853.78	3945
853.914	3907
854.048	3876
854.183	3873
854.317	3956
854.451	4090
854.585	3903
854.72	3949
854.854	4013
854.988	3884
855.122	3945
855.256	3880
855.39	4006
855.524	4147
855.658	4048
855.792	4097
855.926	4128
856.06	4173
856.194	4188
856.327	4135
856.461	4147
856.595	4154
856.729	4120
856.862	4272
856.996	4261
857.13	4272
857.263	4363
857.397	4318
857.53	4268
857.664	4363
857.797	4394
857.931	4383
858.064	4367
858.197	4436
858.331	4413
858.464	4371
858.597	4352
858.731	4413
858.864	4440
858.997	4455
859.13	4497
859.263	4523
859.396	4573
859.529	4523
859.662	4489
859.795	4546
859.928	4599
860.061	4714
860.194	4698
860.327	4649
860.46	4603
860.592	4725
860.725	4763
860.858	4771
860.99	4679
861.123	4634
861.256	4691
861.388	4752
861.521	5417
861.653	4755
861.786	4698
861.918	4714
862.05	4778
862.183	4835
862.315	4881
862.447	4965
862.58	4892
862.712	4812
862.844	4793
862.976	4892
863.108	4866
863.24	5128
863.372	4820
863.504	4892
863.636	4900
863.768	4946
863.9	4949
864.032	4923
864.164	4991
864.296	5018
864.428	5090
864.559	5124
864.691	5117
864.823	5083
864.954	5083
865.086	5136
865.217	5159
865.349	5098
865.48	5143
865.612	5166
865.743	5265
865.875	5132
866.006	5159
866.137	5147
866.269	5231
866.4	5204
866.531	5220
866.662	5277
866.793	5235
866.924	5269
867.055	5349
867.186	5307
867.317	5269
867.448	5315
867.579	5372
867.71	5318
867.841	5357
867.972	5463
868.103	5402
868.233	5455
868.364	5486
868.495	5528
868.625	5627
868.756	5741
868.886	5653
869.017	5760
869.147	5832
869.278	5885
869.408	5847
869.539	5836
869.669	5897
869.799	5897
869.929	5999
870.06	6019
870.19	6213
870.32	6205
870.45	6251
870.58	6338
870.71	6414
870.84	6464
870.97	6464
871.1	6441
871.23	6658
871.36	6745
871.489	6662
871.619	6772
871.749	6844
871.879	6871
872.008	6996
872.138	6913
872.267	6985
872.397	7023
872.526	7004
872.656	7088
872.785	7232
872.915	7343
873.044	7480
873.173	7502
873.303	7685
873.432	7677
873.561	7811
873.69	7894
873.819	7963
873.948	8115
874.077	8301
874.206	8317
874.335	8545
874.464	8537
874.593	8826
874.722	8902
874.851	9055
874.979	9199
875.108	9336
875.237	9405
875.365	9515
875.494	9603
875.623	9770
875.751	9876
875.88	10002
876.008	10154
876.136	10253
876.265	10485
876.393	10637
876.521	10717
876.65	10824
876.778	10850
876.906	10843
877.034	10946
877.162	11098
877.29	11178
877.418	11239
877.546	11288
877.674	11436
877.802	11402
877.93	11589
878.058	11471
878.185	11554
878.313	11653
878.441	11745
878.568	11661
878.696	11737
878.824	11824
878.951	11908
879.079	12015
879.206	12140
879.333	12034
879.461	12003
879.588	12072
879.715	12064
879.842	12220
879.97	12068
880.097	11874
880.224	11988
880.351	11897
880.478	11939
880.605	11809
880.732	11843
880.859	11950
880.986	11802
881.112	11817
881.239	11668
881.366	11627
881.493	11589
881.619	11543
881.746	11604
881.872	11554
881.999	11444
882.125	11463
882.252	11547
882.378	11467
882.505	11558
882.631	11455
882.757	11364
882.883	11277
883.01	11212
883.136	11258
883.262	11162
883.388	11105
883.514	11178
883.64	11147
883.766	11090
883.892	11048
884.018	11010
884.143	11003
884.269	11086
884.395	10824
884.52	10816
884.646	10721
884.772	10664
884.897	10679
885.023	10656
885.148	10706
885.274	10778
885.399	10656
885.524	10577
885.65	10561
885.775	10554
885.9	10630
886.025	10634
886.15	10577
886.275	10413
886.4	10421
886.525	10337
886.65	10379
886.775	10299
886.9	10440
887.025	10493
887.149	10394
887.274	10188
887.399	10211
887.523	10150
887.648	10158
887.773	10021
887.897	10265
888.021	10215
888.146	10143
888.27	10219
888.395	10303
888.519	10230
888.643	10204
888.767	10219
888.891	10013
889.015	10067
889.139	10032
889.263	9949
889.387	10048
889.511	10078
889.635	9998
889.759	9960
889.883	10013
890.006	9964
890.13	10074
890.254	9964
890.377	9930
890.501	9899
890.624	9903
890.748	9865
890.871	9770
890.995	9648
891.118	9755
891.241	9751
891.364	9755
891.488	9804
891.611	9736
891.734	9698
891.857	9732
891.98	9701
892.103	9781
892.226	9686
892.349	9625
892.471	9500
892.594	9553
892.717	9648
892.839	9549
892.962	9644
893.085	9663
893.207	9622
893.33	9526
893.452	9564
893.575	9576
893.697	9523
893.819	9747
893.941	9633
894.064	9553
894.186	9408
894.308	9439
894.43	9485
894.552	9561
894.674	9447
894.796	9397
894.918	9321
895.04	9367
895.161	9321
895.283	9340
895.405	9222
895.526	9253
895.648	9332
895.769	9226
895.891	9226
896.012	9142
896.134	9180
896.255	9195
896.376	9119
896.498	9154
896.619	9142
896.74	9047
896.861	9100
896.982	9291
897.103	9272
897.224	9214
897.345	8979
897.466	8960
897.587	9051
897.708	9138
897.828	9013
897.949	8952
898.07	8887
898.19	8857
898.311	8960
898.431	8899
898.552	9017
898.672	8971
898.792	8834
898.913	8906
899.033	8769
899.153	8724
899.273	8617
899.393	8731
899.513	8743
899.633	8777
899.753	8716
899.873	8693
899.993	8800
900.113	8686
900.232	8743
900.352	8629
900.472	8632
900.591	8583
900.711	8598
900.83	8511
900.95	8640
901.069	8651
901.189	8579
901.308	8408
901.427	8374
901.546	8457
901.665	8503
901.784	8522
901.904	8419
902.023	8229
902.141	8282
902.26	8244
902.379	8267
902.498	8206
902.617	8206
902.735	8309
902.854	8305
902.973	8237
903.091	8115
903.21	8107
903.328	8100
903.446	8130
903.565	7989
903.683	8058
903.801	8058
903.919	8176
904.038	8130
904.156	8031
904.274	8103
904.392	8016
904.51	8031
904.627	8024
904.745	8142
904.863	8119
904.981	7955
905.098	7868
905.216	7852
905.334	7947
905.451	7894
905.569	7898
905.686	7845
905.803	7951
905.921	7723
906.038	7883
906.155	7772
906.272	7769
906.389	7712
906.506	7651
906.623	7609
906.74	7605
906.857	7586
906.974	7594
907.091	7594
907.208	7708
907.324	7556
907.441	7575
907.557	7495
907.674	7449
907.79	7346
907.907	7377
908.023	7419
908.139	7381
908.256	7396
908.372	7350
908.488	7362
908.604	7198
908.72	7240
908.836	7263
908.952	7278
909.068	7263
909.184	7362
909.3	7168
909.415	7251
909.531	7335
909.647	7095
909.762	7053
909.878	7110
909.993	7084
910.108	7046
910.224	7015
910.339	7099
910.454	7023
910.57	7038
910.685	6901
910.8	7198
910.915	7129
911.03	7012
911.145	6901
911.259	6886
911.374	6928
911.489	6806
911.604	6810
911.718	6738
911.833	6711
911.947	6677
912.062	6597
912.176	6654
912.291	6665
912.405	6726
912.519	6779
912.633	6795
912.748	6681
912.862	6703
912.976	6585
913.09	6574
913.204	6509
913.318	6612
913.431	6673
913.545	6669
913.659	6722
913.772	6627
913.886	6582
914	6502
914.113	6627
914.226	6639
914.34	6601
914.453	6521
914.566	6612
914.68	6509
914.793	6521
914.906	6422
915.019	6426
915.132	6395
915.245	6433
915.358	6399
915.47	6426
915.583	6437
915.696	6475
915.809	6490
915.921	6517
916.034	6407
916.146	6429
916.259	6407
916.371	6475
916.483	6471
916.595	6399
916.708	6357
916.82	6429
916.932	6323
917.044	6410
917.156	6391
917.268	6315
917.38	6308
917.491	6308
917.603	6365
917.715	6365
917.826	6414
917.938	6357
918.049	6346
918.161	6334
918.272	6369
918.384	6410
918.495	6346
918.606	6251
918.717	6266
918.828	6266
918.939	6216
919.05	6213
919.161	6251
919.272	6114
919.383	6121
919.494	6331
919.604	6384
919.715	6319
919.826	6213
919.936	6232
920.047	6289
920.157	6209
920.267	6391
920.378	6342
920.488	6296
920.598	6452
920.708	6532
920.818	6429
920.928	6464
921.038	6566
921.148	6601
921.258	6319
921.368	6342
921.477	6220
921.587	6163
921.697	6087
921.806	6152
921.916	6064
922.025	5984
922.134	5901
922.244	5920
922.353	5980
922.462	5908
922.571	5828
922.68	5688
922.789	5672
922.898	5729
923.007	5592
923.116	5733
923.224	5710
923.333	5684
923.442	5589
923.55	5589
923.659	5619
923.767	5596
923.876	5535
923.984	5539
924.092	5474
924.201	5573
924.309	5577
924.417	5539
924.525	5482
924.633	5528
924.741	6270
924.849	5376
924.956	5455
925.064	5372
925.172	5280
925.279	5288
925.387	5353
925.494	5353
925.602	5478
925.709	5398
925.816	5269
925.924	5322
926.031	5372
926.138	5235
926.245	5277
926.352	5254
926.459	5345
926.566	5326
926.673	5136
926.779	5121
926.886	5090
926.993	4942
927.099	4991
927.206	4972
927.312	4968
927.419	5037
927.525	4896
927.631	4946
927.737	4908
927.843	4885
927.95	4793
928.056	4816
928.162	4816
928.267	4831
928.373	5212
928.479	4797
928.585	4694
928.69	4767
928.796	4801
928.901	4698
929.007	4565
929.112	4729
929.218	4634
929.323	4554
929.428	4512
929.533	4675
929.638	4565
929.743	4565
929.848	4554
929.953	4481
930.058	4436
930.163	4348
930.267	4360
930.372	4432
930.477	4318
930.581	4428
930.685	4367
930.79	4230
930.894	4246
930.998	4249
931.103	4341
931.207	4082
931.311	4059
931.415	4036
931.519	3907
931.623	3956
