Data from glass_V78500241_623.txt Node
Date: Wed Sep 01 19:18:49 CST 2021
User: usil
Spectrometer: V785-0024
Trigger mode: 0
Integration Time (sec): 4.000000E-1
Scans to average: 1
Nonlinearity correction enabled: false
Boxcar width: 0
Storing dark spectrum: false
XAxis mode: Wavelengths
Number of Pixels in Spectrum: 1024
>>>>>Begin Spectral Data<<<<<
801.071	3743
801.214	3778
801.356	3698
801.499	3774
801.641	3740
801.783	3793
801.926	3846
802.068	3865
802.211	3888
802.353	3892
802.496	3827
802.638	3880
802.78	3869
802.923	3964
803.065	3903
803.208	3823
803.35	3896
803.492	3922
803.635	3926
803.777	3835
803.919	3899
804.061	4162
804.204	3964
804.346	3983
804.488	3907
804.63	4029
804.773	3983
804.915	4032
805.057	4173
805.199	4082
805.341	4109
805.483	4139
805.626	4173
805.768	4169
805.91	4265
806.052	4219
806.194	4234
806.336	4348
806.478	4188
806.62	4185
806.762	4196
806.904	4265
807.046	4325
807.188	4215
807.33	4150
807.472	4276
807.614	4230
807.756	4257
807.898	4219
808.04	4268
808.182	4287
808.324	4306
808.465	4333
808.607	4489
808.749	4466
808.891	4474
809.033	4459
809.174	4443
809.316	4276
809.458	4227
809.6	4150
809.741	4177
809.883	4177
810.025	4295
810.166	4246
810.308	4234
810.45	4261
810.591	4265
810.733	4322
810.875	4538
811.016	4835
811.158	5147
811.299	5299
811.441	5284
811.582	5102
811.724	4717
811.865	4485
812.007	4455
812.148	4455
812.29	4470
812.431	4417
812.573	4447
812.714	4379
812.855	4386
812.997	4428
813.138	4447
813.279	4394
813.421	4451
813.562	4375
813.703	4352
813.845	4352
813.986	4268
814.127	4246
814.268	4310
814.41	4341
814.551	4291
814.692	4329
814.833	4295
814.974	4322
815.115	4344
815.256	4234
815.397	4242
815.539	4242
815.68	4230
815.821	4249
815.962	4341
816.103	4314
816.244	4253
816.385	4215
816.526	4265
816.666	4234
816.807	4120
816.948	4200
817.089	4215
817.23	4154
817.371	4048
817.512	4093
817.653	4059
817.793	4025
817.934	4063
818.075	4169
818.216	4051
818.356	4078
818.497	4017
818.638	3964
818.778	3960
818.919	3899
819.06	3880
819.2	3941
819.341	3888
819.481	3827
819.622	3876
819.762	4048
819.903	3987
820.043	3880
820.184	3850
820.324	3876
820.465	3892
820.605	3850
820.746	3869
820.886	3835
821.026	3994
821.167	3934
821.307	3994
821.447	3994
821.588	3968
821.728	3975
821.868	3972
822.008	3876
822.149	3903
822.289	3987
822.429	3751
822.569	3785
822.709	3800
822.849	3713
822.99	3740
823.13	3751
823.27	3778
823.41	3713
823.55	3736
823.69	3720
823.83	3736
823.97	3698
824.11	3656
824.25	3603
824.389	3663
824.529	3709
824.669	3667
824.809	3713
824.949	3793
825.089	3755
825.228	3724
825.368	3568
825.508	3538
825.648	3584
825.787	3637
825.927	3671
826.067	3625
826.206	3667
826.346	3819
826.485	3793
826.625	3884
826.765	3926
826.904	3861
827.044	3622
827.183	3545
827.323	3454
827.462	3507
827.601	3447
827.741	3447
827.88	3439
828.02	3386
828.159	3466
828.298	3496
828.437	3553
828.577	3454
828.716	3603
828.855	3488
828.994	3420
829.134	3370
829.273	3401
829.412	3382
829.551	3405
829.69	3367
829.829	3431
829.968	3538
830.107	3469
830.246	3462
830.385	3393
830.524	3355
830.663	3283
830.802	3222
830.941	3253
831.08	3211
831.219	3298
831.357	3298
831.496	3401
831.635	3226
831.774	3218
831.913	3249
832.051	3146
832.19	3104
832.329	3230
832.467	3146
832.606	3104
832.744	3165
832.883	3192
833.022	3207
833.16	3253
833.299	3287
833.437	3310
833.576	3401
833.714	3424
833.852	3443
833.991	3435
834.129	3450
834.267	3450
834.406	3393
834.544	3428
834.682	3428
834.821	3435
834.959	3564
835.097	3473
835.235	3561
835.373	3515
835.511	3504
835.65	3504
835.788	3466
835.926	3386
836.064	3363
836.202	3447
836.34	3591
836.478	3610
836.615	3523
836.753	3595
836.891	3686
837.029	3629
837.167	3603
837.305	3576
837.443	3523
837.58	3511
837.718	3587
837.856	3564
837.993	3538
838.131	3614
838.269	3572
838.406	3625
838.544	3584
838.681	3481
838.819	3420
838.956	3409
839.094	3412
839.231	3428
839.369	3530
839.506	3743
839.643	3625
839.781	3500
839.918	3530
840.055	3523
840.193	3530
840.33	3526
840.467	3572
840.604	3637
840.742	3770
840.879	3534
841.016	3591
841.153	3633
841.29	3747
841.427	3724
841.564	3789
841.701	3747
841.838	3686
841.975	3675
842.112	3728
842.249	3652
842.385	3629
842.522	3854
842.659	3698
842.796	3709
842.933	3713
843.069	3770
843.206	3713
843.343	3800
843.479	3800
843.616	3831
843.752	3663
843.889	3652
844.025	3865
844.162	3747
844.298	3873
844.435	3793
844.571	3797
844.708	3922
844.844	3991
844.98	4017
845.117	4006
845.253	3934
845.389	3934
845.525	3972
845.661	3960
845.798	3987
845.934	3975
846.07	3968
846.206	4143
846.342	4158
846.478	4082
846.614	4021
846.75	3953
846.886	3941
847.022	4036
847.158	3991
847.294	4017
847.429	3998
847.565	3972
847.701	4223
847.837	3880
847.972	3846
848.108	3998
848.244	4006
848.379	3854
848.515	3865
848.65	3812
848.786	3835
848.921	3896
849.057	3956
849.192	3960
849.328	3907
849.463	3899
849.598	3896
849.734	3884
849.869	3850
850.004	3800
850.14	3865
850.275	3747
850.41	3785
850.545	3785
850.68	3793
850.815	3800
850.95	3770
851.085	3953
851.22	3861
851.355	3869
851.49	3800
851.625	3804
851.76	3804
851.895	3713
852.03	3755
852.165	3816
852.299	3861
852.434	3945
852.569	3861
852.703	3880
852.838	3975
852.973	4010
853.107	4048
853.242	3884
853.376	3876
853.511	3778
853.645	3850
853.78	3953
853.914	3915
854.048	3892
854.183	3918
854.317	3998
854.451	4101
854.585	3998
854.72	3915
854.854	4044
854.988	3960
855.122	4013
855.256	3915
855.39	4044
855.524	4128
855.658	4109
855.792	4162
855.926	4147
856.06	4215
856.194	4230
856.327	4101
856.461	4169
856.595	4154
856.729	4230
856.862	4272
856.996	4257
857.13	4325
857.263	4386
857.397	4398
857.53	4329
857.664	4375
857.797	4398
857.931	4451
858.064	4421
858.197	4504
858.331	4451
858.464	4432
858.597	4333
858.731	4386
858.864	4504
858.997	4474
859.13	4550
859.263	4592
859.396	4550
859.529	4538
859.662	4603
859.795	4592
859.928	4630
860.061	4710
860.194	4717
860.327	4630
860.46	4664
860.592	4763
860.725	4725
860.858	4805
860.99	4733
861.123	4664
861.256	4675
861.388	4793
861.521	5463
861.653	4797
861.786	4752
861.918	4725
862.05	4831
862.183	4820
862.315	4911
862.447	4961
862.58	4881
862.712	4801
862.844	4786
862.976	4847
863.108	4847
863.24	5185
863.372	4816
863.504	4961
863.636	4900
863.768	5003
863.9	4991
864.032	4938
864.164	4946
864.296	4987
864.428	5121
864.559	5132
864.691	5185
864.823	5166
864.954	5121
865.086	5174
865.217	5124
865.349	5117
865.48	5189
865.612	5220
865.743	5345
865.875	5235
866.006	5174
866.137	5280
866.269	5258
866.4	5265
866.531	5197
866.662	5231
866.793	5280
866.924	5269
867.055	5334
867.186	5299
867.317	5330
867.448	5288
867.579	5417
867.71	5387
867.841	5341
867.972	5482
868.103	5455
868.233	5463
868.364	5512
868.495	5566
868.625	5672
868.756	5813
868.886	5688
869.017	5733
869.147	5863
869.278	5832
869.408	5866
869.539	5851
869.669	5954
869.799	5946
869.929	5961
870.06	6026
870.19	6258
870.32	6220
870.45	6232
870.58	6395
870.71	6445
870.84	6460
870.97	6384
871.1	6395
871.23	6627
871.36	6669
871.489	6700
871.619	6764
871.749	6837
871.879	6848
872.008	7076
872.138	7012
872.267	7050
872.397	6993
872.526	7038
872.656	7057
872.785	7221
872.915	7381
873.044	7537
873.173	7590
873.303	7685
873.432	7742
873.561	7826
873.69	7944
873.819	8020
873.948	8206
874.077	8225
874.206	8370
874.335	8514
874.464	8705
874.593	8857
874.722	8975
874.851	9161
874.979	9298
875.108	9420
875.237	9447
875.365	9500
875.494	9694
875.623	9831
875.751	9956
875.88	9922
876.008	10143
876.136	10280
876.265	10558
876.393	10744
876.521	10668
876.65	10877
876.778	10850
876.906	10908
877.034	10965
877.162	11113
877.29	11155
877.418	11280
877.546	11345
877.674	11444
877.802	11539
877.93	11570
878.058	11497
878.185	11623
878.313	11733
878.441	11798
878.568	11722
878.696	11805
878.824	11882
878.951	11920
879.079	11942
879.206	12102
879.333	12022
879.461	12064
879.588	12068
879.715	12095
879.842	12098
879.97	12102
880.097	11882
880.224	11866
880.351	11916
880.478	11908
880.605	11866
880.732	11878
880.859	12049
880.986	11908
881.112	11863
881.239	11794
881.366	11699
881.493	11581
881.619	11509
881.746	11551
881.872	11551
881.999	11558
882.125	11501
882.252	11585
882.378	11455
882.505	11554
882.631	11395
882.757	11353
882.883	11315
883.01	11318
883.136	11166
883.262	11151
883.388	11048
883.514	11166
883.64	11147
883.766	11155
883.892	10873
884.018	11048
884.143	10930
884.269	11086
884.395	10911
884.52	10744
884.646	10778
884.772	10729
884.897	10630
885.023	10660
885.148	10736
885.274	10771
885.399	10630
885.524	10679
885.65	10580
885.775	10599
885.9	10588
886.025	10679
886.15	10569
886.275	10481
886.4	10386
886.525	10398
886.65	10447
886.775	10341
886.9	10451
887.025	10554
887.149	10329
887.274	10287
887.399	10177
887.523	10204
887.648	10051
887.773	10158
887.897	10299
888.021	10211
888.146	10185
888.27	10154
888.395	10200
888.519	10211
888.643	10177
888.767	10227
888.891	10078
889.015	10025
889.139	10044
889.263	9922
889.387	10086
889.511	10166
889.635	10086
889.759	9956
889.883	9945
890.006	10002
890.13	10185
890.254	9915
890.377	9884
890.501	9873
890.624	9842
890.748	9926
890.871	9842
890.995	9713
891.118	9709
891.241	9736
891.364	9755
891.488	9865
891.611	9751
891.734	9724
891.857	9789
891.98	9698
892.103	9804
892.226	9690
892.349	9713
892.471	9496
892.594	9637
892.717	9652
892.839	9595
892.962	9648
893.085	9610
893.207	9580
893.33	9439
893.452	9504
893.575	9610
893.697	9542
893.819	9603
893.941	9637
894.064	9523
894.186	9488
894.308	9386
894.43	9526
894.552	9576
894.674	9507
894.796	9412
894.918	9389
895.04	9389
895.161	9298
895.283	9310
895.405	9321
895.526	9310
895.648	9294
895.769	9146
895.891	9245
896.012	9249
896.134	9264
896.255	9184
896.376	9089
896.498	9161
896.619	9249
896.74	9081
896.861	9131
896.982	9237
897.103	9348
897.224	9192
897.345	9081
897.466	8986
897.587	8986
897.708	9112
897.828	9024
897.949	9005
898.07	8918
898.19	9013
898.311	8982
898.431	9005
898.552	8982
898.672	9039
898.792	9028
898.913	8963
899.033	8800
899.153	8773
899.273	8686
899.393	8766
899.513	8750
899.633	8758
899.753	8788
899.873	8720
899.993	8758
900.113	8739
900.232	8708
900.352	8746
900.472	8587
900.591	8545
900.711	8579
900.83	8537
900.95	8640
901.069	8701
901.189	8629
901.308	8434
901.427	8404
901.546	8393
901.665	8476
901.784	8522
901.904	8377
902.023	8317
902.141	8252
902.26	8202
902.379	8271
902.498	8202
902.617	8301
902.735	8305
902.854	8290
902.973	8305
903.091	8221
903.21	8153
903.328	8149
903.446	8126
903.565	8134
903.683	8107
903.801	8077
903.919	8130
904.038	8172
904.156	8084
904.274	8130
904.392	8035
904.51	8043
904.627	8039
904.745	8065
904.863	8126
904.981	7925
905.098	7940
905.216	7845
905.334	7913
905.451	7963
905.569	7883
905.686	7959
905.803	7982
905.921	7814
906.038	7913
906.155	7761
906.272	7700
906.389	7738
906.506	7662
906.623	7624
906.74	7540
906.857	7548
906.974	7559
907.091	7689
907.208	7696
907.324	7651
907.441	7605
907.557	7464
907.674	7419
907.79	7403
907.907	7460
908.023	7499
908.139	7506
908.256	7369
908.372	7430
908.488	7426
908.604	7282
908.72	7183
908.836	7308
908.952	7228
909.068	7278
909.184	7282
909.3	7247
909.415	7289
909.531	7282
909.647	7152
909.762	7114
909.878	7141
909.993	7107
910.108	7156
910.224	7149
910.339	7137
910.454	7057
910.57	6993
910.685	6989
910.8	7110
910.915	7107
911.03	7019
911.145	6951
911.259	6863
911.374	6920
911.489	6844
911.604	6844
911.718	6726
911.833	6749
911.947	6642
912.062	6616
912.176	6722
912.291	6738
912.405	6722
912.519	6837
912.633	6905
912.748	6757
912.862	6650
912.976	6658
913.09	6570
913.204	6631
913.318	6627
913.431	6665
913.545	6662
913.659	6726
913.772	6665
913.886	6563
914	6536
914.113	6574
914.226	6616
914.34	6635
914.453	6509
914.566	6570
914.68	6559
914.793	6563
914.906	6448
915.019	6403
915.132	6429
915.245	6414
915.358	6433
915.47	6410
915.583	6502
915.696	6456
915.809	6521
915.921	6540
916.034	6483
916.146	6445
916.259	6376
916.371	6494
916.483	6517
916.595	6445
916.708	6467
916.82	6410
916.932	6414
917.044	6369
917.156	6399
917.268	6346
917.38	6372
917.491	6346
917.603	6361
917.715	6456
917.826	6380
917.938	6342
918.049	6292
918.161	6342
918.272	6445
918.384	6418
918.495	6338
918.606	6308
918.717	6232
918.828	6270
918.939	6254
919.05	6182
919.161	6273
919.272	6136
919.383	6114
919.494	6323
919.604	6525
919.715	6357
919.826	6216
919.936	6308
920.047	6331
920.157	6308
920.267	6490
920.378	6311
920.488	6258
920.598	6464
920.708	6593
920.818	6426
920.928	6479
921.038	6654
921.148	6593
921.258	6361
921.368	6273
921.477	6243
921.587	6209
921.697	6117
921.806	6243
921.916	6064
922.025	5931
922.134	5973
922.244	5923
922.353	5988
922.462	5863
922.571	5847
922.68	5726
922.789	5649
922.898	5718
923.007	5649
923.116	5726
923.224	5634
923.333	5604
923.442	5589
923.55	5653
923.659	5661
923.767	5665
923.876	5532
923.984	5615
924.092	5543
924.201	5600
924.309	5551
924.417	5532
924.525	5520
924.633	5429
924.741	6285
924.849	5341
924.956	5459
925.064	5395
925.172	5246
925.279	5345
925.387	5357
925.494	5337
925.602	5398
925.709	5406
925.816	5292
925.924	5330
926.031	5372
926.138	5303
926.245	5349
926.352	5235
926.459	5303
926.566	5364
926.673	5193
926.779	5124
926.886	5128
926.993	4968
927.099	5045
927.206	5003
927.312	5003
927.419	5041
927.525	4980
927.631	4995
927.737	4908
927.843	4889
927.95	4744
928.056	4850
928.162	4820
928.267	4862
928.373	5307
928.479	4824
928.585	4672
928.69	4774
928.796	4782
928.901	4710
929.007	4588
929.112	4675
929.218	4607
929.323	4588
929.428	4558
929.533	4675
929.638	4516
929.743	4554
929.848	4558
929.953	4546
930.058	4436
930.163	4390
930.267	4398
930.372	4424
930.477	4318
930.581	4474
930.685	4379
930.79	4227
930.894	4234
930.998	4249
931.103	4432
931.207	4166
931.311	4071
931.415	4071
931.519	3968
931.623	3937
