Data from glass_V78500241_2096.txt Node
Date: Wed Sep 01 19:29:01 CST 2021
User: usil
Spectrometer: V785-0024
Trigger mode: 0
Integration Time (sec): 4.000000E-1
Scans to average: 1
Nonlinearity correction enabled: false
Boxcar width: 0
Storing dark spectrum: false
XAxis mode: Wavelengths
Number of Pixels in Spectrum: 1024
>>>>>Begin Spectral Data<<<<<
801.071	3717
801.214	3717
801.356	3644
801.499	3751
801.641	3728
801.783	3789
801.926	3865
802.068	3781
802.211	3835
802.353	3861
802.496	3846
802.638	3892
802.78	3880
802.923	3907
803.065	3888
803.208	3869
803.35	3876
803.492	3857
803.635	3873
803.777	3793
803.919	3876
804.061	4139
804.204	3949
804.346	3930
804.488	3934
804.63	4017
804.773	3979
804.915	3994
805.057	4162
805.199	4032
805.341	4101
805.483	4128
805.626	4112
805.768	4112
805.91	4188
806.052	4249
806.194	4223
806.336	4367
806.478	4265
806.62	4204
806.762	4128
806.904	4242
807.046	4322
807.188	4215
807.33	4124
807.472	4204
807.614	4154
807.756	4265
807.898	4196
808.04	4196
808.182	4314
808.324	4333
808.465	4383
808.607	4447
808.749	4451
808.891	4413
809.033	4440
809.174	4398
809.316	4215
809.458	4242
809.6	4131
809.741	4143
809.883	4116
810.025	4207
810.166	4230
810.308	4204
810.45	4238
810.591	4185
810.733	4284
810.875	4531
811.016	4824
811.158	5174
811.299	5235
811.441	5258
811.582	5075
811.724	4694
811.865	4462
812.007	4462
812.148	4478
812.29	4394
812.431	4417
812.573	4421
812.714	4375
812.855	4436
812.997	4402
813.138	4390
813.279	4413
813.421	4424
813.562	4390
813.703	4329
813.845	4314
813.986	4276
814.127	4185
814.268	4211
814.41	4329
814.551	4185
814.692	4344
814.833	4265
814.974	4303
815.115	4314
815.256	4257
815.397	4265
815.539	4268
815.68	4185
815.821	4238
815.962	4310
816.103	4242
816.244	4211
816.385	4227
816.526	4287
816.666	4242
816.807	4116
816.948	4192
817.089	4192
817.23	4097
817.371	4055
817.512	4082
817.653	4044
817.793	4021
817.934	4048
818.075	4067
818.216	4090
818.356	4067
818.497	4032
818.638	3945
818.778	3865
818.919	3869
819.06	3835
819.2	3934
819.341	3835
819.481	3842
819.622	3884
819.762	4006
819.903	3972
820.043	3842
820.184	3831
820.324	3831
820.465	3869
820.605	3846
820.746	3854
820.886	3819
821.026	3941
821.167	3899
821.307	3956
821.447	3937
821.588	3949
821.728	3922
821.868	3930
822.008	3873
822.149	3899
822.289	3892
822.429	3770
822.569	3797
822.709	3793
822.849	3652
822.99	3717
823.13	3759
823.27	3778
823.41	3728
823.55	3728
823.69	3717
823.83	3717
823.97	3724
824.11	3614
824.25	3557
824.389	3690
824.529	3614
824.669	3614
824.809	3701
824.949	3732
825.089	3717
825.228	3690
825.368	3561
825.508	3564
825.648	3542
825.787	3603
825.927	3622
826.067	3606
826.206	3648
826.346	3747
826.485	3831
826.625	3865
826.765	3873
826.904	3819
827.044	3603
827.183	3515
827.323	3397
827.462	3507
827.601	3405
827.741	3431
827.88	3443
828.02	3363
828.159	3435
828.298	3473
828.437	3530
828.577	3473
828.716	3576
828.855	3496
828.994	3382
829.134	3386
829.273	3416
829.412	3355
829.551	3340
829.69	3340
829.829	3416
829.968	3530
830.107	3462
830.246	3439
830.385	3386
830.524	3344
830.663	3291
830.802	3241
830.941	3195
831.08	3195
831.219	3237
831.357	3268
831.496	3409
831.635	3184
831.774	3192
831.913	3226
832.051	3161
832.19	3135
832.329	3203
832.467	3108
832.606	3108
832.744	3173
832.883	3211
833.022	3157
833.16	3287
833.299	3291
833.437	3359
833.576	3393
833.714	3401
833.852	3435
833.991	3443
834.129	3488
834.267	3443
834.406	3397
834.544	3439
834.682	3412
834.821	3435
834.959	3591
835.097	3458
835.235	3519
835.373	3496
835.511	3462
835.65	3485
835.788	3466
835.926	3344
836.064	3393
836.202	3412
836.34	3553
836.478	3591
836.615	3549
836.753	3564
836.891	3675
837.029	3610
837.167	3549
837.305	3553
837.443	3507
837.58	3492
837.718	3576
837.856	3599
837.993	3523
838.131	3599
838.269	3595
838.406	3572
838.544	3557
838.681	3454
838.819	3424
838.956	3401
839.094	3401
839.231	3450
839.369	3511
839.506	3751
839.643	3614
839.781	3515
839.918	3405
840.055	3447
840.193	3542
840.33	3515
840.467	3542
840.604	3564
840.742	3793
840.879	3545
841.016	3591
841.153	3603
841.29	3766
841.427	3720
841.564	3732
841.701	3728
841.838	3686
841.975	3686
842.112	3728
842.249	3656
842.385	3660
842.522	3804
842.659	3663
842.796	3663
842.933	3717
843.069	3690
843.206	3679
843.343	3835
843.479	3812
843.616	3785
843.752	3663
843.889	3675
844.025	3835
844.162	3701
844.298	3819
844.435	3774
844.571	3785
844.708	3915
844.844	3998
844.98	4040
845.117	4006
845.253	3911
845.389	3930
845.525	3934
845.661	3907
845.798	3922
845.934	4032
846.07	3983
846.206	4063
846.342	4101
846.478	4082
846.614	3922
846.75	3922
846.886	3922
847.022	4013
847.158	3998
847.294	4029
847.429	4025
847.565	3991
847.701	4219
847.837	3850
847.972	3846
848.108	3991
848.244	3968
848.379	3850
848.515	3819
848.65	3789
848.786	3854
848.921	3823
849.057	3941
849.192	3918
849.328	3907
849.463	3937
849.598	3880
849.734	3884
849.869	3842
850.004	3724
850.14	3842
850.275	3755
850.41	3728
850.545	3755
850.68	3800
850.815	3759
850.95	3785
851.085	3945
851.22	3880
851.355	3800
851.49	3759
851.625	3804
851.76	3778
851.895	3740
852.03	3679
852.165	3835
852.299	3846
852.434	3899
852.569	3842
852.703	3873
852.838	3907
852.973	3987
853.107	3979
853.242	3911
853.376	3838
853.511	3755
853.645	3812
853.78	3953
853.914	3884
854.048	3911
854.183	3903
854.317	3926
854.451	4021
854.585	3937
854.72	3945
854.854	4078
854.988	3945
855.122	4010
855.256	3949
855.39	4048
855.524	4116
855.658	4032
855.792	4105
855.926	4139
856.06	4135
856.194	4204
856.327	4150
856.461	4139
856.595	4086
856.729	4185
856.862	4268
856.996	4169
857.13	4310
857.263	4341
857.397	4394
857.53	4211
857.664	4314
857.797	4390
857.931	4424
858.064	4424
858.197	4478
858.331	4432
858.464	4318
858.597	4337
858.731	4432
858.864	4447
858.997	4436
859.13	4497
859.263	4550
859.396	4580
859.529	4500
859.662	4542
859.795	4527
859.928	4588
860.061	4733
860.194	4759
860.327	4679
860.46	4615
860.592	4729
860.725	4752
860.858	4786
860.99	4706
861.123	4717
861.256	4649
861.388	4744
861.521	5554
861.653	4714
861.786	4725
861.918	4687
862.05	4786
862.183	4862
862.315	4847
862.447	4923
862.58	4877
862.712	4809
862.844	4801
862.976	4839
863.108	4850
863.24	5212
863.372	4908
863.504	4892
863.636	4870
863.768	4946
863.9	4927
864.032	4949
864.164	4946
864.296	5014
864.428	5086
864.559	5117
864.691	5033
864.823	5094
864.954	5113
865.086	5090
865.217	5079
865.349	5121
865.48	5121
865.612	5193
865.743	5280
865.875	5170
866.006	5201
866.137	5235
866.269	5197
866.4	5216
866.531	5258
866.662	5246
866.793	5273
866.924	5250
867.055	5387
867.186	5265
867.317	5322
867.448	5315
867.579	5337
867.71	5372
867.841	5402
867.972	5425
868.103	5501
868.233	5474
868.364	5505
868.495	5547
868.625	5688
868.756	5767
868.886	5653
869.017	5668
869.147	5824
869.278	5874
869.408	5851
869.539	5832
869.669	5912
869.799	5847
869.929	6003
870.06	5999
870.19	6186
870.32	6175
870.45	6235
870.58	6319
870.71	6414
870.84	6422
870.97	6410
871.1	6467
871.23	6696
871.36	6658
871.489	6673
871.619	6722
871.749	6783
871.879	6852
872.008	6993
872.138	6981
872.267	7031
872.397	6989
872.526	7080
872.656	7069
872.785	7240
872.915	7422
873.044	7483
873.173	7586
873.303	7605
873.432	7753
873.561	7849
873.69	7898
873.819	8035
873.948	8164
874.077	8305
874.206	8366
874.335	8518
874.464	8670
874.593	8872
874.722	8933
874.851	9077
874.979	9203
875.108	9332
875.237	9389
875.365	9485
875.494	9652
875.623	9812
875.751	9876
875.88	9987
876.008	10204
876.136	10284
876.265	10451
876.393	10694
876.521	10687
876.65	10801
876.778	10881
876.906	10866
877.034	10934
877.162	11113
877.29	11136
877.418	11227
877.546	11296
877.674	11448
877.802	11448
877.93	11547
878.058	11547
878.185	11577
878.313	11642
878.441	11771
878.568	11649
878.696	11775
878.824	11840
878.951	11961
879.079	12015
879.206	12121
879.333	12019
879.461	11996
879.588	12087
879.715	12079
879.842	12209
879.97	12019
880.097	11832
880.224	11942
880.351	11939
880.478	11863
880.605	11847
880.732	11809
880.859	12007
880.986	11756
881.112	11805
881.239	11680
881.366	11684
881.493	11638
881.619	11581
881.746	11573
881.872	11501
881.999	11520
882.125	11436
882.252	11501
882.378	11478
882.505	11600
882.631	11326
882.757	11235
882.883	11303
883.01	11307
883.136	11204
883.262	11143
883.388	11033
883.514	11143
883.64	11197
883.766	11048
883.892	10896
884.018	11003
884.143	10987
884.269	11181
884.395	10824
884.52	10683
884.646	10809
884.772	10748
884.897	10645
885.023	10641
885.148	10656
885.274	10736
885.399	10656
885.524	10599
885.65	10607
885.775	10626
885.9	10527
886.025	10523
886.15	10550
886.275	10379
886.4	10402
886.525	10428
886.65	10386
886.775	10402
886.9	10497
887.025	10558
887.149	10402
887.274	10257
887.399	10185
887.523	10223
887.648	10150
887.773	10150
887.897	10253
888.021	10196
888.146	10109
888.27	10234
888.395	10215
888.519	10112
888.643	10116
888.767	10131
888.891	10017
889.015	10063
889.139	10025
889.263	10006
889.387	10116
889.511	10090
889.635	9960
889.759	9991
889.883	10013
890.006	9994
890.13	10036
890.254	9975
890.377	9934
890.501	9808
890.624	9850
890.748	9926
890.871	9778
890.995	9762
891.118	9755
891.241	9671
891.364	9701
891.488	9770
891.611	9724
891.734	9770
891.857	9755
891.98	9667
892.103	9713
892.226	9690
892.349	9584
892.471	9500
892.594	9603
892.717	9660
892.839	9591
892.962	9568
893.085	9720
893.207	9587
893.33	9538
893.452	9481
893.575	9618
893.697	9507
893.819	9542
893.941	9603
894.064	9584
894.186	9420
894.308	9420
894.43	9561
894.552	9564
894.674	9519
894.796	9405
894.918	9393
895.04	9310
895.161	9340
895.283	9340
895.405	9287
895.526	9230
895.648	9214
895.769	9283
895.891	9291
896.012	9310
896.134	9222
896.255	9180
896.376	9131
896.498	9112
896.619	9146
896.74	9058
896.861	9051
896.982	9264
897.103	9310
897.224	9108
897.345	9039
897.466	8975
897.587	9028
897.708	9074
897.828	8967
897.949	8895
898.07	8910
898.19	8883
898.311	8990
898.431	8952
898.552	8876
898.672	8910
898.792	8986
898.913	8925
899.033	8826
899.153	8708
899.273	8552
899.393	8724
899.513	8648
899.633	8697
899.753	8693
899.873	8651
899.993	8670
900.113	8743
900.232	8739
900.352	8674
900.472	8587
900.591	8541
900.711	8587
900.83	8571
900.95	8716
901.069	8670
901.189	8530
901.308	8427
901.427	8347
901.546	8469
901.665	8442
901.784	8499
901.904	8336
902.023	8313
902.141	8248
902.26	8187
902.379	8275
902.498	8237
902.617	8233
902.735	8248
902.854	8298
902.973	8290
903.091	8103
903.21	8164
903.328	8134
903.446	8119
903.565	8069
903.683	8043
903.801	7986
903.919	8069
904.038	8161
904.156	8027
904.274	8115
904.392	8001
904.51	8008
904.627	8027
904.745	8035
904.863	8058
904.981	7879
905.098	7852
905.216	7871
905.334	7849
905.451	7902
905.569	7784
905.686	7894
905.803	7879
905.921	7826
906.038	7852
906.155	7826
906.272	7731
906.389	7674
906.506	7632
906.623	7609
906.74	7605
906.857	7575
906.974	7537
907.091	7628
907.208	7689
907.324	7662
907.441	7544
907.557	7445
907.674	7422
907.79	7308
907.907	7396
908.023	7415
908.139	7460
908.256	7358
908.372	7358
908.488	7327
908.604	7255
908.72	7217
908.836	7297
908.952	7247
909.068	7247
909.184	7285
909.3	7217
909.415	7274
909.531	7251
909.647	7099
909.762	7099
909.878	7050
909.993	7156
910.108	7065
910.224	7088
910.339	7107
910.454	7065
910.57	6954
910.685	6962
910.8	7091
910.915	7160
911.03	6962
911.145	6913
911.259	6829
911.374	6863
911.489	6859
911.604	6833
911.718	6840
911.833	6741
911.947	6627
912.062	6601
912.176	6719
912.291	6730
912.405	6707
912.519	6871
912.633	6810
912.748	6688
912.862	6681
912.976	6639
913.09	6540
913.204	6555
913.318	6635
913.431	6745
913.545	6646
913.659	6722
913.772	6650
913.886	6597
914	6540
914.113	6593
914.226	6631
914.34	6642
914.453	6498
914.566	6642
914.68	6486
914.793	6445
914.906	6410
915.019	6380
915.132	6384
915.245	6426
915.358	6384
915.47	6399
915.583	6467
915.696	6509
915.809	6604
915.921	6555
916.034	6433
916.146	6388
916.259	6365
916.371	6422
916.483	6426
916.595	6384
916.708	6418
916.82	6350
916.932	6331
917.044	6350
917.156	6350
917.268	6300
917.38	6323
917.491	6342
917.603	6266
917.715	6399
917.826	6403
917.938	6331
918.049	6213
918.161	6361
918.272	6376
918.384	6475
918.495	6342
918.606	6213
918.717	6190
918.828	6262
918.939	6258
919.05	6182
919.161	6194
919.272	6110
919.383	6159
919.494	6254
919.604	6403
919.715	6270
919.826	6167
919.936	6270
920.047	6342
920.157	6232
920.267	6369
920.378	6327
920.488	6266
920.598	6429
920.708	6578
920.818	6426
920.928	6460
921.038	6623
921.148	6597
921.258	6372
921.368	6300
921.477	6251
921.587	6136
921.697	6079
921.806	6239
921.916	6068
922.025	5958
922.134	5912
922.244	5882
922.353	5927
922.462	5840
922.571	5752
922.68	5737
922.789	5699
922.898	5699
923.007	5585
923.116	5657
923.224	5668
923.333	5634
923.442	5630
923.55	5570
923.659	5554
923.767	5623
923.876	5524
923.984	5581
924.092	5482
924.201	5554
924.309	5608
924.417	5535
924.525	5478
924.633	5467
924.741	6281
924.849	5425
924.956	5490
925.064	5341
925.172	5292
925.279	5334
925.387	5311
925.494	5326
925.602	5406
925.709	5387
925.816	5337
925.924	5315
926.031	5318
926.138	5322
926.245	5322
926.352	5223
926.459	5322
926.566	5303
926.673	5235
926.779	5121
926.886	5113
926.993	5037
927.099	5041
927.206	4980
927.312	4942
927.419	4999
927.525	4953
927.631	5022
927.737	4908
927.843	4881
927.95	4771
928.056	4870
928.162	4828
928.267	4873
928.373	5364
928.479	4835
928.585	4694
928.69	4778
928.796	4755
928.901	4664
929.007	4550
929.112	4710
929.218	4626
929.323	4550
929.428	4550
929.533	4683
929.638	4474
929.743	4550
929.848	4489
929.953	4516
930.058	4440
930.163	4333
930.267	4348
930.372	4440
930.477	4238
930.581	4436
930.685	4417
930.79	4234
930.894	4295
930.998	4249
931.103	4322
931.207	4109
931.311	4120
931.415	4032
931.519	3876
931.623	3968
