Data from glass_V78500241_69.txt Node
Date: Wed Sep 01 19:14:58 CST 2021
User: usil
Spectrometer: V785-0024
Trigger mode: 0
Integration Time (sec): 4.000000E-1
Scans to average: 1
Nonlinearity correction enabled: false
Boxcar width: 0
Storing dark spectrum: false
XAxis mode: Wavelengths
Number of Pixels in Spectrum: 1024
>>>>>Begin Spectral Data<<<<<
801.071	3751
801.214	3827
801.356	3705
801.499	3774
801.641	3766
801.783	3819
801.926	3865
802.068	3838
802.211	3899
802.353	3884
802.496	3918
802.638	3873
802.78	3892
802.923	3945
803.065	3918
803.208	3869
803.35	3865
803.492	3899
803.635	3899
803.777	3842
803.919	3865
804.061	4158
804.204	3979
804.346	3964
804.488	3941
804.63	4074
804.773	3991
804.915	4040
805.057	4147
805.199	4025
805.341	4116
805.483	4109
805.626	4124
805.768	4120
805.91	4246
806.052	4192
806.194	4204
806.336	4390
806.478	4196
806.62	4211
806.762	4196
806.904	4272
807.046	4325
807.188	4280
807.33	4173
807.472	4219
807.614	4196
807.756	4268
807.898	4223
808.04	4238
808.182	4303
808.324	4329
808.465	4363
808.607	4440
808.749	4485
808.891	4489
809.033	4478
809.174	4394
809.316	4291
809.458	4261
809.6	4158
809.741	4150
809.883	4147
810.025	4188
810.166	4162
810.308	4246
810.45	4253
810.591	4234
810.733	4333
810.875	4500
811.016	4862
811.158	5136
811.299	5265
811.441	5345
811.582	5052
811.724	4748
811.865	4500
812.007	4466
812.148	4428
812.29	4470
812.431	4386
812.573	4459
812.714	4421
812.855	4409
812.997	4421
813.138	4523
813.279	4413
813.421	4413
813.562	4421
813.703	4344
813.845	4352
813.986	4306
814.127	4200
814.268	4284
814.41	4318
814.551	4257
814.692	4341
814.833	4299
814.974	4360
815.115	4375
815.256	4314
815.397	4238
815.539	4272
815.68	4215
815.821	4249
815.962	4325
816.103	4299
816.244	4242
816.385	4249
816.526	4303
816.666	4204
816.807	4131
816.948	4211
817.089	4204
817.23	4150
817.371	4059
817.512	4055
817.653	4101
817.793	4048
817.934	4040
818.075	4093
818.216	4090
818.356	4124
818.497	3998
818.638	3926
818.778	3953
818.919	3918
819.06	3884
819.2	3915
819.341	3899
819.481	3850
819.622	3945
819.762	4013
819.903	3945
820.043	3869
820.184	3869
820.324	3850
820.465	3903
820.605	3835
820.746	3869
820.886	3842
821.026	3880
821.167	3934
821.307	3956
821.447	3991
821.588	3964
821.728	3987
821.868	3949
822.008	3854
822.149	3915
822.289	3964
822.429	3823
822.569	3781
822.709	3808
822.849	3717
822.99	3736
823.13	3743
823.27	3808
823.41	3781
823.55	3740
823.69	3713
823.83	3774
823.97	3713
824.11	3637
824.25	3614
824.389	3633
824.529	3652
824.669	3675
824.809	3728
824.949	3724
825.089	3762
825.228	3690
825.368	3595
825.508	3545
825.648	3553
825.787	3614
825.927	3663
826.067	3675
826.206	3679
826.346	3812
826.485	3880
826.625	3873
826.765	4002
826.904	3827
827.044	3614
827.183	3545
827.323	3443
827.462	3526
827.601	3469
827.741	3439
827.88	3515
828.02	3367
828.159	3454
828.298	3538
828.437	3599
828.577	3447
828.716	3660
828.855	3481
828.994	3386
829.134	3393
829.273	3389
829.412	3336
829.551	3367
829.69	3378
829.829	3420
829.968	3530
830.107	3443
830.246	3447
830.385	3393
830.524	3378
830.663	3340
830.802	3313
830.941	3180
831.08	3245
831.219	3310
831.357	3283
831.496	3412
831.635	3241
831.774	3180
831.913	3264
832.051	3123
832.19	3131
832.329	3230
832.467	3131
832.606	3085
832.744	3161
832.883	3233
833.022	3203
833.16	3249
833.299	3313
833.437	3359
833.576	3393
833.714	3397
833.852	3428
833.991	3466
834.129	3454
834.267	3466
834.406	3443
834.544	3428
834.682	3447
834.821	3431
834.959	3606
835.097	3409
835.235	3564
835.373	3500
835.511	3519
835.65	3447
835.788	3504
835.926	3405
836.064	3428
836.202	3393
836.34	3584
836.478	3629
836.615	3545
836.753	3572
836.891	3667
837.029	3618
837.167	3625
837.305	3614
837.443	3580
837.58	3530
837.718	3629
837.856	3614
837.993	3564
838.131	3652
838.269	3572
838.406	3599
838.544	3561
838.681	3511
838.819	3462
838.956	3420
839.094	3424
839.231	3454
839.369	3572
839.506	3740
839.643	3633
839.781	3511
839.918	3511
840.055	3557
840.193	3561
840.33	3545
840.467	3584
840.604	3641
840.742	3812
840.879	3557
841.016	3587
841.153	3603
841.29	3766
841.427	3762
841.564	3747
841.701	3728
841.838	3732
841.975	3736
842.112	3682
842.249	3671
842.385	3660
842.522	3835
842.659	3740
842.796	3637
842.933	3740
843.069	3713
843.206	3675
843.343	3816
843.479	3842
843.616	3861
843.752	3690
843.889	3698
844.025	3903
844.162	3751
844.298	3892
844.435	3800
844.571	3800
844.708	3907
844.844	3991
844.98	4082
845.117	4048
845.253	3926
845.389	3922
845.525	3960
845.661	3987
845.798	3926
845.934	4021
846.07	3975
846.206	4082
846.342	4139
846.478	4036
846.614	3964
846.75	3953
846.886	3903
847.022	4063
847.158	3994
847.294	3991
847.429	4048
847.565	4048
847.701	4261
847.837	3926
847.972	3865
848.108	4010
848.244	3972
848.379	3861
848.515	3861
848.65	3789
848.786	3850
848.921	3896
849.057	3960
849.192	3983
849.328	3964
849.463	3949
849.598	3884
849.734	3880
849.869	3854
850.004	3778
850.14	3865
850.275	3804
850.41	3732
850.545	3751
850.68	3797
850.815	3770
850.95	3819
851.085	3968
851.22	3884
851.355	3861
851.49	3838
851.625	3808
851.76	3842
851.895	3743
852.03	3766
852.165	3854
852.299	3865
852.434	3888
852.569	3888
852.703	3911
852.838	3930
852.973	4029
853.107	4029
853.242	3903
853.376	3812
853.511	3789
853.645	3842
853.78	3979
853.914	3876
854.048	3907
854.183	3876
854.317	3964
854.451	4109
854.585	3987
854.72	3945
854.854	4051
854.988	3987
855.122	4025
855.256	3941
855.39	3964
855.524	4147
855.658	4093
855.792	4120
855.926	4128
856.06	4177
856.194	4227
856.327	4143
856.461	4200
856.595	4169
856.729	4211
856.862	4280
856.996	4318
857.13	4318
857.263	4341
857.397	4390
857.53	4325
857.664	4344
857.797	4417
857.931	4455
858.064	4443
858.197	4478
858.331	4405
858.464	4402
858.597	4344
858.731	4432
858.864	4497
858.997	4470
859.13	4565
859.263	4565
859.396	4618
859.529	4538
859.662	4554
859.795	4504
859.928	4656
860.061	4782
860.194	4725
860.327	4694
860.46	4721
860.592	4752
860.725	4805
860.858	4755
860.99	4771
861.123	4744
861.256	4714
861.388	4797
861.521	5398
861.653	4710
861.786	4714
861.918	4729
862.05	4831
862.183	4885
862.315	4889
862.447	4995
862.58	4858
862.712	4790
862.844	4828
862.976	4919
863.108	4919
863.24	5258
863.372	4812
863.504	4873
863.636	4949
863.768	4968
863.9	5003
864.032	4930
864.164	4953
864.296	5041
864.428	5113
864.559	5071
864.691	5113
864.823	5193
864.954	5121
865.086	5170
865.217	5193
865.349	5132
865.48	5178
865.612	5242
865.743	5311
865.875	5258
866.006	5227
866.137	5242
866.269	5220
866.4	5235
866.531	5261
866.662	5242
866.793	5330
866.924	5258
867.055	5334
867.186	5368
867.317	5277
867.448	5376
867.579	5436
867.71	5395
867.841	5444
867.972	5440
868.103	5425
868.233	5524
868.364	5524
868.495	5539
868.625	5737
868.756	5817
868.886	5668
869.017	5714
869.147	5893
869.278	5851
869.408	5794
869.539	5851
869.669	5958
869.799	5923
869.929	6019
870.06	6049
870.19	6209
870.32	6197
870.45	6277
870.58	6467
870.71	6456
870.84	6536
870.97	6426
871.1	6498
871.23	6646
871.36	6669
871.489	6642
871.619	6772
871.749	6806
871.879	6932
872.008	7008
872.138	7012
872.267	7031
872.397	7008
872.526	7137
872.656	7168
872.785	7183
872.915	7407
873.044	7575
873.173	7582
873.303	7620
873.432	7765
873.561	7875
873.69	7890
873.819	8005
873.948	8119
874.077	8275
874.206	8332
874.335	8461
874.464	8693
874.593	8842
874.722	8929
874.851	9123
874.979	9195
875.108	9386
875.237	9481
875.365	9477
875.494	9625
875.623	9857
875.751	9827
875.88	10006
876.008	10154
876.136	10329
876.265	10527
876.393	10710
876.521	10702
876.65	10862
876.778	10930
876.906	10927
877.034	11045
877.162	11147
877.29	11136
877.418	11337
877.546	11353
877.674	11524
877.802	11478
877.93	11608
878.058	11596
878.185	11539
878.313	11688
878.441	11821
878.568	11710
878.696	11710
878.824	11874
878.951	11847
879.079	12079
879.206	12011
879.333	12068
879.461	11988
879.588	12136
879.715	12076
879.842	12266
879.97	12117
880.097	11942
880.224	11931
880.351	11908
880.478	11874
880.605	11901
880.732	11790
880.859	12007
880.986	11866
881.112	11821
881.239	11748
881.366	11726
881.493	11741
881.619	11512
881.746	11570
881.872	11532
881.999	11520
882.125	11501
882.252	11558
882.378	11448
882.505	11486
882.631	11311
882.757	11417
882.883	11284
883.01	11307
883.136	11246
883.262	11197
883.388	11147
883.514	11189
883.64	11197
883.766	11143
883.892	10877
884.018	10968
884.143	11060
884.269	11090
884.395	10873
884.52	10733
884.646	10759
884.772	10691
884.897	10679
885.023	10691
885.148	10744
885.274	10854
885.399	10706
885.524	10683
885.65	10675
885.775	10607
885.9	10546
886.025	10554
886.15	10523
886.275	10462
886.4	10413
886.525	10424
886.65	10447
886.775	10394
886.9	10478
887.025	10481
887.149	10371
887.274	10242
887.399	10242
887.523	10188
887.648	10207
887.773	10147
887.897	10314
888.021	10348
888.146	10112
888.27	10253
888.395	10280
888.519	10215
888.643	10215
888.767	10128
888.891	10021
889.015	10059
889.139	10109
889.263	9934
889.387	10097
889.511	10120
889.635	10105
889.759	10029
889.883	10063
890.006	9972
890.13	10112
890.254	9907
890.377	10010
890.501	9816
890.624	9918
890.748	9930
890.871	9808
890.995	9778
891.118	9770
891.241	9781
891.364	9755
891.488	9827
891.611	9724
891.734	9728
891.857	9747
891.98	9759
892.103	9789
892.226	9717
892.349	9663
892.471	9511
892.594	9561
892.717	9625
892.839	9667
892.962	9644
893.085	9717
893.207	9625
893.33	9496
893.452	9549
893.575	9564
893.697	9526
893.819	9679
893.941	9698
894.064	9564
894.186	9519
894.308	9435
894.43	9511
894.552	9595
894.674	9568
894.796	9386
894.918	9447
895.04	9374
895.161	9405
895.283	9336
895.405	9230
895.526	9310
895.648	9222
895.769	9351
895.891	9260
896.012	9294
896.134	9256
896.255	9241
896.376	9176
896.498	9173
896.619	9218
896.74	9081
896.861	9077
896.982	9272
897.103	9359
897.224	9222
897.345	9116
897.466	8971
897.587	9074
897.708	9062
897.828	9051
897.949	9043
898.07	8929
898.19	8941
898.311	8998
898.431	8876
898.552	8914
898.672	8982
898.792	8948
898.913	8918
899.033	8826
899.153	8735
899.273	8682
899.393	8739
899.513	8781
899.633	8712
899.753	8849
899.873	8739
899.993	8743
900.113	8724
900.232	8758
900.352	8663
900.472	8606
900.591	8537
900.711	8610
900.83	8556
900.95	8674
901.069	8674
901.189	8587
901.308	8442
901.427	8396
901.546	8438
901.665	8484
901.784	8480
901.904	8427
902.023	8324
902.141	8244
902.26	8195
902.379	8279
902.498	8191
902.617	8244
902.735	8332
902.854	8305
902.973	8252
903.091	8073
903.21	8168
903.328	8267
903.446	8100
903.565	8073
903.683	8157
903.801	8084
903.919	8153
904.038	8138
904.156	8043
904.274	8126
904.392	7986
904.51	8016
904.627	8084
904.745	8168
904.863	8062
904.981	7909
905.098	7883
905.216	7883
905.334	7936
905.451	7944
905.569	7879
905.686	7928
905.803	7921
905.921	7833
906.038	7871
906.155	7769
906.272	7750
906.389	7658
906.506	7662
906.623	7624
906.74	7620
906.857	7586
906.974	7601
907.091	7731
907.208	7731
907.324	7643
907.441	7590
907.557	7464
907.674	7426
907.79	7369
907.907	7441
908.023	7415
908.139	7426
908.256	7434
908.372	7411
908.488	7320
908.604	7263
908.72	7255
908.836	7259
908.952	7244
909.068	7285
909.184	7278
909.3	7278
909.415	7320
909.531	7354
909.647	7122
909.762	7149
909.878	7103
909.993	7160
910.108	7141
910.224	6977
910.339	7057
910.454	7034
910.57	7042
910.685	6989
910.8	7164
910.915	7095
911.03	7050
911.145	6977
911.259	6920
911.374	6951
911.489	6821
911.604	6829
911.718	6700
911.833	6722
911.947	6658
912.062	6593
912.176	6726
912.291	6753
912.405	6757
912.519	6814
912.633	6840
912.748	6768
912.862	6772
912.976	6642
913.09	6525
913.204	6570
913.318	6669
913.431	6669
913.545	6635
913.659	6814
913.772	6639
913.886	6612
914	6547
914.113	6612
914.226	6673
914.34	6635
914.453	6517
914.566	6688
914.68	6456
914.793	6608
914.906	6418
915.019	6372
915.132	6376
915.245	6429
915.358	6456
915.47	6414
915.583	6506
915.696	6498
915.809	6582
915.921	6536
916.034	6407
916.146	6464
916.259	6361
916.371	6486
916.483	6471
916.595	6414
916.708	6441
916.82	6395
916.932	6323
917.044	6361
917.156	6361
917.268	6315
917.38	6292
917.491	6350
917.603	6353
917.715	6441
917.826	6456
917.938	6361
918.049	6232
918.161	6350
918.272	6403
918.384	6456
918.495	6350
918.606	6334
918.717	6209
918.828	6235
918.939	6304
919.05	6232
919.161	6308
919.272	6152
919.383	6175
919.494	6331
919.604	6460
919.715	6285
919.826	6205
919.936	6266
920.047	6380
920.157	6361
920.267	6464
920.378	6281
920.488	6262
920.598	6445
920.708	6532
920.818	6490
920.928	6494
921.038	6646
921.148	6574
921.258	6365
921.368	6289
921.477	6171
921.587	6186
921.697	6083
921.806	6194
921.916	6087
922.025	5996
922.134	5977
922.244	5931
922.353	5969
922.462	5840
922.571	5813
922.68	5767
922.789	5688
922.898	5714
923.007	5714
923.116	5707
923.224	5657
923.333	5672
923.442	5608
923.55	5524
923.659	5630
923.767	5672
923.876	5581
923.984	5627
924.092	5516
924.201	5589
924.309	5627
924.417	5615
924.525	5535
924.633	5581
924.741	6304
924.849	5376
924.956	5391
925.064	5402
925.172	5318
925.279	5311
925.387	5372
925.494	5364
925.602	5391
925.709	5433
925.816	5341
925.924	5360
926.031	5353
926.138	5303
926.245	5341
926.352	5242
926.459	5337
926.566	5337
926.673	5212
926.779	5174
926.886	5132
926.993	4999
927.099	5025
927.206	5018
927.312	4961
927.419	5029
927.525	4987
927.631	5041
927.737	4961
927.843	4854
927.95	4782
928.056	4847
928.162	4862
928.267	4850
928.373	5353
928.479	4896
928.585	4721
928.69	4778
928.796	4812
928.901	4714
929.007	4607
929.112	4698
929.218	4603
929.323	4577
929.428	4588
929.533	4675
929.638	4516
929.743	4573
929.848	4584
929.953	4546
930.058	4466
930.163	4329
930.267	4356
930.372	4390
930.477	4371
930.581	4462
930.685	4367
930.79	4280
930.894	4303
930.998	4272
931.103	4413
931.207	4166
931.311	4090
931.415	4021
931.519	3956
931.623	4013
