Data from glass_V78500241_2168.txt Node
Date: Wed Sep 01 19:29:31 CST 2021
User: usil
Spectrometer: V785-0024
Trigger mode: 0
Integration Time (sec): 4.000000E-1
Scans to average: 1
Nonlinearity correction enabled: false
Boxcar width: 0
Storing dark spectrum: false
XAxis mode: Wavelengths
Number of Pixels in Spectrum: 1024
>>>>>Begin Spectral Data<<<<<
801.071	3713
801.214	3705
801.356	3709
801.499	3732
801.641	3732
801.783	3789
801.926	3831
802.068	3846
802.211	3857
802.353	3831
802.496	3808
802.638	3884
802.78	3918
802.923	3915
803.065	3861
803.208	3831
803.35	3876
803.492	3896
803.635	3903
803.777	3774
803.919	3899
804.061	4131
804.204	3956
804.346	3960
804.488	3899
804.63	4002
804.773	3960
804.915	4059
805.057	4135
805.199	4036
805.341	4082
805.483	4188
805.626	4078
805.768	4116
805.91	4185
806.052	4238
806.194	4200
806.336	4325
806.478	4219
806.62	4173
806.762	4242
806.904	4242
807.046	4310
807.188	4200
807.33	4188
807.472	4215
807.614	4185
807.756	4280
807.898	4268
808.04	4188
808.182	4272
808.324	4303
808.465	4375
808.607	4466
808.749	4432
808.891	4489
809.033	4466
809.174	4360
809.316	4276
809.458	4265
809.6	4124
809.741	4169
809.883	4082
810.025	4207
810.166	4215
810.308	4154
810.45	4306
810.591	4158
810.733	4284
810.875	4493
811.016	4858
811.158	5090
811.299	5349
811.441	5322
811.582	5029
811.724	4710
811.865	4466
812.007	4478
812.148	4413
812.29	4398
812.431	4443
812.573	4417
812.714	4398
812.855	4344
812.997	4417
813.138	4497
813.279	4398
813.421	4371
813.562	4375
813.703	4341
813.845	4299
813.986	4249
814.127	4253
814.268	4276
814.41	4295
814.551	4246
814.692	4325
814.833	4276
814.974	4299
815.115	4348
815.256	4257
815.397	4253
815.539	4223
815.68	4150
815.821	4238
815.962	4344
816.103	4257
816.244	4257
816.385	4227
816.526	4295
816.666	4196
816.807	4101
816.948	4192
817.089	4204
817.23	4135
817.371	4006
817.512	4002
817.653	4105
817.793	4021
817.934	4013
818.075	4120
818.216	4078
818.356	4124
818.497	3949
818.638	3934
818.778	3956
818.919	3876
819.06	3903
819.2	3884
819.341	3876
819.481	3884
819.622	3918
819.762	3979
819.903	3968
820.043	3835
820.184	3804
820.324	3838
820.465	3869
820.605	3846
820.746	3857
820.886	3793
821.026	3915
821.167	3915
821.307	3994
821.447	4002
821.588	3983
821.728	3922
821.868	3968
822.008	3869
822.149	3911
822.289	3911
822.429	3743
822.569	3800
822.709	3728
822.849	3736
822.99	3694
823.13	3766
823.27	3785
823.41	3694
823.55	3713
823.69	3705
823.83	3755
823.97	3656
824.11	3603
824.25	3591
824.389	3618
824.529	3648
824.669	3610
824.809	3755
824.949	3705
825.089	3705
825.228	3698
825.368	3561
825.508	3530
825.648	3557
825.787	3606
825.927	3660
826.067	3625
826.206	3656
826.346	3774
826.485	3793
826.625	3861
826.765	3926
826.904	3838
827.044	3618
827.183	3553
827.323	3405
827.462	3485
827.601	3401
827.741	3389
827.88	3416
828.02	3359
828.159	3447
828.298	3466
828.437	3526
828.577	3454
828.716	3591
828.855	3511
828.994	3336
829.134	3370
829.273	3355
829.412	3336
829.551	3336
829.69	3355
829.829	3367
829.968	3450
830.107	3405
830.246	3412
830.385	3363
830.524	3393
830.663	3310
830.802	3237
830.941	3214
831.08	3214
831.219	3237
831.357	3275
831.496	3382
831.635	3222
831.774	3180
831.913	3195
832.051	3146
832.19	3138
832.329	3195
832.467	3135
832.606	3112
832.744	3157
832.883	3173
833.022	3211
833.16	3233
833.299	3306
833.437	3294
833.576	3374
833.714	3443
833.852	3412
833.991	3447
834.129	3454
834.267	3431
834.406	3401
834.544	3409
834.682	3382
834.821	3412
834.959	3534
835.097	3412
835.235	3538
835.373	3523
835.511	3507
835.65	3485
835.788	3481
835.926	3363
836.064	3367
836.202	3409
836.34	3561
836.478	3595
836.615	3538
836.753	3599
836.891	3568
837.029	3614
837.167	3568
837.305	3523
837.443	3507
837.58	3450
837.718	3603
837.856	3526
837.993	3523
838.131	3564
838.269	3603
838.406	3599
838.544	3564
838.681	3469
838.819	3431
838.956	3370
839.094	3378
839.231	3443
839.369	3519
839.506	3728
839.643	3618
839.781	3496
839.918	3439
840.055	3511
840.193	3507
840.33	3561
840.467	3530
840.604	3622
840.742	3770
840.879	3534
841.016	3580
841.153	3610
841.29	3751
841.427	3705
841.564	3728
841.701	3740
841.838	3724
841.975	3686
842.112	3698
842.249	3622
842.385	3641
842.522	3846
842.659	3637
842.796	3663
842.933	3705
843.069	3698
843.206	3679
843.343	3793
843.479	3774
843.616	3823
843.752	3682
843.889	3675
844.025	3842
844.162	3671
844.298	3838
844.435	3778
844.571	3778
844.708	3953
844.844	3972
844.98	4006
845.117	3998
845.253	3911
845.389	3880
845.525	3953
845.661	3934
845.798	3918
845.934	3956
846.07	3956
846.206	4044
846.342	4109
846.478	4044
846.614	3987
846.75	3949
846.886	3915
847.022	4029
847.158	3983
847.294	4048
847.429	4013
847.565	3964
847.701	4211
847.837	3880
847.972	3888
848.108	4002
848.244	3956
848.379	3823
848.515	3827
848.65	3861
848.786	3823
848.921	3869
849.057	3930
849.192	3903
849.328	3896
849.463	3915
849.598	3896
849.734	3846
849.869	3846
850.004	3728
850.14	3785
850.275	3785
850.41	3720
850.545	3747
850.68	3778
850.815	3793
850.95	3751
851.085	3907
851.22	3869
851.355	3808
851.49	3781
851.625	3846
851.76	3766
851.895	3778
852.03	3778
852.165	3778
852.299	3861
852.434	3896
852.569	3823
852.703	3899
852.838	3960
852.973	3915
853.107	4002
853.242	3899
853.376	3816
853.511	3789
853.645	3770
853.78	3918
853.914	3903
854.048	3892
854.183	3876
854.317	3903
854.451	4063
854.585	3953
854.72	3937
854.854	4013
854.988	3945
855.122	3983
855.256	3915
855.39	3998
855.524	4128
855.658	4055
855.792	4109
855.926	4124
856.06	4173
856.194	4185
856.327	4177
856.461	4143
856.595	4150
856.729	4200
856.862	4253
856.996	4223
857.13	4276
857.263	4314
857.397	4360
857.53	4272
857.664	4352
857.797	4409
857.931	4443
858.064	4379
858.197	4470
858.331	4371
858.464	4402
858.597	4333
858.731	4466
858.864	4436
858.997	4447
859.13	4481
859.263	4504
859.396	4558
859.529	4523
859.662	4500
859.795	4523
859.928	4577
860.061	4683
860.194	4706
860.327	4649
860.46	4588
860.592	4702
860.725	4771
860.858	4774
860.99	4698
861.123	4637
861.256	4664
861.388	4774
861.521	5433
861.653	4706
861.786	4694
861.918	4744
862.05	4786
862.183	4839
862.315	4889
862.447	4892
862.58	4889
862.712	4793
862.844	4755
862.976	4786
863.108	4866
863.24	5174
863.372	4839
863.504	4892
863.636	4873
863.768	4938
863.9	4987
864.032	4930
864.164	4923
864.296	5033
864.428	5105
864.559	5071
864.691	5102
864.823	5094
864.954	5140
865.086	5151
865.217	5075
865.349	5166
865.48	5201
865.612	5181
865.743	5318
865.875	5204
866.006	5223
866.137	5223
866.269	5277
866.4	5258
866.531	5254
866.662	5265
866.793	5235
866.924	5303
867.055	5326
867.186	5299
867.317	5315
867.448	5307
867.579	5364
867.71	5299
867.841	5337
867.972	5425
868.103	5474
868.233	5486
868.364	5490
868.495	5520
868.625	5627
868.756	5752
868.886	5630
869.017	5748
869.147	5828
869.278	5901
869.408	5783
869.539	5836
869.669	5912
869.799	5885
869.929	6007
870.06	6041
870.19	6228
870.32	6163
870.45	6228
870.58	6323
870.71	6464
870.84	6399
870.97	6433
871.1	6437
871.23	6631
871.36	6646
871.489	6673
871.619	6741
871.749	6787
871.879	6859
872.008	6958
872.138	7000
872.267	7019
872.397	7012
872.526	7008
872.656	7133
872.785	7221
872.915	7438
873.044	7491
873.173	7556
873.303	7559
873.432	7807
873.561	7906
873.69	7898
873.819	7978
873.948	8081
874.077	8191
874.206	8301
874.335	8438
874.464	8716
874.593	8815
874.722	8971
874.851	9119
874.979	9283
875.108	9363
875.237	9374
875.365	9519
875.494	9610
875.623	9884
875.751	9876
875.88	9991
876.008	10192
876.136	10291
876.265	10554
876.393	10668
876.521	10793
876.65	10809
876.778	10854
876.906	10889
877.034	10965
877.162	11086
877.29	11155
877.418	11258
877.546	11391
877.674	11421
877.802	11376
877.93	11516
878.058	11535
878.185	11535
878.313	11627
878.441	11726
878.568	11589
878.696	11783
878.824	11897
878.951	11980
879.079	11973
879.206	12167
879.333	12011
879.461	11988
879.588	12007
879.715	12129
879.842	12197
879.97	11999
880.097	11965
880.224	11893
880.351	11866
880.478	11847
880.605	11813
880.732	11840
880.859	11980
880.986	11824
881.112	11863
881.239	11680
881.366	11600
881.493	11566
881.619	11520
881.746	11570
881.872	11474
881.999	11547
882.125	11516
882.252	11471
882.378	11532
882.505	11543
882.631	11410
882.757	11315
882.883	11395
883.01	11227
883.136	11151
883.262	11170
883.388	11170
883.514	11181
883.64	11235
883.766	11094
883.892	10972
884.018	10942
884.143	10987
884.269	11113
884.395	10877
884.52	10694
884.646	10744
884.772	10653
884.897	10675
885.023	10736
885.148	10717
885.274	10721
885.399	10672
885.524	10481
885.65	10569
885.775	10618
885.9	10550
886.025	10641
886.15	10527
886.275	10451
886.4	10451
886.525	10367
886.65	10371
886.775	10306
886.9	10421
887.025	10497
887.149	10360
887.274	10238
887.399	10257
887.523	10105
887.648	10143
887.773	10101
887.897	10204
888.021	10227
888.146	10082
888.27	10207
888.395	10268
888.519	10291
888.643	10150
888.767	10162
888.891	10082
889.015	10040
889.139	10090
889.263	9964
889.387	10120
889.511	10093
889.635	10078
889.759	9915
889.883	9915
890.006	9884
890.13	10097
890.254	9979
890.377	10021
890.501	9861
890.624	9819
890.748	9835
890.871	9827
890.995	9743
891.118	9762
891.241	9762
891.364	9690
891.488	9717
891.611	9736
891.734	9755
891.857	9705
891.98	9694
892.103	9857
892.226	9667
892.349	9644
892.471	9572
892.594	9545
892.717	9633
892.839	9641
892.962	9561
893.085	9660
893.207	9545
893.33	9610
893.452	9538
893.575	9545
893.697	9523
893.819	9606
893.941	9671
894.064	9648
894.186	9412
894.308	9405
894.43	9492
894.552	9629
894.674	9496
894.796	9428
894.918	9374
895.04	9370
895.161	9351
895.283	9302
895.405	9176
895.526	9256
895.648	9268
895.769	9287
895.891	9272
896.012	9256
896.134	9207
896.255	9142
896.376	9203
896.498	9214
896.619	9211
896.74	9066
896.861	9070
896.982	9218
897.103	9370
897.224	9161
897.345	9077
897.466	8967
897.587	9032
897.708	9085
897.828	8982
897.949	8933
898.07	8861
898.19	8880
898.311	8994
898.431	8899
898.552	8864
898.672	8895
898.792	8986
898.913	8868
899.033	8800
899.153	8674
899.273	8655
899.393	8762
899.513	8758
899.633	8629
899.753	8746
899.873	8659
899.993	8769
900.113	8705
900.232	8667
900.352	8716
900.472	8564
900.591	8568
900.711	8590
900.83	8560
900.95	8667
901.069	8663
901.189	8610
901.308	8419
901.427	8370
901.546	8438
901.665	8465
901.784	8484
901.904	8336
902.023	8275
902.141	8294
902.26	8248
902.379	8275
902.498	8149
902.617	8206
902.735	8332
902.854	8252
902.973	8286
903.091	8130
903.21	8123
903.328	8145
903.446	8115
903.565	8142
903.683	8084
903.801	8024
903.919	8100
904.038	8145
904.156	8054
904.274	8115
904.392	8046
904.51	8043
904.627	8001
904.745	8103
904.863	8111
904.981	7921
905.098	7868
905.216	7868
905.334	7864
905.451	7887
905.569	7894
905.686	7917
905.803	7871
905.921	7772
906.038	7890
906.155	7780
906.272	7696
906.389	7792
906.506	7582
906.623	7586
906.74	7594
906.857	7540
906.974	7613
907.091	7670
907.208	7662
907.324	7525
907.441	7552
907.557	7487
907.674	7472
907.79	7438
907.907	7388
908.023	7476
908.139	7415
908.256	7350
908.372	7297
908.488	7384
908.604	7225
908.72	7202
908.836	7289
908.952	7217
909.068	7255
909.184	7308
909.3	7285
909.415	7282
909.531	7289
909.647	7160
909.762	7110
909.878	7107
909.993	7107
910.108	7053
910.224	7038
910.339	7061
910.454	6977
910.57	6973
910.685	6920
910.8	7110
910.915	7110
911.03	6954
911.145	6894
911.259	6867
911.374	6875
911.489	6791
911.604	6787
911.718	6692
911.833	6749
911.947	6616
912.062	6612
912.176	6673
912.291	6738
912.405	6700
912.519	6776
912.633	6890
912.748	6726
912.862	6677
912.976	6623
913.09	6555
913.204	6601
913.318	6654
913.431	6662
913.545	6688
913.659	6726
913.772	6631
913.886	6502
914	6513
914.113	6635
914.226	6593
914.34	6635
914.453	6471
914.566	6620
914.68	6475
914.793	6532
914.906	6445
915.019	6357
915.132	6422
915.245	6399
915.358	6414
915.47	6426
915.583	6448
915.696	6490
915.809	6509
915.921	6506
916.034	6376
916.146	6403
916.259	6346
916.371	6467
916.483	6418
916.595	6422
916.708	6448
916.82	6361
916.932	6399
917.044	6426
917.156	6353
917.268	6327
917.38	6357
917.491	6338
917.603	6300
917.715	6361
917.826	6384
917.938	6304
918.049	6232
918.161	6403
918.272	6350
918.384	6445
918.495	6311
918.606	6167
918.717	6235
918.828	6296
918.939	6251
919.05	6216
919.161	6220
919.272	6140
919.383	6140
919.494	6308
919.604	6399
919.715	6350
919.826	6163
919.936	6251
920.047	6319
920.157	6247
920.267	6437
920.378	6281
920.488	6296
920.598	6475
920.708	6532
920.818	6464
920.928	6460
921.038	6597
921.148	6494
921.258	6334
921.368	6262
921.477	6216
921.587	6205
921.697	6076
921.806	6114
921.916	6038
922.025	5961
922.134	5901
922.244	5863
922.353	5920
922.462	5874
922.571	5802
922.68	5596
922.789	5691
922.898	5729
923.007	5608
923.116	5718
923.224	5676
923.333	5611
923.442	5657
923.55	5615
923.659	5577
923.767	5623
923.876	5547
923.984	5592
924.092	5497
924.201	5634
924.309	5573
924.417	5608
924.525	5509
924.633	5486
924.741	6266
924.849	5410
924.956	5505
925.064	5357
925.172	5273
925.279	5353
925.387	5349
925.494	5334
925.602	5436
925.709	5345
925.816	5239
925.924	5330
926.031	5337
926.138	5269
926.245	5299
926.352	5273
926.459	5258
926.566	5265
926.673	5231
926.779	5109
926.886	5083
926.993	5067
927.099	5025
927.206	4991
927.312	4980
927.419	4942
927.525	4957
927.631	4991
927.737	4889
927.843	4862
927.95	4778
928.056	4828
928.162	4820
928.267	4809
928.373	5299
928.479	4866
928.585	4679
928.69	4793
928.796	4714
928.901	4687
929.007	4596
929.112	4637
929.218	4653
929.323	4584
929.428	4596
929.533	4649
929.638	4531
929.743	4550
929.848	4550
929.953	4519
930.058	4436
930.163	4314
930.267	4329
930.372	4451
930.477	4299
930.581	4485
930.685	4379
930.79	4227
930.894	4246
930.998	4227
931.103	4447
931.207	4090
931.311	4059
931.415	4036
931.519	3903
931.623	3949
