Data from glass_V78500241_2689.txt Node
Date: Wed Sep 01 19:33:08 CST 2021
User: usil
Spectrometer: V785-0024
Trigger mode: 0
Integration Time (sec): 4.000000E-1
Scans to average: 1
Nonlinearity correction enabled: false
Boxcar width: 0
Storing dark spectrum: false
XAxis mode: Wavelengths
Number of Pixels in Spectrum: 1024
>>>>>Begin Spectral Data<<<<<
801.071	3728
801.214	3690
801.356	3663
801.499	3751
801.641	3694
801.783	3812
801.926	3827
802.068	3850
802.211	3778
802.353	3846
802.496	3816
802.638	3857
802.78	3918
802.923	3922
803.065	3865
803.208	3819
803.35	3930
803.492	3907
803.635	3926
803.777	3781
803.919	3854
804.061	4078
804.204	3926
804.346	3896
804.488	3922
804.63	4021
804.773	3945
804.915	4013
805.057	4147
805.199	3994
805.341	4120
805.483	4097
805.626	4120
805.768	4105
805.91	4135
806.052	4242
806.194	4166
806.336	4337
806.478	4234
806.62	4173
806.762	4192
806.904	4246
807.046	4379
807.188	4242
807.33	4154
807.472	4227
807.614	4204
807.756	4253
807.898	4162
808.04	4207
808.182	4257
808.324	4253
808.465	4367
808.607	4428
808.749	4432
808.891	4493
809.033	4538
809.174	4394
809.316	4280
809.458	4234
809.6	4131
809.741	4139
809.883	4128
810.025	4196
810.166	4204
810.308	4192
810.45	4284
810.591	4181
810.733	4234
810.875	4531
811.016	4801
811.158	5121
811.299	5261
811.441	5273
811.582	5060
811.724	4660
811.865	4428
812.007	4481
812.148	4436
812.29	4405
812.431	4428
812.573	4421
812.714	4398
812.855	4413
812.997	4421
813.138	4447
813.279	4371
813.421	4402
813.562	4360
813.703	4280
813.845	4238
813.986	4219
814.127	4169
814.268	4227
814.41	4276
814.551	4215
814.692	4344
814.833	4242
814.974	4287
815.115	4314
815.256	4257
815.397	4207
815.539	4227
815.68	4196
815.821	4204
815.962	4280
816.103	4284
816.244	4230
816.385	4196
816.526	4246
816.666	4177
816.807	4105
816.948	4139
817.089	4143
817.23	4086
817.371	4029
817.512	4006
817.653	4048
817.793	3998
817.934	4048
818.075	4112
818.216	4025
818.356	4051
818.497	3956
818.638	3888
818.778	3892
818.919	3850
819.06	3865
819.2	3884
819.341	3888
819.481	3846
819.622	3911
819.762	4017
819.903	3975
820.043	3838
820.184	3793
820.324	3800
820.465	3880
820.605	3854
820.746	3892
820.886	3766
821.026	3934
821.167	3915
821.307	3956
821.447	3953
821.588	3937
821.728	3994
821.868	3907
822.008	3880
822.149	3892
822.289	3899
822.429	3766
822.569	3770
822.709	3800
822.849	3667
822.99	3717
823.13	3728
823.27	3736
823.41	3709
823.55	3743
823.69	3713
823.83	3743
823.97	3671
824.11	3572
824.25	3606
824.389	3618
824.529	3686
824.669	3637
824.809	3694
824.949	3720
825.089	3770
825.228	3732
825.368	3587
825.508	3564
825.648	3561
825.787	3599
825.927	3679
826.067	3641
826.206	3667
826.346	3797
826.485	3804
826.625	3812
826.765	3941
826.904	3812
827.044	3568
827.183	3485
827.323	3416
827.462	3496
827.601	3393
827.741	3409
827.88	3473
828.02	3382
828.159	3447
828.298	3424
828.437	3530
828.577	3488
828.716	3557
828.855	3496
828.994	3359
829.134	3348
829.273	3355
829.412	3351
829.551	3359
829.69	3409
829.829	3393
829.968	3504
830.107	3424
830.246	3412
830.385	3378
830.524	3329
830.663	3291
830.802	3237
830.941	3173
831.08	3192
831.219	3249
831.357	3249
831.496	3374
831.635	3260
831.774	3154
831.913	3249
832.051	3127
832.19	3108
832.329	3184
832.467	3108
832.606	3100
832.744	3203
832.883	3161
833.022	3211
833.16	3241
833.299	3302
833.437	3298
833.576	3348
833.714	3359
833.852	3420
833.991	3424
834.129	3454
834.267	3458
834.406	3382
834.544	3416
834.682	3420
834.821	3363
834.959	3568
835.097	3416
835.235	3511
835.373	3431
835.511	3477
835.65	3435
835.788	3504
835.926	3386
836.064	3374
836.202	3401
836.34	3526
836.478	3553
836.615	3534
836.753	3587
836.891	3622
837.029	3584
837.167	3584
837.305	3553
837.443	3523
837.58	3485
837.718	3584
837.856	3519
837.993	3511
838.131	3595
838.269	3549
838.406	3580
838.544	3572
838.681	3416
838.819	3447
838.956	3359
839.094	3355
839.231	3424
839.369	3526
839.506	3720
839.643	3606
839.781	3530
839.918	3405
840.055	3488
840.193	3500
840.33	3485
840.467	3504
840.604	3606
840.742	3816
840.879	3534
841.016	3542
841.153	3591
841.29	3694
841.427	3675
841.564	3679
841.701	3682
841.838	3694
841.975	3663
842.112	3686
842.249	3641
842.385	3618
842.522	3819
842.659	3633
842.796	3656
842.933	3667
843.069	3682
843.206	3656
843.343	3759
843.479	3785
843.616	3800
843.752	3641
843.889	3682
844.025	3812
844.162	3717
844.298	3838
844.435	3747
844.571	3812
844.708	3865
844.844	3975
844.98	3972
845.117	3994
845.253	3918
845.389	3854
845.525	3880
845.661	3983
845.798	3911
845.934	3968
846.07	3907
846.206	4059
846.342	4078
846.478	4040
846.614	3926
846.75	3930
846.886	3922
847.022	4002
847.158	3949
847.294	3991
847.429	4010
847.565	3994
847.701	4211
847.837	3896
847.972	3892
848.108	3949
848.244	3953
848.379	3850
848.515	3766
848.65	3823
848.786	3804
848.921	3854
849.057	3899
849.192	3907
849.328	3876
849.463	3922
849.598	3819
849.734	3842
849.869	3835
850.004	3759
850.14	3797
850.275	3720
850.41	3736
850.545	3736
850.68	3755
850.815	3812
850.95	3774
851.085	3918
851.22	3850
851.355	3816
851.49	3781
851.625	3781
851.76	3736
851.895	3682
852.03	3759
852.165	3789
852.299	3823
852.434	3869
852.569	3857
852.703	3861
852.838	3903
852.973	3998
853.107	3972
853.242	3880
853.376	3812
853.511	3747
853.645	3827
853.78	4010
853.914	3896
854.048	3896
854.183	3846
854.317	3994
854.451	4036
854.585	3983
854.72	3903
854.854	4029
854.988	3903
855.122	3972
855.256	3911
855.39	3964
855.524	4143
855.658	4067
855.792	4093
855.926	4143
856.06	4109
856.194	4192
856.327	4135
856.461	4112
856.595	4128
856.729	4177
856.862	4246
856.996	4234
857.13	4306
857.263	4284
857.397	4303
857.53	4268
857.664	4329
857.797	4356
857.931	4375
858.064	4375
858.197	4455
858.331	4398
858.464	4348
858.597	4371
858.731	4451
858.864	4398
858.997	4424
859.13	4481
859.263	4535
859.396	4573
859.529	4489
859.662	4550
859.795	4497
859.928	4584
860.061	4714
860.194	4653
860.327	4637
860.46	4649
860.592	4729
860.725	4721
860.858	4782
860.99	4721
861.123	4672
861.256	4656
861.388	4710
861.521	5288
861.653	4748
861.786	4679
861.918	4691
862.05	4744
862.183	4816
862.315	4889
862.447	4923
862.58	4835
862.712	4797
862.844	4748
862.976	4854
863.108	4877
863.24	5212
863.372	4866
863.504	4930
863.636	4877
863.768	4942
863.9	4942
864.032	4911
864.164	4991
864.296	4961
864.428	5025
864.559	5064
864.691	5075
864.823	5132
864.954	5132
865.086	5147
865.217	5109
865.349	5083
865.48	5155
865.612	5258
865.743	5269
865.875	5147
866.006	5185
866.137	5216
866.269	5189
866.4	5235
866.531	5197
866.662	5204
866.793	5284
866.924	5292
867.055	5326
867.186	5337
867.317	5284
867.448	5280
867.579	5334
867.71	5379
867.841	5383
867.972	5395
868.103	5429
868.233	5482
868.364	5539
868.495	5520
868.625	5703
868.756	5767
868.886	5665
869.017	5710
869.147	5840
869.278	5836
869.408	5756
869.539	5870
869.669	5939
869.799	5939
869.929	5961
870.06	5996
870.19	6175
870.32	6144
870.45	6247
870.58	6331
870.71	6388
870.84	6464
870.97	6346
871.1	6380
871.23	6658
871.36	6639
871.489	6642
871.619	6787
871.749	6852
871.879	6871
872.008	6932
872.138	6905
872.267	6962
872.397	6966
872.526	6973
872.656	7015
872.785	7164
872.915	7339
873.044	7449
873.173	7552
873.303	7658
873.432	7757
873.561	7833
873.69	7928
873.819	7982
873.948	8130
874.077	8237
874.206	8347
874.335	8412
874.464	8659
874.593	8800
874.722	8895
874.851	9058
874.979	9184
875.108	9302
875.237	9401
875.365	9416
875.494	9610
875.623	9865
875.751	9755
875.88	9937
876.008	10036
876.136	10242
876.265	10493
876.393	10679
876.521	10733
876.65	10793
876.778	10793
876.906	10923
877.034	11029
877.162	11094
877.29	11178
877.418	11334
877.546	11334
877.674	11482
877.802	11471
877.93	11543
878.058	11554
878.185	11520
878.313	11691
878.441	11752
878.568	11691
878.696	11745
878.824	11802
878.951	11882
879.079	12060
879.206	12114
879.333	11961
879.461	11954
879.588	12091
879.715	12083
879.842	12197
879.97	12076
880.097	11874
880.224	11824
880.351	11832
880.478	11855
880.605	11809
880.732	11783
880.859	12030
880.986	11813
881.112	11760
881.239	11756
881.366	11619
881.493	11516
881.619	11440
881.746	11562
881.872	11509
881.999	11486
882.125	11505
882.252	11490
882.378	11440
882.505	11623
882.631	11433
882.757	11250
882.883	11387
883.01	11159
883.136	11170
883.262	11041
883.388	11140
883.514	11197
883.64	11227
883.766	11113
883.892	10946
884.018	10919
884.143	11029
884.269	11071
884.395	10782
884.52	10717
884.646	10725
884.772	10702
884.897	10637
885.023	10660
885.148	10725
885.274	10782
885.399	10599
885.524	10588
885.65	10542
885.775	10584
885.9	10573
886.025	10588
886.15	10508
886.275	10462
886.4	10348
886.525	10436
886.65	10443
886.775	10314
886.9	10535
887.025	10538
887.149	10421
887.274	10280
887.399	10215
887.523	10177
887.648	10192
887.773	10154
887.897	10192
888.021	10192
888.146	10029
888.27	10185
888.395	10181
888.519	10192
888.643	10204
888.767	10181
888.891	10078
889.015	10013
889.139	10082
889.263	9949
889.387	10032
889.511	10082
889.635	10040
889.759	9975
889.883	9934
890.006	10006
890.13	10074
890.254	9915
890.377	9968
890.501	9895
890.624	9857
890.748	9907
890.871	9728
890.995	9751
891.118	9660
891.241	9663
891.364	9709
891.488	9854
891.611	9720
891.734	9671
891.857	9793
891.98	9644
892.103	9652
892.226	9667
892.349	9705
892.471	9526
892.594	9561
892.717	9584
892.839	9557
892.962	9496
893.085	9656
893.207	9496
893.33	9447
893.452	9542
893.575	9580
893.697	9447
893.819	9633
893.941	9625
894.064	9584
894.186	9473
894.308	9412
894.43	9431
894.552	9507
894.674	9568
894.796	9382
894.918	9363
895.04	9336
895.161	9317
895.283	9253
895.405	9169
895.526	9279
895.648	9180
895.769	9230
895.891	9256
896.012	9329
896.134	9249
896.255	9176
896.376	9116
896.498	9135
896.619	9093
896.74	9100
896.861	9097
896.982	9195
897.103	9344
897.224	9157
897.345	9017
897.466	8941
897.587	9009
897.708	9009
897.828	9055
897.949	8967
898.07	8883
898.19	8944
898.311	8975
898.431	8838
898.552	8986
898.672	8929
898.792	8986
898.913	8861
899.033	8739
899.153	8712
899.273	8663
899.393	8701
899.513	8720
899.633	8735
899.753	8659
899.873	8621
899.993	8750
900.113	8731
900.232	8644
900.352	8625
900.472	8613
900.591	8507
900.711	8541
900.83	8575
900.95	8644
901.069	8701
901.189	8514
901.308	8370
901.427	8366
901.546	8434
901.665	8427
901.784	8549
901.904	8362
902.023	8298
902.141	8317
902.26	8157
902.379	8298
902.498	8157
902.617	8199
902.735	8279
902.854	8259
902.973	8286
903.091	8145
903.21	8092
903.328	8214
903.446	8069
903.565	8050
903.683	8077
903.801	7925
903.919	8073
904.038	8100
904.156	7993
904.274	8077
904.392	8031
904.51	7936
904.627	8005
904.745	8073
904.863	8077
904.981	7879
905.098	7784
905.216	7868
905.334	7894
905.451	7944
905.569	7852
905.686	7883
905.803	7936
905.921	7727
906.038	7795
906.155	7803
906.272	7655
906.389	7719
906.506	7655
906.623	7639
906.74	7681
906.857	7533
906.974	7586
907.091	7670
907.208	7693
907.324	7655
907.441	7571
907.557	7487
907.674	7430
907.79	7362
907.907	7415
908.023	7400
908.139	7438
908.256	7384
908.372	7362
908.488	7316
908.604	7285
908.72	7183
908.836	7247
908.952	7206
909.068	7247
909.184	7308
909.3	7251
909.415	7308
909.531	7244
909.647	7137
909.762	7080
909.878	7118
909.993	7103
910.108	7091
910.224	7072
910.339	7160
910.454	7107
910.57	7031
910.685	6920
910.8	7187
910.915	7088
911.03	7019
911.145	6897
911.259	6886
911.374	6833
911.489	6837
911.604	6875
911.718	6753
911.833	6722
911.947	6673
912.062	6578
912.176	6665
912.291	6715
912.405	6662
912.519	6795
912.633	6795
912.748	6772
912.862	6677
912.976	6608
913.09	6544
913.204	6585
913.318	6627
913.431	6654
913.545	6654
913.659	6681
913.772	6658
913.886	6563
914	6506
914.113	6658
914.226	6570
914.34	6566
914.453	6544
914.566	6517
914.68	6513
914.793	6494
914.906	6365
915.019	6357
915.132	6327
915.245	6452
915.358	6422
915.47	6426
915.583	6426
915.696	6407
915.809	6532
915.921	6544
916.034	6380
916.146	6384
916.259	6403
916.371	6467
916.483	6475
916.595	6395
916.708	6376
916.82	6410
916.932	6331
917.044	6372
917.156	6350
917.268	6315
917.38	6334
917.491	6357
917.603	6372
917.715	6357
917.826	6407
917.938	6300
918.049	6239
918.161	6304
918.272	6315
918.384	6456
918.495	6353
918.606	6235
918.717	6167
918.828	6266
918.939	6232
919.05	6106
919.161	6228
919.272	6190
919.383	6152
919.494	6247
919.604	6372
919.715	6235
919.826	6178
919.936	6251
920.047	6311
920.157	6273
920.267	6414
920.378	6281
920.488	6277
920.598	6433
920.708	6578
920.818	6494
920.928	6426
921.038	6563
921.148	6559
921.258	6422
921.368	6251
921.477	6163
921.587	6175
921.697	6038
921.806	6167
921.916	6049
922.025	5946
922.134	5863
922.244	5893
922.353	5904
922.462	5840
922.571	5824
922.68	5657
922.789	5646
922.898	5653
923.007	5638
923.116	5646
923.224	5634
923.333	5661
923.442	5627
923.55	5585
923.659	5600
923.767	5558
923.876	5524
923.984	5554
924.092	5509
924.201	5509
924.309	5524
924.417	5554
924.525	5467
924.633	5512
924.741	6220
924.849	5345
924.956	5486
925.064	5337
925.172	5292
925.279	5254
925.387	5364
925.494	5318
925.602	5421
925.709	5357
925.816	5227
925.924	5318
926.031	5357
926.138	5284
926.245	5349
926.352	5254
926.459	5292
926.566	5330
926.673	5254
926.779	5067
926.886	5083
926.993	5014
927.099	4953
927.206	4934
927.312	4904
927.419	5033
927.525	4942
927.631	5018
927.737	4919
927.843	4816
927.95	4744
928.056	4835
928.162	4820
928.267	4801
928.373	5223
928.479	4809
928.585	4694
928.69	4717
928.796	4805
928.901	4664
929.007	4596
929.112	4626
929.218	4637
929.323	4558
929.428	4523
929.533	4630
929.638	4474
929.743	4519
929.848	4531
929.953	4493
930.058	4390
930.163	4352
930.267	4310
930.372	4409
930.477	4242
930.581	4485
930.685	4360
930.79	4280
930.894	4287
930.998	4211
931.103	4413
931.207	4124
931.311	4097
931.415	4021
931.519	3918
931.623	3903
