Data from glass_V78500241_325.txt Node
Date: Wed Sep 01 19:16:45 CST 2021
User: usil
Spectrometer: V785-0024
Trigger mode: 0
Integration Time (sec): 4.000000E-1
Scans to average: 1
Nonlinearity correction enabled: false
Boxcar width: 0
Storing dark spectrum: false
XAxis mode: Wavelengths
Number of Pixels in Spectrum: 1024
>>>>>Begin Spectral Data<<<<<
801.071	3766
801.214	3789
801.356	3724
801.499	3724
801.641	3740
801.783	3785
801.926	3876
802.068	3869
802.211	3850
802.353	3899
802.496	3842
802.638	3896
802.78	3930
802.923	3911
803.065	3937
803.208	3842
803.35	3892
803.492	3934
803.635	3937
803.777	3793
803.919	3945
804.061	4147
804.204	3975
804.346	3998
804.488	3964
804.63	4040
804.773	3987
804.915	4029
805.057	4150
805.199	4078
805.341	4097
805.483	4131
805.626	4139
805.768	4139
805.91	4211
806.052	4291
806.194	4196
806.336	4379
806.478	4223
806.62	4143
806.762	4177
806.904	4299
807.046	4348
807.188	4185
807.33	4185
807.472	4234
807.614	4204
807.756	4284
807.898	4246
808.04	4268
808.182	4314
808.324	4329
808.465	4379
808.607	4459
808.749	4470
808.891	4466
809.033	4485
809.174	4390
809.316	4314
809.458	4249
809.6	4173
809.741	4158
809.883	4162
810.025	4215
810.166	4219
810.308	4215
810.45	4257
810.591	4268
810.733	4287
810.875	4527
811.016	4843
811.158	5189
811.299	5265
811.441	5280
811.582	5109
811.724	4748
811.865	4478
812.007	4474
812.148	4485
812.29	4405
812.431	4443
812.573	4413
812.714	4409
812.855	4417
812.997	4409
813.138	4462
813.279	4432
813.421	4413
813.562	4375
813.703	4383
813.845	4341
813.986	4284
814.127	4242
814.268	4291
814.41	4299
814.551	4299
814.692	4341
814.833	4322
814.974	4284
815.115	4299
815.256	4249
815.397	4246
815.539	4219
815.68	4185
815.821	4227
815.962	4329
816.103	4310
816.244	4215
816.385	4261
816.526	4329
816.666	4181
816.807	4109
816.948	4169
817.089	4211
817.23	4112
817.371	4090
817.512	4059
817.653	4101
817.793	4086
817.934	4059
818.075	4090
818.216	4101
818.356	4067
818.497	4010
818.638	3907
818.778	3926
818.919	3899
819.06	3846
819.2	3941
819.341	3869
819.481	3861
819.622	3911
819.762	4013
819.903	3972
820.043	3842
820.184	3812
820.324	3835
820.465	3861
820.605	3854
820.746	3869
820.886	3797
821.026	3922
821.167	3941
821.307	4002
821.447	3949
821.588	3960
821.728	3926
821.868	3926
822.008	3899
822.149	3903
822.289	3937
822.429	3835
822.569	3793
822.709	3793
822.849	3698
822.99	3743
823.13	3789
823.27	3827
823.41	3724
823.55	3762
823.69	3728
823.83	3781
823.97	3682
824.11	3606
824.25	3553
824.389	3679
824.529	3698
824.669	3641
824.809	3705
824.949	3778
825.089	3690
825.228	3717
825.368	3610
825.508	3549
825.648	3641
825.787	3618
825.927	3686
826.067	3641
826.206	3679
826.346	3808
826.485	3835
826.625	3926
826.765	3972
826.904	3857
827.044	3614
827.183	3580
827.323	3481
827.462	3485
827.601	3447
827.741	3450
827.88	3450
828.02	3401
828.159	3515
828.298	3526
828.437	3564
828.577	3526
828.716	3595
828.855	3549
828.994	3382
829.134	3405
829.273	3454
829.412	3351
829.551	3340
829.69	3378
829.829	3488
829.968	3526
830.107	3450
830.246	3462
830.385	3409
830.524	3389
830.663	3351
830.802	3279
830.941	3233
831.08	3203
831.219	3230
831.357	3260
831.496	3409
831.635	3211
831.774	3207
831.913	3245
832.051	3142
832.19	3127
832.329	3249
832.467	3142
832.606	3070
832.744	3180
832.883	3199
833.022	3169
833.16	3279
833.299	3351
833.437	3329
833.576	3401
833.714	3420
833.852	3450
833.991	3485
834.129	3500
834.267	3443
834.406	3405
834.544	3439
834.682	3431
834.821	3401
834.959	3599
835.097	3420
835.235	3534
835.373	3500
835.511	3481
835.65	3462
835.788	3485
835.926	3382
836.064	3397
836.202	3424
836.34	3576
836.478	3641
836.615	3576
836.753	3618
836.891	3644
837.029	3606
837.167	3564
837.305	3568
837.443	3572
837.58	3534
837.718	3584
837.856	3568
837.993	3553
838.131	3622
838.269	3591
838.406	3606
838.544	3549
838.681	3477
838.819	3496
838.956	3389
839.094	3431
839.231	3443
839.369	3519
839.506	3755
839.643	3660
839.781	3526
839.918	3469
840.055	3530
840.193	3542
840.33	3557
840.467	3549
840.604	3614
840.742	3789
840.879	3572
841.016	3572
841.153	3629
841.29	3755
841.427	3701
841.564	3762
841.701	3774
841.838	3728
841.975	3656
842.112	3755
842.249	3648
842.385	3656
842.522	3827
842.659	3747
842.796	3694
842.933	3762
843.069	3698
843.206	3686
843.343	3800
843.479	3793
843.616	3804
843.752	3671
843.889	3679
844.025	3892
844.162	3709
844.298	3865
844.435	3804
844.571	3797
844.708	3937
844.844	3991
844.98	4044
845.117	4063
845.253	3941
845.389	3899
845.525	3979
845.661	3953
845.798	3941
845.934	4002
846.07	3975
846.206	4090
846.342	4131
846.478	4097
846.614	3994
846.75	3915
846.886	3918
847.022	4025
847.158	3964
847.294	4021
847.429	4051
847.565	3998
847.701	4257
847.837	3949
847.972	3907
848.108	3983
848.244	3998
848.379	3838
848.515	3899
848.65	3835
848.786	3884
848.921	3892
849.057	3926
849.192	3956
849.328	3934
849.463	3949
849.598	3915
849.734	3899
849.869	3873
850.004	3823
850.14	3873
850.275	3774
850.41	3713
850.545	3774
850.68	3800
850.815	3781
850.95	3793
851.085	3972
851.22	3880
851.355	3888
851.49	3804
851.625	3789
851.76	3800
851.895	3781
852.03	3728
852.165	3812
852.299	3918
852.434	3918
852.569	3857
852.703	3831
852.838	3941
852.973	4025
853.107	3991
853.242	3896
853.376	3857
853.511	3823
853.645	3816
853.78	3998
853.914	3850
854.048	3869
854.183	3899
854.317	3930
854.451	4063
854.585	3998
854.72	3979
854.854	4063
854.988	3915
855.122	4021
855.256	3991
855.39	4048
855.524	4128
855.658	4131
855.792	4128
855.926	4124
856.06	4162
856.194	4192
856.327	4116
856.461	4158
856.595	4116
856.729	4173
856.862	4356
856.996	4268
857.13	4303
857.263	4333
857.397	4371
857.53	4234
857.664	4367
857.797	4375
857.931	4405
858.064	4440
858.197	4443
858.331	4432
858.464	4379
858.597	4356
858.731	4436
858.864	4462
858.997	4497
859.13	4504
859.263	4527
859.396	4592
859.529	4527
859.662	4580
859.795	4542
859.928	4615
860.061	4687
860.194	4763
860.327	4698
860.46	4702
860.592	4736
860.725	4801
860.858	4740
860.99	4714
861.123	4694
861.256	4691
861.388	4824
861.521	5273
861.653	4733
861.786	4759
861.918	4740
862.05	4839
862.183	4824
862.315	4896
862.447	4911
862.58	4904
862.712	4812
862.844	4862
862.976	4889
863.108	4843
863.24	5265
863.372	4862
863.504	4919
863.636	4911
863.768	5014
863.9	4942
864.032	4930
864.164	4965
864.296	5029
864.428	5102
864.559	5113
864.691	5140
864.823	5102
864.954	5136
865.086	5174
865.217	5109
865.349	5090
865.48	5166
865.612	5231
865.743	5280
865.875	5220
866.006	5178
866.137	5231
866.269	5223
866.4	5223
866.531	5201
866.662	5220
866.793	5345
866.924	5315
867.055	5383
867.186	5368
867.317	5280
867.448	5322
867.579	5448
867.71	5364
867.841	5398
867.972	5444
868.103	5436
868.233	5459
868.364	5516
868.495	5535
868.625	5668
868.756	5786
868.886	5665
869.017	5714
869.147	5851
869.278	5878
869.408	5889
869.539	5828
869.669	5961
869.799	5889
869.929	6003
870.06	6038
870.19	6175
870.32	6205
870.45	6315
870.58	6365
870.71	6437
870.84	6445
870.97	6445
871.1	6429
871.23	6654
871.36	6730
871.489	6665
871.619	6840
871.749	6856
871.879	6913
872.008	6962
872.138	7000
872.267	7042
872.397	7019
872.526	7042
872.656	7133
872.785	7266
872.915	7388
873.044	7506
873.173	7548
873.303	7689
873.432	7715
873.561	7811
873.69	7849
873.819	7986
873.948	8206
874.077	8290
874.206	8351
874.335	8446
874.464	8667
874.593	8876
874.722	9001
874.851	9135
874.979	9264
875.108	9367
875.237	9401
875.365	9454
875.494	9656
875.623	9778
875.751	9785
875.88	10040
876.008	10185
876.136	10322
876.265	10554
876.393	10729
876.521	10759
876.65	10824
876.778	10904
876.906	10896
877.034	11018
877.162	11094
877.29	11147
877.418	11288
877.546	11398
877.674	11383
877.802	11436
877.93	11463
878.058	11573
878.185	11600
878.313	11646
878.441	11805
878.568	11657
878.696	11745
878.824	11927
878.951	11984
879.079	12015
879.206	12144
879.333	12083
879.461	11954
879.588	12098
879.715	12098
879.842	12171
879.97	12125
880.097	11813
880.224	11836
880.351	11935
880.478	11920
880.605	11836
880.732	11843
880.859	11988
880.986	11843
881.112	11889
881.239	11688
881.366	11608
881.493	11665
881.619	11520
881.746	11551
881.872	11535
881.999	11505
882.125	11512
882.252	11493
882.378	11551
882.505	11608
882.631	11398
882.757	11330
882.883	11303
883.01	11231
883.136	11197
883.262	11102
883.388	11124
883.514	11143
883.64	11079
883.766	11117
883.892	11010
884.018	11041
884.143	10984
884.269	11117
884.395	10816
884.52	10748
884.646	10759
884.772	10763
884.897	10588
885.023	10687
885.148	10698
885.274	10759
885.399	10710
885.524	10634
885.65	10542
885.775	10527
885.9	10599
886.025	10615
886.15	10538
886.275	10409
886.4	10360
886.525	10363
886.65	10375
886.775	10375
886.9	10459
887.025	10592
887.149	10363
887.274	10204
887.399	10147
887.523	10158
887.648	10109
887.773	10124
887.897	10291
888.021	10268
888.146	10143
888.27	10227
888.395	10196
888.519	10234
888.643	10215
888.767	10188
888.891	10097
889.015	9972
889.139	10112
889.263	9945
889.387	9994
889.511	10082
889.635	10078
889.759	10013
889.883	10074
890.006	9991
890.13	10082
890.254	9934
890.377	9972
890.501	9915
890.624	9850
890.748	9915
890.871	9846
890.995	9781
891.118	9667
891.241	9797
891.364	9740
891.488	9861
891.611	9736
891.734	9762
891.857	9755
891.98	9717
892.103	9762
892.226	9713
892.349	9587
892.471	9485
892.594	9576
892.717	9652
892.839	9625
892.962	9614
893.085	9629
893.207	9637
893.33	9526
893.452	9526
893.575	9599
893.697	9469
893.819	9610
893.941	9633
894.064	9534
894.186	9504
894.308	9435
894.43	9587
894.552	9572
894.674	9496
894.796	9393
894.918	9393
895.04	9374
895.161	9313
895.283	9310
895.405	9222
895.526	9298
895.648	9249
895.769	9226
895.891	9310
896.012	9351
896.134	9253
896.255	9253
896.376	9188
896.498	9146
896.619	9066
896.74	9085
896.861	9173
896.982	9268
897.103	9313
897.224	9150
897.345	9081
897.466	8975
897.587	9028
897.708	9058
897.828	9009
897.949	8952
898.07	8876
898.19	8849
898.311	8956
898.431	8910
898.552	8937
898.672	9055
898.792	8986
898.913	8902
899.033	8807
899.153	8842
899.273	8727
899.393	8811
899.513	8720
899.633	8632
899.753	8735
899.873	8659
899.993	8796
900.113	8792
900.232	8705
900.352	8632
900.472	8583
900.591	8617
900.711	8579
900.83	8594
900.95	8655
901.069	8689
901.189	8587
901.308	8450
901.427	8355
901.546	8461
901.665	8469
901.784	8499
901.904	8442
902.023	8423
902.141	8271
902.26	8244
902.379	8267
902.498	8244
902.617	8221
902.735	8294
902.854	8225
902.973	8229
903.091	8164
903.21	8126
903.328	8263
903.446	8145
903.565	8058
903.683	8100
903.801	8092
903.919	8153
904.038	8134
904.156	8031
904.274	8073
904.392	8100
904.51	8092
904.627	8100
904.745	8100
904.863	8084
904.981	7982
905.098	7875
905.216	7879
905.334	7883
905.451	7959
905.569	7894
905.686	7913
905.803	7951
905.921	7757
906.038	7890
906.155	7807
906.272	7761
906.389	7753
906.506	7674
906.623	7651
906.74	7613
906.857	7518
906.974	7609
907.091	7647
907.208	7746
907.324	7643
907.441	7609
907.557	7487
907.674	7480
907.79	7407
907.907	7430
908.023	7495
908.139	7499
908.256	7407
908.372	7365
908.488	7411
908.604	7255
908.72	7232
908.836	7289
908.952	7255
909.068	7190
909.184	7369
909.3	7293
909.415	7362
909.531	7331
909.647	7198
909.762	7141
909.878	7042
909.993	7122
910.108	7103
910.224	7084
910.339	7133
910.454	7091
910.57	7050
910.685	6973
910.8	7149
910.915	7171
911.03	7061
911.145	6886
911.259	6886
911.374	6943
911.489	6840
911.604	6829
911.718	6760
911.833	6760
911.947	6707
912.062	6635
912.176	6700
912.291	6684
912.405	6722
912.519	6814
912.633	6848
912.748	6738
912.862	6703
912.976	6639
913.09	6555
913.204	6604
913.318	6631
913.431	6715
913.545	6601
913.659	6806
913.772	6650
913.886	6566
914	6559
914.113	6623
914.226	6654
914.34	6604
914.453	6521
914.566	6559
914.68	6555
914.793	6517
914.906	6448
915.019	6426
915.132	6380
915.245	6486
915.358	6437
915.47	6494
915.583	6433
915.696	6506
915.809	6612
915.921	6658
916.034	6384
916.146	6399
916.259	6414
916.371	6475
916.483	6456
916.595	6384
916.708	6479
916.82	6429
916.932	6361
917.044	6361
917.156	6429
917.268	6346
917.38	6346
917.491	6308
917.603	6319
917.715	6399
917.826	6460
917.938	6308
918.049	6266
918.161	6372
918.272	6384
918.384	6426
918.495	6384
918.606	6281
918.717	6201
918.828	6338
918.939	6338
919.05	6224
919.161	6247
919.272	6178
919.383	6190
919.494	6270
919.604	6460
919.715	6308
919.826	6262
919.936	6235
920.047	6308
920.157	6285
920.267	6445
920.378	6323
920.488	6292
920.598	6410
920.708	6604
920.818	6456
920.928	6490
921.038	6616
921.148	6525
921.258	6388
921.368	6353
921.477	6247
921.587	6232
921.697	6117
921.806	6213
921.916	6041
922.025	5961
922.134	5885
922.244	5893
922.353	5901
922.462	5889
922.571	5828
922.68	5680
922.789	5745
922.898	5722
923.007	5653
923.116	5688
923.224	5707
923.333	5688
923.442	5634
923.55	5589
923.659	5581
923.767	5653
923.876	5570
923.984	5562
924.092	5528
924.201	5608
924.309	5562
924.417	5577
924.525	5535
924.633	5528
924.741	6235
924.849	5414
924.956	5490
925.064	5391
925.172	5269
925.279	5326
925.387	5398
925.494	5387
925.602	5421
925.709	5398
925.816	5288
925.924	5345
926.031	5387
926.138	5322
926.245	5334
926.352	5216
926.459	5280
926.566	5353
926.673	5265
926.779	5132
926.886	5151
926.993	5071
927.099	5094
927.206	4984
927.312	4972
927.419	5090
927.525	4961
927.631	4987
927.737	4904
927.843	4866
927.95	4797
928.056	4831
928.162	4858
928.267	4850
928.373	5307
928.479	4885
928.585	4721
928.69	4793
928.796	4786
928.901	4714
929.007	4668
929.112	4664
929.218	4630
929.323	4634
929.428	4554
929.533	4626
929.638	4554
929.743	4508
929.848	4554
929.953	4573
930.058	4459
930.163	4363
930.267	4363
930.372	4405
930.477	4291
930.581	4440
930.685	4405
930.79	4284
930.894	4261
930.998	4306
931.103	4379
931.207	4124
931.311	4147
931.415	4059
931.519	3945
931.623	3953
