Data from glass_V78500241_523.txt Node
Date: Wed Sep 01 19:18:07 CST 2021
User: usil
Spectrometer: V785-0024
Trigger mode: 0
Integration Time (sec): 4.000000E-1
Scans to average: 1
Nonlinearity correction enabled: false
Boxcar width: 0
Storing dark spectrum: false
XAxis mode: Wavelengths
Number of Pixels in Spectrum: 1024
>>>>>Begin Spectral Data<<<<<
801.071	3762
801.214	3740
801.356	3740
801.499	3701
801.641	3770
801.783	3770
801.926	3865
802.068	3869
802.211	3911
802.353	3907
802.496	3880
802.638	3907
802.78	3907
802.923	3937
803.065	3903
803.208	3854
803.35	3903
803.492	3884
803.635	3911
803.777	3816
803.919	3934
804.061	4147
804.204	3983
804.346	3983
804.488	3972
804.63	4093
804.773	3960
804.915	4036
805.057	4131
805.199	4021
805.341	4086
805.483	4135
805.626	4135
805.768	4150
805.91	4204
806.052	4246
806.194	4253
806.336	4386
806.478	4230
806.62	4185
806.762	4223
806.904	4268
807.046	4360
807.188	4227
807.33	4166
807.472	4234
807.614	4147
807.756	4280
807.898	4181
808.04	4196
808.182	4325
808.324	4337
808.465	4371
808.607	4451
808.749	4459
808.891	4447
809.033	4519
809.174	4432
809.316	4249
809.458	4257
809.6	4181
809.741	4112
809.883	4173
810.025	4227
810.166	4223
810.308	4261
810.45	4242
810.591	4227
810.733	4325
810.875	4550
811.016	4843
811.158	5201
811.299	5284
811.441	5288
811.582	5098
811.724	4679
811.865	4512
812.007	4489
812.148	4405
812.29	4394
812.431	4417
812.573	4432
812.714	4375
812.855	4413
812.997	4474
813.138	4485
813.279	4447
813.421	4383
813.562	4356
813.703	4383
813.845	4287
813.986	4272
814.127	4192
814.268	4272
814.41	4291
814.551	4287
814.692	4341
814.833	4280
814.974	4341
815.115	4367
815.256	4211
815.397	4227
815.539	4268
815.68	4230
815.821	4207
815.962	4322
816.103	4306
816.244	4249
816.385	4204
816.526	4280
816.666	4268
816.807	4128
816.948	4185
817.089	4173
817.23	4078
817.371	4059
817.512	4032
817.653	4071
817.793	4025
817.934	4029
818.075	4059
818.216	4116
818.356	4071
818.497	3953
818.638	3911
818.778	3983
818.919	3915
819.06	3884
819.2	3949
819.341	3846
819.481	3865
819.622	3922
819.762	4025
819.903	3972
820.043	3861
820.184	3869
820.324	3880
820.465	3884
820.605	3857
820.746	3899
820.886	3846
821.026	3918
821.167	3926
821.307	3979
821.447	4006
821.588	3956
821.728	3922
821.868	3964
822.008	3876
822.149	3945
822.289	3915
822.429	3812
822.569	3804
822.709	3827
822.849	3698
822.99	3751
823.13	3747
823.27	3831
823.41	3728
823.55	3755
823.69	3740
823.83	3740
823.97	3720
824.11	3606
824.25	3572
824.389	3663
824.529	3648
824.669	3637
824.809	3724
824.949	3762
825.089	3740
825.228	3720
825.368	3568
825.508	3622
825.648	3610
825.787	3641
825.927	3614
826.067	3679
826.206	3679
826.346	3838
826.485	3857
826.625	3880
826.765	3979
826.904	3888
827.044	3633
827.183	3519
827.323	3454
827.462	3526
827.601	3443
827.741	3462
827.88	3435
828.02	3397
828.159	3439
828.298	3485
828.437	3538
828.577	3466
828.716	3595
828.855	3507
828.994	3412
829.134	3393
829.273	3393
829.412	3389
829.551	3344
829.69	3378
829.829	3450
829.968	3519
830.107	3420
830.246	3473
830.385	3405
830.524	3355
830.663	3298
830.802	3233
830.941	3207
831.08	3207
831.219	3287
831.357	3321
831.496	3409
831.635	3214
831.774	3207
831.913	3154
832.051	3161
832.19	3195
832.329	3188
832.467	3157
832.606	3119
832.744	3203
832.883	3165
833.022	3161
833.16	3249
833.299	3325
833.437	3332
833.576	3386
833.714	3393
833.852	3450
833.991	3469
834.129	3504
834.267	3485
834.406	3458
834.544	3416
834.682	3428
834.821	3401
834.959	3572
835.097	3431
835.235	3545
835.373	3492
835.511	3542
835.65	3450
835.788	3485
835.926	3420
836.064	3412
836.202	3450
836.34	3591
836.478	3641
836.615	3549
836.753	3606
836.891	3660
837.029	3652
837.167	3610
837.305	3553
837.443	3572
837.58	3515
837.718	3633
837.856	3644
837.993	3526
838.131	3603
838.269	3587
838.406	3610
838.544	3557
838.681	3485
838.819	3462
838.956	3374
839.094	3397
839.231	3466
839.369	3511
839.506	3774
839.643	3648
839.781	3523
839.918	3504
840.055	3553
840.193	3572
840.33	3553
840.467	3561
840.604	3599
840.742	3800
840.879	3576
841.016	3576
841.153	3595
841.29	3800
841.427	3720
841.564	3724
841.701	3713
841.838	3709
841.975	3679
842.112	3762
842.249	3709
842.385	3637
842.522	3835
842.659	3724
842.796	3660
842.933	3743
843.069	3728
843.206	3747
843.343	3846
843.479	3816
843.616	3846
843.752	3675
843.889	3755
844.025	3819
844.162	3720
844.298	3918
844.435	3812
844.571	3793
844.708	3926
844.844	3960
844.98	4051
845.117	4010
845.253	3956
845.389	3884
845.525	3903
845.661	4013
845.798	3949
845.934	4002
846.07	3983
846.206	4093
846.342	4131
846.478	4082
846.614	3964
846.75	3953
846.886	3903
847.022	4032
847.158	3972
847.294	4040
847.429	4044
847.565	4021
847.701	4234
847.837	3869
847.972	3865
848.108	4010
848.244	3994
848.379	3892
848.515	3842
848.65	3835
848.786	3857
848.921	3873
849.057	3945
849.192	3869
849.328	3956
849.463	3945
849.598	3899
849.734	3880
849.869	3896
850.004	3819
850.14	3838
850.275	3831
850.41	3759
850.545	3781
850.68	3808
850.815	3831
850.95	3778
851.085	3953
851.22	3903
851.355	3861
851.49	3816
851.625	3759
851.76	3774
851.895	3774
852.03	3743
852.165	3857
852.299	3838
852.434	3926
852.569	3896
852.703	3911
852.838	3945
852.973	3983
853.107	3956
853.242	3922
853.376	3869
853.511	3774
853.645	3800
853.78	4040
853.914	3922
854.048	3922
854.183	3918
854.317	4002
854.451	4074
854.585	3987
854.72	3960
854.854	4040
854.988	3949
855.122	4002
855.256	3918
855.39	4017
855.524	4116
855.658	4105
855.792	4135
855.926	4162
856.06	4158
856.194	4242
856.327	4105
856.461	4116
856.595	4196
856.729	4150
856.862	4249
856.996	4261
857.13	4337
857.263	4383
857.397	4383
857.53	4356
857.664	4352
857.797	4383
857.931	4421
858.064	4375
858.197	4386
858.331	4417
858.464	4421
858.597	4402
858.731	4443
858.864	4497
858.997	4470
859.13	4497
859.263	4535
859.396	4615
859.529	4573
859.662	4554
859.795	4519
859.928	4622
860.061	4683
860.194	4759
860.327	4698
860.46	4714
860.592	4767
860.725	4710
860.858	4793
860.99	4706
861.123	4725
861.256	4683
861.388	4793
861.521	5520
861.653	4714
861.786	4717
861.918	4710
862.05	4782
862.183	4866
862.315	4877
862.447	4949
862.58	4896
862.712	4793
862.844	4725
862.976	4873
863.108	4904
863.24	5178
863.372	4843
863.504	4949
863.636	4942
863.768	4976
863.9	4995
864.032	4930
864.164	4923
864.296	5064
864.428	5098
864.559	5060
864.691	5181
864.823	5098
864.954	5166
865.086	5117
865.217	5109
865.349	5075
865.48	5208
865.612	5208
865.743	5299
865.875	5201
866.006	5162
866.137	5174
866.269	5235
866.4	5220
866.531	5288
866.662	5235
866.793	5261
866.924	5307
867.055	5364
867.186	5395
867.317	5372
867.448	5296
867.579	5395
867.71	5406
867.841	5379
867.972	5452
868.103	5474
868.233	5501
868.364	5505
868.495	5551
868.625	5699
868.756	5809
868.886	5653
869.017	5695
869.147	5859
869.278	5832
869.408	5821
869.539	5828
869.669	5950
869.799	5920
869.929	6015
870.06	6045
870.19	6228
870.32	6209
870.45	6262
870.58	6319
870.71	6376
870.84	6441
870.97	6460
871.1	6452
871.23	6696
871.36	6707
871.489	6627
871.619	6787
871.749	6779
871.879	6886
872.008	6985
872.138	6973
872.267	7034
872.397	7004
872.526	7046
872.656	7141
872.785	7175
872.915	7369
873.044	7521
873.173	7506
873.303	7677
873.432	7792
873.561	7845
873.69	7963
873.819	8073
873.948	8191
874.077	8248
874.206	8301
874.335	8446
874.464	8670
874.593	8910
874.722	8982
874.851	9142
874.979	9272
875.108	9313
875.237	9405
875.365	9485
875.494	9637
875.623	9895
875.751	9835
875.88	10017
876.008	10082
876.136	10185
876.265	10580
876.393	10725
876.521	10698
876.65	10862
876.778	10866
876.906	10957
877.034	10999
877.162	11098
877.29	11159
877.418	11204
877.546	11376
877.674	11478
877.802	11505
877.93	11585
878.058	11528
878.185	11562
878.313	11729
878.441	11779
878.568	11688
878.696	11786
878.824	11916
878.951	11965
879.079	12015
879.206	12106
879.333	12019
879.461	11969
879.588	12091
879.715	12015
879.842	12148
879.97	12098
880.097	11893
880.224	11832
880.351	11935
880.478	11870
880.605	11965
880.732	11813
880.859	11939
880.986	11802
881.112	11836
881.239	11668
881.366	11646
881.493	11661
881.619	11524
881.746	11600
881.872	11638
881.999	11436
882.125	11440
882.252	11577
882.378	11524
882.505	11566
882.631	11307
882.757	11292
882.883	11345
883.01	11261
883.136	11239
883.262	11117
883.388	11098
883.514	11162
883.64	11174
883.766	11086
883.892	10987
884.018	11014
884.143	10984
884.269	11079
884.395	10877
884.52	10736
884.646	10790
884.772	10706
884.897	10630
885.023	10752
885.148	10710
885.274	10782
885.399	10649
885.524	10607
885.65	10577
885.775	10554
885.9	10561
886.025	10580
886.15	10584
886.275	10402
886.4	10398
886.525	10489
886.65	10451
886.775	10348
886.9	10523
887.025	10569
887.149	10333
887.274	10306
887.399	10200
887.523	10147
887.648	10158
887.773	10131
887.897	10246
888.021	10249
888.146	10071
888.27	10280
888.395	10291
888.519	10207
888.643	10234
888.767	10143
888.891	10074
889.015	9998
889.139	10055
889.263	9979
889.387	10063
889.511	10131
889.635	10032
889.759	10017
889.883	9983
890.006	9968
890.13	10112
890.254	9949
890.377	9960
890.501	9861
890.624	9865
890.748	9892
890.871	9808
890.995	9827
891.118	9732
891.241	9831
891.364	9724
891.488	9835
891.611	9740
891.734	9740
891.857	9819
891.98	9682
892.103	9717
892.226	9701
892.349	9713
892.471	9534
892.594	9568
892.717	9679
892.839	9660
892.962	9542
893.085	9690
893.207	9538
893.33	9526
893.452	9606
893.575	9587
893.697	9526
893.819	9557
893.941	9652
894.064	9595
894.186	9443
894.308	9393
894.43	9504
894.552	9599
894.674	9580
894.796	9370
894.918	9359
895.04	9321
895.161	9348
895.283	9367
895.405	9298
895.526	9283
895.648	9249
895.769	9306
895.891	9222
896.012	9386
896.134	9291
896.255	9188
896.376	9108
896.498	9138
896.619	9108
896.74	9116
896.861	9157
896.982	9272
897.103	9363
897.224	9241
897.345	9055
897.466	9024
897.587	9001
897.708	9135
897.828	9013
897.949	9024
898.07	8861
898.19	8960
898.311	8967
898.431	8899
898.552	8956
898.672	8963
898.792	8948
898.913	8975
899.033	8826
899.153	8689
899.273	8613
899.393	8651
899.513	8678
899.633	8769
899.753	8701
899.873	8689
899.993	8727
900.113	8674
900.232	8693
900.352	8655
900.472	8610
900.591	8541
900.711	8568
900.83	8522
900.95	8712
901.069	8667
901.189	8632
901.308	8419
901.427	8431
901.546	8374
901.665	8419
901.784	8488
901.904	8355
902.023	8336
902.141	8286
902.26	8210
902.379	8259
902.498	8240
902.617	8206
902.735	8301
902.854	8267
902.973	8290
903.091	8214
903.21	8157
903.328	8172
903.446	8096
903.565	8008
903.683	8107
903.801	8046
903.919	8062
904.038	8119
904.156	8016
904.274	8058
904.392	8069
904.51	8031
904.627	8092
904.745	8107
904.863	8092
904.981	7940
905.098	7898
905.216	7856
905.334	7944
905.451	7913
905.569	7879
905.686	7913
905.803	7925
905.921	7765
906.038	7852
906.155	7833
906.272	7651
906.389	7712
906.506	7681
906.623	7674
906.74	7643
906.857	7628
906.974	7575
907.091	7677
907.208	7731
907.324	7647
907.441	7544
907.557	7415
907.674	7434
907.79	7430
907.907	7392
908.023	7457
908.139	7460
908.256	7282
908.372	7411
908.488	7400
908.604	7278
908.72	7335
908.836	7266
908.952	7278
909.068	7289
909.184	7331
909.3	7308
909.415	7278
909.531	7343
909.647	7156
909.762	7126
909.878	7149
909.993	7091
910.108	7110
910.224	7118
910.339	7099
910.454	7034
910.57	6958
910.685	6924
910.8	7141
910.915	7072
911.03	7061
911.145	6924
911.259	6844
911.374	6913
911.489	6848
911.604	6757
911.718	6806
911.833	6707
911.947	6662
912.062	6601
912.176	6715
912.291	6696
912.405	6734
912.519	6825
912.633	6837
912.748	6764
912.862	6700
912.976	6646
913.09	6574
913.204	6601
913.318	6692
913.431	6703
913.545	6745
913.659	6711
913.772	6646
913.886	6639
914	6578
914.113	6620
914.226	6665
914.34	6677
914.453	6544
914.566	6646
914.68	6525
914.793	6585
914.906	6464
915.019	6361
915.132	6369
915.245	6437
915.358	6471
915.47	6437
915.583	6407
915.696	6437
915.809	6532
915.921	6559
916.034	6467
916.146	6471
916.259	6445
916.371	6467
916.483	6441
916.595	6395
916.708	6429
916.82	6361
916.932	6357
917.044	6403
917.156	6448
917.268	6338
917.38	6380
917.491	6338
917.603	6346
917.715	6391
917.826	6414
917.938	6361
918.049	6296
918.161	6346
918.272	6410
918.384	6429
918.495	6384
918.606	6270
918.717	6182
918.828	6277
918.939	6315
919.05	6262
919.161	6209
919.272	6114
919.383	6121
919.494	6323
919.604	6399
919.715	6239
919.826	6232
919.936	6239
920.047	6311
920.157	6285
920.267	6452
920.378	6300
920.488	6232
920.598	6475
920.708	6589
920.818	6433
920.928	6445
921.038	6608
921.148	6570
921.258	6369
921.368	6372
921.477	6224
921.587	6186
921.697	6148
921.806	6224
921.916	6121
922.025	5973
922.134	5916
922.244	5942
922.353	5916
922.462	5832
922.571	5824
922.68	5764
922.789	5707
922.898	5695
923.007	5722
923.116	5752
923.224	5668
923.333	5691
923.442	5630
923.55	5623
923.659	5630
923.767	5623
923.876	5554
923.984	5585
924.092	5528
924.201	5596
924.309	5547
924.417	5589
924.525	5471
924.633	5566
924.741	6350
924.849	5364
924.956	5448
925.064	5353
925.172	5341
925.279	5311
925.387	5398
925.494	5368
925.602	5444
925.709	5395
925.816	5280
925.924	5311
926.031	5349
926.138	5292
926.245	5360
926.352	5254
926.459	5341
926.566	5318
926.673	5227
926.779	5170
926.886	5128
926.993	5060
927.099	4965
927.206	5003
927.312	5025
927.419	5037
927.525	4949
927.631	4968
927.737	4915
927.843	4854
927.95	4801
928.056	4839
928.162	4847
928.267	4915
928.373	5269
928.479	4881
928.585	4740
928.69	4786
928.796	4816
928.901	4649
929.007	4615
929.112	4668
929.218	4675
929.323	4592
929.428	4588
929.533	4664
929.638	4512
929.743	4592
929.848	4596
929.953	4504
930.058	4447
930.163	4325
930.267	4386
930.372	4459
930.477	4341
930.581	4512
930.685	4375
930.79	4333
930.894	4306
930.998	4310
931.103	4390
931.207	4177
931.311	4116
931.415	4044
931.519	3956
931.623	3972
