Data from glass_V78500241_2360.txt Node
Date: Wed Sep 01 19:30:51 CST 2021
User: usil
Spectrometer: V785-0024
Trigger mode: 0
Integration Time (sec): 4.000000E-1
Scans to average: 1
Nonlinearity correction enabled: false
Boxcar width: 0
Storing dark spectrum: false
XAxis mode: Wavelengths
Number of Pixels in Spectrum: 1024
>>>>>Begin Spectral Data<<<<<
801.071	3717
801.214	3766
801.356	3759
801.499	3736
801.641	3755
801.783	3766
801.926	3846
802.068	3812
802.211	3781
802.353	3892
802.496	3827
802.638	3896
802.78	3884
802.923	3918
803.065	3888
803.208	3808
803.35	3903
803.492	3876
803.635	3892
803.777	3793
803.919	3896
804.061	4131
804.204	3975
804.346	3953
804.488	3949
804.63	4036
804.773	3922
804.915	4036
805.057	4135
805.199	4044
805.341	4105
805.483	4147
805.626	4093
805.768	4169
805.91	4234
806.052	4196
806.194	4207
806.336	4363
806.478	4211
806.62	4158
806.762	4215
806.904	4249
807.046	4295
807.188	4215
807.33	4166
807.472	4280
807.614	4169
807.756	4227
807.898	4173
808.04	4219
808.182	4265
808.324	4299
808.465	4394
808.607	4459
808.749	4466
808.891	4436
809.033	4508
809.174	4421
809.316	4261
809.458	4215
809.6	4166
809.741	4135
809.883	4116
810.025	4230
810.166	4169
810.308	4246
810.45	4246
810.591	4211
810.733	4322
810.875	4500
811.016	4797
811.158	5094
811.299	5246
811.441	5265
811.582	5014
811.724	4687
811.865	4478
812.007	4478
812.148	4417
812.29	4424
812.431	4390
812.573	4402
812.714	4363
812.855	4394
812.997	4405
813.138	4447
813.279	4398
813.421	4398
813.562	4360
813.703	4325
813.845	4318
813.986	4196
814.127	4234
814.268	4242
814.41	4265
814.551	4253
814.692	4314
814.833	4280
814.974	4272
815.115	4329
815.256	4265
815.397	4219
815.539	4284
815.68	4158
815.821	4200
815.962	4306
816.103	4314
816.244	4238
816.385	4196
816.526	4246
816.666	4200
816.807	4063
816.948	4162
817.089	4169
817.23	4120
817.371	4063
817.512	4029
817.653	4082
817.793	4032
817.934	4025
818.075	4044
818.216	4071
818.356	4040
818.497	4032
818.638	3907
818.778	3873
818.919	3873
819.06	3854
819.2	3934
819.341	3831
819.481	3869
819.622	3907
819.762	4040
819.903	3960
820.043	3831
820.184	3823
820.324	3835
820.465	3907
820.605	3869
820.746	3876
820.886	3816
821.026	3941
821.167	3907
821.307	3964
821.447	3991
821.588	3941
821.728	3945
821.868	3918
822.008	3896
822.149	3918
822.289	3964
822.429	3785
822.569	3766
822.709	3819
822.849	3701
822.99	3701
823.13	3736
823.27	3770
823.41	3698
823.55	3709
823.69	3736
823.83	3686
823.97	3682
824.11	3614
824.25	3587
824.389	3633
824.529	3656
824.669	3614
824.809	3682
824.949	3774
825.089	3759
825.228	3698
825.368	3591
825.508	3526
825.648	3549
825.787	3656
825.927	3663
826.067	3652
826.206	3675
826.346	3781
826.485	3835
826.625	3842
826.765	3937
826.904	3819
827.044	3652
827.183	3515
827.323	3412
827.462	3485
827.601	3439
827.741	3393
827.88	3450
828.02	3386
828.159	3458
828.298	3511
828.437	3519
828.577	3454
828.716	3557
828.855	3481
828.994	3355
829.134	3348
829.273	3378
829.412	3329
829.551	3294
829.69	3344
829.829	3412
829.968	3492
830.107	3469
830.246	3428
830.385	3359
830.524	3325
830.663	3291
830.802	3241
830.941	3188
831.08	3207
831.219	3237
831.357	3313
831.496	3428
831.635	3249
831.774	3207
831.913	3184
832.051	3116
832.19	3127
832.329	3253
832.467	3123
832.606	3119
832.744	3184
832.883	3176
833.022	3195
833.16	3230
833.299	3298
833.437	3310
833.576	3374
833.714	3374
833.852	3397
833.991	3409
834.129	3443
834.267	3412
834.406	3428
834.544	3439
834.682	3431
834.821	3439
834.959	3595
835.097	3397
835.235	3523
835.373	3504
835.511	3458
835.65	3469
835.788	3492
835.926	3378
836.064	3401
836.202	3382
836.34	3557
836.478	3603
836.615	3504
836.753	3591
836.891	3671
837.029	3606
837.167	3542
837.305	3534
837.443	3504
837.58	3534
837.718	3595
837.856	3564
837.993	3523
838.131	3564
838.269	3599
838.406	3591
838.544	3564
838.681	3485
838.819	3420
838.956	3355
839.094	3367
839.231	3447
839.369	3477
839.506	3720
839.643	3694
839.781	3507
839.918	3462
840.055	3511
840.193	3511
840.33	3496
840.467	3553
840.604	3568
840.742	3759
840.879	3561
841.016	3542
841.153	3580
841.29	3755
841.427	3724
841.564	3728
841.701	3728
841.838	3671
841.975	3663
842.112	3701
842.249	3625
842.385	3633
842.522	3823
842.659	3732
842.796	3641
842.933	3728
843.069	3675
843.206	3698
843.343	3804
843.479	3797
843.616	3831
843.752	3675
843.889	3709
844.025	3835
844.162	3667
844.298	3831
844.435	3766
844.571	3766
844.708	3861
844.844	3968
844.98	4025
845.117	4032
845.253	3915
845.389	3880
845.525	3937
845.661	3960
845.798	3880
845.934	3972
846.07	3945
846.206	4048
846.342	4093
846.478	4071
846.614	3949
846.75	3926
846.886	3911
847.022	4032
847.158	3937
847.294	4032
847.429	4044
847.565	4021
847.701	4261
847.837	3869
847.972	3842
848.108	3979
848.244	3991
848.379	3857
848.515	3800
848.65	3816
848.786	3835
848.921	3861
849.057	3926
849.192	3911
849.328	3888
849.463	3915
849.598	3861
849.734	3880
849.869	3888
850.004	3789
850.14	3857
850.275	3816
850.41	3724
850.545	3743
850.68	3751
850.815	3766
850.95	3770
851.085	3953
851.22	3880
851.355	3831
851.49	3778
851.625	3724
851.76	3740
851.895	3743
852.03	3686
852.165	3785
852.299	3827
852.434	3888
852.569	3873
852.703	3876
852.838	3972
852.973	4013
853.107	3964
853.242	3907
853.376	3838
853.511	3755
853.645	3857
853.78	3968
853.914	3892
854.048	3896
854.183	3907
854.317	3937
854.451	4112
854.585	3945
854.72	3934
854.854	4055
854.988	3949
855.122	3994
855.256	3930
855.39	4021
855.524	4128
855.658	4029
855.792	4055
855.926	4116
856.06	4131
856.194	4192
856.327	4116
856.461	4124
856.595	4135
856.729	4204
856.862	4249
856.996	4215
857.13	4276
857.263	4253
857.397	4344
857.53	4253
857.664	4299
857.797	4413
857.931	4363
858.064	4375
858.197	4462
858.331	4367
858.464	4394
858.597	4329
858.731	4367
858.864	4478
858.997	4443
859.13	4508
859.263	4580
859.396	4565
859.529	4538
859.662	4550
859.795	4516
859.928	4599
860.061	4698
860.194	4733
860.327	4599
860.46	4668
860.592	4725
860.725	4736
860.858	4755
860.99	4649
861.123	4683
861.256	4683
861.388	4687
861.521	5516
861.653	4755
861.786	4706
861.918	4744
862.05	4763
862.183	4805
862.315	4873
862.447	4923
862.58	4881
862.712	4755
862.844	4790
862.976	4873
863.108	4843
863.24	5223
863.372	4839
863.504	4900
863.636	4889
863.768	4938
863.9	4980
864.032	4949
864.164	4927
864.296	5025
864.428	5071
864.559	5098
864.691	5121
864.823	5105
864.954	5128
865.086	5143
865.217	5147
865.349	5079
865.48	5174
865.612	5181
865.743	5303
865.875	5174
866.006	5204
866.137	5239
866.269	5212
866.4	5239
866.531	5220
866.662	5220
866.793	5242
866.924	5273
867.055	5273
867.186	5337
867.317	5303
867.448	5349
867.579	5406
867.71	5387
867.841	5368
867.972	5410
868.103	5459
868.233	5452
868.364	5528
868.495	5543
868.625	5657
868.756	5733
868.886	5611
869.017	5741
869.147	5874
869.278	5840
869.408	5783
869.539	5813
869.669	5912
869.799	5912
869.929	5950
870.06	6019
870.19	6140
870.32	6171
870.45	6220
870.58	6319
870.71	6441
870.84	6407
870.97	6372
871.1	6448
871.23	6627
871.36	6722
871.489	6551
871.619	6779
871.749	6757
871.879	6837
872.008	6924
872.138	7000
872.267	6947
872.397	7000
872.526	7031
872.656	7084
872.785	7228
872.915	7232
873.044	7506
873.173	7590
873.303	7647
873.432	7776
873.561	7849
873.69	7967
873.819	8039
873.948	8103
874.077	8256
874.206	8366
874.335	8446
874.464	8598
874.593	8769
874.722	8960
874.851	9062
874.979	9233
875.108	9359
875.237	9408
875.365	9454
875.494	9618
875.623	9892
875.751	9922
875.88	9956
876.008	10082
876.136	10280
876.265	10565
876.393	10687
876.521	10660
876.65	10820
876.778	10869
876.906	10877
877.034	10991
877.162	11090
877.29	11204
877.418	11284
877.546	11379
877.674	11421
877.802	11532
877.93	11516
878.058	11558
878.185	11524
878.313	11707
878.441	11722
878.568	11672
878.696	11821
878.824	11870
878.951	11912
879.079	12015
879.206	12110
879.333	11996
879.461	11961
879.588	12110
879.715	12114
879.842	12239
879.97	12022
880.097	11794
880.224	11954
880.351	11840
880.478	11851
880.605	11897
880.732	11882
880.859	11988
880.986	11843
881.112	11821
881.239	11688
881.366	11657
881.493	11695
881.619	11524
881.746	11592
881.872	11520
881.999	11532
882.125	11425
882.252	11581
882.378	11539
882.505	11528
882.631	11330
882.757	11239
882.883	11353
883.01	11254
883.136	11212
883.262	11147
883.388	11094
883.514	11326
883.64	11201
883.766	11064
883.892	10999
884.018	10919
884.143	11113
884.269	11102
884.395	10839
884.52	10752
884.646	10717
884.772	10744
884.897	10645
885.023	10706
885.148	10683
885.274	10755
885.399	10660
885.524	10592
885.65	10615
885.775	10641
885.9	10542
886.025	10577
886.15	10516
886.275	10443
886.4	10303
886.525	10382
886.65	10367
886.775	10329
886.9	10478
887.025	10523
887.149	10356
887.274	10207
887.399	10265
887.523	10185
887.648	10150
887.773	10055
887.897	10276
888.021	10128
888.146	10101
888.27	10188
888.395	10169
888.519	10101
888.643	10185
888.767	10143
888.891	10074
889.015	9983
889.139	10055
889.263	10021
889.387	10002
889.511	10071
889.635	10051
889.759	9972
889.883	10010
890.006	10017
890.13	10135
890.254	9968
890.377	10006
890.501	9819
890.624	9888
890.748	9895
890.871	9759
890.995	9686
891.118	9736
891.241	9762
891.364	9720
891.488	9800
891.611	9728
891.734	9774
891.857	9679
891.98	9728
892.103	9778
892.226	9751
892.349	9606
892.471	9473
892.594	9587
892.717	9553
892.839	9637
892.962	9591
893.085	9675
893.207	9557
893.33	9538
893.452	9576
893.575	9572
893.697	9488
893.819	9603
893.941	9648
894.064	9591
894.186	9405
894.308	9405
894.43	9534
894.552	9530
894.674	9538
894.796	9416
894.918	9378
895.04	9393
895.161	9321
895.283	9233
895.405	9230
895.526	9203
895.648	9214
895.769	9287
895.891	9176
896.012	9173
896.134	9192
896.255	9112
896.376	9085
896.498	9161
896.619	9119
896.74	9081
896.861	9051
896.982	9226
897.103	9310
897.224	9157
897.345	9074
897.466	9020
897.587	9001
897.708	9066
897.828	8971
897.949	8975
898.07	8921
898.19	8902
898.311	9013
898.431	8880
898.552	8921
898.672	8933
898.792	8914
898.913	8925
899.033	8811
899.153	8667
899.273	8697
899.393	8670
899.513	8731
899.633	8781
899.753	8743
899.873	8689
899.993	8739
900.113	8659
900.232	8720
900.352	8590
900.472	8659
900.591	8465
900.711	8564
900.83	8434
900.95	8667
901.069	8644
901.189	8579
901.308	8450
901.427	8488
901.546	8370
901.665	8446
901.784	8484
901.904	8427
902.023	8298
902.141	8252
902.26	8229
902.379	8309
902.498	8210
902.617	8195
902.735	8256
902.854	8271
902.973	8275
903.091	8092
903.21	8088
903.328	8202
903.446	8100
903.565	8031
903.683	8164
903.801	8103
903.919	8119
904.038	8134
904.156	8088
904.274	8081
904.392	8020
904.51	7986
904.627	8035
904.745	7978
904.863	8100
904.981	7955
905.098	7868
905.216	7887
905.334	7868
905.451	7898
905.569	7932
905.686	7890
905.803	7955
905.921	7776
906.038	7875
906.155	7811
906.272	7655
906.389	7704
906.506	7670
906.623	7578
906.74	7613
906.857	7552
906.974	7529
907.091	7658
907.208	7753
907.324	7643
907.441	7639
907.557	7445
907.674	7411
907.79	7464
907.907	7460
908.023	7468
908.139	7480
908.256	7335
908.372	7365
908.488	7384
908.604	7278
908.72	7209
908.836	7285
908.952	7278
909.068	7225
909.184	7244
909.3	7179
909.415	7327
909.531	7285
909.647	7088
909.762	7084
909.878	7110
909.993	7129
910.108	7110
910.224	7042
910.339	7065
910.454	7004
910.57	6916
910.685	6886
910.8	7114
910.915	7038
911.03	6977
911.145	6897
911.259	6886
911.374	6833
911.489	6829
911.604	6768
911.718	6707
911.833	6692
911.947	6677
912.062	6578
912.176	6741
912.291	6711
912.405	6677
912.519	6833
912.633	6818
912.748	6711
912.862	6719
912.976	6646
913.09	6506
913.204	6608
913.318	6540
913.431	6692
913.545	6681
913.659	6665
913.772	6631
913.886	6593
914	6536
914.113	6658
914.226	6604
914.34	6608
914.453	6494
914.566	6616
914.68	6452
914.793	6490
914.906	6380
915.019	6372
915.132	6361
915.245	6483
915.358	6422
915.47	6460
915.583	6422
915.696	6494
915.809	6532
915.921	6551
916.034	6437
916.146	6422
916.259	6357
916.371	6452
916.483	6403
916.595	6452
916.708	6365
916.82	6380
916.932	6369
917.044	6407
917.156	6384
917.268	6323
917.38	6365
917.491	6308
917.603	6353
917.715	6414
917.826	6414
917.938	6327
918.049	6220
918.161	6323
918.272	6380
918.384	6433
918.495	6361
918.606	6220
918.717	6171
918.828	6262
918.939	6292
919.05	6216
919.161	6266
919.272	6095
919.383	6140
919.494	6220
919.604	6350
919.715	6270
919.826	6228
919.936	6254
920.047	6296
920.157	6262
920.267	6471
920.378	6319
920.488	6273
920.598	6441
920.708	6547
920.818	6483
920.928	6414
921.038	6578
921.148	6540
921.258	6357
921.368	6232
921.477	6216
921.587	6167
921.697	6072
921.806	6190
921.916	6110
922.025	5878
922.134	5901
922.244	5859
922.353	5889
922.462	5851
922.571	5779
922.68	5726
922.789	5653
922.898	5726
923.007	5615
923.116	5684
923.224	5672
923.333	5649
923.442	5570
923.55	5562
923.659	5570
923.767	5668
923.876	5539
923.984	5638
924.092	5482
924.201	5657
924.309	5501
924.417	5551
924.525	5497
924.633	5463
924.741	6300
924.849	5334
924.956	5471
925.064	5357
925.172	5296
925.279	5273
925.387	5383
925.494	5303
925.602	5417
925.709	5357
925.816	5292
925.924	5353
926.031	5303
926.138	5303
926.245	5280
926.352	5250
926.459	5280
926.566	5303
926.673	5178
926.779	5128
926.886	5109
926.993	5014
927.099	5003
927.206	4995
927.312	4968
927.419	5010
927.525	4968
927.631	4953
927.737	4915
927.843	4866
927.95	4752
928.056	4801
928.162	4866
928.267	4847
928.373	5334
928.479	4854
928.585	4691
928.69	4778
928.796	4759
928.901	4729
929.007	4603
929.112	4668
929.218	4599
929.323	4622
929.428	4535
929.533	4641
929.638	4523
929.743	4546
929.848	4531
929.953	4500
930.058	4451
930.163	4314
930.267	4360
930.372	4409
930.477	4314
930.581	4455
930.685	4356
930.79	4276
930.894	4310
930.998	4223
931.103	4356
931.207	4112
931.311	4048
931.415	4040
931.519	3934
931.623	3937
