Data from glass_V78500241_928.txt Node
Date: Wed Sep 01 19:20:55 CST 2021
User: usil
Spectrometer: V785-0024
Trigger mode: 0
Integration Time (sec): 4.000000E-1
Scans to average: 1
Nonlinearity correction enabled: false
Boxcar width: 0
Storing dark spectrum: false
XAxis mode: Wavelengths
Number of Pixels in Spectrum: 1024
>>>>>Begin Spectral Data<<<<<
801.071	3736
801.214	3759
801.356	3671
801.499	3713
801.641	3759
801.783	3770
801.926	3880
802.068	3880
802.211	3865
802.353	3918
802.496	3873
802.638	3899
802.78	3896
802.923	3930
803.065	3956
803.208	3873
803.35	3850
803.492	3896
803.635	3911
803.777	3827
803.919	3911
804.061	4177
804.204	3991
804.346	3892
804.488	3937
804.63	4071
804.773	4002
804.915	4032
805.057	4131
805.199	4086
805.341	4105
805.483	4166
805.626	4177
805.768	4105
805.91	4268
806.052	4230
806.194	4207
806.336	4390
806.478	4200
806.62	4181
806.762	4223
806.904	4261
807.046	4352
807.188	4253
807.33	4169
807.472	4238
807.614	4204
807.756	4318
807.898	4196
808.04	4219
808.182	4310
808.324	4325
808.465	4337
808.607	4508
808.749	4447
808.891	4440
809.033	4516
809.174	4424
809.316	4272
809.458	4234
809.6	4154
809.741	4147
809.883	4181
810.025	4204
810.166	4227
810.308	4204
810.45	4230
810.591	4238
810.733	4291
810.875	4519
811.016	4835
811.158	5113
811.299	5235
811.441	5250
811.582	5117
811.724	4736
811.865	4489
812.007	4508
812.148	4481
812.29	4371
812.431	4409
812.573	4379
812.714	4402
812.855	4417
812.997	4459
813.138	4497
813.279	4413
813.421	4394
813.562	4432
813.703	4360
813.845	4276
813.986	4257
814.127	4211
814.268	4272
814.41	4249
814.551	4268
814.692	4352
814.833	4299
814.974	4318
815.115	4341
815.256	4253
815.397	4230
815.539	4188
815.68	4227
815.821	4188
815.962	4329
816.103	4318
816.244	4192
816.385	4261
816.526	4287
816.666	4234
816.807	4120
816.948	4173
817.089	4219
817.23	4143
817.371	4055
817.512	4017
817.653	4067
817.793	4055
817.934	4082
818.075	4124
818.216	4112
818.356	4078
818.497	3983
818.638	3922
818.778	3911
818.919	3941
819.06	3854
819.2	3949
819.341	3865
819.481	3873
819.622	3907
819.762	4044
819.903	3975
820.043	3880
820.184	3831
820.324	3823
820.465	3884
820.605	3842
820.746	3907
820.886	3816
821.026	3953
821.167	3945
821.307	3953
821.447	3983
821.588	3960
821.728	4002
821.868	3956
822.008	3888
822.149	3899
822.289	3937
822.429	3800
822.569	3793
822.709	3827
822.849	3724
822.99	3732
823.13	3732
823.27	3812
823.41	3728
823.55	3728
823.69	3747
823.83	3751
823.97	3717
824.11	3580
824.25	3625
824.389	3705
824.529	3701
824.669	3641
824.809	3736
824.949	3781
825.089	3747
825.228	3709
825.368	3614
825.508	3587
825.648	3599
825.787	3625
825.927	3648
826.067	3633
826.206	3637
826.346	3861
826.485	3876
826.625	3869
826.765	3972
826.904	3857
827.044	3595
827.183	3519
827.323	3428
827.462	3469
827.601	3428
827.741	3488
827.88	3492
828.02	3389
828.159	3443
828.298	3485
828.437	3580
828.577	3466
828.716	3610
828.855	3519
828.994	3412
829.134	3386
829.273	3386
829.412	3363
829.551	3325
829.69	3367
829.829	3405
829.968	3500
830.107	3435
830.246	3477
830.385	3401
830.524	3382
830.663	3268
830.802	3256
830.941	3192
831.08	3199
831.219	3275
831.357	3279
831.496	3435
831.635	3279
831.774	3207
831.913	3214
832.051	3146
832.19	3165
832.329	3230
832.467	3165
832.606	3119
832.744	3135
832.883	3169
833.022	3176
833.16	3218
833.299	3287
833.437	3340
833.576	3367
833.714	3428
833.852	3431
833.991	3443
834.129	3443
834.267	3450
834.406	3409
834.544	3469
834.682	3462
834.821	3397
834.959	3572
835.097	3450
835.235	3538
835.373	3530
835.511	3534
835.65	3485
835.788	3458
835.926	3386
836.064	3389
836.202	3420
836.34	3595
836.478	3667
836.615	3561
836.753	3622
836.891	3663
837.029	3625
837.167	3576
837.305	3572
837.443	3576
837.58	3511
837.718	3587
837.856	3557
837.993	3538
838.131	3614
838.269	3637
838.406	3591
838.544	3591
838.681	3443
838.819	3488
838.956	3412
839.094	3397
839.231	3462
839.369	3530
839.506	3728
839.643	3591
839.781	3507
839.918	3488
840.055	3534
840.193	3530
840.33	3523
840.467	3549
840.604	3610
840.742	3850
840.879	3545
841.016	3584
841.153	3606
841.29	3766
841.427	3717
841.564	3759
841.701	3717
841.838	3728
841.975	3690
842.112	3762
842.249	3679
842.385	3648
842.522	3835
842.659	3724
842.796	3682
842.933	3713
843.069	3694
843.206	3713
843.343	3812
843.479	3785
843.616	3819
843.752	3679
843.889	3724
844.025	3835
844.162	3732
844.298	3838
844.435	3800
844.571	3755
844.708	3918
844.844	4010
844.98	4032
845.117	4032
845.253	3915
845.389	3865
845.525	4002
845.661	3964
845.798	3972
845.934	4048
846.07	3987
846.206	4097
846.342	4109
846.478	4074
846.614	3994
846.75	3983
846.886	3903
847.022	4029
847.158	3998
847.294	4002
847.429	4040
847.565	4025
847.701	4253
847.837	3899
847.972	3857
848.108	3991
848.244	3960
848.379	3838
848.515	3823
848.65	3816
848.786	3869
848.921	3888
849.057	3968
849.192	3960
849.328	3941
849.463	3915
849.598	3880
849.734	3888
849.869	3869
850.004	3759
850.14	3823
850.275	3804
850.41	3759
850.545	3785
850.68	3785
850.815	3793
850.95	3778
851.085	3953
851.22	3835
851.355	3869
851.49	3831
851.625	3835
851.76	3816
851.895	3720
852.03	3785
852.165	3812
852.299	3873
852.434	3934
852.569	3869
852.703	3899
852.838	3960
852.973	4006
853.107	4002
853.242	3884
853.376	3876
853.511	3789
853.645	3861
853.78	4013
853.914	3918
854.048	3888
854.183	3880
854.317	3975
854.451	4048
854.585	3960
854.72	3915
854.854	4048
854.988	3930
855.122	3994
855.256	3953
855.39	4059
855.524	4124
855.658	4097
855.792	4120
855.926	4139
856.06	4158
856.194	4219
856.327	4116
856.461	4128
856.595	4166
856.729	4158
856.862	4303
856.996	4284
857.13	4337
857.263	4348
857.397	4322
857.53	4291
857.664	4379
857.797	4447
857.931	4436
858.064	4428
858.197	4470
858.331	4352
858.464	4379
858.597	4333
858.731	4440
858.864	4459
858.997	4489
859.13	4558
859.263	4516
859.396	4561
859.529	4546
859.662	4523
859.795	4550
859.928	4611
860.061	4740
860.194	4752
860.327	4691
860.46	4637
860.592	4752
860.725	4752
860.858	4786
860.99	4660
861.123	4694
861.256	4729
861.388	4767
861.521	5497
861.653	4710
861.786	4755
861.918	4755
862.05	4736
862.183	4900
862.315	4896
862.447	4934
862.58	4885
862.712	4870
862.844	4782
862.976	4889
863.108	4930
863.24	5178
863.372	4866
863.504	4911
863.636	4976
863.768	4987
863.9	4980
864.032	4976
864.164	4957
864.296	5048
864.428	5124
864.559	5090
864.691	5140
864.823	5117
864.954	5105
865.086	5155
865.217	5151
865.349	5071
865.48	5227
865.612	5227
865.743	5258
865.875	5242
866.006	5185
866.137	5254
866.269	5288
866.4	5242
866.531	5284
866.662	5227
866.793	5250
866.924	5357
867.055	5360
867.186	5368
867.317	5318
867.448	5318
867.579	5395
867.71	5398
867.841	5455
867.972	5490
868.103	5497
868.233	5493
868.364	5509
868.495	5539
868.625	5707
868.756	5775
868.886	5661
869.017	5691
869.147	5779
869.278	5908
869.408	5783
869.539	5882
869.669	5920
869.799	5874
869.929	5965
870.06	6011
870.19	6178
870.32	6186
870.45	6289
870.58	6342
870.71	6448
870.84	6448
870.97	6399
871.1	6486
871.23	6597
871.36	6715
871.489	6734
871.619	6749
871.749	6814
871.879	6840
872.008	6993
872.138	6993
872.267	7015
872.397	6993
872.526	7008
872.656	7091
872.785	7225
872.915	7411
873.044	7575
873.173	7571
873.303	7605
873.432	7765
873.561	7898
873.69	7917
873.819	8046
873.948	8183
874.077	8263
874.206	8271
874.335	8495
874.464	8598
874.593	8857
874.722	8948
874.851	9135
874.979	9169
875.108	9332
875.237	9431
875.365	9488
875.494	9701
875.623	9797
875.751	9857
875.88	9979
876.008	10139
876.136	10261
876.265	10470
876.393	10748
876.521	10717
876.65	10793
876.778	10862
876.906	10892
877.034	10972
877.162	11136
877.29	11166
877.418	11353
877.546	11364
877.674	11539
877.802	11448
877.93	11608
878.058	11581
878.185	11573
878.313	11714
878.441	11779
878.568	11699
878.696	11756
878.824	11870
878.951	11931
879.079	11973
879.206	12079
879.333	12117
879.461	11988
879.588	12026
879.715	12133
879.842	12209
879.97	12064
880.097	11809
880.224	11927
880.351	11840
880.478	11923
880.605	11775
880.732	11809
880.859	11916
880.986	11809
881.112	11874
881.239	11752
881.366	11672
881.493	11680
881.619	11535
881.746	11623
881.872	11471
881.999	11516
882.125	11398
882.252	11611
882.378	11512
882.505	11604
882.631	11360
882.757	11288
882.883	11307
883.01	11326
883.136	11162
883.262	11121
883.388	11025
883.514	11113
883.64	11223
883.766	11121
883.892	11014
884.018	10953
884.143	11045
884.269	11075
884.395	10911
884.52	10793
884.646	10778
884.772	10725
884.897	10664
885.023	10672
885.148	10729
885.274	10843
885.399	10744
885.524	10607
885.65	10637
885.775	10596
885.9	10519
886.025	10592
886.15	10569
886.275	10451
886.4	10379
886.525	10459
886.65	10398
886.775	10356
886.9	10481
887.025	10516
887.149	10432
887.274	10306
887.399	10196
887.523	10196
887.648	10204
887.773	10109
887.897	10253
888.021	10188
888.146	10112
888.27	10280
888.395	10227
888.519	10139
888.643	10192
888.767	10192
888.891	10032
889.015	10051
889.139	10074
889.263	10029
889.387	10154
889.511	10093
889.635	10166
889.759	9934
889.883	10006
890.006	10010
890.13	10158
890.254	9934
890.377	9934
890.501	9918
890.624	9907
890.748	9918
890.871	9800
890.995	9850
891.118	9698
891.241	9793
891.364	9781
891.488	9861
891.611	9732
891.734	9671
891.857	9770
891.98	9698
892.103	9789
892.226	9713
892.349	9587
892.471	9545
892.594	9576
892.717	9606
892.839	9675
892.962	9610
893.085	9652
893.207	9534
893.33	9576
893.452	9572
893.575	9648
893.697	9530
893.819	9743
893.941	9629
894.064	9603
894.186	9519
894.308	9359
894.43	9542
894.552	9663
894.674	9481
894.796	9355
894.918	9393
895.04	9389
895.161	9439
895.283	9355
895.405	9245
895.526	9302
895.648	9283
895.769	9287
895.891	9275
896.012	9279
896.134	9203
896.255	9176
896.376	9119
896.498	9154
896.619	9116
896.74	9055
896.861	9051
896.982	9351
897.103	9359
897.224	9157
897.345	9100
897.466	8925
897.587	9055
897.708	9085
897.828	9039
897.949	8925
898.07	8842
898.19	8941
898.311	9089
898.431	8941
898.552	8960
898.672	9017
898.792	8944
898.913	8826
899.033	8823
899.153	8735
899.273	8689
899.393	8663
899.513	8758
899.633	8735
899.753	8796
899.873	8731
899.993	8743
900.113	8697
900.232	8708
900.352	8720
900.472	8636
900.591	8533
900.711	8556
900.83	8636
900.95	8693
901.069	8739
901.189	8617
901.308	8385
901.427	8412
901.546	8434
901.665	8457
901.784	8552
901.904	8412
902.023	8374
902.141	8271
902.26	8263
902.379	8313
902.498	8305
902.617	8180
902.735	8267
902.854	8320
902.973	8214
903.091	8187
903.21	8092
903.328	8157
903.446	8164
903.565	8069
903.683	8130
903.801	8054
903.919	8134
904.038	8142
904.156	8054
904.274	8100
904.392	8043
904.51	8084
904.627	7997
904.745	8115
904.863	8145
904.981	7932
905.098	7883
905.216	7833
905.334	7860
905.451	7940
905.569	7928
905.686	7837
905.803	7894
905.921	7784
906.038	7795
906.155	7807
906.272	7723
906.389	7693
906.506	7628
906.623	7681
906.74	7548
906.857	7548
906.974	7537
907.091	7693
907.208	7742
907.324	7620
907.441	7651
907.557	7506
907.674	7419
907.79	7430
907.907	7411
908.023	7434
908.139	7525
908.256	7392
908.372	7449
908.488	7346
908.604	7285
908.72	7244
908.836	7217
908.952	7263
909.068	7285
909.184	7324
909.3	7251
909.415	7255
909.531	7335
909.647	7179
909.762	7118
909.878	7091
909.993	7160
910.108	7129
910.224	7057
910.339	7152
910.454	7050
910.57	6993
910.685	6966
910.8	7175
910.915	7057
911.03	7019
911.145	6973
911.259	6878
911.374	6932
911.489	6871
911.604	6840
911.718	6776
911.833	6776
911.947	6688
912.062	6547
912.176	6692
912.291	6715
912.405	6738
912.519	6837
912.633	6791
912.748	6745
912.862	6654
912.976	6665
913.09	6566
913.204	6635
913.318	6635
913.431	6677
913.545	6707
913.659	6730
913.772	6623
913.886	6525
914	6547
914.113	6608
914.226	6616
914.34	6604
914.453	6502
914.566	6612
914.68	6578
914.793	6479
914.906	6410
915.019	6407
915.132	6365
915.245	6380
915.358	6433
915.47	6426
915.583	6513
915.696	6460
915.809	6509
915.921	6521
916.034	6418
916.146	6479
916.259	6391
916.371	6483
916.483	6483
916.595	6422
916.708	6445
916.82	6426
916.932	6391
917.044	6399
917.156	6426
917.268	6380
917.38	6350
917.491	6292
917.603	6391
917.715	6422
917.826	6467
917.938	6342
918.049	6262
918.161	6365
918.272	6437
918.384	6464
918.495	6365
918.606	6201
918.717	6308
918.828	6311
918.939	6300
919.05	6254
919.161	6319
919.272	6091
919.383	6213
919.494	6319
919.604	6429
919.715	6247
919.826	6235
919.936	6281
920.047	6353
920.157	6239
920.267	6460
920.378	6380
920.488	6308
920.598	6517
920.708	6555
920.818	6498
920.928	6479
921.038	6688
921.148	6620
921.258	6315
921.368	6281
921.477	6270
921.587	6148
921.697	6049
921.806	6262
921.916	6083
922.025	5942
922.134	5908
922.244	5897
922.353	5927
922.462	5840
922.571	5817
922.68	5699
922.789	5668
922.898	5699
923.007	5668
923.116	5684
923.224	5695
923.333	5680
923.442	5608
923.55	5577
923.659	5600
923.767	5630
923.876	5577
923.984	5600
924.092	5512
924.201	5532
924.309	5532
924.417	5573
924.525	5490
924.633	5482
924.741	6159
924.849	5379
924.956	5509
925.064	5383
925.172	5330
925.279	5322
925.387	5345
925.494	5303
925.602	5402
925.709	5383
925.816	5269
925.924	5284
926.031	5398
926.138	5353
926.245	5379
926.352	5216
926.459	5318
926.566	5311
926.673	5181
926.779	5155
926.886	5124
926.993	5006
927.099	5003
927.206	4991
927.312	4972
927.419	5056
927.525	4965
927.631	4987
927.737	4896
927.843	4866
927.95	4740
928.056	4892
928.162	4839
928.267	4839
928.373	5322
928.479	4847
928.585	4706
928.69	4812
928.796	4801
928.901	4675
929.007	4653
929.112	4679
929.218	4675
929.323	4618
929.428	4561
929.533	4653
929.638	4561
929.743	4519
929.848	4542
929.953	4497
930.058	4455
930.163	4318
930.267	4360
930.372	4417
930.477	4306
930.581	4497
930.685	4367
930.79	4284
930.894	4310
930.998	4284
931.103	4352
931.207	4154
931.311	4082
931.415	3998
931.519	3903
931.623	3983
