Data from glass_V78500241_531.txt Node
Date: Wed Sep 01 19:18:10 CST 2021
User: usil
Spectrometer: V785-0024
Trigger mode: 0
Integration Time (sec): 4.000000E-1
Scans to average: 1
Nonlinearity correction enabled: false
Boxcar width: 0
Storing dark spectrum: false
XAxis mode: Wavelengths
Number of Pixels in Spectrum: 1024
>>>>>Begin Spectral Data<<<<<
801.071	3759
801.214	3690
801.356	3713
801.499	3713
801.641	3755
801.783	3789
801.926	3865
802.068	3876
802.211	3857
802.353	3903
802.496	3823
802.638	3915
802.78	3937
802.923	3975
803.065	3896
803.208	3873
803.35	3903
803.492	3918
803.635	3934
803.777	3778
803.919	3903
804.061	4158
804.204	3975
804.346	3979
804.488	3987
804.63	4078
804.773	3983
804.915	4051
805.057	4188
805.199	4032
805.341	4128
805.483	4185
805.626	4139
805.768	4128
805.91	4257
806.052	4246
806.194	4227
806.336	4367
806.478	4234
806.62	4207
806.762	4234
806.904	4276
807.046	4329
807.188	4188
807.33	4188
807.472	4280
807.614	4223
807.756	4272
807.898	4265
808.04	4223
808.182	4291
808.324	4360
808.465	4386
808.607	4493
808.749	4451
808.891	4493
809.033	4531
809.174	4424
809.316	4280
809.458	4261
809.6	4112
809.741	4196
809.883	4135
810.025	4223
810.166	4207
810.308	4268
810.45	4257
810.591	4238
810.733	4325
810.875	4577
811.016	4816
811.158	5170
811.299	5296
811.441	5318
811.582	5090
811.724	4736
811.865	4485
812.007	4489
812.148	4424
812.29	4470
812.431	4462
812.573	4455
812.714	4432
812.855	4394
812.997	4402
813.138	4512
813.279	4402
813.421	4417
813.562	4363
813.703	4356
813.845	4352
813.986	4249
814.127	4234
814.268	4257
814.41	4295
814.551	4272
814.692	4318
814.833	4291
814.974	4329
815.115	4333
815.256	4261
815.397	4284
815.539	4257
815.68	4272
815.821	4249
815.962	4356
816.103	4314
816.244	4268
816.385	4261
816.526	4261
816.666	4265
816.807	4116
816.948	4196
817.089	4196
817.23	4112
817.371	4105
817.512	4093
817.653	4048
817.793	4029
817.934	4051
818.075	4143
818.216	4097
818.356	4071
818.497	4036
818.638	3945
818.778	3907
818.919	3918
819.06	3892
819.2	3918
819.341	3861
819.481	3831
819.622	3934
819.762	4040
819.903	3987
820.043	3884
820.184	3835
820.324	3831
820.465	3899
820.605	3888
820.746	3816
820.886	3812
821.026	3918
821.167	3941
821.307	3964
821.447	3972
821.588	4002
821.728	3968
821.868	3983
822.008	3880
822.149	3899
822.289	3907
822.429	3808
822.569	3789
822.709	3804
822.849	3770
822.99	3701
823.13	3740
823.27	3835
823.41	3709
823.55	3751
823.69	3766
823.83	3755
823.97	3724
824.11	3599
824.25	3644
824.389	3603
824.529	3690
824.669	3660
824.809	3720
824.949	3755
825.089	3774
825.228	3728
825.368	3610
825.508	3561
825.648	3568
825.787	3603
825.927	3675
826.067	3637
826.206	3709
826.346	3816
826.485	3865
826.625	3911
826.765	3941
826.904	3831
827.044	3614
827.183	3515
827.323	3405
827.462	3496
827.601	3416
827.741	3462
827.88	3473
828.02	3389
828.159	3466
828.298	3519
828.437	3542
828.577	3454
828.716	3603
828.855	3511
828.994	3397
829.134	3397
829.273	3409
829.412	3401
829.551	3332
829.69	3351
829.829	3443
829.968	3545
830.107	3447
830.246	3405
830.385	3393
830.524	3351
830.663	3291
830.802	3230
830.941	3226
831.08	3230
831.219	3279
831.357	3291
831.496	3405
831.635	3211
831.774	3184
831.913	3222
832.051	3157
832.19	3138
832.329	3264
832.467	3142
832.606	3138
832.744	3218
832.883	3222
833.022	3218
833.16	3249
833.299	3321
833.437	3370
833.576	3386
833.714	3386
833.852	3443
833.991	3435
834.129	3462
834.267	3439
834.406	3386
834.544	3454
834.682	3462
834.821	3424
834.959	3625
835.097	3450
835.235	3545
835.373	3504
835.511	3496
835.65	3458
835.788	3496
835.926	3443
836.064	3378
836.202	3412
836.34	3603
836.478	3614
836.615	3580
836.753	3591
836.891	3637
837.029	3625
837.167	3587
837.305	3587
837.443	3595
837.58	3515
837.718	3614
837.856	3584
837.993	3542
838.131	3610
838.269	3591
838.406	3599
838.544	3603
838.681	3504
838.819	3488
838.956	3401
839.094	3431
839.231	3450
839.369	3534
839.506	3755
839.643	3656
839.781	3504
839.918	3492
840.055	3576
840.193	3507
840.33	3564
840.467	3553
840.604	3614
840.742	3797
840.879	3564
841.016	3587
841.153	3610
841.29	3774
841.427	3740
841.564	3705
841.701	3762
841.838	3740
841.975	3694
842.112	3713
842.249	3652
842.385	3637
842.522	3808
842.659	3690
842.796	3728
842.933	3751
843.069	3751
843.206	3728
843.343	3804
843.479	3816
843.616	3793
843.752	3720
843.889	3663
844.025	3869
844.162	3743
844.298	3873
844.435	3762
844.571	3793
844.708	3922
844.844	4006
844.98	4013
845.117	4029
845.253	3949
845.389	3911
845.525	3987
845.661	3979
845.798	3930
845.934	4063
846.07	3968
846.206	4013
846.342	4188
846.478	4078
846.614	3979
846.75	3945
846.886	3926
847.022	4032
847.158	3968
847.294	4021
847.429	4021
847.565	4006
847.701	4265
847.837	3884
847.972	3876
848.108	3998
848.244	3983
848.379	3861
848.515	3831
848.65	3854
848.786	3854
848.921	3880
849.057	3945
849.192	3945
849.328	3907
849.463	3915
849.598	3884
849.734	3907
849.869	3876
850.004	3762
850.14	3861
850.275	3781
850.41	3770
850.545	3755
850.68	3762
850.815	3835
850.95	3816
851.085	3968
851.22	3846
851.355	3808
851.49	3789
851.625	3831
851.76	3785
851.895	3736
852.03	3728
852.165	3850
852.299	3827
852.434	3930
852.569	3854
852.703	3869
852.838	3979
852.973	4021
853.107	3983
853.242	3880
853.376	3846
853.511	3766
853.645	3861
853.78	3987
853.914	3899
854.048	3934
854.183	3892
854.317	3937
854.451	4051
854.585	3964
854.72	3930
854.854	4051
854.988	3907
855.122	4010
855.256	3945
855.39	4048
855.524	4105
855.658	4082
855.792	4078
855.926	4124
856.06	4192
856.194	4192
856.327	4150
856.461	4139
856.595	4169
856.729	4173
856.862	4314
856.996	4303
857.13	4322
857.263	4314
857.397	4344
857.53	4306
857.664	4363
857.797	4424
857.931	4462
858.064	4394
858.197	4508
858.331	4386
858.464	4371
858.597	4375
858.731	4462
858.864	4436
858.997	4462
859.13	4508
859.263	4584
859.396	4603
859.529	4538
859.662	4596
859.795	4523
859.928	4588
860.061	4729
860.194	4774
860.327	4679
860.46	4641
860.592	4805
860.725	4786
860.858	4763
860.99	4702
861.123	4702
861.256	4736
861.388	4771
861.521	5467
861.653	4725
861.786	4767
861.918	4755
862.05	4809
862.183	4831
862.315	4915
862.447	4995
862.58	4889
862.712	4805
862.844	4767
862.976	4847
863.108	4896
863.24	5189
863.372	4812
863.504	4946
863.636	4908
863.768	5006
863.9	5022
864.032	4953
864.164	4942
864.296	5025
864.428	5067
864.559	5102
864.691	5124
864.823	5083
864.954	5147
865.086	5140
865.217	5132
865.349	5105
865.48	5162
865.612	5174
865.743	5254
865.875	5189
866.006	5242
866.137	5216
866.269	5204
866.4	5265
866.531	5246
866.662	5303
866.793	5273
866.924	5296
867.055	5326
867.186	5372
867.317	5337
867.448	5284
867.579	5402
867.71	5402
867.841	5429
867.972	5474
868.103	5471
868.233	5512
868.364	5547
868.495	5577
868.625	5718
868.756	5733
868.886	5684
869.017	5726
869.147	5870
869.278	5897
869.408	5828
869.539	5874
869.669	5897
869.799	5931
869.929	5946
870.06	6030
870.19	6178
870.32	6178
870.45	6254
870.58	6380
870.71	6426
870.84	6494
870.97	6460
871.1	6388
871.23	6646
871.36	6768
871.489	6658
871.619	6730
871.749	6825
871.879	6829
872.008	7000
872.138	7004
872.267	7012
872.397	7057
872.526	7042
872.656	7217
872.785	7190
872.915	7407
873.044	7582
873.173	7571
873.303	7658
873.432	7765
873.561	7845
873.69	7925
873.819	7959
873.948	8153
874.077	8282
874.206	8343
874.335	8488
874.464	8674
874.593	8853
874.722	8929
874.851	9192
874.979	9211
875.108	9340
875.237	9500
875.365	9511
875.494	9618
875.623	9793
875.751	9819
875.88	9991
876.008	10196
876.136	10325
876.265	10519
876.393	10668
876.521	10767
876.65	10748
876.778	10850
876.906	10923
877.034	10987
877.162	11071
877.29	11166
877.418	11315
877.546	11395
877.674	11452
877.802	11543
877.93	11554
878.058	11490
878.185	11528
878.313	11710
878.441	11802
878.568	11665
878.696	11832
878.824	11878
878.951	11878
879.079	12011
879.206	12140
879.333	12079
879.461	11954
879.588	12038
879.715	12148
879.842	12254
879.97	12087
880.097	11897
880.224	11923
880.351	11889
880.478	11916
880.605	11916
880.732	11817
880.859	11980
880.986	11866
881.112	11882
881.239	11642
881.366	11672
881.493	11668
881.619	11509
881.746	11608
881.872	11554
881.999	11512
882.125	11452
882.252	11573
882.378	11532
882.505	11570
882.631	11387
882.757	11337
882.883	11307
883.01	11299
883.136	11223
883.262	11090
883.388	11052
883.514	11208
883.64	11189
883.766	11193
883.892	10991
884.018	10953
884.143	11086
884.269	11105
884.395	10831
884.52	10771
884.646	10691
884.772	10778
884.897	10706
885.023	10759
885.148	10675
885.274	10797
885.399	10630
885.524	10596
885.65	10622
885.775	10615
885.9	10577
886.025	10630
886.15	10626
886.275	10402
886.4	10413
886.525	10485
886.65	10443
886.775	10394
886.9	10558
887.025	10516
887.149	10333
887.274	10215
887.399	10306
887.523	10131
887.648	10177
887.773	10128
887.897	10211
888.021	10299
888.146	10131
888.27	10306
888.395	10074
888.519	10204
888.643	10192
888.767	10253
888.891	10059
889.015	10010
889.139	10025
889.263	9918
889.387	10086
889.511	10131
889.635	10093
889.759	9964
889.883	10048
890.006	10013
890.13	10074
890.254	9903
890.377	10006
890.501	9869
890.624	9876
890.748	9934
890.871	9789
890.995	9850
891.118	9682
891.241	9774
891.364	9679
891.488	9835
891.611	9709
891.734	9736
891.857	9740
891.98	9720
892.103	9842
892.226	9762
892.349	9709
892.471	9500
892.594	9656
892.717	9690
892.839	9599
892.962	9675
893.085	9660
893.207	9538
893.33	9519
893.452	9553
893.575	9591
893.697	9511
893.819	9526
893.941	9610
894.064	9644
894.186	9405
894.308	9488
894.43	9572
894.552	9618
894.674	9454
894.796	9412
894.918	9393
895.04	9378
895.161	9416
895.283	9306
895.405	9264
895.526	9294
895.648	9233
895.769	9241
895.891	9302
896.012	9272
896.134	9214
896.255	9108
896.376	9135
896.498	9226
896.619	9165
896.74	9066
896.861	9127
896.982	9218
897.103	9275
897.224	9127
897.345	9036
897.466	8990
897.587	8971
897.708	9074
897.828	9005
897.949	8956
898.07	8838
898.19	8861
898.311	9055
898.431	8929
898.552	8941
898.672	9013
898.792	8994
898.913	8891
899.033	8830
899.153	8739
899.273	8651
899.393	8689
899.513	8758
899.633	8819
899.753	8769
899.873	8758
899.993	8712
900.113	8716
900.232	8674
900.352	8617
900.472	8659
900.591	8541
900.711	8598
900.83	8511
900.95	8629
901.069	8689
901.189	8594
901.308	8442
901.427	8404
901.546	8404
901.665	8419
901.784	8533
901.904	8377
902.023	8324
902.141	8290
902.26	8225
902.379	8355
902.498	8168
902.617	8275
902.735	8328
902.854	8324
902.973	8263
903.091	8164
903.21	8214
903.328	8206
903.446	8183
903.565	8123
903.683	8103
903.801	8088
903.919	8180
904.038	8168
904.156	8077
904.274	8123
904.392	8024
904.51	8039
904.627	8084
904.745	8119
904.863	8149
904.981	7974
905.098	7887
905.216	7860
905.334	7944
905.451	7940
905.569	7902
905.686	7936
905.803	7879
905.921	7776
906.038	7925
906.155	7818
906.272	7784
906.389	7719
906.506	7700
906.623	7651
906.74	7613
906.857	7556
906.974	7605
907.091	7677
907.208	7738
907.324	7632
907.441	7578
907.557	7449
907.674	7441
907.79	7411
907.907	7339
908.023	7453
908.139	7464
908.256	7445
908.372	7327
908.488	7362
908.604	7213
908.72	7232
908.836	7316
908.952	7297
909.068	7255
909.184	7293
909.3	7228
909.415	7263
909.531	7305
909.647	7141
909.762	7175
909.878	7156
909.993	7118
910.108	7080
910.224	7118
910.339	7088
910.454	7046
910.57	6989
910.685	6996
910.8	7126
910.915	7114
911.03	7027
911.145	6924
911.259	6837
911.374	6935
911.489	6840
911.604	6787
911.718	6673
911.833	6776
911.947	6635
912.062	6665
912.176	6711
912.291	6795
912.405	6669
912.519	6939
912.633	6833
912.748	6760
912.862	6722
912.976	6620
913.09	6509
913.204	6623
913.318	6547
913.431	6662
913.545	6726
913.659	6642
913.772	6627
913.886	6528
914	6585
914.113	6585
914.226	6604
914.34	6623
914.453	6521
914.566	6536
914.68	6536
914.793	6509
914.906	6433
915.019	6414
915.132	6433
915.245	6479
915.358	6422
915.47	6422
915.583	6429
915.696	6490
915.809	6517
915.921	6540
916.034	6429
916.146	6483
916.259	6426
916.371	6494
916.483	6509
916.595	6365
916.708	6479
916.82	6380
916.932	6346
917.044	6388
917.156	6380
917.268	6361
917.38	6350
917.491	6277
917.603	6369
917.715	6391
917.826	6384
917.938	6323
918.049	6228
918.161	6357
918.272	6426
918.384	6369
918.495	6292
918.606	6350
918.717	6194
918.828	6304
918.939	6346
919.05	6175
919.161	6251
919.272	6186
919.383	6209
919.494	6266
919.604	6441
919.715	6292
919.826	6247
919.936	6254
920.047	6372
920.157	6258
920.267	6410
920.378	6331
920.488	6319
920.598	6456
920.708	6593
920.818	6369
920.928	6494
921.038	6604
921.148	6582
921.258	6346
921.368	6342
921.477	6247
921.587	6205
921.697	6106
921.806	6148
921.916	6068
922.025	5912
922.134	5927
922.244	5866
922.353	5969
922.462	5901
922.571	5824
922.68	5668
922.789	5646
922.898	5756
923.007	5623
923.116	5729
923.224	5722
923.333	5665
923.442	5642
923.55	5577
923.659	5623
923.767	5592
923.876	5570
923.984	5585
924.092	5547
924.201	5562
924.309	5596
924.417	5577
924.525	5528
924.633	5558
924.741	6296
924.849	5406
924.956	5512
925.064	5376
925.172	5345
925.279	5288
925.387	5379
925.494	5318
925.602	5448
925.709	5433
925.816	5345
925.924	5311
926.031	5341
926.138	5311
926.245	5315
926.352	5258
926.459	5334
926.566	5353
926.673	5208
926.779	5159
926.886	5117
926.993	5018
927.099	4953
927.206	4995
927.312	4923
927.419	4991
927.525	4957
927.631	4980
927.737	4904
927.843	4908
927.95	4847
928.056	4843
928.162	4889
928.267	4824
928.373	5311
928.479	4873
928.585	4675
928.69	4774
928.796	4755
928.901	4706
929.007	4580
929.112	4645
929.218	4672
929.323	4577
929.428	4580
929.533	4748
929.638	4535
929.743	4508
929.848	4584
929.953	4497
930.058	4443
930.163	4363
930.267	4383
930.372	4455
930.477	4284
930.581	4432
930.685	4322
930.79	4291
930.894	4310
930.998	4291
931.103	4322
931.207	4158
931.311	4124
931.415	4002
931.519	3918
931.623	3949
