Data from glass_V78500241_1574.txt Node
Date: Wed Sep 01 19:25:24 CST 2021
User: usil
Spectrometer: V785-0024
Trigger mode: 0
Integration Time (sec): 4.000000E-1
Scans to average: 1
Nonlinearity correction enabled: false
Boxcar width: 0
Storing dark spectrum: false
XAxis mode: Wavelengths
Number of Pixels in Spectrum: 1024
>>>>>Begin Spectral Data<<<<<
801.071	3701
801.214	3709
801.356	3728
801.499	3804
801.641	3698
801.783	3793
801.926	3873
802.068	3846
802.211	3827
802.353	3911
802.496	3903
802.638	3869
802.78	3892
802.923	3979
803.065	3911
803.208	3892
803.35	3876
803.492	3873
803.635	3873
803.777	3831
803.919	3911
804.061	4219
804.204	3979
804.346	3934
804.488	3911
804.63	4032
804.773	3998
804.915	4044
805.057	4112
805.199	4021
805.341	4097
805.483	4131
805.626	4120
805.768	4131
805.91	4219
806.052	4223
806.194	4207
806.336	4314
806.478	4181
806.62	4169
806.762	4173
806.904	4238
807.046	4291
807.188	4219
807.33	4200
807.472	4227
807.614	4207
807.756	4306
807.898	4196
808.04	4219
808.182	4325
808.324	4284
808.465	4379
808.607	4440
808.749	4466
808.891	4447
809.033	4462
809.174	4421
809.316	4261
809.458	4230
809.6	4185
809.741	4154
809.883	4105
810.025	4162
810.166	4215
810.308	4230
810.45	4265
810.591	4211
810.733	4268
810.875	4504
811.016	4831
811.158	5075
811.299	5330
811.441	5296
811.582	5048
811.724	4660
811.865	4443
812.007	4455
812.148	4455
812.29	4432
812.431	4383
812.573	4390
812.714	4344
812.855	4394
812.997	4421
813.138	4451
813.279	4413
813.421	4386
813.562	4314
813.703	4272
813.845	4280
813.986	4261
814.127	4253
814.268	4306
814.41	4291
814.551	4253
814.692	4295
814.833	4265
814.974	4325
815.115	4333
815.256	4261
815.397	4257
815.539	4257
815.68	4196
815.821	4166
815.962	4314
816.103	4261
816.244	4200
816.385	4207
816.526	4287
816.666	4181
816.807	4112
816.948	4192
817.089	4188
817.23	4154
817.371	4071
817.512	4055
817.653	4086
817.793	4051
817.934	4048
818.075	4097
818.216	4074
818.356	4093
818.497	3972
818.638	3934
818.778	3930
818.919	3861
819.06	3907
819.2	3953
819.341	3854
819.481	3808
819.622	3899
819.762	3983
819.903	3956
820.043	3850
820.184	3869
820.324	3816
820.465	3865
820.605	3854
820.746	3907
820.886	3819
821.026	3903
821.167	3911
821.307	3991
821.447	3998
821.588	3964
821.728	3972
821.868	3968
822.008	3865
822.149	3888
822.289	3899
822.429	3778
822.569	3755
822.709	3804
822.849	3671
822.99	3682
823.13	3751
823.27	3770
823.41	3705
823.55	3755
823.69	3701
823.83	3732
823.97	3652
824.11	3633
824.25	3587
824.389	3648
824.529	3656
824.669	3622
824.809	3701
824.949	3747
825.089	3781
825.228	3656
825.368	3629
825.508	3591
825.648	3568
825.787	3622
825.927	3660
826.067	3580
826.206	3686
826.346	3755
826.485	3827
826.625	3880
826.765	3934
826.904	3816
827.044	3644
827.183	3511
827.323	3477
827.462	3488
827.601	3454
827.741	3439
827.88	3477
828.02	3370
828.159	3447
828.298	3469
828.437	3568
828.577	3439
828.716	3606
828.855	3496
828.994	3367
829.134	3359
829.273	3401
829.412	3359
829.551	3355
829.69	3340
829.829	3447
829.968	3511
830.107	3393
830.246	3450
830.385	3397
830.524	3340
830.663	3253
830.802	3283
830.941	3226
831.08	3192
831.219	3222
831.357	3272
831.496	3344
831.635	3241
831.774	3237
831.913	3195
832.051	3104
832.19	3123
832.329	3203
832.467	3116
832.606	3112
832.744	3150
832.883	3192
833.022	3184
833.16	3218
833.299	3302
833.437	3344
833.576	3389
833.714	3393
833.852	3435
833.991	3469
834.129	3477
834.267	3481
834.406	3435
834.544	3424
834.682	3374
834.821	3431
834.959	3526
835.097	3409
835.235	3557
835.373	3492
835.511	3485
835.65	3496
835.788	3435
835.926	3401
836.064	3405
836.202	3405
836.34	3564
836.478	3633
836.615	3542
836.753	3580
836.891	3584
837.029	3576
837.167	3587
837.305	3545
837.443	3523
837.58	3519
837.718	3622
837.856	3587
837.993	3534
838.131	3618
838.269	3557
838.406	3591
838.544	3545
838.681	3443
838.819	3466
838.956	3382
839.094	3389
839.231	3424
839.369	3492
839.506	3724
839.643	3656
839.781	3515
839.918	3485
840.055	3447
840.193	3519
840.33	3511
840.467	3576
840.604	3584
840.742	3789
840.879	3561
841.016	3561
841.153	3606
841.29	3747
841.427	3705
841.564	3728
841.701	3770
841.838	3732
841.975	3717
842.112	3720
842.249	3599
842.385	3603
842.522	3816
842.659	3690
842.796	3667
842.933	3717
843.069	3698
843.206	3698
843.343	3800
843.479	3793
843.616	3838
843.752	3633
843.889	3694
844.025	3884
844.162	3728
844.298	3846
844.435	3797
844.571	3785
844.708	3899
844.844	3975
844.98	4025
845.117	3994
845.253	3892
845.389	3896
845.525	3934
845.661	3960
845.798	3907
845.934	3975
846.07	3972
846.206	4032
846.342	4101
846.478	4082
846.614	3941
846.75	3934
846.886	3896
847.022	4025
847.158	3994
847.294	4025
847.429	4029
847.565	4036
847.701	4257
847.837	3918
847.972	3873
848.108	4017
848.244	3949
848.379	3884
848.515	3846
848.65	3850
848.786	3854
848.921	3876
849.057	3880
849.192	3964
849.328	3888
849.463	3926
849.598	3907
849.734	3880
849.869	3827
850.004	3819
850.14	3812
850.275	3789
850.41	3740
850.545	3740
850.68	3804
850.815	3804
850.95	3800
851.085	3945
851.22	3854
851.355	3793
851.49	3823
851.625	3781
851.76	3762
851.895	3762
852.03	3751
852.165	3785
852.299	3907
852.434	3876
852.569	3850
852.703	3896
852.838	3945
852.973	3998
853.107	4032
853.242	3926
853.376	3865
853.511	3797
853.645	3831
853.78	4010
853.914	3873
854.048	3888
854.183	3888
854.317	3945
854.451	4013
854.585	3960
854.72	3956
854.854	3983
854.988	3953
855.122	4013
855.256	3903
855.39	4029
855.524	4105
855.658	4074
855.792	4067
855.926	4128
856.06	4185
856.194	4211
856.327	4154
856.461	4124
856.595	4158
856.729	4143
856.862	4257
856.996	4196
857.13	4280
857.263	4341
857.397	4299
857.53	4284
857.664	4402
857.797	4394
857.931	4428
858.064	4363
858.197	4424
858.331	4405
858.464	4371
858.597	4356
858.731	4459
858.864	4455
858.997	4481
859.13	4474
859.263	4508
859.396	4618
859.529	4516
859.662	4478
859.795	4554
859.928	4607
860.061	4714
860.194	4729
860.327	4660
860.46	4637
860.592	4706
860.725	4733
860.858	4759
860.99	4714
861.123	4683
861.256	4752
861.388	4725
861.521	5547
861.653	4687
861.786	4733
861.918	4782
862.05	4797
862.183	4843
862.315	4927
862.447	4896
862.58	4854
862.712	4805
862.844	4767
862.976	4881
863.108	4885
863.24	5223
863.372	4809
863.504	4881
863.636	4904
863.768	4938
863.9	4984
864.032	4889
864.164	4968
864.296	5071
864.428	5037
864.559	5159
864.691	5143
864.823	5189
864.954	5136
865.086	5117
865.217	5140
865.349	5151
865.48	5113
865.612	5197
865.743	5326
865.875	5189
866.006	5216
866.137	5254
866.269	5242
866.4	5216
866.531	5178
866.662	5227
866.793	5296
866.924	5277
867.055	5326
867.186	5353
867.317	5357
867.448	5341
867.579	5368
867.71	5353
867.841	5376
867.972	5478
868.103	5440
868.233	5501
868.364	5539
868.495	5551
868.625	5661
868.756	5729
868.886	5668
869.017	5786
869.147	5847
869.278	5836
869.408	5802
869.539	5798
869.669	5927
869.799	5946
869.929	6049
870.06	6011
870.19	6220
870.32	6171
870.45	6216
870.58	6357
870.71	6403
870.84	6426
870.97	6410
871.1	6437
871.23	6669
871.36	6757
871.489	6696
871.619	6730
871.749	6776
871.879	6897
872.008	6996
872.138	6973
872.267	7015
872.397	7034
872.526	7080
872.656	7091
872.785	7145
872.915	7377
873.044	7537
873.173	7575
873.303	7639
873.432	7784
873.561	7841
873.69	7902
873.819	8016
873.948	8126
874.077	8210
874.206	8324
874.335	8442
874.464	8648
874.593	8933
874.722	8921
874.851	9138
874.979	9230
875.108	9348
875.237	9382
875.365	9500
875.494	9641
875.623	9895
875.751	9827
875.88	10055
876.008	10154
876.136	10337
876.265	10516
876.393	10656
876.521	10634
876.65	10930
876.778	10866
876.906	10869
877.034	11045
877.162	11102
877.29	11178
877.418	11269
877.546	11345
877.674	11448
877.802	11474
877.93	11532
878.058	11528
878.185	11558
878.313	11680
878.441	11741
878.568	11714
878.696	11783
878.824	11851
878.951	11927
879.079	12064
879.206	12114
879.333	12019
879.461	11977
879.588	12091
879.715	12114
879.842	12209
879.97	12026
880.097	11813
880.224	11863
880.351	11863
880.478	11942
880.605	11912
880.732	11889
880.859	12038
880.986	11802
881.112	11889
881.239	11653
881.366	11638
881.493	11577
881.619	11490
881.746	11566
881.872	11497
881.999	11471
882.125	11562
882.252	11516
882.378	11516
882.505	11592
882.631	11315
882.757	11288
882.883	11383
883.01	11277
883.136	11143
883.262	11170
883.388	11109
883.514	11174
883.64	11174
883.766	11083
883.892	10953
884.018	11086
884.143	11064
884.269	11025
884.395	10881
884.52	10828
884.646	10797
884.772	10664
884.897	10603
885.023	10679
885.148	10790
885.274	10748
885.399	10687
885.524	10603
885.65	10622
885.775	10660
885.9	10584
886.025	10577
886.15	10512
886.275	10504
886.4	10337
886.525	10371
886.65	10348
886.775	10325
886.9	10497
887.025	10531
887.149	10405
887.274	10215
887.399	10196
887.523	10227
887.648	10188
887.773	10135
887.897	10265
888.021	10238
888.146	10173
888.27	10223
888.395	10124
888.519	10105
888.643	10249
888.767	10181
888.891	10101
889.015	9972
889.139	10017
889.263	9991
889.387	10059
889.511	10051
889.635	10040
889.759	9926
889.883	10013
890.006	10017
890.13	10040
890.254	9911
890.377	9979
890.501	9869
890.624	9892
890.748	9922
890.871	9835
890.995	9740
891.118	9781
891.241	9740
891.364	9713
891.488	9812
891.611	9713
891.734	9797
891.857	9705
891.98	9675
892.103	9808
892.226	9709
892.349	9694
892.471	9561
892.594	9614
892.717	9614
892.839	9595
892.962	9671
893.085	9686
893.207	9534
893.33	9564
893.452	9473
893.575	9618
893.697	9500
893.819	9637
893.941	9679
894.064	9622
894.186	9507
894.308	9389
894.43	9572
894.552	9545
894.674	9416
894.796	9412
894.918	9443
895.04	9359
895.161	9310
895.283	9401
895.405	9245
895.526	9329
895.648	9237
895.769	9218
895.891	9272
896.012	9199
896.134	9237
896.255	9161
896.376	9135
896.498	9161
896.619	9192
896.74	9100
896.861	9165
896.982	9275
897.103	9272
897.224	9207
897.345	9157
897.466	8998
897.587	8963
897.708	9077
897.828	9028
897.949	8948
898.07	8826
898.19	8872
898.311	9020
898.431	8899
898.552	8906
898.672	8906
898.792	8914
898.913	8925
899.033	8807
899.153	8739
899.273	8701
899.393	8731
899.513	8659
899.633	8716
899.753	8754
899.873	8674
899.993	8750
900.113	8682
900.232	8754
900.352	8625
900.472	8579
900.591	8579
900.711	8636
900.83	8549
900.95	8655
901.069	8716
901.189	8556
901.308	8438
901.427	8336
901.546	8415
901.665	8507
901.784	8431
901.904	8393
902.023	8385
902.141	8210
902.26	8161
902.379	8206
902.498	8290
902.617	8225
902.735	8271
902.854	8252
902.973	8263
903.091	8107
903.21	8145
903.328	8123
903.446	8111
903.565	8130
903.683	8123
903.801	8115
903.919	8153
904.038	8157
904.156	7978
904.274	8081
904.392	7993
904.51	8027
904.627	8001
904.745	8153
904.863	8092
904.981	7906
905.098	7921
905.216	7898
905.334	7875
905.451	7928
905.569	7803
905.686	7845
905.803	7921
905.921	7750
906.038	7852
906.155	7769
906.272	7677
906.389	7750
906.506	7636
906.623	7677
906.74	7662
906.857	7544
906.974	7575
907.091	7700
907.208	7750
907.324	7681
907.441	7590
907.557	7514
907.674	7464
907.79	7438
907.907	7445
908.023	7464
908.139	7381
908.256	7339
908.372	7407
908.488	7343
908.604	7263
908.72	7240
908.836	7251
908.952	7236
909.068	7270
909.184	7312
909.3	7228
909.415	7327
909.531	7266
909.647	7110
909.762	7126
909.878	7069
909.993	7099
910.108	7069
910.224	7107
910.339	7110
910.454	7061
910.57	7004
910.685	6897
910.8	7103
910.915	7053
911.03	6993
911.145	6844
911.259	6818
911.374	6924
911.489	6787
911.604	6806
911.718	6700
911.833	6749
911.947	6646
912.062	6639
912.176	6673
912.291	6703
912.405	6677
912.519	6818
912.633	6818
912.748	6715
912.862	6707
912.976	6662
913.09	6544
913.204	6593
913.318	6665
913.431	6646
913.545	6650
913.659	6681
913.772	6681
913.886	6513
914	6544
914.113	6547
914.226	6642
914.34	6612
914.453	6532
914.566	6574
914.68	6498
914.793	6544
914.906	6395
915.019	6403
915.132	6407
915.245	6433
915.358	6395
915.47	6418
915.583	6429
915.696	6509
915.809	6532
915.921	6566
916.034	6350
916.146	6441
916.259	6353
916.371	6506
916.483	6433
916.595	6372
916.708	6399
916.82	6365
916.932	6372
917.044	6403
917.156	6391
917.268	6315
917.38	6376
917.491	6342
917.603	6346
917.715	6380
917.826	6441
917.938	6357
918.049	6209
918.161	6357
918.272	6475
918.384	6426
918.495	6315
918.606	6205
918.717	6205
918.828	6334
918.939	6327
919.05	6232
919.161	6277
919.272	6182
919.383	6129
919.494	6251
919.604	6452
919.715	6277
919.826	6190
919.936	6281
920.047	6323
920.157	6308
920.267	6433
920.378	6292
920.488	6273
920.598	6433
920.708	6574
920.818	6418
920.928	6433
921.038	6616
921.148	6555
921.258	6380
921.368	6327
921.477	6224
921.587	6182
921.697	6102
921.806	6205
921.916	6076
922.025	5954
922.134	5923
922.244	5882
922.353	5904
922.462	5809
922.571	5802
922.68	5707
922.789	5680
922.898	5680
923.007	5638
923.116	5707
923.224	5691
923.333	5661
923.442	5600
923.55	5562
923.659	5573
923.767	5642
923.876	5547
923.984	5665
924.092	5490
924.201	5592
924.309	5532
924.417	5554
924.525	5501
924.633	5520
924.741	6068
924.849	5364
924.956	5440
925.064	5410
925.172	5273
925.279	5322
925.387	5391
925.494	5353
925.602	5395
925.709	5414
925.816	5288
925.924	5326
926.031	5334
926.138	5292
926.245	5334
926.352	5208
926.459	5311
926.566	5360
926.673	5189
926.779	5121
926.886	5094
926.993	5029
927.099	4999
927.206	4930
927.312	4980
927.419	4980
927.525	4972
927.631	4984
927.737	4930
927.843	4881
927.95	4778
928.056	4862
928.162	4816
928.267	4824
928.373	5357
928.479	4843
928.585	4706
928.69	4790
928.796	4774
928.901	4694
929.007	4554
929.112	4649
929.218	4618
929.323	4607
929.428	4580
929.533	4702
929.638	4497
929.743	4554
929.848	4519
929.953	4500
930.058	4459
930.163	4322
930.267	4367
930.372	4440
930.477	4310
930.581	4451
930.685	4398
930.79	4268
930.894	4291
930.998	4310
931.103	4356
931.207	4124
931.311	4067
931.415	4032
931.519	3907
931.623	3934
