Data from glass_V78500241_887.txt Node
Date: Wed Sep 01 19:20:38 CST 2021
User: usil
Spectrometer: V785-0024
Trigger mode: 0
Integration Time (sec): 4.000000E-1
Scans to average: 1
Nonlinearity correction enabled: false
Boxcar width: 0
Storing dark spectrum: false
XAxis mode: Wavelengths
Number of Pixels in Spectrum: 1024
>>>>>Begin Spectral Data<<<<<
801.071	3724
801.214	3766
801.356	3747
801.499	3759
801.641	3770
801.783	3751
801.926	3854
802.068	3869
802.211	3842
802.353	3896
802.496	3835
802.638	3911
802.78	3949
802.923	3949
803.065	3888
803.208	3865
803.35	3869
803.492	3880
803.635	3896
803.777	3781
803.919	3926
804.061	4177
804.204	3960
804.346	3968
804.488	3907
804.63	4055
804.773	3968
804.915	4051
805.057	4162
805.199	4044
805.341	4135
805.483	4188
805.626	4112
805.768	4105
805.91	4230
806.052	4242
806.194	4219
806.336	4356
806.478	4207
806.62	4207
806.762	4234
806.904	4284
807.046	4386
807.188	4272
807.33	4173
807.472	4261
807.614	4200
807.756	4272
807.898	4280
808.04	4215
808.182	4295
808.324	4363
808.465	4390
808.607	4489
808.749	4478
808.891	4459
809.033	4516
809.174	4409
809.316	4306
809.458	4261
809.6	4143
809.741	4169
809.883	4188
810.025	4215
810.166	4242
810.308	4253
810.45	4276
810.591	4238
810.733	4310
810.875	4504
811.016	4828
811.158	5155
811.299	5277
811.441	5239
811.582	5060
811.724	4714
811.865	4500
812.007	4432
812.148	4481
812.29	4447
812.431	4455
812.573	4428
812.714	4371
812.855	4440
812.997	4409
813.138	4478
813.279	4356
813.421	4398
813.562	4409
813.703	4341
813.845	4310
813.986	4223
814.127	4253
814.268	4272
814.41	4306
814.551	4272
814.692	4306
814.833	4284
814.974	4325
815.115	4348
815.256	4284
815.397	4242
815.539	4291
815.68	4154
815.821	4223
815.962	4329
816.103	4303
816.244	4272
816.385	4234
816.526	4303
816.666	4230
816.807	4120
816.948	4200
817.089	4158
817.23	4135
817.371	4055
817.512	4120
817.653	4086
817.793	4055
817.934	4055
818.075	4071
818.216	4063
818.356	4078
818.497	4006
818.638	3915
818.778	3945
818.919	3861
819.06	3880
819.2	3907
819.341	3880
819.481	3838
819.622	3922
819.762	4040
819.903	3998
820.043	3899
820.184	3835
820.324	3857
820.465	3884
820.605	3903
820.746	3884
820.886	3835
821.026	3934
821.167	3918
821.307	3956
821.447	3956
821.588	3930
821.728	3937
821.868	3953
822.008	3846
822.149	3926
822.289	3979
822.429	3793
822.569	3766
822.709	3823
822.849	3701
822.99	3705
823.13	3728
823.27	3812
823.41	3724
823.55	3720
823.69	3717
823.83	3778
823.97	3728
824.11	3644
824.25	3599
824.389	3660
824.529	3667
824.669	3675
824.809	3747
824.949	3720
825.089	3717
825.228	3732
825.368	3606
825.508	3584
825.648	3568
825.787	3618
825.927	3595
826.067	3587
826.206	3705
826.346	3808
826.485	3835
826.625	3842
826.765	3926
826.904	3846
827.044	3652
827.183	3534
827.323	3473
827.462	3439
827.601	3492
827.741	3431
827.88	3447
828.02	3378
828.159	3462
828.298	3500
828.437	3523
828.577	3496
828.716	3603
828.855	3538
828.994	3393
829.134	3386
829.273	3386
829.412	3332
829.551	3329
829.69	3351
829.829	3431
829.968	3519
830.107	3481
830.246	3485
830.385	3313
830.524	3355
830.663	3317
830.802	3264
830.941	3180
831.08	3192
831.219	3298
831.357	3264
831.496	3443
831.635	3230
831.774	3157
831.913	3211
832.051	3116
832.19	3138
832.329	3207
832.467	3135
832.606	3135
832.744	3199
832.883	3195
833.022	3211
833.16	3241
833.299	3306
833.437	3313
833.576	3348
833.714	3382
833.852	3481
833.991	3450
834.129	3473
834.267	3416
834.406	3389
834.544	3439
834.682	3420
834.821	3424
834.959	3599
835.097	3416
835.235	3564
835.373	3511
835.511	3496
835.65	3447
835.788	3515
835.926	3443
836.064	3378
836.202	3393
836.34	3534
836.478	3629
836.615	3561
836.753	3591
836.891	3698
837.029	3648
837.167	3584
837.305	3564
837.443	3504
837.58	3515
837.718	3534
837.856	3549
837.993	3564
838.131	3637
838.269	3526
838.406	3595
838.544	3561
838.681	3466
838.819	3447
838.956	3401
839.094	3393
839.231	3473
839.369	3549
839.506	3728
839.643	3633
839.781	3504
839.918	3450
840.055	3526
840.193	3500
840.33	3545
840.467	3587
840.604	3625
840.742	3816
840.879	3526
841.016	3591
841.153	3629
841.29	3770
841.427	3762
841.564	3732
841.701	3762
841.838	3694
841.975	3713
842.112	3698
842.249	3644
842.385	3614
842.522	3827
842.659	3690
842.796	3690
842.933	3747
843.069	3736
843.206	3728
843.343	3827
843.479	3804
843.616	3819
843.752	3679
843.889	3705
844.025	3861
844.162	3724
844.298	3835
844.435	3793
844.571	3812
844.708	3930
844.844	4055
844.98	4021
845.117	4010
845.253	3922
845.389	3922
845.525	3934
845.661	3934
845.798	3937
845.934	4017
846.07	3964
846.206	4067
846.342	4086
846.478	4044
846.614	4021
846.75	3953
846.886	3884
847.022	4021
847.158	3991
847.294	4017
847.429	4074
847.565	4002
847.701	4295
847.837	3899
847.972	3903
848.108	3979
848.244	3987
848.379	3865
848.515	3846
848.65	3835
848.786	3854
848.921	3903
849.057	3964
849.192	3964
849.328	3915
849.463	3960
849.598	3911
849.734	3869
849.869	3861
850.004	3789
850.14	3842
850.275	3831
850.41	3743
850.545	3740
850.68	3778
850.815	3823
850.95	3793
851.085	3949
851.22	3865
851.355	3861
851.49	3793
851.625	3842
851.76	3812
851.895	3755
852.03	3751
852.165	3793
852.299	3842
852.434	3937
852.569	3873
852.703	3907
852.838	3972
852.973	4025
853.107	4029
853.242	3896
853.376	3876
853.511	3797
853.645	3842
853.78	3975
853.914	3926
854.048	3941
854.183	3907
854.317	3968
854.451	4071
854.585	3968
854.72	3998
854.854	4067
854.988	3934
855.122	3987
855.256	3915
855.39	4025
855.524	4154
855.658	4139
855.792	4150
855.926	4139
856.06	4185
856.194	4200
856.327	4158
856.461	4112
856.595	4154
856.729	4204
856.862	4287
856.996	4306
857.13	4295
857.263	4352
857.397	4383
857.53	4303
857.664	4325
857.797	4383
857.931	4447
858.064	4394
858.197	4485
858.331	4424
858.464	4390
858.597	4337
858.731	4455
858.864	4443
858.997	4474
859.13	4519
859.263	4573
859.396	4622
859.529	4531
859.662	4523
859.795	4569
859.928	4611
860.061	4714
860.194	4729
860.327	4630
860.46	4687
860.592	4717
860.725	4759
860.858	4778
860.99	4668
861.123	4687
861.256	4702
861.388	4774
861.521	5596
861.653	4740
861.786	4714
861.918	4740
862.05	4778
862.183	4870
862.315	4908
862.447	4980
862.58	4873
862.712	4793
862.844	4793
862.976	4850
863.108	4831
863.24	5170
863.372	4816
863.504	4923
863.636	4862
863.768	4949
863.9	4984
864.032	4923
864.164	4968
864.296	5041
864.428	5113
864.559	5102
864.691	5102
864.823	5117
864.954	5132
865.086	5132
865.217	5098
865.349	5132
865.48	5193
865.612	5201
865.743	5296
865.875	5280
866.006	5197
866.137	5292
866.269	5254
866.4	5277
866.531	5204
866.662	5246
866.793	5280
866.924	5292
867.055	5299
867.186	5318
867.317	5311
867.448	5318
867.579	5429
867.71	5398
867.841	5372
867.972	5452
868.103	5471
868.233	5417
868.364	5493
868.495	5551
868.625	5699
868.756	5767
868.886	5642
869.017	5718
869.147	5851
869.278	5908
869.408	5802
869.539	5836
869.669	5984
869.799	5988
869.929	5954
870.06	5992
870.19	6190
870.32	6232
870.45	6300
870.58	6331
870.71	6460
870.84	6445
870.97	6380
871.1	6445
871.23	6654
871.36	6688
871.489	6673
871.619	6730
871.749	6776
871.879	6840
872.008	7019
872.138	7031
872.267	7027
872.397	7038
872.526	7072
872.656	7133
872.785	7171
872.915	7441
873.044	7567
873.173	7559
873.303	7651
873.432	7753
873.561	7909
873.69	7879
873.819	8069
873.948	8172
874.077	8214
874.206	8305
874.335	8438
874.464	8640
874.593	8857
874.722	8994
874.851	9150
874.979	9203
875.108	9443
875.237	9393
875.365	9458
875.494	9679
875.623	9835
875.751	9861
875.88	10078
876.008	10078
876.136	10280
876.265	10474
876.393	10714
876.521	10748
876.65	10694
876.778	10881
876.906	10915
877.034	11048
877.162	11102
877.29	11102
877.418	11296
877.546	11398
877.674	11429
877.802	11417
877.93	11611
878.058	11535
878.185	11543
878.313	11592
878.441	11764
878.568	11619
878.696	11809
878.824	11840
878.951	11874
879.079	11996
879.206	12114
879.333	12079
879.461	11946
879.588	12148
879.715	12083
879.842	12243
879.97	12022
880.097	11931
880.224	11912
880.351	11912
880.478	11874
880.605	11878
880.732	11863
880.859	12007
880.986	11840
881.112	11904
881.239	11726
881.366	11630
881.493	11570
881.619	11577
881.746	11539
881.872	11551
881.999	11547
882.125	11429
882.252	11573
882.378	11547
882.505	11497
882.631	11505
882.757	11368
882.883	11402
883.01	11178
883.136	11178
883.262	11075
883.388	11052
883.514	11193
883.64	11185
883.766	11128
883.892	11006
884.018	10923
884.143	11079
884.269	11079
884.395	10843
884.52	10816
884.646	10797
884.772	10694
884.897	10649
885.023	10626
885.148	10752
885.274	10786
885.399	10729
885.524	10656
885.65	10603
885.775	10565
885.9	10516
886.025	10592
886.15	10508
886.275	10443
886.4	10417
886.525	10424
886.65	10413
886.775	10371
886.9	10413
887.025	10554
887.149	10424
887.274	10242
887.399	10158
887.523	10116
887.648	10105
887.773	10067
887.897	10253
888.021	10169
888.146	10188
888.27	10257
888.395	10169
888.519	10188
888.643	10219
888.767	10204
888.891	10078
889.015	10032
889.139	10036
889.263	9998
889.387	10063
889.511	10078
889.635	10109
889.759	9941
889.883	10017
890.006	10025
890.13	10109
890.254	9964
890.377	10044
890.501	9838
890.624	9930
890.748	9968
890.871	9827
890.995	9816
891.118	9766
891.241	9774
891.364	9694
891.488	9892
891.611	9694
891.734	9835
891.857	9789
891.98	9705
892.103	9770
892.226	9686
892.349	9724
892.471	9477
892.594	9625
892.717	9622
892.839	9576
892.962	9584
893.085	9728
893.207	9618
893.33	9466
893.452	9534
893.575	9633
893.697	9450
893.819	9633
893.941	9610
894.064	9610
894.186	9443
894.308	9389
894.43	9618
894.552	9576
894.674	9545
894.796	9424
894.918	9397
895.04	9359
895.161	9363
895.283	9351
895.405	9253
895.526	9351
895.648	9272
895.769	9218
895.891	9317
896.012	9313
896.134	9298
896.255	9176
896.376	9249
896.498	9169
896.619	9180
896.74	9058
896.861	9138
896.982	9214
897.103	9283
897.224	9188
897.345	9131
897.466	9047
897.587	9085
897.708	9081
897.828	9020
897.949	8948
898.07	8899
898.19	8914
898.311	9024
898.431	8929
898.552	8902
898.672	8929
898.792	8990
898.913	8960
899.033	8849
899.153	8754
899.273	8701
899.393	8731
899.513	8773
899.633	8731
899.753	8781
899.873	8758
899.993	8731
900.113	8724
900.232	8697
900.352	8735
900.472	8659
900.591	8552
900.711	8560
900.83	8598
900.95	8651
901.069	8686
901.189	8571
901.308	8393
901.427	8389
901.546	8476
901.665	8469
901.784	8556
901.904	8343
902.023	8389
902.141	8225
902.26	8183
902.379	8317
902.498	8240
902.617	8229
902.735	8290
902.854	8279
902.973	8271
903.091	8123
903.21	8168
903.328	8130
903.446	8161
903.565	8092
903.683	8065
903.801	8138
903.919	8164
904.038	8153
904.156	8069
904.274	8046
904.392	8111
904.51	8100
904.627	8100
904.745	8035
904.863	8081
904.981	7940
905.098	7913
905.216	7894
905.334	7936
905.451	7875
905.569	7860
905.686	7883
905.803	7875
905.921	7826
906.038	7909
906.155	7814
906.272	7643
906.389	7788
906.506	7639
906.623	7632
906.74	7624
906.857	7548
906.974	7556
907.091	7643
907.208	7780
907.324	7647
907.441	7613
907.557	7483
907.674	7445
907.79	7422
907.907	7411
908.023	7460
908.139	7453
908.256	7422
908.372	7377
908.488	7411
908.604	7305
908.72	7285
908.836	7312
908.952	7274
909.068	7232
909.184	7301
909.3	7282
909.415	7285
909.531	7305
909.647	7129
909.762	7114
909.878	7099
909.993	7202
910.108	7110
910.224	7061
910.339	7145
910.454	7038
910.57	7042
910.685	6947
910.8	7221
910.915	7202
911.03	7004
911.145	6954
911.259	6935
911.374	6913
911.489	6863
911.604	6856
911.718	6662
911.833	6745
911.947	6662
912.062	6635
912.176	6753
912.291	6734
912.405	6696
912.519	6829
912.633	6814
912.748	6787
912.862	6730
912.976	6681
913.09	6559
913.204	6650
913.318	6654
913.431	6669
913.545	6665
913.659	6730
913.772	6662
913.886	6566
914	6589
914.113	6631
914.226	6665
914.34	6589
914.453	6525
914.566	6707
914.68	6521
914.793	6517
914.906	6407
915.019	6388
915.132	6391
915.245	6445
915.358	6441
915.47	6475
915.583	6456
915.696	6471
915.809	6532
915.921	6631
916.034	6460
916.146	6414
916.259	6437
916.371	6437
916.483	6441
916.595	6399
916.708	6410
916.82	6372
916.932	6391
917.044	6391
917.156	6433
917.268	6365
917.38	6357
917.491	6376
917.603	6346
917.715	6486
917.826	6441
917.938	6388
918.049	6292
918.161	6361
918.272	6456
918.384	6426
918.495	6296
918.606	6266
918.717	6224
918.828	6304
918.939	6300
919.05	6209
919.161	6270
919.272	6155
919.383	6110
919.494	6319
919.604	6456
919.715	6270
919.826	6205
919.936	6232
920.047	6353
920.157	6346
920.267	6433
920.378	6308
920.488	6315
920.598	6460
920.708	6532
920.818	6464
920.928	6483
921.038	6582
921.148	6570
921.258	6399
921.368	6323
921.477	6194
921.587	6216
921.697	6110
921.806	6262
921.916	6083
922.025	5992
922.134	5897
922.244	5863
922.353	5950
922.462	5901
922.571	5851
922.68	5741
922.789	5707
922.898	5748
923.007	5676
923.116	5699
923.224	5733
923.333	5638
923.442	5585
923.55	5554
923.659	5611
923.767	5680
923.876	5539
923.984	5638
924.092	5471
924.201	5566
924.309	5558
924.417	5539
924.525	5528
924.633	5512
924.741	6216
924.849	5391
924.956	5516
925.064	5326
925.172	5288
925.279	5288
925.387	5353
925.494	5315
925.602	5406
925.709	5349
925.816	5242
925.924	5303
926.031	5353
926.138	5326
926.245	5315
926.352	5216
926.459	5334
926.566	5364
926.673	5223
926.779	5181
926.886	5147
926.993	5014
927.099	5075
927.206	5018
927.312	4976
927.419	5037
927.525	4991
927.631	4957
927.737	4904
927.843	4820
927.95	4797
928.056	4854
928.162	4885
928.267	4850
928.373	5303
928.479	4820
928.585	4683
928.69	4812
928.796	4809
928.901	4702
929.007	4599
929.112	4664
929.218	4656
929.323	4618
929.428	4615
929.533	4702
929.638	4516
929.743	4508
929.848	4550
929.953	4516
930.058	4459
930.163	4348
930.267	4383
930.372	4402
930.477	4329
930.581	4470
930.685	4363
930.79	4276
930.894	4310
930.998	4291
931.103	4371
931.207	4124
931.311	4067
931.415	4006
931.519	3937
931.623	3937
