Data from glass_V78500241_786.txt Node
Date: Wed Sep 01 19:19:56 CST 2021
User: usil
Spectrometer: V785-0024
Trigger mode: 0
Integration Time (sec): 4.000000E-1
Scans to average: 1
Nonlinearity correction enabled: false
Boxcar width: 0
Storing dark spectrum: false
XAxis mode: Wavelengths
Number of Pixels in Spectrum: 1024
>>>>>Begin Spectral Data<<<<<
801.071	3724
801.214	3732
801.356	3701
801.499	3728
801.641	3781
801.783	3774
801.926	3899
802.068	3827
802.211	3899
802.353	3915
802.496	3865
802.638	3850
802.78	3907
802.923	3907
803.065	3896
803.208	3876
803.35	3857
803.492	3869
803.635	3896
803.777	3816
803.919	3873
804.061	4112
804.204	3949
804.346	3953
804.488	3930
804.63	4074
804.773	3979
804.915	4032
805.057	4143
805.199	4051
805.341	4093
805.483	4166
805.626	4124
805.768	4112
805.91	4246
806.052	4192
806.194	4230
806.336	4352
806.478	4207
806.62	4177
806.762	4211
806.904	4265
807.046	4379
807.188	4192
807.33	4158
807.472	4246
807.614	4238
807.756	4265
807.898	4234
808.04	4185
808.182	4287
808.324	4276
808.465	4405
808.607	4440
808.749	4504
808.891	4440
809.033	4523
809.174	4424
809.316	4291
809.458	4295
809.6	4109
809.741	4181
809.883	4177
810.025	4223
810.166	4196
810.308	4192
810.45	4238
810.591	4219
810.733	4325
810.875	4554
811.016	4862
811.158	5124
811.299	5307
811.441	5269
811.582	5064
811.724	4702
811.865	4455
812.007	4466
812.148	4455
812.29	4459
812.431	4443
812.573	4421
812.714	4379
812.855	4447
812.997	4402
813.138	4493
813.279	4432
813.421	4417
813.562	4413
813.703	4344
813.845	4341
813.986	4249
814.127	4227
814.268	4284
814.41	4272
814.551	4257
814.692	4287
814.833	4242
814.974	4272
815.115	4344
815.256	4219
815.397	4280
815.539	4253
815.68	4227
815.821	4219
815.962	4337
816.103	4306
816.244	4261
816.385	4204
816.526	4287
816.666	4223
816.807	4135
816.948	4185
817.089	4177
817.23	4147
817.371	4059
817.512	4067
817.653	4044
817.793	4029
817.934	4010
818.075	4128
818.216	4082
818.356	4112
818.497	4029
818.638	3926
818.778	3941
818.919	3880
819.06	3861
819.2	3945
819.341	3850
819.481	3892
819.622	3880
819.762	4006
819.903	3926
820.043	3873
820.184	3846
820.324	3785
820.465	3903
820.605	3876
820.746	3915
820.886	3785
821.026	3983
821.167	3899
821.307	3983
821.447	4002
821.588	3926
821.728	3934
821.868	3945
822.008	3896
822.149	3903
822.289	3934
822.429	3823
822.569	3781
822.709	3804
822.849	3679
822.99	3797
823.13	3789
823.27	3793
823.41	3770
823.55	3717
823.69	3755
823.83	3732
823.97	3709
824.11	3648
824.25	3622
824.389	3671
824.529	3686
824.669	3667
824.809	3694
824.949	3770
825.089	3740
825.228	3720
825.368	3584
825.508	3557
825.648	3587
825.787	3614
825.927	3648
826.067	3641
826.206	3633
826.346	3835
826.485	3861
826.625	3865
826.765	3907
826.904	3857
827.044	3633
827.183	3504
827.323	3412
827.462	3507
827.601	3431
827.741	3443
827.88	3447
828.02	3374
828.159	3447
828.298	3511
828.437	3557
828.577	3504
828.716	3614
828.855	3477
828.994	3382
829.134	3344
829.273	3401
829.412	3409
829.551	3359
829.69	3378
829.829	3466
829.968	3538
830.107	3447
830.246	3462
830.385	3386
830.524	3363
830.663	3260
830.802	3260
830.941	3218
831.08	3188
831.219	3256
831.357	3256
831.496	3401
831.635	3222
831.774	3214
831.913	3169
832.051	3150
832.19	3150
832.329	3218
832.467	3104
832.606	3119
832.744	3176
832.883	3180
833.022	3207
833.16	3287
833.299	3294
833.437	3363
833.576	3348
833.714	3409
833.852	3454
833.991	3450
834.129	3511
834.267	3416
834.406	3420
834.544	3435
834.682	3466
834.821	3420
834.959	3530
835.097	3420
835.235	3526
835.373	3485
835.511	3473
835.65	3450
835.788	3485
835.926	3389
836.064	3412
836.202	3443
836.34	3603
836.478	3572
836.615	3564
836.753	3610
836.891	3663
837.029	3648
837.167	3595
837.305	3603
837.443	3534
837.58	3519
837.718	3549
837.856	3603
837.993	3553
838.131	3644
838.269	3595
838.406	3633
838.544	3603
838.681	3466
838.819	3481
838.956	3355
839.094	3363
839.231	3485
839.369	3511
839.506	3793
839.643	3625
839.781	3526
839.918	3496
840.055	3526
840.193	3534
840.33	3549
840.467	3576
840.604	3618
840.742	3812
840.879	3572
841.016	3545
841.153	3660
841.29	3762
841.427	3736
841.564	3740
841.701	3743
841.838	3724
841.975	3682
842.112	3732
842.249	3663
842.385	3652
842.522	3892
842.659	3720
842.796	3652
842.933	3705
843.069	3690
843.206	3709
843.343	3819
843.479	3743
843.616	3857
843.752	3663
843.889	3762
844.025	3850
844.162	3728
844.298	3884
844.435	3797
844.571	3816
844.708	3915
844.844	4013
844.98	3972
845.117	4021
845.253	3983
845.389	3934
845.525	3960
845.661	3953
845.798	3899
845.934	3945
846.07	3987
846.206	3998
846.342	4101
846.478	4051
846.614	3991
846.75	3975
846.886	3876
847.022	4055
847.158	3998
847.294	4044
847.429	4029
847.565	3991
847.701	4227
847.837	3857
847.972	3896
848.108	4036
848.244	3968
848.379	3835
848.515	3857
848.65	3793
848.786	3896
848.921	3888
849.057	3915
849.192	3979
849.328	3926
849.463	3880
849.598	3899
849.734	3918
849.869	3816
850.004	3800
850.14	3831
850.275	3774
850.41	3770
850.545	3781
850.68	3774
850.815	3804
850.95	3804
851.085	3964
851.22	3884
851.355	3846
851.49	3770
851.625	3789
851.76	3816
851.895	3732
852.03	3762
852.165	3816
852.299	3850
852.434	3907
852.569	3876
852.703	3857
852.838	3941
852.973	3991
853.107	4010
853.242	3903
853.376	3857
853.511	3736
853.645	3827
853.78	3972
853.914	3937
854.048	3880
854.183	3903
854.317	3972
854.451	4074
854.585	3956
854.72	3876
854.854	4017
854.988	3915
855.122	3983
855.256	3930
855.39	4048
855.524	4162
855.658	4131
855.792	4105
855.926	4166
856.06	4158
856.194	4295
856.327	4166
856.461	4154
856.595	4177
856.729	4207
856.862	4249
856.996	4188
857.13	4341
857.263	4341
857.397	4367
857.53	4325
857.664	4363
857.797	4443
857.931	4386
858.064	4417
858.197	4497
858.331	4394
858.464	4383
858.597	4344
858.731	4466
858.864	4459
858.997	4459
859.13	4504
859.263	4531
859.396	4558
859.529	4565
859.662	4569
859.795	4554
859.928	4592
860.061	4721
860.194	4812
860.327	4687
860.46	4672
860.592	4740
860.725	4782
860.858	4767
860.99	4733
861.123	4656
861.256	4729
861.388	4786
861.521	5379
861.653	4721
861.786	4710
861.918	4729
862.05	4866
862.183	4858
862.315	4870
862.447	4908
862.58	4908
862.712	4771
862.844	4767
862.976	4892
863.108	4904
863.24	5231
863.372	4839
863.504	4870
863.636	4904
863.768	4927
863.9	4949
864.032	4900
864.164	4965
864.296	5003
864.428	5079
864.559	5113
864.691	5136
864.823	5090
864.954	5162
865.086	5166
865.217	5094
865.349	5121
865.48	5159
865.612	5170
865.743	5322
865.875	5170
866.006	5204
866.137	5246
866.269	5288
866.4	5269
866.531	5239
866.662	5216
866.793	5254
866.924	5280
867.055	5387
867.186	5349
867.317	5349
867.448	5307
867.579	5360
867.71	5372
867.841	5414
867.972	5467
868.103	5493
868.233	5516
868.364	5539
868.495	5551
868.625	5710
868.756	5775
868.886	5657
869.017	5764
869.147	5832
869.278	5878
869.408	5863
869.539	5821
869.669	5946
869.799	5927
869.929	5961
870.06	6030
870.19	6182
870.32	6163
870.45	6266
870.58	6353
870.71	6395
870.84	6445
870.97	6471
871.1	6448
871.23	6601
871.36	6730
871.489	6696
871.619	6722
871.749	6806
871.879	6840
872.008	6996
872.138	6966
872.267	7027
872.397	6973
872.526	7114
872.656	7107
872.785	7133
872.915	7411
873.044	7510
873.173	7567
873.303	7670
873.432	7734
873.561	7894
873.69	7871
873.819	8043
873.948	8130
874.077	8305
874.206	8309
874.335	8499
874.464	8670
874.593	8861
874.722	8933
874.851	9211
874.979	9260
875.108	9408
875.237	9401
875.365	9553
875.494	9633
875.623	9842
875.751	9838
875.88	9991
876.008	10150
876.136	10341
876.265	10451
876.393	10748
876.521	10771
876.65	10877
876.778	10900
876.906	10919
877.034	11010
877.162	11147
877.29	11216
877.418	11311
877.546	11330
877.674	11493
877.802	11410
877.93	11467
878.058	11661
878.185	11547
878.313	11604
878.441	11870
878.568	11653
878.696	11824
878.824	11901
878.951	11942
879.079	12022
879.206	12102
879.333	12087
879.461	11946
879.588	12110
879.715	12114
879.842	12220
879.97	12178
880.097	11897
880.224	11889
880.351	11775
880.478	11889
880.605	11836
880.732	11726
880.859	11942
880.986	11741
881.112	11790
881.239	11745
881.366	11653
881.493	11623
881.619	11528
881.746	11551
881.872	11615
881.999	11558
882.125	11486
882.252	11585
882.378	11467
882.505	11528
882.631	11368
882.757	11269
882.883	11311
883.01	11258
883.136	11246
883.262	11189
883.388	11071
883.514	11162
883.64	11162
883.766	11056
883.892	10968
884.018	10949
884.143	11086
884.269	11143
884.395	10862
884.52	10740
884.646	10774
884.772	10714
884.897	10622
885.023	10706
885.148	10771
885.274	10782
885.399	10702
885.524	10660
885.65	10607
885.775	10649
885.9	10615
886.025	10603
886.15	10508
886.275	10546
886.4	10413
886.525	10478
886.65	10375
886.775	10268
886.9	10485
887.025	10527
887.149	10405
887.274	10303
887.399	10215
887.523	10158
887.648	10192
887.773	10128
887.897	10257
888.021	10268
888.146	10211
888.27	10352
888.395	10223
888.519	10185
888.643	10192
888.767	10200
888.891	10071
889.015	10048
889.139	10059
889.263	10017
889.387	10124
889.511	10173
889.635	10017
889.759	10021
889.883	9953
890.006	9998
890.13	10101
890.254	9998
890.377	9960
890.501	9850
890.624	9918
890.748	9899
890.871	9766
890.995	9778
891.118	9698
891.241	9770
891.364	9660
891.488	9842
891.611	9736
891.734	9785
891.857	9720
891.98	9663
892.103	9705
892.226	9720
892.349	9679
892.471	9591
892.594	9576
892.717	9690
892.839	9576
892.962	9599
893.085	9698
893.207	9504
893.33	9477
893.452	9515
893.575	9542
893.697	9496
893.819	9633
893.941	9610
894.064	9633
894.186	9481
894.308	9469
894.43	9488
894.552	9576
894.674	9530
894.796	9386
894.918	9397
895.04	9412
895.161	9431
895.283	9351
895.405	9211
895.526	9313
895.648	9245
895.769	9264
895.891	9275
896.012	9329
896.134	9207
896.255	9195
896.376	9070
896.498	9116
896.619	9142
896.74	9028
896.861	9070
896.982	9393
897.103	9279
897.224	9165
897.345	9039
897.466	9028
897.587	9020
897.708	9070
897.828	9085
897.949	8914
898.07	8921
898.19	9058
898.311	9020
898.431	8944
898.552	8895
898.672	8956
898.792	8941
898.913	8792
899.033	8842
899.153	8731
899.273	8644
899.393	8834
899.513	8785
899.633	8724
899.753	8823
899.873	8648
899.993	8739
900.113	8701
900.232	8670
900.352	8640
900.472	8568
900.591	8579
900.711	8541
900.83	8587
900.95	8697
901.069	8701
901.189	8476
901.308	8438
901.427	8396
901.546	8370
901.665	8541
901.784	8503
901.904	8419
902.023	8355
902.141	8233
902.26	8172
902.379	8229
902.498	8252
902.617	8202
902.735	8279
902.854	8263
902.973	8279
903.091	8149
903.21	8084
903.328	8050
903.446	8111
903.565	8115
903.683	8092
903.801	8062
903.919	8111
904.038	8107
904.156	8012
904.274	8020
904.392	8062
904.51	8012
904.627	8058
904.745	7997
904.863	8115
904.981	7970
905.098	7913
905.216	7890
905.334	7921
905.451	7925
905.569	7864
905.686	7883
905.803	7947
905.921	7860
906.038	7951
906.155	7799
906.272	7734
906.389	7772
906.506	7677
906.623	7575
906.74	7696
906.857	7487
906.974	7567
907.091	7655
907.208	7776
907.324	7647
907.441	7594
907.557	7510
907.674	7407
907.79	7426
907.907	7339
908.023	7426
908.139	7426
908.256	7392
908.372	7400
908.488	7434
908.604	7289
908.72	7221
908.836	7305
908.952	7266
909.068	7263
909.184	7403
909.3	7285
909.415	7308
909.531	7289
909.647	7103
909.762	7099
909.878	7095
909.993	7129
910.108	7126
910.224	7118
910.339	7122
910.454	6970
910.57	7023
910.685	6958
910.8	7221
910.915	7053
911.03	7015
911.145	6928
911.259	6848
911.374	6954
911.489	6878
911.604	6818
911.718	6760
911.833	6810
911.947	6703
912.062	6608
912.176	6688
912.291	6734
912.405	6703
912.519	6863
912.633	6886
912.748	6787
912.862	6734
912.976	6582
913.09	6574
913.204	6608
913.318	6665
913.431	6719
913.545	6730
913.659	6772
913.772	6738
913.886	6589
914	6620
914.113	6578
914.226	6642
914.34	6585
914.453	6563
914.566	6612
914.68	6635
914.793	6559
914.906	6460
915.019	6384
915.132	6353
915.245	6433
915.358	6490
915.47	6479
915.583	6422
915.696	6513
915.809	6574
915.921	6593
916.034	6399
916.146	6452
916.259	6384
916.371	6445
916.483	6490
916.595	6464
916.708	6445
916.82	6399
916.932	6376
917.044	6407
917.156	6403
917.268	6315
917.38	6346
917.491	6323
917.603	6369
917.715	6471
917.826	6456
917.938	6342
918.049	6300
918.161	6407
918.272	6372
918.384	6475
918.495	6365
918.606	6319
918.717	6186
918.828	6247
918.939	6323
919.05	6182
919.161	6205
919.272	6129
919.383	6117
919.494	6258
919.604	6464
919.715	6281
919.826	6289
919.936	6239
920.047	6350
920.157	6304
920.267	6460
920.378	6311
920.488	6251
920.598	6486
920.708	6559
920.818	6422
920.928	6506
921.038	6646
921.148	6677
921.258	6361
921.368	6281
921.477	6213
921.587	6235
921.697	6030
921.806	6155
921.916	6095
922.025	6045
922.134	5897
922.244	5927
922.353	5935
922.462	5855
922.571	5855
922.68	5729
922.789	5642
922.898	5729
923.007	5688
923.116	5661
923.224	5695
923.333	5630
923.442	5634
923.55	5592
923.659	5608
923.767	5627
923.876	5554
923.984	5646
924.092	5524
924.201	5570
924.309	5566
924.417	5528
924.525	5490
924.633	5505
924.741	6163
924.849	5414
924.956	5493
925.064	5391
925.172	5303
925.279	5311
925.387	5417
925.494	5318
925.602	5391
925.709	5433
925.816	5318
925.924	5307
926.031	5372
926.138	5368
926.245	5303
926.352	5185
926.459	5284
926.566	5311
926.673	5181
926.779	5197
926.886	5132
926.993	5033
927.099	5003
927.206	4987
927.312	4995
927.419	5033
927.525	5018
927.631	4991
927.737	4889
927.843	4900
927.95	4805
928.056	4828
928.162	4801
928.267	4854
928.373	5318
928.479	4923
928.585	4698
928.69	4820
928.796	4759
928.901	4687
929.007	4584
929.112	4687
929.218	4637
929.323	4630
929.428	4538
929.533	4660
929.638	4573
929.743	4538
929.848	4535
929.953	4504
930.058	4455
930.163	4333
930.267	4322
930.372	4462
930.477	4333
930.581	4478
930.685	4363
930.79	4246
930.894	4310
930.998	4276
931.103	4405
931.207	4147
931.311	4063
931.415	4032
931.519	3953
931.623	3953
