Data from glass_V78500241_19.txt Node
Date: Wed Sep 01 19:14:37 CST 2021
User: usil
Spectrometer: V785-0024
Trigger mode: 0
Integration Time (sec): 4.000000E-1
Scans to average: 1
Nonlinearity correction enabled: false
Boxcar width: 0
Storing dark spectrum: false
XAxis mode: Wavelengths
Number of Pixels in Spectrum: 1024
>>>>>Begin Spectral Data<<<<<
801.071	3759
801.214	3751
801.356	3736
801.499	3778
801.641	3747
801.783	3789
801.926	3857
802.068	3873
802.211	3896
802.353	3888
802.496	3842
802.638	3876
802.78	3975
802.923	3968
803.065	3907
803.208	3827
803.35	3873
803.492	3911
803.635	3975
803.777	3846
803.919	3911
804.061	4150
804.204	4048
804.346	3934
804.488	3956
804.63	4044
804.773	3975
804.915	4063
805.057	4162
805.199	4059
805.341	4131
805.483	4143
805.626	4166
805.768	4139
805.91	4268
806.052	4265
806.194	4246
806.336	4348
806.478	4204
806.62	4185
806.762	4192
806.904	4322
807.046	4360
807.188	4265
807.33	4147
807.472	4265
807.614	4204
807.756	4299
807.898	4246
808.04	4227
808.182	4287
808.324	4356
808.465	4398
808.607	4455
808.749	4478
808.891	4485
809.033	4478
809.174	4383
809.316	4295
809.458	4249
809.6	4177
809.741	4154
809.883	4166
810.025	4200
810.166	4257
810.308	4272
810.45	4280
810.591	4276
810.733	4287
810.875	4508
811.016	4828
811.158	5128
811.299	5288
811.441	5311
811.582	5052
811.724	4691
811.865	4489
812.007	4493
812.148	4474
812.29	4417
812.431	4443
812.573	4421
812.714	4402
812.855	4398
812.997	4398
813.138	4497
813.279	4421
813.421	4383
813.562	4375
813.703	4325
813.845	4303
813.986	4234
814.127	4249
814.268	4284
814.41	4329
814.551	4253
814.692	4318
814.833	4318
814.974	4325
815.115	4337
815.256	4257
815.397	4246
815.539	4306
815.68	4150
815.821	4215
815.962	4272
816.103	4287
816.244	4227
816.385	4253
816.526	4276
816.666	4253
816.807	4093
816.948	4162
817.089	4200
817.23	4120
817.371	4078
817.512	4074
817.653	4154
817.793	4036
817.934	4051
818.075	4124
818.216	4120
818.356	4116
818.497	4002
818.638	3937
818.778	3956
818.919	3915
819.06	3884
819.2	3991
819.341	3888
819.481	3846
819.622	3979
819.762	4029
819.903	3987
820.043	3869
820.184	3846
820.324	3861
820.465	3937
820.605	3854
820.746	3838
820.886	3842
821.026	3953
821.167	3956
821.307	4029
821.447	3945
821.588	3953
821.728	3964
821.868	3968
822.008	3907
822.149	3930
822.289	3949
822.429	3861
822.569	3770
822.709	3827
822.849	3766
822.99	3720
823.13	3740
823.27	3797
823.41	3759
823.55	3804
823.69	3774
823.83	3804
823.97	3701
824.11	3622
824.25	3618
824.389	3713
824.529	3682
824.669	3660
824.809	3770
824.949	3774
825.089	3759
825.228	3686
825.368	3542
825.508	3553
825.648	3606
825.787	3641
825.927	3656
826.067	3644
826.206	3694
826.346	3774
826.485	3854
826.625	3892
826.765	3949
826.904	3835
827.044	3610
827.183	3523
827.323	3469
827.462	3488
827.601	3439
827.741	3466
827.88	3473
828.02	3416
828.159	3428
828.298	3500
828.437	3507
828.577	3515
828.716	3591
828.855	3515
828.994	3401
829.134	3367
829.273	3393
829.412	3382
829.551	3370
829.69	3397
829.829	3450
829.968	3595
830.107	3435
830.246	3485
830.385	3412
830.524	3363
830.663	3336
830.802	3264
830.941	3241
831.08	3195
831.219	3294
831.357	3313
831.496	3389
831.635	3253
831.774	3207
831.913	3256
832.051	3142
832.19	3173
832.329	3218
832.467	3142
832.606	3142
832.744	3192
832.883	3207
833.022	3218
833.16	3283
833.299	3302
833.437	3378
833.576	3401
833.714	3454
833.852	3466
833.991	3458
834.129	3469
834.267	3462
834.406	3420
834.544	3447
834.682	3420
834.821	3473
834.959	3587
835.097	3424
835.235	3553
835.373	3492
835.511	3485
835.65	3454
835.788	3477
835.926	3435
836.064	3386
836.202	3443
836.34	3576
836.478	3625
836.615	3572
836.753	3606
836.891	3652
837.029	3675
837.167	3618
837.305	3584
837.443	3568
837.58	3553
837.718	3652
837.856	3584
837.993	3515
838.131	3637
838.269	3587
838.406	3553
838.544	3591
838.681	3473
838.819	3466
838.956	3378
839.094	3435
839.231	3428
839.369	3557
839.506	3755
839.643	3682
839.781	3492
839.918	3428
840.055	3481
840.193	3523
840.33	3549
840.467	3545
840.604	3633
840.742	3785
840.879	3557
841.016	3584
841.153	3610
841.29	3778
841.427	3736
841.564	3732
841.701	3774
841.838	3705
841.975	3663
842.112	3766
842.249	3694
842.385	3690
842.522	3854
842.659	3682
842.796	3686
842.933	3740
843.069	3694
843.206	3709
843.343	3876
843.479	3762
843.616	3854
843.752	3705
843.889	3709
844.025	3911
844.162	3713
844.298	3876
844.435	3800
844.571	3812
844.708	3903
844.844	3975
844.98	4040
845.117	4017
845.253	3937
845.389	3918
845.525	4013
845.661	4002
845.798	3937
845.934	3994
846.07	3968
846.206	4055
846.342	4177
846.478	4128
846.614	4036
846.75	3972
846.886	3930
847.022	4055
847.158	4025
847.294	3953
847.429	4051
847.565	3994
847.701	4257
847.837	3892
847.972	3899
848.108	3998
848.244	3987
848.379	3842
848.515	3838
848.65	3823
848.786	3907
848.921	3903
849.057	3998
849.192	3937
849.328	3956
849.463	3918
849.598	3896
849.734	3869
849.869	3884
850.004	3785
850.14	3857
850.275	3762
850.41	3766
850.545	3759
850.68	3812
850.815	3812
850.95	3800
851.085	3975
851.22	3911
851.355	3831
851.49	3800
851.625	3762
851.76	3808
851.895	3823
852.03	3785
852.165	3854
852.299	3869
852.434	3915
852.569	3926
852.703	3846
852.838	3949
852.973	4029
853.107	3994
853.242	3876
853.376	3865
853.511	3762
853.645	3793
853.78	3987
853.914	3956
854.048	3930
854.183	3899
854.317	3960
854.451	4090
854.585	3975
854.72	3972
854.854	4044
854.988	3964
855.122	4006
855.256	3949
855.39	4067
855.524	4124
855.658	4101
855.792	4105
855.926	4215
856.06	4196
856.194	4249
856.327	4128
856.461	4143
856.595	4207
856.729	4162
856.862	4325
856.996	4299
857.13	4322
857.263	4383
857.397	4394
857.53	4280
857.664	4348
857.797	4367
857.931	4383
858.064	4402
858.197	4474
858.331	4409
858.464	4432
858.597	4348
858.731	4451
858.864	4474
858.997	4466
859.13	4512
859.263	4546
859.396	4637
859.529	4550
859.662	4558
859.795	4565
859.928	4630
860.061	4714
860.194	4759
860.327	4710
860.46	4698
860.592	4774
860.725	4843
860.858	4805
860.99	4710
861.123	4668
861.256	4752
861.388	4790
861.521	5387
861.653	4733
861.786	4736
861.918	4824
862.05	4847
862.183	4873
862.315	4862
862.447	4968
862.58	4953
862.712	4877
862.844	4790
862.976	4850
863.108	4919
863.24	5307
863.372	4828
863.504	4942
863.636	4904
863.768	5033
863.9	5022
864.032	4938
864.164	4980
864.296	5029
864.428	5098
864.559	5086
864.691	5132
864.823	5105
864.954	5102
865.086	5136
865.217	5151
865.349	5075
865.48	5178
865.612	5197
865.743	5334
865.875	5223
866.006	5208
866.137	5307
866.269	5277
866.4	5258
866.531	5265
866.662	5261
866.793	5239
866.924	5258
867.055	5318
867.186	5357
867.317	5330
867.448	5383
867.579	5414
867.71	5345
867.841	5379
867.972	5532
868.103	5482
868.233	5505
868.364	5501
868.495	5581
868.625	5657
868.756	5840
868.886	5657
869.017	5767
869.147	5863
869.278	5870
869.408	5786
869.539	5809
869.669	5927
869.799	5912
869.929	5992
870.06	6019
870.19	6167
870.32	6186
870.45	6251
870.58	6350
870.71	6506
870.84	6437
870.97	6475
871.1	6414
871.23	6700
871.36	6677
871.489	6677
871.619	6745
871.749	6837
871.879	6916
872.008	7027
872.138	7042
872.267	7023
872.397	7031
872.526	7091
872.656	7137
872.785	7240
872.915	7415
873.044	7495
873.173	7597
873.303	7651
873.432	7769
873.561	7902
873.69	7982
873.819	8012
873.948	8187
874.077	8259
874.206	8362
874.335	8461
874.464	8636
874.593	8887
874.722	8918
874.851	9184
874.979	9279
875.108	9340
875.237	9477
875.365	9515
875.494	9694
875.623	9827
875.751	9766
875.88	9991
876.008	10093
876.136	10291
876.265	10558
876.393	10744
876.521	10759
876.65	10797
876.778	10923
876.906	10984
877.034	10968
877.162	11113
877.29	11136
877.418	11383
877.546	11436
877.674	11478
877.802	11524
877.93	11535
878.058	11611
878.185	11554
878.313	11668
878.441	11745
878.568	11676
878.696	11863
878.824	11798
878.951	11939
879.079	12041
879.206	12117
879.333	12072
879.461	11977
879.588	12167
879.715	12163
879.842	12190
879.97	12053
880.097	11843
880.224	11832
880.351	11942
880.478	11847
880.605	11809
880.732	11866
880.859	12095
880.986	11920
881.112	11855
881.239	11737
881.366	11726
881.493	11566
881.619	11497
881.746	11562
881.872	11668
881.999	11512
882.125	11512
882.252	11573
882.378	11566
882.505	11528
882.631	11421
882.757	11349
882.883	11277
883.01	11284
883.136	11201
883.262	11094
883.388	11098
883.514	11223
883.64	11197
883.766	11094
883.892	11075
884.018	11010
884.143	11090
884.269	11083
884.395	10831
884.52	10801
884.646	10850
884.772	10706
884.897	10691
885.023	10675
885.148	10702
885.274	10736
885.399	10660
885.524	10691
885.65	10645
885.775	10550
885.9	10535
886.025	10649
886.15	10580
886.275	10440
886.4	10382
886.525	10436
886.65	10375
886.775	10424
886.9	10470
887.025	10550
887.149	10424
887.274	10363
887.399	10276
887.523	10177
887.648	10162
887.773	10207
887.897	10219
888.021	10246
888.146	10135
888.27	10177
888.395	10242
888.519	10261
888.643	10173
888.767	10318
888.891	10139
889.015	10051
889.139	10135
889.263	9918
889.387	10048
889.511	10105
889.635	10082
889.759	10013
889.883	10017
890.006	9991
890.13	10154
890.254	9953
890.377	9960
890.501	9869
890.624	9888
890.748	9907
890.871	9850
890.995	9770
891.118	9751
891.241	9804
891.364	9781
891.488	9884
891.611	9812
891.734	9701
891.857	9804
891.98	9747
892.103	9728
892.226	9720
892.349	9682
892.471	9492
892.594	9606
892.717	9625
892.839	9622
892.962	9610
893.085	9743
893.207	9561
893.33	9447
893.452	9564
893.575	9603
893.697	9450
893.819	9603
893.941	9641
894.064	9591
894.186	9447
894.308	9500
894.43	9553
894.552	9584
894.674	9530
894.796	9408
894.918	9389
895.04	9374
895.161	9386
895.283	9367
895.405	9237
895.526	9272
895.648	9214
895.769	9192
895.891	9283
896.012	9279
896.134	9180
896.255	9169
896.376	9074
896.498	9165
896.619	9135
896.74	9062
896.861	9211
896.982	9294
897.103	9317
897.224	9176
897.345	9081
897.466	9039
897.587	9081
897.708	9207
897.828	9077
897.949	8994
898.07	8929
898.19	8914
898.311	9047
898.431	8849
898.552	8906
898.672	8918
898.792	9001
898.913	8876
899.033	8804
899.153	8762
899.273	8762
899.393	8788
899.513	8762
899.633	8830
899.753	8735
899.873	8724
899.993	8739
900.113	8693
900.232	8754
900.352	8655
900.472	8667
900.591	8568
900.711	8587
900.83	8499
900.95	8697
901.069	8651
901.189	8590
901.308	8381
901.427	8404
901.546	8476
901.665	8457
901.784	8541
901.904	8423
902.023	8381
902.141	8309
902.26	8221
902.379	8237
902.498	8233
902.617	8263
902.735	8362
902.854	8374
902.973	8317
903.091	8210
903.21	8176
903.328	8214
903.446	8054
903.565	8096
903.683	8088
903.801	8039
903.919	8084
904.038	8161
904.156	8065
904.274	8084
904.392	8092
904.51	8046
904.627	8077
904.745	8100
904.863	8084
904.981	7989
905.098	7871
905.216	7928
905.334	7917
905.451	7894
905.569	7932
905.686	7906
905.803	7989
905.921	7784
906.038	7913
906.155	7807
906.272	7715
906.389	7681
906.506	7685
906.623	7628
906.74	7643
906.857	7590
906.974	7521
907.091	7689
907.208	7670
907.324	7639
907.441	7628
907.557	7411
907.674	7460
907.79	7434
907.907	7449
908.023	7422
908.139	7460
908.256	7343
908.372	7365
908.488	7392
908.604	7266
908.72	7206
908.836	7320
908.952	7289
909.068	7293
909.184	7407
909.3	7232
909.415	7312
909.531	7324
909.647	7129
909.762	7129
909.878	7046
909.993	7137
910.108	7129
910.224	7168
910.339	7122
910.454	7061
910.57	7057
910.685	6951
910.8	7175
910.915	7133
911.03	7038
911.145	6905
911.259	6844
911.374	6962
911.489	6897
911.604	6844
911.718	6776
911.833	6734
911.947	6684
912.062	6646
912.176	6681
912.291	6700
912.405	6700
912.519	6890
912.633	6833
912.748	6787
912.862	6726
912.976	6642
913.09	6517
913.204	6570
913.318	6604
913.431	6681
913.545	6646
913.659	6703
913.772	6764
913.886	6589
914	6623
914.113	6631
914.226	6688
914.34	6597
914.453	6498
914.566	6669
914.68	6517
914.793	6555
914.906	6437
915.019	6391
915.132	6388
915.245	6429
915.358	6486
915.47	6464
915.583	6483
915.696	6429
915.809	6532
915.921	6582
916.034	6445
916.146	6376
916.259	6369
916.371	6452
916.483	6486
916.595	6380
916.708	6437
916.82	6380
916.932	6380
917.044	6403
917.156	6350
917.268	6376
917.38	6292
917.491	6353
917.603	6418
917.715	6410
917.826	6407
917.938	6327
918.049	6323
918.161	6296
918.272	6433
918.384	6433
918.495	6342
918.606	6277
918.717	6197
918.828	6300
918.939	6262
919.05	6243
919.161	6254
919.272	6133
919.383	6228
919.494	6281
919.604	6456
919.715	6292
919.826	6251
919.936	6289
920.047	6357
920.157	6315
920.267	6479
920.378	6369
920.488	6353
920.598	6471
920.708	6585
920.818	6471
920.928	6486
921.038	6627
921.148	6631
921.258	6407
921.368	6270
921.477	6254
921.587	6167
921.697	6140
921.806	6186
921.916	6087
922.025	5946
922.134	5988
922.244	5847
922.353	5927
922.462	5885
922.571	5809
922.68	5688
922.789	5691
922.898	5775
923.007	5638
923.116	5752
923.224	5699
923.333	5665
923.442	5585
923.55	5611
923.659	5600
923.767	5657
923.876	5520
923.984	5615
924.092	5524
924.201	5581
924.309	5532
924.417	5581
924.525	5543
924.633	5516
924.741	6266
924.849	5383
924.956	5512
925.064	5345
925.172	5292
925.279	5315
925.387	5337
925.494	5330
925.602	5425
925.709	5372
925.816	5288
925.924	5360
926.031	5421
926.138	5372
926.245	5353
926.352	5197
926.459	5372
926.566	5330
926.673	5220
926.779	5193
926.886	5132
926.993	5052
927.099	4961
927.206	4984
927.312	4946
927.419	5048
927.525	4976
927.631	4980
927.737	4911
927.843	4911
927.95	4729
928.056	4824
928.162	4847
928.267	4885
928.373	5398
928.479	4831
928.585	4755
928.69	4797
928.796	4801
928.901	4698
929.007	4622
929.112	4660
929.218	4645
929.323	4618
929.428	4561
929.533	4664
929.638	4538
929.743	4607
929.848	4645
929.953	4504
930.058	4455
930.163	4371
930.267	4344
930.372	4451
930.477	4363
930.581	4489
930.685	4337
930.79	4333
930.894	4314
930.998	4291
931.103	4405
931.207	4147
931.311	4082
931.415	4055
931.519	3953
931.623	3953
