Data from glass_V78500241_451.txt Node
Date: Wed Sep 01 19:17:37 CST 2021
User: usil
Spectrometer: V785-0024
Trigger mode: 0
Integration Time (sec): 4.000000E-1
Scans to average: 1
Nonlinearity correction enabled: false
Boxcar width: 0
Storing dark spectrum: false
XAxis mode: Wavelengths
Number of Pixels in Spectrum: 1024
>>>>>Begin Spectral Data<<<<<
801.071	3682
801.214	3781
801.356	3724
801.499	3755
801.641	3732
801.783	3785
801.926	3888
802.068	3804
802.211	3876
802.353	3903
802.496	3892
802.638	3857
802.78	3941
802.923	3994
803.065	3896
803.208	3903
803.35	3899
803.492	3888
803.635	3953
803.777	3842
803.919	3888
804.061	4150
804.204	3953
804.346	3960
804.488	3956
804.63	4093
804.773	3979
804.915	4036
805.057	4154
805.199	4036
805.341	4086
805.483	4147
805.626	4112
805.768	4128
805.91	4207
806.052	4238
806.194	4238
806.336	4367
806.478	4219
806.62	4238
806.762	4200
806.904	4249
807.046	4356
807.188	4169
807.33	4166
807.472	4227
807.614	4211
807.756	4268
807.898	4234
808.04	4223
808.182	4253
808.324	4329
808.465	4379
808.607	4424
808.749	4459
808.891	4493
809.033	4478
809.174	4405
809.316	4215
809.458	4261
809.6	4185
809.741	4147
809.883	4200
810.025	4230
810.166	4238
810.308	4207
810.45	4207
810.591	4219
810.733	4291
810.875	4508
811.016	4835
811.158	5204
811.299	5258
811.441	5292
811.582	5071
811.724	4759
811.865	4466
812.007	4500
812.148	4398
812.29	4424
812.431	4405
812.573	4383
812.714	4390
812.855	4440
812.997	4478
813.138	4478
813.279	4398
813.421	4417
813.562	4386
813.703	4325
813.845	4337
813.986	4284
814.127	4238
814.268	4272
814.41	4303
814.551	4276
814.692	4348
814.833	4295
814.974	4299
815.115	4333
815.256	4299
815.397	4253
815.539	4249
815.68	4242
815.821	4246
815.962	4341
816.103	4265
816.244	4272
816.385	4284
816.526	4314
816.666	4219
816.807	4124
816.948	4169
817.089	4185
817.23	4116
817.371	4063
817.512	4002
817.653	4048
817.793	4040
817.934	4051
818.075	4124
818.216	4112
818.356	4082
818.497	4010
818.638	3949
818.778	3956
818.919	3922
819.06	3892
819.2	3941
819.341	3888
819.481	3850
819.622	3896
819.762	4055
819.903	3983
820.043	3865
820.184	3846
820.324	3823
820.465	3888
820.605	3888
820.746	3915
820.886	3797
821.026	3964
821.167	3960
821.307	3998
821.447	3979
821.588	3964
821.728	3934
821.868	3964
822.008	3857
822.149	3892
822.289	3880
822.429	3819
822.569	3816
822.709	3789
822.849	3743
822.99	3709
823.13	3785
823.27	3804
823.41	3747
823.55	3778
823.69	3732
823.83	3717
823.97	3671
824.11	3686
824.25	3587
824.389	3694
824.529	3698
824.669	3637
824.809	3717
824.949	3778
825.089	3755
825.228	3755
825.368	3610
825.508	3549
825.648	3587
825.787	3656
825.927	3603
826.067	3660
826.206	3694
826.346	3774
826.485	3857
826.625	3899
826.765	3941
826.904	3857
827.044	3610
827.183	3511
827.323	3435
827.462	3454
827.601	3431
827.741	3477
827.88	3485
828.02	3405
828.159	3447
828.298	3504
828.437	3519
828.577	3488
828.716	3618
828.855	3523
828.994	3397
829.134	3386
829.273	3447
829.412	3336
829.551	3348
829.69	3412
829.829	3428
829.968	3473
830.107	3477
830.246	3454
830.385	3431
830.524	3393
830.663	3340
830.802	3253
830.941	3180
831.08	3176
831.219	3283
831.357	3249
831.496	3378
831.635	3237
831.774	3207
831.913	3199
832.051	3146
832.19	3157
832.329	3203
832.467	3188
832.606	3104
832.744	3165
832.883	3165
833.022	3195
833.16	3283
833.299	3313
833.437	3340
833.576	3397
833.714	3420
833.852	3424
833.991	3458
834.129	3481
834.267	3454
834.406	3374
834.544	3450
834.682	3412
834.821	3397
834.959	3561
835.097	3435
835.235	3564
835.373	3477
835.511	3557
835.65	3504
835.788	3504
835.926	3382
836.064	3363
836.202	3405
836.34	3572
836.478	3633
836.615	3523
836.753	3618
836.891	3629
837.029	3633
837.167	3576
837.305	3549
837.443	3526
837.58	3511
837.718	3603
837.856	3614
837.993	3545
838.131	3580
838.269	3584
838.406	3595
838.544	3576
838.681	3477
838.819	3462
838.956	3359
839.094	3401
839.231	3443
839.369	3530
839.506	3770
839.643	3637
839.781	3538
839.918	3507
840.055	3542
840.193	3545
840.33	3519
840.467	3606
840.604	3603
840.742	3850
840.879	3564
841.016	3606
841.153	3656
841.29	3747
841.427	3751
841.564	3747
841.701	3797
841.838	3732
841.975	3694
842.112	3740
842.249	3663
842.385	3648
842.522	3854
842.659	3732
842.796	3698
842.933	3755
843.069	3732
843.206	3736
843.343	3774
843.479	3781
843.616	3846
843.752	3694
843.889	3694
844.025	3873
844.162	3774
844.298	3873
844.435	3823
844.571	3755
844.708	3907
844.844	4048
844.98	4010
845.117	4036
845.253	3953
845.389	3857
845.525	3960
845.661	4021
845.798	3926
845.934	4013
846.07	3975
846.206	4074
846.342	4173
846.478	4090
846.614	4013
846.75	3964
846.886	3956
847.022	3975
847.158	3987
847.294	4051
847.429	4063
847.565	3991
847.701	4291
847.837	3911
847.972	3861
848.108	3983
848.244	3983
848.379	3838
848.515	3808
848.65	3827
848.786	3857
848.921	3854
849.057	3956
849.192	3956
849.328	3956
849.463	3896
849.598	3911
849.734	3922
849.869	3850
850.004	3797
850.14	3812
850.275	3793
850.41	3766
850.545	3740
850.68	3740
850.815	3816
850.95	3816
851.085	3953
851.22	3861
851.355	3827
851.49	3755
851.625	3808
851.76	3816
851.895	3717
852.03	3766
852.165	3812
852.299	3823
852.434	3930
852.569	3873
852.703	3880
852.838	3945
852.973	3991
853.107	4013
853.242	3873
853.376	3854
853.511	3793
853.645	3846
853.78	4010
853.914	3941
854.048	3922
854.183	3873
854.317	3949
854.451	4074
854.585	3918
854.72	3972
854.854	4036
854.988	3937
855.122	3968
855.256	3922
855.39	4040
855.524	4169
855.658	4131
855.792	4109
855.926	4185
856.06	4192
856.194	4227
856.327	4196
856.461	4120
856.595	4150
856.729	4185
856.862	4314
856.996	4257
857.13	4329
857.263	4352
857.397	4383
857.53	4337
857.664	4394
857.797	4386
857.931	4413
858.064	4417
858.197	4436
858.331	4421
858.464	4379
858.597	4367
858.731	4436
858.864	4516
858.997	4481
859.13	4516
859.263	4565
859.396	4618
859.529	4577
859.662	4542
859.795	4565
859.928	4634
860.061	4755
860.194	4771
860.327	4706
860.46	4622
860.592	4698
860.725	4733
860.858	4831
860.99	4721
861.123	4664
861.256	4729
861.388	4740
861.521	5410
861.653	4729
861.786	4710
861.918	4691
862.05	4801
862.183	4870
862.315	4934
862.447	4942
862.58	4911
862.712	4763
862.844	4824
862.976	4854
863.108	4942
863.24	5151
863.372	4873
863.504	4896
863.636	4870
863.768	4999
863.9	4957
864.032	4949
864.164	4942
864.296	4987
864.428	5113
864.559	5121
864.691	5117
864.823	5147
864.954	5132
865.086	5166
865.217	5128
865.349	5132
865.48	5208
865.612	5242
865.743	5261
865.875	5220
866.006	5159
866.137	5227
866.269	5208
866.4	5277
866.531	5269
866.662	5231
866.793	5288
866.924	5288
867.055	5395
867.186	5353
867.317	5341
867.448	5265
867.579	5349
867.71	5376
867.841	5440
867.972	5429
868.103	5459
868.233	5455
868.364	5516
868.495	5497
868.625	5619
868.756	5733
868.886	5691
869.017	5714
869.147	5882
869.278	5851
869.408	5847
869.539	5897
869.669	5912
869.799	5912
869.929	6026
870.06	6045
870.19	6171
870.32	6152
870.45	6292
870.58	6384
870.71	6437
870.84	6464
870.97	6452
871.1	6429
871.23	6623
871.36	6715
871.489	6654
871.619	6764
871.749	6818
871.879	6913
872.008	7008
872.138	6970
872.267	7015
872.397	7004
872.526	7008
872.656	7129
872.785	7171
872.915	7373
873.044	7533
873.173	7571
873.303	7594
873.432	7708
873.561	7909
873.69	7959
873.819	8012
873.948	8202
874.077	8191
874.206	8301
874.335	8457
874.464	8651
874.593	8952
874.722	8902
874.851	9108
874.979	9180
875.108	9431
875.237	9458
875.365	9439
875.494	9705
875.623	9880
875.751	9759
875.88	9975
876.008	10135
876.136	10341
876.265	10481
876.393	10733
876.521	10812
876.65	10809
876.778	10854
876.906	10877
877.034	11071
877.162	11117
877.29	11136
877.418	11311
877.546	11337
877.674	11459
877.802	11471
877.93	11532
878.058	11547
878.185	11615
878.313	11646
878.441	11771
878.568	11703
878.696	11836
878.824	11855
878.951	11969
879.079	12015
879.206	12068
879.333	12110
879.461	12022
879.588	12057
879.715	12011
879.842	12171
879.97	12133
880.097	11874
880.224	11794
880.351	11847
880.478	11882
880.605	11798
880.732	11756
880.859	11996
880.986	11824
881.112	11798
881.239	11680
881.366	11649
881.493	11688
881.619	11528
881.746	11570
881.872	11589
881.999	11490
882.125	11509
882.252	11520
882.378	11493
882.505	11512
882.631	11353
882.757	11231
882.883	11299
883.01	11303
883.136	11246
883.262	11105
883.388	11132
883.514	11181
883.64	11140
883.766	11079
883.892	10976
884.018	10961
884.143	11067
884.269	11121
884.395	10862
884.52	10733
884.646	10782
884.772	10687
884.897	10645
885.023	10679
885.148	10790
885.274	10725
885.399	10717
885.524	10580
885.65	10596
885.775	10607
885.9	10542
886.025	10626
886.15	10558
886.275	10535
886.4	10402
886.525	10375
886.65	10344
886.775	10360
886.9	10489
887.025	10531
887.149	10352
887.274	10249
887.399	10128
887.523	10131
887.648	10143
887.773	10128
887.897	10276
888.021	10246
888.146	10074
888.27	10219
888.395	10246
888.519	10188
888.643	10211
888.767	10234
888.891	10090
889.015	10013
889.139	10044
889.263	10082
889.387	10029
889.511	10158
889.635	10090
889.759	9934
889.883	9991
890.006	9975
890.13	10124
890.254	9972
890.377	9926
890.501	9816
890.624	9888
890.748	9953
890.871	9823
890.995	9755
891.118	9728
891.241	9770
891.364	9774
891.488	9842
891.611	9759
891.734	9736
891.857	9808
891.98	9755
892.103	9827
892.226	9701
892.349	9652
892.471	9576
892.594	9576
892.717	9587
892.839	9671
892.962	9587
893.085	9675
893.207	9523
893.33	9538
893.452	9519
893.575	9633
893.697	9530
893.819	9584
893.941	9660
894.064	9553
894.186	9485
894.308	9332
894.43	9553
894.552	9530
894.674	9462
894.796	9363
894.918	9405
895.04	9405
895.161	9332
895.283	9287
895.405	9241
895.526	9264
895.648	9256
895.769	9245
895.891	9249
896.012	9275
896.134	9150
896.255	9214
896.376	9116
896.498	9119
896.619	9131
896.74	9104
896.861	9093
896.982	9249
897.103	9340
897.224	9207
897.345	9112
897.466	8929
897.587	9001
897.708	9093
897.828	9039
897.949	8982
898.07	8876
898.19	9005
898.311	9036
898.431	8845
898.552	8929
898.672	9020
898.792	8902
898.913	8899
899.033	8762
899.153	8781
899.273	8716
899.393	8678
899.513	8758
899.633	8727
899.753	8766
899.873	8674
899.993	8781
900.113	8754
900.232	8773
900.352	8610
900.472	8598
900.591	8667
900.711	8598
900.83	8617
900.95	8625
901.069	8689
901.189	8552
901.308	8461
901.427	8415
901.546	8404
901.665	8412
901.784	8514
901.904	8396
902.023	8358
902.141	8191
902.26	8252
902.379	8282
902.498	8218
902.617	8259
902.735	8324
902.854	8237
902.973	8244
903.091	8103
903.21	8191
903.328	8210
903.446	8103
903.565	8081
903.683	8065
903.801	8012
903.919	8107
904.038	8100
904.156	8062
904.274	8111
904.392	7997
904.51	8100
904.627	8046
904.745	8062
904.863	8126
904.981	7959
905.098	7871
905.216	7951
905.334	7917
905.451	7894
905.569	7875
905.686	7951
905.803	7928
905.921	7814
906.038	7864
906.155	7772
906.272	7685
906.389	7769
906.506	7666
906.623	7613
906.74	7658
906.857	7571
906.974	7537
907.091	7616
907.208	7765
907.324	7632
907.441	7582
907.557	7476
907.674	7453
907.79	7369
907.907	7453
908.023	7510
908.139	7453
908.256	7407
908.372	7365
908.488	7350
908.604	7244
908.72	7202
908.836	7320
908.952	7301
909.068	7297
909.184	7316
909.3	7282
909.415	7327
909.531	7217
909.647	7137
909.762	7099
909.878	7141
909.993	7126
910.108	7061
910.224	7099
910.339	7164
910.454	7000
910.57	6977
910.685	6981
910.8	7179
910.915	7057
911.03	7019
911.145	6962
911.259	6901
911.374	6932
911.489	6875
911.604	6886
911.718	6734
911.833	6722
911.947	6673
912.062	6601
912.176	6738
912.291	6791
912.405	6688
912.519	6821
912.633	6859
912.748	6722
912.862	6726
912.976	6688
913.09	6498
913.204	6654
913.318	6650
913.431	6673
913.545	6677
913.659	6677
913.772	6688
913.886	6544
914	6559
914.113	6612
914.226	6684
914.34	6597
914.453	6460
914.566	6620
914.68	6521
914.793	6483
914.906	6471
915.019	6509
915.132	6342
915.245	6460
915.358	6433
915.47	6441
915.583	6528
915.696	6509
915.809	6525
915.921	6570
916.034	6441
916.146	6433
916.259	6448
916.371	6464
916.483	6456
916.595	6467
916.708	6426
916.82	6384
916.932	6342
917.044	6441
917.156	6369
917.268	6338
917.38	6304
917.491	6361
917.603	6342
917.715	6403
917.826	6483
917.938	6357
918.049	6273
918.161	6308
918.272	6429
918.384	6460
918.495	6407
918.606	6338
918.717	6197
918.828	6281
918.939	6315
919.05	6213
919.161	6247
919.272	6144
919.383	6144
919.494	6376
919.604	6429
919.715	6232
919.826	6201
919.936	6254
920.047	6342
920.157	6262
920.267	6422
920.378	6350
920.488	6331
920.598	6483
920.708	6601
920.818	6483
920.928	6471
921.038	6623
921.148	6585
921.258	6418
921.368	6281
921.477	6209
921.587	6213
921.697	6057
921.806	6175
921.916	6045
922.025	5961
922.134	5965
922.244	5878
922.353	5950
922.462	5874
922.571	5828
922.68	5695
922.789	5688
922.898	5760
923.007	5688
923.116	5676
923.224	5699
923.333	5722
923.442	5646
923.55	5558
923.659	5630
923.767	5649
923.876	5547
923.984	5634
924.092	5509
924.201	5535
924.309	5524
924.417	5562
924.525	5505
924.633	5482
924.741	6311
924.849	5360
924.956	5482
925.064	5349
925.172	5303
925.279	5322
925.387	5341
925.494	5326
925.602	5440
925.709	5402
925.816	5280
925.924	5349
926.031	5387
926.138	5288
926.245	5337
926.352	5273
926.459	5273
926.566	5292
926.673	5231
926.779	5124
926.886	5143
926.993	5060
927.099	5041
927.206	4984
927.312	5010
927.419	5025
927.525	4991
927.631	4965
927.737	4934
927.843	4847
927.95	4816
928.056	4885
928.162	4786
928.267	4904
928.373	5307
928.479	4892
928.585	4736
928.69	4801
928.796	4771
928.901	4702
929.007	4618
929.112	4653
929.218	4660
929.323	4626
929.428	4561
929.533	4714
929.638	4519
929.743	4519
929.848	4599
929.953	4527
930.058	4443
930.163	4341
930.267	4402
930.372	4417
930.477	4265
930.581	4451
930.685	4390
930.79	4303
930.894	4329
930.998	4234
931.103	4379
931.207	4139
931.311	4082
931.415	4059
931.519	3899
931.623	3964
