Data from glass_V78500241_1535.txt Node
Date: Wed Sep 01 19:25:08 CST 2021
User: usil
Spectrometer: V785-0024
Trigger mode: 0
Integration Time (sec): 4.000000E-1
Scans to average: 1
Nonlinearity correction enabled: false
Boxcar width: 0
Storing dark spectrum: false
XAxis mode: Wavelengths
Number of Pixels in Spectrum: 1024
>>>>>Begin Spectral Data<<<<<
801.071	3740
801.214	3774
801.356	3720
801.499	3717
801.641	3755
801.783	3766
801.926	3816
802.068	3842
802.211	3838
802.353	3854
802.496	3838
802.638	3835
802.78	3922
802.923	3915
803.065	3918
803.208	3846
803.35	3884
803.492	3899
803.635	3911
803.777	3823
803.919	3896
804.061	4147
804.204	3964
804.346	3949
804.488	3907
804.63	4082
804.773	4002
804.915	4055
805.057	4166
805.199	4021
805.341	4112
805.483	4147
805.626	4143
805.768	4067
805.91	4223
806.052	4253
806.194	4181
806.336	4383
806.478	4196
806.62	4196
806.762	4192
806.904	4242
807.046	4367
807.188	4188
807.33	4177
807.472	4261
807.614	4200
807.756	4272
807.898	4246
808.04	4207
808.182	4287
808.324	4310
808.465	4386
808.607	4481
808.749	4443
808.891	4481
809.033	4527
809.174	4413
809.316	4276
809.458	4227
809.6	4131
809.741	4116
809.883	4143
810.025	4230
810.166	4204
810.308	4238
810.45	4265
810.591	4204
810.733	4276
810.875	4512
811.016	4843
811.158	5132
811.299	5235
811.441	5254
811.582	5052
811.724	4748
811.865	4489
812.007	4504
812.148	4405
812.29	4405
812.431	4409
812.573	4379
812.714	4375
812.855	4436
812.997	4405
813.138	4493
813.279	4409
813.421	4409
813.562	4367
813.703	4318
813.845	4314
813.986	4261
814.127	4238
814.268	4253
814.41	4268
814.551	4322
814.692	4329
814.833	4299
814.974	4287
815.115	4352
815.256	4204
815.397	4211
815.539	4238
815.68	4131
815.821	4223
815.962	4325
816.103	4325
816.244	4230
816.385	4230
816.526	4337
816.666	4234
816.807	4059
816.948	4162
817.089	4219
817.23	4128
817.371	4044
817.512	4017
817.653	4090
817.793	4017
817.934	4040
818.075	4097
818.216	4048
818.356	4124
818.497	3968
818.638	3937
818.778	3888
818.919	3876
819.06	3857
819.2	3907
819.341	3861
819.481	3835
819.622	3903
819.762	3968
819.903	3941
820.043	3861
820.184	3835
820.324	3835
820.465	3918
820.605	3884
820.746	3880
820.886	3785
821.026	3983
821.167	3926
821.307	3934
821.447	3983
821.588	3911
821.728	3964
821.868	3918
822.008	3869
822.149	3918
822.289	3873
822.429	3778
822.569	3766
822.709	3819
822.849	3690
822.99	3717
823.13	3789
823.27	3781
823.41	3728
823.55	3751
823.69	3709
823.83	3728
823.97	3671
824.11	3599
824.25	3610
824.389	3644
824.529	3660
824.669	3644
824.809	3705
824.949	3728
825.089	3701
825.228	3694
825.368	3568
825.508	3549
825.648	3545
825.787	3599
825.927	3637
826.067	3660
826.206	3701
826.346	3804
826.485	3850
826.625	3854
826.765	3968
826.904	3808
827.044	3622
827.183	3568
827.323	3420
827.462	3534
827.601	3447
827.741	3412
827.88	3462
828.02	3393
828.159	3435
828.298	3545
828.437	3530
828.577	3454
828.716	3633
828.855	3500
828.994	3409
829.134	3386
829.273	3370
829.412	3351
829.551	3332
829.69	3389
829.829	3447
829.968	3526
830.107	3435
830.246	3454
830.385	3382
830.524	3370
830.663	3260
830.802	3268
830.941	3173
831.08	3203
831.219	3260
831.357	3272
831.496	3386
831.635	3230
831.774	3173
831.913	3188
832.051	3154
832.19	3123
832.329	3218
832.467	3116
832.606	3100
832.744	3142
832.883	3184
833.022	3207
833.16	3249
833.299	3306
833.437	3344
833.576	3378
833.714	3355
833.852	3435
833.991	3424
834.129	3439
834.267	3447
834.406	3416
834.544	3420
834.682	3405
834.821	3431
834.959	3595
835.097	3416
835.235	3538
835.373	3481
835.511	3553
835.65	3492
835.788	3466
835.926	3397
836.064	3359
836.202	3405
836.34	3576
836.478	3553
836.615	3542
836.753	3580
836.891	3633
837.029	3637
837.167	3584
837.305	3549
837.443	3591
837.58	3496
837.718	3587
837.856	3603
837.993	3530
838.131	3629
838.269	3561
838.406	3564
838.544	3564
838.681	3515
838.819	3428
838.956	3348
839.094	3351
839.231	3450
839.369	3469
839.506	3690
839.643	3625
839.781	3507
839.918	3488
840.055	3534
840.193	3564
840.33	3568
840.467	3557
840.604	3610
840.742	3816
840.879	3568
841.016	3549
841.153	3580
841.29	3732
841.427	3747
841.564	3717
841.701	3724
841.838	3732
841.975	3694
842.112	3694
842.249	3656
842.385	3641
842.522	3816
842.659	3717
842.796	3679
842.933	3717
843.069	3740
843.206	3736
843.343	3835
843.479	3808
843.616	3850
843.752	3705
843.889	3701
844.025	3857
844.162	3732
844.298	3865
844.435	3793
844.571	3850
844.708	3975
844.844	4010
844.98	4029
845.117	4025
845.253	3964
845.389	3896
845.525	3937
845.661	4002
845.798	3907
845.934	4025
846.07	3945
846.206	4036
846.342	4131
846.478	4078
846.614	3987
846.75	3956
846.886	3911
847.022	4048
847.158	3960
847.294	4002
847.429	4010
847.565	3991
847.701	4257
847.837	3880
847.972	3861
848.108	4010
848.244	3945
848.379	3827
848.515	3800
848.65	3819
848.786	3865
848.921	3857
849.057	3911
849.192	3937
849.328	3926
849.463	3892
849.598	3823
849.734	3861
849.869	3857
850.004	3797
850.14	3793
850.275	3766
850.41	3724
850.545	3709
850.68	3740
850.815	3808
850.95	3838
851.085	3922
851.22	3892
851.355	3808
851.49	3797
851.625	3793
851.76	3793
851.895	3732
852.03	3701
852.165	3827
852.299	3865
852.434	3896
852.569	3819
852.703	3880
852.838	3960
852.973	4002
853.107	3983
853.242	3903
853.376	3884
853.511	3823
853.645	3865
853.78	3960
853.914	3884
854.048	3873
854.183	3884
854.317	3979
854.451	4074
854.585	3960
854.72	3945
854.854	4048
854.988	3930
855.122	4013
855.256	3915
855.39	4010
855.524	4143
855.658	4074
855.792	4090
855.926	4090
856.06	4154
856.194	4192
856.327	4143
856.461	4147
856.595	4093
856.729	4200
856.862	4310
856.996	4287
857.13	4306
857.263	4325
857.397	4352
857.53	4280
857.664	4306
857.797	4379
857.931	4363
858.064	4424
858.197	4436
858.331	4451
858.464	4344
858.597	4367
858.731	4379
858.864	4474
858.997	4470
859.13	4512
859.263	4527
859.396	4592
859.529	4516
859.662	4508
859.795	4535
859.928	4599
860.061	4725
860.194	4736
860.327	4698
860.46	4618
860.592	4721
860.725	4721
860.858	4771
860.99	4687
861.123	4664
861.256	4687
861.388	4721
861.521	5516
861.653	4721
861.786	4694
861.918	4725
862.05	4767
862.183	4843
862.315	4843
862.447	4908
862.58	4892
862.712	4805
862.844	4755
862.976	4824
863.108	4881
863.24	5250
863.372	4831
863.504	4911
863.636	4862
863.768	4961
863.9	5010
864.032	4866
864.164	4927
864.296	4991
864.428	5056
864.559	5124
864.691	5094
864.823	5143
864.954	5140
865.086	5121
865.217	5124
865.349	5109
865.48	5132
865.612	5185
865.743	5254
865.875	5197
866.006	5174
866.137	5254
866.269	5261
866.4	5261
866.531	5246
866.662	5242
866.793	5235
866.924	5303
867.055	5353
867.186	5299
867.317	5337
867.448	5307
867.579	5372
867.71	5334
867.841	5387
867.972	5440
868.103	5512
868.233	5429
868.364	5497
868.495	5551
868.625	5657
868.756	5771
868.886	5653
869.017	5737
869.147	5821
869.278	5863
869.408	5832
869.539	5878
869.669	5965
869.799	5942
869.929	6007
870.06	6015
870.19	6144
870.32	6220
870.45	6247
870.58	6331
870.71	6471
870.84	6494
870.97	6365
871.1	6464
871.23	6703
871.36	6684
871.489	6669
871.619	6707
871.749	6806
871.879	6871
872.008	6970
872.138	6970
872.267	7027
872.397	6973
872.526	6981
872.656	7034
872.785	7251
872.915	7388
873.044	7525
873.173	7525
873.303	7651
873.432	7780
873.561	7883
873.69	7921
873.819	7993
873.948	8168
874.077	8218
874.206	8324
874.335	8480
874.464	8670
874.593	8876
874.722	8921
874.851	9097
874.979	9325
875.108	9332
875.237	9412
875.365	9458
875.494	9709
875.623	9800
875.751	9865
875.88	9994
876.008	10169
876.136	10272
876.265	10512
876.393	10603
876.521	10729
876.65	10824
876.778	10820
876.906	10889
877.034	11064
877.162	11094
877.29	11147
877.418	11337
877.546	11414
877.674	11459
877.802	11539
877.93	11539
878.058	11524
878.185	11573
878.313	11653
878.441	11722
878.568	11562
878.696	11809
878.824	11878
878.951	11954
879.079	12106
879.206	12194
879.333	12045
879.461	12015
879.588	12003
879.715	12136
879.842	12258
879.97	11977
880.097	11859
880.224	11855
880.351	11920
880.478	11931
880.605	11813
880.732	11821
880.859	12003
880.986	11756
881.112	11904
881.239	11729
881.366	11672
881.493	11638
881.619	11547
881.746	11566
881.872	11516
881.999	11512
882.125	11547
882.252	11532
882.378	11425
882.505	11566
882.631	11330
882.757	11322
882.883	11337
883.01	11364
883.136	11208
883.262	11102
883.388	11128
883.514	11136
883.64	11159
883.766	11075
883.892	11052
884.018	11006
884.143	11117
884.269	11048
884.395	10900
884.52	10759
884.646	10824
884.772	10778
884.897	10588
885.023	10626
885.148	10725
885.274	10675
885.399	10641
885.524	10634
885.65	10596
885.775	10592
885.9	10504
886.025	10710
886.15	10542
886.275	10428
886.4	10386
886.525	10367
886.65	10352
886.775	10500
886.9	10554
887.025	10489
887.149	10329
887.274	10143
887.399	10299
887.523	10185
887.648	10112
887.773	10120
887.897	10219
888.021	10257
888.146	10109
888.27	10207
888.395	10219
888.519	10207
888.643	10166
888.767	10169
888.891	10051
889.015	9949
889.139	10135
889.263	9964
889.387	10063
889.511	10162
889.635	10067
889.759	9979
889.883	9994
890.006	9975
890.13	10063
890.254	9953
890.377	9941
890.501	9812
890.624	9854
890.748	9926
890.871	9751
890.995	9747
891.118	9762
891.241	9736
891.364	9747
891.488	9907
891.611	9747
891.734	9720
891.857	9804
891.98	9713
892.103	9781
892.226	9679
892.349	9660
892.471	9542
892.594	9599
892.717	9610
892.839	9545
892.962	9682
893.085	9618
893.207	9648
893.33	9507
893.452	9481
893.575	9591
893.697	9511
893.819	9637
893.941	9553
894.064	9591
894.186	9420
894.308	9397
894.43	9530
894.552	9663
894.674	9477
894.796	9378
894.918	9431
895.04	9275
895.161	9386
895.283	9336
895.405	9241
895.526	9245
895.648	9279
895.769	9203
895.891	9245
896.012	9291
896.134	9165
896.255	9195
896.376	9165
896.498	9188
896.619	9188
896.74	9081
896.861	9074
896.982	9291
897.103	9283
897.224	9161
897.345	9108
897.466	8986
897.587	9062
897.708	9127
897.828	9074
897.949	8914
898.07	8872
898.19	8944
898.311	9032
898.431	8902
898.552	8990
898.672	8967
898.792	8998
898.913	8849
899.033	8781
899.153	8769
899.273	8693
899.393	8724
899.513	8792
899.633	8708
899.753	8701
899.873	8716
899.993	8739
900.113	8712
900.232	8731
900.352	8655
900.472	8613
900.591	8488
900.711	8552
900.83	8526
900.95	8655
901.069	8727
901.189	8571
901.308	8473
901.427	8374
901.546	8396
901.665	8495
901.784	8457
901.904	8454
902.023	8381
902.141	8240
902.26	8225
902.379	8256
902.498	8221
902.617	8202
902.735	8339
902.854	8252
902.973	8309
903.091	8100
903.21	8142
903.328	8183
903.446	8103
903.565	8035
903.683	8100
903.801	8039
903.919	8107
904.038	8145
904.156	8062
904.274	8130
904.392	8096
904.51	8035
904.627	8046
904.745	8100
904.863	8111
904.981	7860
905.098	7852
905.216	7902
905.334	7955
905.451	7925
905.569	7864
905.686	7932
905.803	7856
905.921	7765
906.038	7974
906.155	7719
906.272	7685
906.389	7746
906.506	7658
906.623	7689
906.74	7597
906.857	7521
906.974	7506
907.091	7700
907.208	7674
907.324	7601
907.441	7540
907.557	7438
907.674	7464
907.79	7263
907.907	7491
908.023	7445
908.139	7411
908.256	7362
908.372	7362
908.488	7312
908.604	7285
908.72	7263
908.836	7324
908.952	7240
909.068	7236
909.184	7308
909.3	7263
909.415	7236
909.531	7240
909.647	7168
909.762	7091
909.878	7107
909.993	7141
910.108	7072
910.224	7053
910.339	7152
910.454	7057
910.57	7023
910.685	6924
910.8	7103
910.915	7122
911.03	7046
911.145	6905
911.259	6878
911.374	6882
911.489	6833
911.604	6795
911.718	6738
911.833	6692
911.947	6608
912.062	6627
912.176	6722
912.291	6715
912.405	6745
912.519	6894
912.633	6779
912.748	6722
912.862	6692
912.976	6616
913.09	6540
913.204	6601
913.318	6673
913.431	6639
913.545	6642
913.659	6707
913.772	6585
913.886	6517
914	6544
914.113	6631
914.226	6688
914.34	6578
914.453	6544
914.566	6597
914.68	6483
914.793	6494
914.906	6422
915.019	6403
915.132	6357
915.245	6441
915.358	6414
915.47	6479
915.583	6426
915.696	6418
915.809	6540
915.921	6593
916.034	6456
916.146	6380
916.259	6361
916.371	6486
916.483	6479
916.595	6391
916.708	6456
916.82	6334
916.932	6365
917.044	6433
917.156	6407
917.268	6304
917.38	6319
917.491	6273
917.603	6380
917.715	6414
917.826	6418
917.938	6323
918.049	6190
918.161	6361
918.272	6483
918.384	6407
918.495	6296
918.606	6315
918.717	6216
918.828	6311
918.939	6277
919.05	6194
919.161	6232
919.272	6045
919.383	6201
919.494	6304
919.604	6407
919.715	6315
919.826	6228
919.936	6258
920.047	6380
920.157	6243
920.267	6509
920.378	6273
920.488	6266
920.598	6517
920.708	6555
920.818	6490
920.928	6471
921.038	6616
921.148	6612
921.258	6372
921.368	6281
921.477	6239
921.587	6114
921.697	6034
921.806	6167
921.916	6060
922.025	5942
922.134	5901
922.244	5885
922.353	5969
922.462	5863
922.571	5752
922.68	5691
922.789	5680
922.898	5657
923.007	5623
923.116	5684
923.224	5661
923.333	5608
923.442	5623
923.55	5551
923.659	5592
923.767	5611
923.876	5566
923.984	5611
924.092	5433
924.201	5577
924.309	5558
924.417	5585
924.525	5474
924.633	5471
924.741	6175
924.849	5391
924.956	5463
925.064	5360
925.172	5315
925.279	5318
925.387	5322
925.494	5334
925.602	5436
925.709	5398
925.816	5341
925.924	5280
926.031	5349
926.138	5277
926.245	5341
926.352	5242
926.459	5341
926.566	5288
926.673	5201
926.779	5124
926.886	5143
926.993	5033
927.099	5033
927.206	4995
927.312	4927
927.419	5014
927.525	5022
927.631	4980
927.737	4896
927.843	4896
927.95	4786
928.056	4816
928.162	4828
928.267	4923
928.373	5383
928.479	4866
928.585	4736
928.69	4782
928.796	4816
928.901	4687
929.007	4603
929.112	4672
929.218	4630
929.323	4577
929.428	4561
929.533	4668
929.638	4569
929.743	4558
929.848	4592
929.953	4504
930.058	4447
930.163	4371
930.267	4306
930.372	4428
930.477	4329
930.581	4436
930.685	4421
930.79	4249
930.894	4280
930.998	4280
931.103	4383
931.207	4131
931.311	4105
931.415	4071
931.519	3903
931.623	3983
