Data from glass_V78500241_144.txt Node
Date: Wed Sep 01 19:15:29 CST 2021
User: usil
Spectrometer: V785-0024
Trigger mode: 0
Integration Time (sec): 4.000000E-1
Scans to average: 1
Nonlinearity correction enabled: false
Boxcar width: 0
Storing dark spectrum: false
XAxis mode: Wavelengths
Number of Pixels in Spectrum: 1024
>>>>>Begin Spectral Data<<<<<
801.071	3778
801.214	3770
801.356	3789
801.499	3747
801.641	3694
801.783	3785
801.926	3873
802.068	3854
802.211	3869
802.353	3876
802.496	3842
802.638	3896
802.78	3934
802.923	3941
803.065	3888
803.208	3880
803.35	3892
803.492	3880
803.635	3964
803.777	3857
803.919	3880
804.061	4192
804.204	3972
804.346	3953
804.488	3899
804.63	4067
804.773	3987
804.915	4017
805.057	4158
805.199	4071
805.341	4120
805.483	4139
805.626	4112
805.768	4147
805.91	4246
806.052	4238
806.194	4200
806.336	4383
806.478	4246
806.62	4131
806.762	4234
806.904	4249
807.046	4348
807.188	4223
807.33	4196
807.472	4242
807.614	4234
807.756	4299
807.898	4242
808.04	4223
808.182	4329
808.324	4306
808.465	4363
808.607	4470
808.749	4421
808.891	4493
809.033	4527
809.174	4394
809.316	4310
809.458	4207
809.6	4207
809.741	4185
809.883	4200
810.025	4223
810.166	4196
810.308	4192
810.45	4268
810.591	4284
810.733	4291
810.875	4519
811.016	4854
811.158	5143
811.299	5242
811.441	5296
811.582	5079
811.724	4725
811.865	4478
812.007	4565
812.148	4459
812.29	4489
812.431	4417
812.573	4409
812.714	4417
812.855	4386
812.997	4417
813.138	4481
813.279	4455
813.421	4424
813.562	4405
813.703	4329
813.845	4352
813.986	4227
814.127	4261
814.268	4257
814.41	4276
814.551	4268
814.692	4337
814.833	4295
814.974	4276
815.115	4383
815.256	4261
815.397	4234
815.539	4276
815.68	4238
815.821	4246
815.962	4333
816.103	4291
816.244	4230
816.385	4227
816.526	4310
816.666	4265
816.807	4093
816.948	4185
817.089	4181
817.23	4131
817.371	4063
817.512	4055
817.653	4154
817.793	4067
817.934	4048
818.075	4059
818.216	4097
818.356	4109
818.497	4036
818.638	3941
818.778	3949
818.919	3926
819.06	3854
819.2	3911
819.341	3884
819.481	3842
819.622	3915
819.762	4025
819.903	3949
820.043	3865
820.184	3876
820.324	3835
820.465	3888
820.605	3846
820.746	3884
820.886	3793
821.026	3930
821.167	3911
821.307	4071
821.447	3968
821.588	4002
821.728	3983
821.868	3968
822.008	3876
822.149	3960
822.289	3896
822.429	3804
822.569	3819
822.709	3827
822.849	3717
822.99	3720
823.13	3755
823.27	3816
823.41	3713
823.55	3743
823.69	3759
823.83	3736
823.97	3682
824.11	3637
824.25	3561
824.389	3663
824.529	3671
824.669	3633
824.809	3694
824.949	3755
825.089	3743
825.228	3747
825.368	3595
825.508	3553
825.648	3618
825.787	3641
825.927	3633
826.067	3629
826.206	3652
826.346	3816
826.485	3838
826.625	3892
826.765	3983
826.904	3835
827.044	3591
827.183	3557
827.323	3462
827.462	3507
827.601	3458
827.741	3462
827.88	3431
828.02	3386
828.159	3420
828.298	3488
828.437	3568
828.577	3466
828.716	3584
828.855	3530
828.994	3386
829.134	3409
829.273	3389
829.412	3359
829.551	3325
829.69	3420
829.829	3450
829.968	3538
830.107	3466
830.246	3469
830.385	3412
830.524	3401
830.663	3321
830.802	3287
830.941	3180
831.08	3199
831.219	3298
831.357	3294
831.496	3488
831.635	3256
831.774	3154
831.913	3260
832.051	3131
832.19	3184
832.329	3226
832.467	3176
832.606	3135
832.744	3203
832.883	3188
833.022	3211
833.16	3233
833.299	3279
833.437	3332
833.576	3386
833.714	3412
833.852	3420
833.991	3500
834.129	3488
834.267	3458
834.406	3382
834.544	3477
834.682	3458
834.821	3450
834.959	3587
835.097	3477
835.235	3511
835.373	3515
835.511	3549
835.65	3469
835.788	3496
835.926	3397
836.064	3367
836.202	3401
836.34	3587
836.478	3599
836.615	3564
836.753	3595
836.891	3610
837.029	3637
837.167	3618
837.305	3515
837.443	3553
837.58	3534
837.718	3599
837.856	3599
837.993	3591
838.131	3595
838.269	3610
838.406	3580
838.544	3603
838.681	3473
838.819	3424
838.956	3355
839.094	3393
839.231	3450
839.369	3504
839.506	3740
839.643	3656
839.781	3500
839.918	3496
840.055	3526
840.193	3568
840.33	3507
840.467	3584
840.604	3625
840.742	3808
840.879	3591
841.016	3591
841.153	3587
841.29	3755
841.427	3709
841.564	3751
841.701	3732
841.838	3732
841.975	3698
842.112	3770
842.249	3698
842.385	3644
842.522	3819
842.659	3717
842.796	3679
842.933	3747
843.069	3713
843.206	3698
843.343	3838
843.479	3819
843.616	3838
843.752	3701
843.889	3705
844.025	3819
844.162	3743
844.298	3831
844.435	3797
844.571	3778
844.708	3892
844.844	3998
844.98	4051
845.117	4013
845.253	3918
845.389	3926
845.525	3972
845.661	4006
845.798	3945
845.934	4006
846.07	3972
846.206	4082
846.342	4116
846.478	4074
846.614	3994
846.75	3953
846.886	3911
847.022	4086
847.158	3979
847.294	4025
847.429	4032
847.565	3979
847.701	4280
847.837	3941
847.972	3873
848.108	4025
848.244	3975
848.379	3899
848.515	3835
848.65	3850
848.786	3884
848.921	3819
849.057	3956
849.192	3922
849.328	3930
849.463	3930
849.598	3896
849.734	3880
849.869	3880
850.004	3785
850.14	3846
850.275	3835
850.41	3759
850.545	3778
850.68	3800
850.815	3804
850.95	3850
851.085	3964
851.22	3884
851.355	3857
851.49	3827
851.625	3835
851.76	3800
851.895	3789
852.03	3728
852.165	3831
852.299	3888
852.434	3941
852.569	3865
852.703	3937
852.838	3930
852.973	4017
853.107	4036
853.242	3903
853.376	3896
853.511	3770
853.645	3827
853.78	3972
853.914	3903
854.048	3884
854.183	3899
854.317	3960
854.451	4101
854.585	3960
854.72	3934
854.854	4036
854.988	3964
855.122	4002
855.256	3918
855.39	4017
855.524	4143
855.658	4101
855.792	4109
855.926	4143
856.06	4188
856.194	4257
856.327	4192
856.461	4177
856.595	4154
856.729	4223
856.862	4299
856.996	4276
857.13	4367
857.263	4306
857.397	4394
857.53	4322
857.664	4375
857.797	4363
857.931	4421
858.064	4386
858.197	4470
858.331	4440
858.464	4428
858.597	4337
858.731	4440
858.864	4474
858.997	4481
859.13	4527
859.263	4588
859.396	4618
859.529	4538
859.662	4538
859.795	4516
859.928	4558
860.061	4721
860.194	4721
860.327	4672
860.46	4698
860.592	4740
860.725	4763
860.858	4771
860.99	4698
861.123	4710
861.256	4755
861.388	4835
861.521	5516
861.653	4702
861.786	4736
861.918	4755
862.05	4820
862.183	4858
862.315	4896
862.447	4946
862.58	4854
862.712	4820
862.844	4805
862.976	4934
863.108	4881
863.24	5216
863.372	4873
863.504	4881
863.636	4919
863.768	4961
863.9	5029
864.032	4957
864.164	4965
864.296	5052
864.428	5086
864.559	5086
864.691	5121
864.823	5132
864.954	5105
865.086	5220
865.217	5105
865.349	5105
865.48	5197
865.612	5197
865.743	5299
865.875	5204
866.006	5220
866.137	5246
866.269	5235
866.4	5269
866.531	5250
866.662	5261
866.793	5239
866.924	5292
867.055	5364
867.186	5360
867.317	5349
867.448	5334
867.579	5436
867.71	5391
867.841	5372
867.972	5459
868.103	5509
868.233	5551
868.364	5459
868.495	5562
868.625	5676
868.756	5786
868.886	5691
869.017	5718
869.147	5935
869.278	5878
869.408	5809
869.539	5836
869.669	5931
869.799	5984
869.929	5984
870.06	6007
870.19	6159
870.32	6190
870.45	6262
870.58	6380
870.71	6498
870.84	6445
870.97	6418
871.1	6365
871.23	6700
871.36	6703
871.489	6650
871.619	6726
871.749	6840
871.879	6840
872.008	6981
872.138	7004
872.267	7027
872.397	7053
872.526	7000
872.656	7114
872.785	7217
872.915	7422
873.044	7506
873.173	7559
873.303	7624
873.432	7807
873.561	7856
873.69	7841
873.819	8001
873.948	8172
874.077	8298
874.206	8305
874.335	8446
874.464	8693
874.593	8838
874.722	9005
874.851	9161
874.979	9211
875.108	9378
875.237	9401
875.365	9500
875.494	9637
875.623	9930
875.751	9808
875.88	9975
876.008	10128
876.136	10223
876.265	10542
876.393	10717
876.521	10702
876.65	10885
876.778	10911
876.906	10957
877.034	10938
877.162	11113
877.29	11136
877.418	11315
877.546	11379
877.674	11433
877.802	11562
877.93	11562
878.058	11505
878.185	11535
878.313	11668
878.441	11741
878.568	11676
878.696	11828
878.824	11927
878.951	11939
879.079	11897
879.206	12155
879.333	12091
879.461	12015
879.588	12038
879.715	12030
879.842	12232
879.97	12038
880.097	11832
880.224	11912
880.351	11882
880.478	11851
880.605	11870
880.732	11821
880.859	12064
880.986	11771
881.112	11863
881.239	11798
881.366	11615
881.493	11676
881.619	11638
881.746	11551
881.872	11581
881.999	11459
882.125	11436
882.252	11566
882.378	11585
882.505	11539
882.631	11368
882.757	11303
882.883	11212
883.01	11284
883.136	11185
883.262	11136
883.388	11151
883.514	11212
883.64	11170
883.766	11075
883.892	11018
884.018	10961
884.143	11064
884.269	11132
884.395	10805
884.52	10740
884.646	10660
884.772	10694
884.897	10679
885.023	10668
885.148	10634
885.274	10786
885.399	10706
885.524	10675
885.65	10554
885.775	10588
885.9	10519
886.025	10618
886.15	10584
886.275	10451
886.4	10470
886.525	10417
886.65	10356
886.775	10291
886.9	10485
887.025	10531
887.149	10367
887.274	10223
887.399	10219
887.523	10185
887.648	10071
887.773	10090
887.897	10303
888.021	10223
888.146	10192
888.27	10261
888.395	10234
888.519	10257
888.643	10204
888.767	10196
888.891	10147
889.015	10032
889.139	10059
889.263	10006
889.387	10105
889.511	10139
889.635	10101
889.759	10013
889.883	9960
890.006	10006
890.13	10135
890.254	9975
890.377	10029
890.501	9880
890.624	9869
890.748	9884
890.871	9884
890.995	9812
891.118	9766
891.241	9808
891.364	9835
891.488	9884
891.611	9755
891.734	9740
891.857	9781
891.98	9682
892.103	9762
892.226	9755
892.349	9705
892.471	9530
892.594	9606
892.717	9580
892.839	9633
892.962	9622
893.085	9610
893.207	9591
893.33	9504
893.452	9488
893.575	9595
893.697	9473
893.819	9622
893.941	9618
894.064	9603
894.186	9454
894.308	9382
894.43	9515
894.552	9538
894.674	9576
894.796	9511
894.918	9412
895.04	9355
895.161	9412
895.283	9389
895.405	9260
895.526	9325
895.648	9317
895.769	9256
895.891	9351
896.012	9275
896.134	9211
896.255	9116
896.376	9112
896.498	9123
896.619	9176
896.74	9077
896.861	9100
896.982	9245
897.103	9245
897.224	9138
897.345	9085
897.466	9058
897.587	9039
897.708	9131
897.828	9058
897.949	8956
898.07	8880
898.19	8887
898.311	9043
898.431	8944
898.552	8941
898.672	8925
898.792	8963
898.913	8960
899.033	8861
899.153	8750
899.273	8708
899.393	8655
899.513	8796
899.633	8796
899.753	8758
899.873	8731
899.993	8701
900.113	8655
900.232	8674
900.352	8762
900.472	8602
900.591	8617
900.711	8602
900.83	8575
900.95	8644
901.069	8701
901.189	8598
901.308	8461
901.427	8381
901.546	8408
901.665	8492
901.784	8560
901.904	8366
902.023	8400
902.141	8206
902.26	8168
902.379	8233
902.498	8214
902.617	8298
902.735	8347
902.854	8320
902.973	8275
903.091	8153
903.21	8161
903.328	8180
903.446	8119
903.565	8123
903.683	8115
903.801	8058
903.919	8149
904.038	8069
904.156	8001
904.274	8126
904.392	8031
904.51	8069
904.627	8016
904.745	8069
904.863	8168
904.981	7940
905.098	7925
905.216	7868
905.334	7928
905.451	7921
905.569	7921
905.686	7890
905.803	7906
905.921	7788
906.038	7841
906.155	7799
906.272	7620
906.389	7723
906.506	7620
906.623	7620
906.74	7559
906.857	7510
906.974	7628
907.091	7651
907.208	7818
907.324	7647
907.441	7594
907.557	7499
907.674	7407
907.79	7381
907.907	7449
908.023	7464
908.139	7499
908.256	7434
908.372	7400
908.488	7354
908.604	7343
908.72	7255
908.836	7285
908.952	7259
909.068	7255
909.184	7335
909.3	7297
909.415	7301
909.531	7354
909.647	7160
909.762	7168
909.878	7034
909.993	7145
910.108	7126
910.224	7088
910.339	7069
910.454	7065
910.57	7031
910.685	6977
910.8	7160
910.915	7129
911.03	7072
911.145	6920
911.259	6932
911.374	6905
911.489	6875
911.604	6806
911.718	6722
911.833	6818
911.947	6662
912.062	6601
912.176	6677
912.291	6700
912.405	6673
912.519	6829
912.633	6844
912.748	6764
912.862	6745
912.976	6627
913.09	6563
913.204	6547
913.318	6597
913.431	6662
913.545	6688
913.659	6741
913.772	6703
913.886	6597
914	6604
914.113	6658
914.226	6654
914.34	6677
914.453	6460
914.566	6582
914.68	6566
914.793	6513
914.906	6414
915.019	6380
915.132	6350
915.245	6403
915.358	6448
915.47	6517
915.583	6456
915.696	6464
915.809	6547
915.921	6555
916.034	6429
916.146	6494
916.259	6407
916.371	6471
916.483	6475
916.595	6391
916.708	6452
916.82	6441
916.932	6418
917.044	6391
917.156	6429
917.268	6319
917.38	6304
917.491	6391
917.603	6361
917.715	6357
917.826	6502
917.938	6391
918.049	6232
918.161	6327
918.272	6467
918.384	6407
918.495	6365
918.606	6266
918.717	6239
918.828	6334
918.939	6285
919.05	6220
919.161	6285
919.272	6167
919.383	6175
919.494	6327
919.604	6403
919.715	6292
919.826	6213
919.936	6292
920.047	6418
920.157	6258
920.267	6437
920.378	6391
920.488	6281
920.598	6502
920.708	6509
920.818	6456
920.928	6467
921.038	6593
921.148	6574
921.258	6441
921.368	6289
921.477	6205
921.587	6163
921.697	6019
921.806	6235
921.916	6038
922.025	5935
922.134	5980
922.244	5851
922.353	5927
922.462	5885
922.571	5813
922.68	5726
922.789	5722
922.898	5733
923.007	5691
923.116	5703
923.224	5707
923.333	5680
923.442	5627
923.55	5611
923.659	5600
923.767	5623
923.876	5592
923.984	5592
924.092	5532
924.201	5573
924.309	5570
924.417	5558
924.525	5509
924.633	5467
924.741	6129
924.849	5395
924.956	5490
925.064	5360
925.172	5341
925.279	5315
925.387	5421
925.494	5330
925.602	5482
925.709	5368
925.816	5311
925.924	5250
926.031	5436
926.138	5322
926.245	5311
926.352	5227
926.459	5334
926.566	5315
926.673	5216
926.779	5136
926.886	5102
926.993	5048
927.099	5018
927.206	5010
927.312	4999
927.419	5060
927.525	4976
927.631	5052
927.737	4877
927.843	4900
927.95	4763
928.056	4805
928.162	4843
928.267	4850
928.373	5395
928.479	4820
928.585	4702
928.69	4797
928.796	4729
928.901	4714
929.007	4618
929.112	4702
929.218	4687
929.323	4664
929.428	4607
929.533	4759
929.638	4554
929.743	4554
929.848	4558
929.953	4504
930.058	4402
930.163	4341
930.267	4306
930.372	4481
930.477	4325
930.581	4508
930.685	4314
930.79	4276
930.894	4341
930.998	4280
931.103	4386
931.207	4147
931.311	4051
931.415	4051
931.519	3922
931.623	3987
