Data from glass_V78500241_1965.txt Node
Date: Wed Sep 01 19:28:07 CST 2021
User: usil
Spectrometer: V785-0024
Trigger mode: 0
Integration Time (sec): 4.000000E-1
Scans to average: 1
Nonlinearity correction enabled: false
Boxcar width: 0
Storing dark spectrum: false
XAxis mode: Wavelengths
Number of Pixels in Spectrum: 1024
>>>>>Begin Spectral Data<<<<<
801.071	3705
801.214	3800
801.356	3701
801.499	3751
801.641	3709
801.783	3759
801.926	3861
802.068	3831
802.211	3903
802.353	3876
802.496	3846
802.638	3869
802.78	3903
802.923	3953
803.065	3907
803.208	3797
803.35	3876
803.492	3934
803.635	3911
803.777	3793
803.919	3880
804.061	4143
804.204	3956
804.346	3956
804.488	3922
804.63	4032
804.773	4017
804.915	4006
805.057	4181
805.199	4090
805.341	4055
805.483	4131
805.626	4090
805.768	4154
805.91	4185
806.052	4223
806.194	4173
806.336	4367
806.478	4196
806.62	4143
806.762	4181
806.904	4261
807.046	4310
807.188	4223
807.33	4185
807.472	4238
807.614	4188
807.756	4306
807.898	4215
808.04	4223
808.182	4306
808.324	4310
808.465	4394
808.607	4451
808.749	4440
808.891	4459
809.033	4451
809.174	4481
809.316	4287
809.458	4242
809.6	4169
809.741	4143
809.883	4109
810.025	4166
810.166	4185
810.308	4234
810.45	4253
810.591	4211
810.733	4257
810.875	4470
811.016	4839
811.158	5170
811.299	5261
811.441	5315
811.582	5037
811.724	4710
811.865	4455
812.007	4462
812.148	4413
812.29	4459
812.431	4428
812.573	4363
812.714	4348
812.855	4432
812.997	4443
813.138	4481
813.279	4405
813.421	4375
813.562	4394
813.703	4352
813.845	4303
813.986	4276
814.127	4223
814.268	4272
814.41	4265
814.551	4253
814.692	4314
814.833	4310
814.974	4242
815.115	4356
815.256	4242
815.397	4253
815.539	4280
815.68	4177
815.821	4207
815.962	4295
816.103	4249
816.244	4219
816.385	4238
816.526	4303
816.666	4204
816.807	4124
816.948	4207
817.089	4101
817.23	4131
817.371	4029
817.512	4090
817.653	4067
817.793	4006
817.934	4040
818.075	4101
818.216	4093
818.356	4093
818.497	3953
818.638	3873
818.778	3915
818.919	3880
819.06	3846
819.2	3972
819.341	3884
819.481	3816
819.622	3918
819.762	4021
819.903	3930
820.043	3812
820.184	3838
820.324	3793
820.465	3846
820.605	3873
820.746	3892
820.886	3823
821.026	3975
821.167	3937
821.307	3918
821.447	3960
821.588	3960
821.728	3888
821.868	3941
822.008	3873
822.149	3945
822.289	3918
822.429	3789
822.569	3724
822.709	3857
822.849	3656
822.99	3679
823.13	3717
823.27	3789
823.41	3740
823.55	3743
823.69	3698
823.83	3743
823.97	3656
824.11	3603
824.25	3568
824.389	3625
824.529	3667
824.669	3625
824.809	3717
824.949	3774
825.089	3736
825.228	3667
825.368	3614
825.508	3580
825.648	3603
825.787	3591
825.927	3641
826.067	3637
826.206	3656
826.346	3778
826.485	3827
826.625	3854
826.765	3937
826.904	3838
827.044	3580
827.183	3542
827.323	3409
827.462	3469
827.601	3401
827.741	3393
827.88	3431
828.02	3363
828.159	3450
828.298	3481
828.437	3538
828.577	3435
828.716	3580
828.855	3485
828.994	3378
829.134	3336
829.273	3401
829.412	3340
829.551	3359
829.69	3389
829.829	3405
829.968	3515
830.107	3458
830.246	3454
830.385	3382
830.524	3363
830.663	3302
830.802	3230
830.941	3199
831.08	3237
831.219	3260
831.357	3272
831.496	3389
831.635	3237
831.774	3154
831.913	3207
832.051	3150
832.19	3161
832.329	3192
832.467	3138
832.606	3119
832.744	3157
832.883	3180
833.022	3184
833.16	3241
833.299	3279
833.437	3313
833.576	3389
833.714	3382
833.852	3435
833.991	3481
834.129	3420
834.267	3420
834.406	3348
834.544	3435
834.682	3412
834.821	3416
834.959	3553
835.097	3397
835.235	3549
835.373	3431
835.511	3511
835.65	3431
835.788	3485
835.926	3409
836.064	3367
836.202	3420
836.34	3584
836.478	3584
836.615	3519
836.753	3580
836.891	3618
837.029	3637
837.167	3618
837.305	3542
837.443	3542
837.58	3515
837.718	3561
837.856	3568
837.993	3507
838.131	3622
838.269	3576
838.406	3584
838.544	3591
838.681	3485
838.819	3435
838.956	3351
839.094	3412
839.231	3416
839.369	3549
839.506	3770
839.643	3656
839.781	3511
839.918	3424
840.055	3519
840.193	3515
840.33	3523
840.467	3587
840.604	3618
840.742	3793
840.879	3492
841.016	3557
841.153	3618
841.29	3743
841.427	3728
841.564	3724
841.701	3740
841.838	3667
841.975	3671
842.112	3694
842.249	3648
842.385	3641
842.522	3797
842.659	3675
842.796	3686
842.933	3728
843.069	3629
843.206	3694
843.343	3812
843.479	3759
843.616	3797
843.752	3622
843.889	3698
844.025	3838
844.162	3766
844.298	3861
844.435	3789
844.571	3785
844.708	3888
844.844	3991
844.98	4025
845.117	4006
845.253	3926
845.389	3918
845.525	3937
845.661	3953
845.798	3915
845.934	3960
846.07	3934
846.206	4017
846.342	4143
846.478	4044
846.614	3998
846.75	3949
846.886	3903
847.022	4055
847.158	4002
847.294	4002
847.429	4029
847.565	3994
847.701	4227
847.837	3831
847.972	3911
848.108	3983
848.244	3960
848.379	3880
848.515	3812
848.65	3770
848.786	3854
848.921	3876
849.057	3987
849.192	3960
849.328	3880
849.463	3930
849.598	3846
849.734	3861
849.869	3793
850.004	3797
850.14	3816
850.275	3823
850.41	3720
850.545	3701
850.68	3785
850.815	3812
850.95	3854
851.085	3918
851.22	3835
851.355	3793
851.49	3819
851.625	3808
851.76	3793
851.895	3713
852.03	3751
852.165	3800
852.299	3861
852.434	3892
852.569	3869
852.703	3838
852.838	3949
852.973	4025
853.107	3983
853.242	3911
853.376	3838
853.511	3770
853.645	3808
853.78	3991
853.914	3846
854.048	3899
854.183	3899
854.317	3907
854.451	4055
854.585	3975
854.72	3964
854.854	4086
854.988	3949
855.122	3991
855.256	3922
855.39	3991
855.524	4067
855.658	4120
855.792	4090
855.926	4128
856.06	4200
856.194	4188
856.327	4162
856.461	4116
856.595	4143
856.729	4143
856.862	4257
856.996	4242
857.13	4314
857.263	4291
857.397	4360
857.53	4325
857.664	4363
857.797	4363
857.931	4398
858.064	4371
858.197	4436
858.331	4394
858.464	4363
858.597	4337
858.731	4432
858.864	4508
858.997	4443
859.13	4508
859.263	4531
859.396	4561
859.529	4504
859.662	4531
859.795	4584
859.928	4615
860.061	4725
860.194	4736
860.327	4660
860.46	4630
860.592	4687
860.725	4774
860.858	4759
860.99	4694
861.123	4679
861.256	4664
861.388	4736
861.521	5387
861.653	4744
861.786	4710
861.918	4733
862.05	4763
862.183	4828
862.315	4885
862.447	4919
862.58	4900
862.712	4831
862.844	4778
862.976	4892
863.108	4812
863.24	5143
863.372	4801
863.504	4904
863.636	4877
863.768	4953
863.9	4942
864.032	4934
864.164	4919
864.296	5025
864.428	5113
864.559	5075
864.691	5064
864.823	5102
864.954	5113
865.086	5121
865.217	5151
865.349	5083
865.48	5121
865.612	5178
865.743	5254
865.875	5258
866.006	5204
866.137	5242
866.269	5162
866.4	5261
866.531	5231
866.662	5280
866.793	5315
866.924	5246
867.055	5334
867.186	5330
867.317	5261
867.448	5277
867.579	5417
867.71	5299
867.841	5379
867.972	5497
868.103	5471
868.233	5474
868.364	5486
868.495	5524
868.625	5714
868.756	5737
868.886	5680
869.017	5726
869.147	5859
869.278	5878
869.408	5729
869.539	5764
869.669	5901
869.799	5908
869.929	5950
870.06	6038
870.19	6201
870.32	6144
870.45	6281
870.58	6338
870.71	6353
870.84	6418
870.97	6426
871.1	6426
871.23	6654
871.36	6749
871.489	6646
871.619	6707
871.749	6848
871.879	6913
872.008	6924
872.138	6947
872.267	6993
872.397	6932
872.526	7080
872.656	7114
872.785	7209
872.915	7362
873.044	7506
873.173	7499
873.303	7628
873.432	7780
873.561	7871
873.69	7898
873.819	7963
873.948	8088
874.077	8199
874.206	8336
874.335	8419
874.464	8610
874.593	8838
874.722	8899
874.851	9119
874.979	9241
875.108	9344
875.237	9408
875.365	9424
875.494	9633
875.623	9812
875.751	9846
875.88	10044
876.008	10128
876.136	10230
876.265	10500
876.393	10710
876.521	10736
876.65	10771
876.778	10877
876.906	10869
877.034	10976
877.162	11056
877.29	11201
877.418	11277
877.546	11383
877.674	11463
877.802	11474
877.93	11600
878.058	11440
878.185	11486
878.313	11554
878.441	11680
878.568	11695
878.696	11748
878.824	11904
878.951	11851
879.079	12022
879.206	12072
879.333	12072
879.461	12038
879.588	12133
879.715	12057
879.842	12144
879.97	12030
880.097	11950
880.224	11885
880.351	11866
880.478	11893
880.605	11843
880.732	11821
880.859	11958
880.986	11821
881.112	11832
881.239	11756
881.366	11695
881.493	11585
881.619	11486
881.746	11505
881.872	11589
881.999	11520
882.125	11539
882.252	11490
882.378	11471
882.505	11532
882.631	11463
882.757	11277
882.883	11303
883.01	11193
883.136	11204
883.262	11132
883.388	11105
883.514	11178
883.64	11151
883.766	11109
883.892	10968
884.018	10961
884.143	11048
884.269	11006
884.395	10828
884.52	10717
884.646	10752
884.772	10714
884.897	10607
885.023	10611
885.148	10744
885.274	10725
885.399	10637
885.524	10630
885.65	10527
885.775	10596
885.9	10443
886.025	10637
886.15	10523
886.275	10466
886.4	10409
886.525	10417
886.65	10356
886.775	10280
886.9	10466
887.025	10599
887.149	10318
887.274	10276
887.399	10230
887.523	10227
887.648	10166
887.773	10067
887.897	10196
888.021	10242
888.146	10109
888.27	10257
888.395	10223
888.519	10147
888.643	10253
888.767	10128
888.891	10032
889.015	9903
889.139	10029
889.263	9949
889.387	10082
889.511	10025
889.635	10097
889.759	9991
889.883	9983
890.006	9998
890.13	10112
890.254	9983
890.377	9991
890.501	9846
890.624	9812
890.748	9930
890.871	9759
890.995	9728
891.118	9770
891.241	9812
891.364	9671
891.488	9861
891.611	9740
891.734	9679
891.857	9827
891.98	9667
892.103	9823
892.226	9720
892.349	9606
892.471	9504
892.594	9504
892.717	9614
892.839	9625
892.962	9530
893.085	9576
893.207	9568
893.33	9534
893.452	9496
893.575	9633
893.697	9504
893.819	9534
893.941	9568
894.064	9587
894.186	9439
894.308	9416
894.43	9580
894.552	9526
894.674	9485
894.796	9344
894.918	9481
895.04	9351
895.161	9420
895.283	9329
895.405	9272
895.526	9268
895.648	9180
895.769	9142
895.891	9226
896.012	9245
896.134	9256
896.255	9165
896.376	9138
896.498	9161
896.619	9108
896.74	9119
896.861	9097
896.982	9268
897.103	9313
897.224	9154
897.345	9055
897.466	9017
897.587	9020
897.708	9066
897.828	8971
897.949	8937
898.07	8902
898.19	8956
898.311	8994
898.431	8876
898.552	8906
898.672	8979
898.792	8998
898.913	8921
899.033	8807
899.153	8678
899.273	8720
899.393	8693
899.513	8758
899.633	8708
899.753	8792
899.873	8766
899.993	8758
900.113	8743
900.232	8682
900.352	8640
900.472	8575
900.591	8495
900.711	8583
900.83	8560
900.95	8655
901.069	8610
901.189	8579
901.308	8412
901.427	8454
901.546	8427
901.665	8434
901.784	8522
901.904	8408
902.023	8332
902.141	8187
902.26	8195
902.379	8202
902.498	8111
902.617	8172
902.735	8275
902.854	8248
902.973	8259
903.091	8145
903.21	8119
903.328	8134
903.446	8164
903.565	8130
903.683	8119
903.801	7997
903.919	8031
904.038	8168
904.156	8005
904.274	8039
904.392	8043
904.51	8043
904.627	8043
904.745	8035
904.863	8046
904.981	7921
905.098	7871
905.216	7830
905.334	7913
905.451	7951
905.569	7875
905.686	7879
905.803	7871
905.921	7727
906.038	7845
906.155	7814
906.272	7696
906.389	7738
906.506	7613
906.623	7616
906.74	7632
906.857	7464
906.974	7540
907.091	7616
907.208	7734
907.324	7693
907.441	7525
907.557	7491
907.674	7430
907.79	7434
907.907	7339
908.023	7502
908.139	7426
908.256	7354
908.372	7384
908.488	7400
908.604	7259
908.72	7217
908.836	7255
908.952	7259
909.068	7285
909.184	7308
909.3	7255
909.415	7312
909.531	7289
909.647	7099
909.762	7129
909.878	7088
909.993	7160
910.108	7088
910.224	7038
910.339	7069
910.454	7008
910.57	7019
910.685	6916
910.8	7198
910.915	7103
911.03	7065
911.145	6947
911.259	6859
911.374	6886
911.489	6791
911.604	6802
911.718	6696
911.833	6707
911.947	6631
912.062	6601
912.176	6642
912.291	6646
912.405	6711
912.519	6791
912.633	6840
912.748	6741
912.862	6696
912.976	6623
913.09	6540
913.204	6597
913.318	6593
913.431	6673
913.545	6673
913.659	6700
913.772	6646
913.886	6517
914	6563
914.113	6559
914.226	6673
914.34	6601
914.453	6479
914.566	6654
914.68	6517
914.793	6494
914.906	6391
915.019	6372
915.132	6388
915.245	6365
915.358	6471
915.47	6407
915.583	6426
915.696	6410
915.809	6528
915.921	6544
916.034	6452
916.146	6410
916.259	6338
916.371	6479
916.483	6475
916.595	6357
916.708	6399
916.82	6376
916.932	6369
917.044	6384
917.156	6388
917.268	6292
917.38	6300
917.491	6281
917.603	6270
917.715	6395
917.826	6433
917.938	6273
918.049	6220
918.161	6342
918.272	6407
918.384	6395
918.495	6338
918.606	6239
918.717	6216
918.828	6296
918.939	6281
919.05	6224
919.161	6254
919.272	6133
919.383	6114
919.494	6311
919.604	6403
919.715	6239
919.826	6228
919.936	6194
920.047	6346
920.157	6273
920.267	6441
920.378	6319
920.488	6243
920.598	6433
920.708	6547
920.818	6494
920.928	6486
921.038	6623
921.148	6582
921.258	6365
921.368	6281
921.477	6239
921.587	6216
921.697	6117
921.806	6136
921.916	6068
922.025	5950
922.134	5977
922.244	5893
922.353	5996
922.462	5912
922.571	5798
922.68	5714
922.789	5665
922.898	5699
923.007	5684
923.116	5661
923.224	5710
923.333	5676
923.442	5577
923.55	5532
923.659	5596
923.767	5630
923.876	5520
923.984	5581
924.092	5463
924.201	5562
924.309	5528
924.417	5611
924.525	5474
924.633	5493
924.741	6216
924.849	5395
924.956	5486
925.064	5345
925.172	5315
925.279	5337
925.387	5334
925.494	5360
925.602	5395
925.709	5383
925.816	5296
925.924	5296
926.031	5326
926.138	5299
926.245	5292
926.352	5231
926.459	5311
926.566	5258
926.673	5178
926.779	5140
926.886	5132
926.993	5060
927.099	5029
927.206	4965
927.312	4972
927.419	5079
927.525	5037
927.631	5006
927.737	4911
927.843	4870
927.95	4793
928.056	4778
928.162	4816
928.267	4786
928.373	5330
928.479	4881
928.585	4691
928.69	4759
928.796	4744
928.901	4691
929.007	4607
929.112	4653
929.218	4668
929.323	4596
929.428	4565
929.533	4637
929.638	4466
929.743	4497
929.848	4519
929.953	4500
930.058	4413
930.163	4352
930.267	4341
930.372	4390
930.477	4299
930.581	4447
930.685	4329
930.79	4257
930.894	4295
930.998	4265
931.103	4379
931.207	4109
931.311	4101
931.415	4067
931.519	3949
931.623	3930
