Data from glass_V78500241_308.txt Node
Date: Wed Sep 01 19:16:38 CST 2021
User: usil
Spectrometer: V785-0024
Trigger mode: 0
Integration Time (sec): 4.000000E-1
Scans to average: 1
Nonlinearity correction enabled: false
Boxcar width: 0
Storing dark spectrum: false
XAxis mode: Wavelengths
Number of Pixels in Spectrum: 1024
>>>>>Begin Spectral Data<<<<<
801.071	3797
801.214	3770
801.356	3747
801.499	3759
801.641	3720
801.783	3816
801.926	3888
802.068	3816
802.211	3827
802.353	3865
802.496	3846
802.638	3892
802.78	3953
802.923	3953
803.065	3884
803.208	3876
803.35	3949
803.492	3903
803.635	3945
803.777	3804
803.919	3869
804.061	4128
804.204	3979
804.346	3960
804.488	3937
804.63	4017
804.773	3964
804.915	4021
805.057	4124
805.199	4044
805.341	4135
805.483	4131
805.626	4086
805.768	4150
805.91	4272
806.052	4204
806.194	4166
806.336	4383
806.478	4223
806.62	4227
806.762	4238
806.904	4268
807.046	4325
807.188	4238
807.33	4185
807.472	4249
807.614	4223
807.756	4249
807.898	4219
808.04	4242
808.182	4246
808.324	4318
808.465	4341
808.607	4474
808.749	4455
808.891	4485
809.033	4512
809.174	4424
809.316	4280
809.458	4246
809.6	4158
809.741	4101
809.883	4196
810.025	4242
810.166	4223
810.308	4227
810.45	4276
810.591	4280
810.733	4284
810.875	4554
811.016	4839
811.158	5212
811.299	5261
811.441	5261
811.582	5045
811.724	4725
811.865	4443
812.007	4462
812.148	4428
812.29	4470
812.431	4398
812.573	4478
812.714	4394
812.855	4409
812.997	4405
813.138	4478
813.279	4447
813.421	4421
813.562	4341
813.703	4348
813.845	4341
813.986	4276
814.127	4284
814.268	4246
814.41	4291
814.551	4265
814.692	4360
814.833	4272
814.974	4322
815.115	4360
815.256	4314
815.397	4230
815.539	4280
815.68	4162
815.821	4223
815.962	4284
816.103	4325
816.244	4242
816.385	4257
816.526	4306
816.666	4185
816.807	4097
816.948	4188
817.089	4192
817.23	4101
817.371	4101
817.512	4078
817.653	4074
817.793	4071
817.934	4006
818.075	4124
818.216	4055
818.356	4040
818.497	4002
818.638	3896
818.778	3937
818.919	3896
819.06	3892
819.2	3972
819.341	3896
819.481	3857
819.622	3915
819.762	4032
819.903	3934
820.043	3915
820.184	3835
820.324	3808
820.465	3907
820.605	3930
820.746	3869
820.886	3842
821.026	3934
821.167	3941
821.307	3975
821.447	4002
821.588	3972
821.728	3953
821.868	3941
822.008	3896
822.149	3903
822.289	3918
822.429	3827
822.569	3835
822.709	3819
822.849	3686
822.99	3732
823.13	3766
823.27	3804
823.41	3781
823.55	3781
823.69	3751
823.83	3762
823.97	3690
824.11	3637
824.25	3606
824.389	3660
824.529	3705
824.669	3637
824.809	3762
824.949	3755
825.089	3740
825.228	3694
825.368	3663
825.508	3644
825.648	3561
825.787	3656
825.927	3648
826.067	3637
826.206	3682
826.346	3797
826.485	3827
826.625	3888
826.765	3941
826.904	3854
827.044	3625
827.183	3530
827.323	3500
827.462	3538
827.601	3462
827.741	3447
827.88	3462
828.02	3424
828.159	3447
828.298	3500
828.437	3576
828.577	3511
828.716	3591
828.855	3492
828.994	3409
829.134	3401
829.273	3386
829.412	3393
829.551	3329
829.69	3367
829.829	3431
829.968	3526
830.107	3443
830.246	3458
830.385	3382
830.524	3348
830.663	3298
830.802	3275
830.941	3199
831.08	3184
831.219	3275
831.357	3294
831.496	3435
831.635	3245
831.774	3173
831.913	3199
832.051	3138
832.19	3176
832.329	3207
832.467	3157
832.606	3138
832.744	3203
832.883	3218
833.022	3222
833.16	3256
833.299	3302
833.437	3370
833.576	3389
833.714	3424
833.852	3462
833.991	3492
834.129	3466
834.267	3397
834.406	3412
834.544	3435
834.682	3416
834.821	3450
834.959	3603
835.097	3488
835.235	3507
835.373	3526
835.511	3473
835.65	3462
835.788	3542
835.926	3416
836.064	3351
836.202	3431
836.34	3584
836.478	3629
836.615	3564
836.753	3610
836.891	3660
837.029	3618
837.167	3584
837.305	3614
837.443	3542
837.58	3488
837.718	3603
837.856	3572
837.993	3549
838.131	3599
838.269	3595
838.406	3610
838.544	3622
838.681	3500
838.819	3466
838.956	3409
839.094	3405
839.231	3477
839.369	3504
839.506	3747
839.643	3660
839.781	3485
839.918	3454
840.055	3523
840.193	3564
840.33	3538
840.467	3557
840.604	3648
840.742	3819
840.879	3587
841.016	3557
841.153	3599
841.29	3724
841.427	3743
841.564	3736
841.701	3751
841.838	3743
841.975	3663
842.112	3759
842.249	3690
842.385	3610
842.522	3827
842.659	3675
842.796	3682
842.933	3762
843.069	3682
843.206	3774
843.343	3797
843.479	3797
843.616	3854
843.752	3690
843.889	3705
844.025	3903
844.162	3705
844.298	3892
844.435	3800
844.571	3785
844.708	3888
844.844	4006
844.98	4002
845.117	4025
845.253	3994
845.389	3911
845.525	3956
845.661	4010
845.798	3968
845.934	4021
846.07	4002
846.206	4051
846.342	4131
846.478	4055
846.614	3998
846.75	3964
846.886	3915
847.022	4006
847.158	4006
847.294	4017
847.429	4036
847.565	4040
847.701	4246
847.837	3888
847.972	3896
848.108	4013
848.244	3956
848.379	3873
848.515	3785
848.65	3835
848.786	3823
848.921	3888
849.057	3907
849.192	3983
849.328	3934
849.463	3937
849.598	3911
849.734	3884
849.869	3854
850.004	3789
850.14	3789
850.275	3793
850.41	3766
850.545	3778
850.68	3804
850.815	3838
850.95	3831
851.085	3922
851.22	3869
851.355	3831
851.49	3797
851.625	3808
851.76	3778
851.895	3740
852.03	3770
852.165	3819
852.299	3842
852.434	3930
852.569	3861
852.703	3922
852.838	3998
852.973	3972
853.107	4013
853.242	3880
853.376	3823
853.511	3800
853.645	3816
853.78	3972
853.914	3949
854.048	3922
854.183	3953
854.317	3941
854.451	4067
854.585	3979
854.72	3975
854.854	4082
854.988	3941
855.122	4010
855.256	3949
855.39	4040
855.524	4128
855.658	4105
855.792	4128
855.926	4169
856.06	4181
856.194	4207
856.327	4177
856.461	4169
856.595	4185
856.729	4192
856.862	4299
856.996	4242
857.13	4284
857.263	4329
857.397	4363
857.53	4318
857.664	4344
857.797	4409
857.931	4417
858.064	4417
858.197	4497
858.331	4371
858.464	4386
858.597	4356
858.731	4474
858.864	4485
858.997	4462
859.13	4558
859.263	4542
859.396	4584
859.529	4535
859.662	4531
859.795	4546
859.928	4592
860.061	4721
860.194	4752
860.327	4725
860.46	4656
860.592	4702
860.725	4755
860.858	4801
860.99	4672
861.123	4717
861.256	4702
861.388	4797
861.521	5277
861.653	4729
861.786	4752
861.918	4771
862.05	4797
862.183	4850
862.315	4870
862.447	4946
862.58	4885
862.712	4824
862.844	4816
862.976	4915
863.108	4896
863.24	5284
863.372	4900
863.504	4904
863.636	4889
863.768	4972
863.9	4984
864.032	4976
864.164	4965
864.296	5003
864.428	5124
864.559	5132
864.691	5170
864.823	5136
864.954	5166
865.086	5212
865.217	5155
865.349	5105
865.48	5155
865.612	5189
865.743	5273
865.875	5223
866.006	5174
866.137	5223
866.269	5254
866.4	5261
866.531	5208
866.662	5185
866.793	5258
866.924	5364
867.055	5330
867.186	5326
867.317	5334
867.448	5353
867.579	5376
867.71	5402
867.841	5402
867.972	5471
868.103	5490
868.233	5512
868.364	5490
868.495	5551
868.625	5668
868.756	5729
868.886	5623
869.017	5733
869.147	5878
869.278	5878
869.408	5870
869.539	5851
869.669	5939
869.799	5946
869.929	6022
870.06	6015
870.19	6216
870.32	6163
870.45	6331
870.58	6372
870.71	6452
870.84	6475
870.97	6403
871.1	6452
871.23	6692
871.36	6783
871.489	6726
871.619	6787
871.749	6798
871.879	6878
872.008	6977
872.138	6966
872.267	6996
872.397	7008
872.526	7095
872.656	7145
872.785	7247
872.915	7403
873.044	7533
873.173	7529
873.303	7666
873.432	7727
873.561	7898
873.69	7955
873.819	8069
873.948	8123
874.077	8225
874.206	8450
874.335	8446
874.464	8663
874.593	8861
874.722	8979
874.851	9199
874.979	9230
875.108	9443
875.237	9374
875.365	9568
875.494	9660
875.623	9861
875.751	9865
875.88	10044
876.008	10188
876.136	10360
876.265	10519
876.393	10710
876.521	10702
876.65	10786
876.778	10866
876.906	10854
877.034	10927
877.162	11121
877.29	11083
877.418	11223
877.546	11379
877.674	11448
877.802	11467
877.93	11509
878.058	11516
878.185	11535
878.313	11699
878.441	11722
878.568	11661
878.696	11802
878.824	11741
878.951	11897
879.079	12053
879.206	12171
879.333	12064
879.461	11965
879.588	12053
879.715	12079
879.842	12285
879.97	12064
880.097	11916
880.224	11855
880.351	11916
880.478	11923
880.605	11866
880.732	11840
880.859	12083
880.986	11843
881.112	11851
881.239	11722
881.366	11649
881.493	11611
881.619	11600
881.746	11490
881.872	11554
881.999	11562
882.125	11486
882.252	11520
882.378	11452
882.505	11623
882.631	11330
882.757	11341
882.883	11303
883.01	11296
883.136	11181
883.262	11181
883.388	11102
883.514	11185
883.64	11147
883.766	11151
883.892	10965
884.018	10961
884.143	10991
884.269	11124
884.395	10892
884.52	10786
884.646	10820
884.772	10668
884.897	10687
885.023	10672
885.148	10668
885.274	10759
885.399	10653
885.524	10611
885.65	10592
885.775	10592
885.9	10493
886.025	10599
886.15	10546
886.275	10466
886.4	10436
886.525	10424
886.65	10398
886.775	10356
886.9	10413
887.025	10531
887.149	10344
887.274	10295
887.399	10223
887.523	10139
887.648	10162
887.773	10124
887.897	10276
888.021	10188
888.146	10158
888.27	10276
888.395	10196
888.519	10227
888.643	10105
888.767	10246
888.891	10105
889.015	10032
889.139	10074
889.263	9972
889.387	10032
889.511	10093
889.635	10032
889.759	9979
889.883	10029
890.006	9930
890.13	10063
890.254	9926
890.377	9983
890.501	9876
890.624	9873
890.748	9907
890.871	9755
890.995	9812
891.118	9698
891.241	9774
891.364	9690
891.488	9804
891.611	9740
891.734	9705
891.857	9766
891.98	9709
892.103	9793
892.226	9774
892.349	9637
892.471	9591
892.594	9572
892.717	9656
892.839	9576
892.962	9633
893.085	9614
893.207	9504
893.33	9530
893.452	9580
893.575	9526
893.697	9530
893.819	9648
893.941	9698
894.064	9606
894.186	9477
894.308	9355
894.43	9591
894.552	9545
894.674	9545
894.796	9431
894.918	9367
895.04	9443
895.161	9435
895.283	9336
895.405	9207
895.526	9245
895.648	9283
895.769	9260
895.891	9233
896.012	9233
896.134	9226
896.255	9146
896.376	9173
896.498	9150
896.619	9165
896.74	9123
896.861	9100
896.982	9253
897.103	9317
897.224	9211
897.345	9032
897.466	8986
897.587	9104
897.708	9062
897.828	9097
897.949	8933
898.07	8914
898.19	8937
898.311	9070
898.431	8914
898.552	8941
898.672	9036
898.792	8998
898.913	8910
899.033	8785
899.153	8792
899.273	8655
899.393	8678
899.513	8720
899.633	8689
899.753	8762
899.873	8693
899.993	8777
900.113	8701
900.232	8682
900.352	8598
900.472	8602
900.591	8495
900.711	8610
900.83	8552
900.95	8670
901.069	8777
901.189	8556
901.308	8454
901.427	8404
901.546	8404
901.665	8473
901.784	8530
901.904	8366
902.023	8347
902.141	8286
902.26	8282
902.379	8237
902.498	8187
902.617	8294
902.735	8290
902.854	8320
902.973	8263
903.091	8134
903.21	8134
903.328	8153
903.446	8142
903.565	8081
903.683	8138
903.801	8039
903.919	8172
904.038	8107
904.156	8069
904.274	8088
904.392	8039
904.51	8046
904.627	8069
904.745	8069
904.863	8084
904.981	7955
905.098	7849
905.216	7875
905.334	7887
905.451	7871
905.569	7887
905.686	7921
905.803	7921
905.921	7727
906.038	7906
906.155	7826
906.272	7750
906.389	7712
906.506	7712
906.623	7681
906.74	7609
906.857	7559
906.974	7578
907.091	7693
907.208	7738
907.324	7639
907.441	7556
907.557	7518
907.674	7525
907.79	7381
907.907	7438
908.023	7506
908.139	7476
908.256	7365
908.372	7350
908.488	7396
908.604	7278
908.72	7301
908.836	7285
908.952	7308
909.068	7255
909.184	7384
909.3	7259
909.415	7316
909.531	7285
909.647	7228
909.762	7099
909.878	7091
909.993	7137
910.108	7110
910.224	7004
910.339	7152
910.454	7107
910.57	7046
910.685	7008
910.8	7225
910.915	7122
911.03	7034
911.145	6909
911.259	6890
911.374	6886
911.489	6833
911.604	6757
911.718	6749
911.833	6753
911.947	6700
912.062	6650
912.176	6722
912.291	6734
912.405	6673
912.519	6818
912.633	6856
912.748	6776
912.862	6673
912.976	6589
913.09	6597
913.204	6544
913.318	6623
913.431	6677
913.545	6642
913.659	6692
913.772	6646
913.886	6589
914	6555
914.113	6608
914.226	6726
914.34	6551
914.453	6513
914.566	6646
914.68	6490
914.793	6544
914.906	6407
915.019	6429
915.132	6376
915.245	6479
915.358	6456
915.47	6388
915.583	6509
915.696	6452
915.809	6585
915.921	6486
916.034	6357
916.146	6418
916.259	6372
916.371	6513
916.483	6452
916.595	6448
916.708	6422
916.82	6403
916.932	6380
917.044	6426
917.156	6372
917.268	6311
917.38	6319
917.491	6346
917.603	6414
917.715	6376
917.826	6414
917.938	6285
918.049	6201
918.161	6365
918.272	6460
918.384	6426
918.495	6441
918.606	6315
918.717	6194
918.828	6300
918.939	6270
919.05	6247
919.161	6239
919.272	6117
919.383	6228
919.494	6395
919.604	6483
919.715	6338
919.826	6235
919.936	6220
920.047	6410
920.157	6319
920.267	6475
920.378	6388
920.488	6357
920.598	6456
920.708	6612
920.818	6528
920.928	6521
921.038	6627
921.148	6620
921.258	6327
921.368	6346
921.477	6220
921.587	6194
921.697	6129
921.806	6213
921.916	6102
922.025	5961
922.134	5927
922.244	5870
922.353	5946
922.462	5802
922.571	5832
922.68	5729
922.789	5657
922.898	5733
923.007	5657
923.116	5748
923.224	5676
923.333	5726
923.442	5608
923.55	5630
923.659	5551
923.767	5634
923.876	5490
923.984	5604
924.092	5501
924.201	5577
924.309	5619
924.417	5528
924.525	5524
924.633	5524
924.741	6323
924.849	5402
924.956	5452
925.064	5357
925.172	5330
925.279	5334
925.387	5360
925.494	5322
925.602	5452
925.709	5391
925.816	5284
925.924	5337
926.031	5345
926.138	5273
926.245	5353
926.352	5227
926.459	5360
926.566	5353
926.673	5239
926.779	5136
926.886	5140
926.993	5052
927.099	5003
927.206	4991
927.312	5006
927.419	5037
927.525	4991
927.631	4976
927.737	4885
927.843	4915
927.95	4790
928.056	4877
928.162	4835
928.267	4862
928.373	5261
928.479	4839
928.585	4694
928.69	4797
928.796	4816
928.901	4748
929.007	4611
929.112	4725
929.218	4618
929.323	4645
929.428	4561
929.533	4656
929.638	4470
929.743	4550
929.848	4599
929.953	4546
930.058	4462
930.163	4314
930.267	4363
930.372	4474
930.477	4341
930.581	4485
930.685	4371
930.79	4249
930.894	4291
930.998	4253
931.103	4386
931.207	4131
931.311	4071
931.415	4055
931.519	3899
931.623	3956
