Data from glass_V78500241_1488.txt Node
Date: Wed Sep 01 19:24:48 CST 2021
User: usil
Spectrometer: V785-0024
Trigger mode: 0
Integration Time (sec): 4.000000E-1
Scans to average: 1
Nonlinearity correction enabled: false
Boxcar width: 0
Storing dark spectrum: false
XAxis mode: Wavelengths
Number of Pixels in Spectrum: 1024
>>>>>Begin Spectral Data<<<<<
801.071	3743
801.214	3740
801.356	3679
801.499	3762
801.641	3766
801.783	3804
801.926	3846
802.068	3808
802.211	3857
802.353	3846
802.496	3838
802.638	3884
802.78	3911
802.923	3911
803.065	3896
803.208	3846
803.35	3888
803.492	3896
803.635	3926
803.777	3789
803.919	3892
804.061	4158
804.204	4010
804.346	3964
804.488	3915
804.63	4055
804.773	3987
804.915	3994
805.057	4143
805.199	4040
805.341	4074
805.483	4135
805.626	4139
805.768	4101
805.91	4223
806.052	4215
806.194	4166
806.336	4337
806.478	4234
806.62	4185
806.762	4188
806.904	4265
807.046	4314
807.188	4211
807.33	4173
807.472	4246
807.614	4185
807.756	4306
807.898	4196
808.04	4188
808.182	4261
808.324	4284
808.465	4398
808.607	4493
808.749	4447
808.891	4455
809.033	4516
809.174	4405
809.316	4287
809.458	4253
809.6	4162
809.741	4112
809.883	4109
810.025	4200
810.166	4181
810.308	4207
810.45	4249
810.591	4211
810.733	4272
810.875	4508
811.016	4820
811.158	5128
811.299	5239
811.441	5254
811.582	5128
811.724	4725
811.865	4470
812.007	4504
812.148	4421
812.29	4390
812.431	4417
812.573	4394
812.714	4344
812.855	4394
812.997	4421
813.138	4512
813.279	4405
813.421	4413
813.562	4402
813.703	4383
813.845	4318
813.986	4287
814.127	4196
814.268	4295
814.41	4306
814.551	4284
814.692	4314
814.833	4246
814.974	4337
815.115	4341
815.256	4215
815.397	4253
815.539	4265
815.68	4181
815.821	4219
815.962	4291
816.103	4284
816.244	4257
816.385	4211
816.526	4268
816.666	4173
816.807	4131
816.948	4185
817.089	4162
817.23	4105
817.371	4059
817.512	4013
817.653	4055
817.793	4010
817.934	4032
818.075	4105
818.216	4074
818.356	4051
818.497	3991
818.638	3934
818.778	3915
818.919	3880
819.06	3873
819.2	3873
819.341	3876
819.481	3857
819.622	3896
819.762	4036
819.903	3934
820.043	3865
820.184	3816
820.324	3819
820.465	3888
820.605	3876
820.746	3873
820.886	3789
821.026	3934
821.167	3896
821.307	3979
821.447	3975
821.588	4013
821.728	3945
821.868	3964
822.008	3869
822.149	3896
822.289	3884
822.429	3781
822.569	3770
822.709	3774
822.849	3682
822.99	3740
823.13	3736
823.27	3797
823.41	3701
823.55	3728
823.69	3800
823.83	3740
823.97	3648
824.11	3633
824.25	3606
824.389	3629
824.529	3648
824.669	3618
824.809	3701
824.949	3778
825.089	3736
825.228	3701
825.368	3610
825.508	3572
825.648	3576
825.787	3587
825.927	3656
826.067	3633
826.206	3656
826.346	3717
826.485	3823
826.625	3880
826.765	3911
826.904	3835
827.044	3652
827.183	3549
827.323	3435
827.462	3500
827.601	3443
827.741	3447
827.88	3469
828.02	3363
828.159	3458
828.298	3488
828.437	3553
828.577	3466
828.716	3637
828.855	3443
828.994	3336
829.134	3401
829.273	3374
829.412	3374
829.551	3382
829.69	3355
829.829	3416
829.968	3519
830.107	3431
830.246	3431
830.385	3382
830.524	3355
830.663	3310
830.802	3268
830.941	3230
831.08	3176
831.219	3283
831.357	3245
831.496	3389
831.635	3222
831.774	3154
831.913	3214
832.051	3119
832.19	3119
832.329	3203
832.467	3119
832.606	3138
832.744	3154
832.883	3165
833.022	3207
833.16	3275
833.299	3298
833.437	3306
833.576	3401
833.714	3401
833.852	3428
833.991	3466
834.129	3466
834.267	3435
834.406	3363
834.544	3443
834.682	3420
834.821	3416
834.959	3553
835.097	3435
835.235	3485
835.373	3454
835.511	3496
835.65	3450
835.788	3492
835.926	3409
836.064	3409
836.202	3393
836.34	3587
836.478	3667
836.615	3553
836.753	3614
836.891	3663
837.029	3584
837.167	3561
837.305	3538
837.443	3526
837.58	3488
837.718	3568
837.856	3561
837.993	3519
838.131	3618
838.269	3584
838.406	3614
838.544	3572
838.681	3469
838.819	3462
838.956	3370
839.094	3378
839.231	3454
839.369	3511
839.506	3732
839.643	3610
839.781	3458
839.918	3485
840.055	3496
840.193	3561
840.33	3534
840.467	3595
840.604	3622
840.742	3835
840.879	3530
841.016	3561
841.153	3587
841.29	3747
841.427	3717
841.564	3720
841.701	3770
841.838	3652
841.975	3675
842.112	3743
842.249	3610
842.385	3637
842.522	3854
842.659	3720
842.796	3663
842.933	3717
843.069	3690
843.206	3705
843.343	3800
843.479	3774
843.616	3831
843.752	3637
843.889	3717
844.025	3831
844.162	3743
844.298	3842
844.435	3728
844.571	3789
844.708	3842
844.844	3960
844.98	4010
845.117	4036
845.253	3941
845.389	3937
845.525	3960
845.661	3991
845.798	3926
845.934	3998
846.07	3964
846.206	4048
846.342	4105
846.478	4063
846.614	3991
846.75	3922
846.886	3903
847.022	4051
847.158	3945
847.294	3975
847.429	4036
847.565	4036
847.701	4185
847.837	3903
847.972	3827
848.108	3998
848.244	3960
848.379	3842
848.515	3797
848.65	3823
848.786	3861
848.921	3846
849.057	3926
849.192	3949
849.328	3876
849.463	3888
849.598	3896
849.734	3888
849.869	3804
850.004	3789
850.14	3770
850.275	3770
850.41	3789
850.545	3755
850.68	3800
850.815	3812
850.95	3774
851.085	3953
851.22	3865
851.355	3838
851.49	3781
851.625	3797
851.76	3831
851.895	3747
852.03	3736
852.165	3808
852.299	3873
852.434	3884
852.569	3865
852.703	3884
852.838	3953
852.973	3979
853.107	3953
853.242	3896
853.376	3800
853.511	3827
853.645	3827
853.78	4059
853.914	3903
854.048	3876
854.183	3949
854.317	3972
854.451	4105
854.585	3915
854.72	3945
854.854	4071
854.988	3937
855.122	4025
855.256	3880
855.39	4036
855.524	4131
855.658	4120
855.792	4093
855.926	4128
856.06	4211
856.194	4219
856.327	4177
856.461	4128
856.595	4158
856.729	4200
856.862	4280
856.996	4261
857.13	4284
857.263	4322
857.397	4341
857.53	4318
857.664	4344
857.797	4417
857.931	4424
858.064	4379
858.197	4443
858.331	4409
858.464	4333
858.597	4341
858.731	4447
858.864	4493
858.997	4424
859.13	4500
859.263	4542
859.396	4577
859.529	4478
859.662	4531
859.795	4504
859.928	4611
860.061	4706
860.194	4755
860.327	4679
860.46	4630
860.592	4714
860.725	4729
860.858	4748
860.99	4740
861.123	4687
861.256	4733
861.388	4771
861.521	5364
861.653	4698
861.786	4717
861.918	4763
862.05	4816
862.183	4816
862.315	4854
862.447	4889
862.58	4904
862.712	4793
862.844	4748
862.976	4847
863.108	4889
863.24	5235
863.372	4824
863.504	4892
863.636	4908
863.768	4999
863.9	4942
864.032	4946
864.164	4980
864.296	5018
864.428	5048
864.559	5143
864.691	5094
864.823	5117
864.954	5128
865.086	5178
865.217	5132
865.349	5098
865.48	5166
865.612	5181
865.743	5315
865.875	5201
866.006	5193
866.137	5231
866.269	5220
866.4	5261
866.531	5254
866.662	5235
866.793	5254
866.924	5254
867.055	5357
867.186	5364
867.317	5330
867.448	5284
867.579	5379
867.71	5395
867.841	5402
867.972	5429
868.103	5493
868.233	5551
868.364	5535
868.495	5581
868.625	5649
868.756	5805
868.886	5649
869.017	5710
869.147	5866
869.278	5885
869.408	5832
869.539	5798
869.669	5908
869.799	5939
869.929	5965
870.06	6041
870.19	6213
870.32	6182
870.45	6311
870.58	6372
870.71	6410
870.84	6483
870.97	6441
871.1	6422
871.23	6646
871.36	6696
871.489	6635
871.619	6806
871.749	6810
871.879	6856
872.008	6905
872.138	6985
872.267	7015
872.397	6985
872.526	7057
872.656	7107
872.785	7213
872.915	7362
873.044	7540
873.173	7491
873.303	7689
873.432	7715
873.561	7795
873.69	7871
873.819	7986
873.948	8164
874.077	8248
874.206	8328
874.335	8465
874.464	8663
874.593	8819
874.722	8948
874.851	9108
874.979	9226
875.108	9344
875.237	9431
875.365	9408
875.494	9694
875.623	9804
875.751	9899
875.88	10006
876.008	10173
876.136	10306
876.265	10485
876.393	10710
876.521	10660
876.65	10900
876.778	10877
876.906	10862
877.034	10976
877.162	11136
877.29	11174
877.418	11265
877.546	11372
877.674	11520
877.802	11474
877.93	11425
878.058	11482
878.185	11543
878.313	11608
878.441	11786
878.568	11592
878.696	11745
878.824	11889
878.951	11954
879.079	12022
879.206	12098
879.333	12041
879.461	12045
879.588	12121
879.715	12079
879.842	12243
879.97	12045
880.097	11828
880.224	11863
880.351	11882
880.478	11790
880.605	11809
880.732	11809
880.859	12034
880.986	11824
881.112	11836
881.239	11779
881.366	11600
881.493	11627
881.619	11509
881.746	11573
881.872	11581
881.999	11512
882.125	11539
882.252	11543
882.378	11512
882.505	11547
882.631	11349
882.757	11372
882.883	11277
883.01	11284
883.136	11197
883.262	11143
883.388	11045
883.514	11239
883.64	11284
883.766	11121
883.892	11037
884.018	10953
884.143	11048
884.269	11136
884.395	10896
884.52	10698
884.646	10877
884.772	10687
884.897	10672
885.023	10672
885.148	10759
885.274	10710
885.399	10641
885.524	10664
885.65	10618
885.775	10607
885.9	10546
886.025	10622
886.15	10550
886.275	10485
886.4	10462
886.525	10367
886.65	10363
886.775	10238
886.9	10398
887.025	10497
887.149	10344
887.274	10246
887.399	10265
887.523	10192
887.648	10147
887.773	10040
887.897	10246
888.021	10185
888.146	10112
888.27	10242
888.395	10238
888.519	10181
888.643	10257
888.767	10188
888.891	10101
889.015	10105
889.139	10025
889.263	9945
889.387	10112
889.511	10128
889.635	10082
889.759	9953
889.883	9975
890.006	10067
890.13	10112
890.254	9956
890.377	9964
890.501	9842
890.624	9861
890.748	9880
890.871	9827
890.995	9720
891.118	9690
891.241	9774
891.364	9679
891.488	9876
891.611	9701
891.734	9766
891.857	9781
891.98	9743
892.103	9766
892.226	9740
892.349	9637
892.471	9622
892.594	9591
892.717	9625
892.839	9561
892.962	9694
893.085	9606
893.207	9576
893.33	9473
893.452	9545
893.575	9610
893.697	9500
893.819	9633
893.941	9629
894.064	9603
894.186	9428
894.308	9393
894.43	9500
894.552	9511
894.674	9542
894.796	9389
894.918	9386
895.04	9325
895.161	9401
895.283	9317
895.405	9249
895.526	9279
895.648	9233
895.769	9249
895.891	9268
896.012	9298
896.134	9275
896.255	9142
896.376	9138
896.498	9176
896.619	9173
896.74	9024
896.861	9138
896.982	9287
897.103	9287
897.224	9199
897.345	9043
897.466	9020
897.587	9051
897.708	9077
897.828	9017
897.949	8975
898.07	8849
898.19	8956
898.311	8956
898.431	8853
898.552	8887
898.672	8914
898.792	8921
898.913	8971
899.033	8838
899.153	8743
899.273	8750
899.393	8697
899.513	8708
899.633	8754
899.753	8716
899.873	8678
899.993	8758
900.113	8708
900.232	8686
900.352	8598
900.472	8663
900.591	8549
900.711	8587
900.83	8556
900.95	8693
901.069	8697
901.189	8568
901.308	8495
901.427	8450
901.546	8393
901.665	8446
901.784	8454
901.904	8377
902.023	8324
902.141	8286
902.26	8180
902.379	8347
902.498	8164
902.617	8191
902.735	8366
902.854	8244
902.973	8218
903.091	8145
903.21	8221
903.328	8107
903.446	8145
903.565	8069
903.683	8050
903.801	8073
903.919	8111
904.038	8149
904.156	8043
904.274	8157
904.392	7974
904.51	8058
904.627	8062
904.745	8164
904.863	8081
904.981	7936
905.098	7963
905.216	7909
905.334	7879
905.451	7883
905.569	7887
905.686	7921
905.803	7902
905.921	7780
906.038	7818
906.155	7818
906.272	7715
906.389	7685
906.506	7601
906.623	7685
906.74	7601
906.857	7464
906.974	7620
907.091	7708
907.208	7734
907.324	7658
907.441	7563
907.557	7518
907.674	7453
907.79	7411
907.907	7343
908.023	7476
908.139	7411
908.256	7403
908.372	7407
908.488	7324
908.604	7293
908.72	7232
908.836	7255
908.952	7289
909.068	7312
909.184	7384
909.3	7270
909.415	7327
909.531	7305
909.647	7126
909.762	7129
909.878	7160
909.993	7076
910.108	7122
910.224	7061
910.339	7137
910.454	7008
910.57	7012
910.685	6981
910.8	7194
910.915	7080
911.03	7080
911.145	6901
911.259	6894
911.374	6909
911.489	6867
911.604	6844
911.718	6730
911.833	6745
911.947	6650
912.062	6566
912.176	6700
912.291	6684
912.405	6745
912.519	6802
912.633	6818
912.748	6760
912.862	6688
912.976	6627
913.09	6559
913.204	6555
913.318	6665
913.431	6715
913.545	6688
913.659	6722
913.772	6654
913.886	6578
914	6604
914.113	6662
914.226	6612
914.34	6589
914.453	6517
914.566	6597
914.68	6528
914.793	6551
914.906	6494
915.019	6391
915.132	6365
915.245	6418
915.358	6426
915.47	6433
915.583	6422
915.696	6460
915.809	6544
915.921	6506
916.034	6467
916.146	6410
916.259	6418
916.371	6460
916.483	6452
916.595	6346
916.708	6433
916.82	6399
916.932	6395
917.044	6403
917.156	6365
917.268	6289
917.38	6292
917.491	6369
917.603	6350
917.715	6437
917.826	6395
917.938	6353
918.049	6228
918.161	6308
918.272	6410
918.384	6452
918.495	6334
918.606	6243
918.717	6213
918.828	6254
918.939	6300
919.05	6266
919.161	6273
919.272	6163
919.383	6136
919.494	6258
919.604	6445
919.715	6258
919.826	6201
919.936	6300
920.047	6334
920.157	6273
920.267	6452
920.378	6277
920.488	6258
920.598	6506
920.708	6574
920.818	6456
920.928	6464
921.038	6536
921.148	6570
921.258	6331
921.368	6277
921.477	6213
921.587	6262
921.697	6152
921.806	6155
921.916	6098
922.025	5923
922.134	5923
922.244	5912
922.353	5912
922.462	5882
922.571	5771
922.68	5748
922.789	5714
922.898	5657
923.007	5570
923.116	5699
923.224	5623
923.333	5676
923.442	5539
923.55	5573
923.659	5630
923.767	5623
923.876	5516
923.984	5558
924.092	5547
924.201	5532
924.309	5577
924.417	5505
924.525	5425
924.633	5482
924.741	6152
924.849	5429
924.956	5493
925.064	5357
925.172	5318
925.279	5227
925.387	5376
925.494	5337
925.602	5417
925.709	5337
925.816	5288
925.924	5277
926.031	5387
926.138	5307
926.245	5311
926.352	5227
926.459	5311
926.566	5322
926.673	5162
926.779	5128
926.886	5178
926.993	5064
927.099	5022
927.206	5025
927.312	4972
927.419	5029
927.525	4991
927.631	5010
927.737	4904
927.843	4873
927.95	4774
928.056	4847
928.162	4820
928.267	4862
928.373	5303
928.479	4877
928.585	4702
928.69	4752
928.796	4790
928.901	4736
929.007	4577
929.112	4664
929.218	4668
929.323	4580
929.428	4561
929.533	4634
929.638	4485
929.743	4546
929.848	4538
929.953	4554
930.058	4421
930.163	4310
930.267	4344
930.372	4440
930.477	4329
930.581	4462
930.685	4363
930.79	4261
930.894	4272
930.998	4261
931.103	4394
931.207	4135
931.311	4010
931.415	4025
931.519	3953
931.623	3941
