Data from glass_V78500241_799.txt Node
Date: Wed Sep 01 19:20:02 CST 2021
User: usil
Spectrometer: V785-0024
Trigger mode: 0
Integration Time (sec): 4.000000E-1
Scans to average: 1
Nonlinearity correction enabled: false
Boxcar width: 0
Storing dark spectrum: false
XAxis mode: Wavelengths
Number of Pixels in Spectrum: 1024
>>>>>Begin Spectral Data<<<<<
801.071	3736
801.214	3755
801.356	3720
801.499	3736
801.641	3755
801.783	3793
801.926	3884
802.068	3823
802.211	3880
802.353	3907
802.496	3865
802.638	3884
802.78	3918
802.923	3945
803.065	3907
803.208	3846
803.35	3918
803.492	3918
803.635	3903
803.777	3831
803.919	3964
804.061	4154
804.204	3937
804.346	4017
804.488	3926
804.63	4048
804.773	3975
804.915	3979
805.057	4162
805.199	4032
805.341	4128
805.483	4150
805.626	4158
805.768	4131
805.91	4219
806.052	4246
806.194	4230
806.336	4329
806.478	4234
806.62	4188
806.762	4166
806.904	4268
807.046	4341
807.188	4204
807.33	4177
807.472	4249
807.614	4215
807.756	4303
807.898	4246
808.04	4227
808.182	4295
808.324	4356
808.465	4424
808.607	4478
808.749	4462
808.891	4409
809.033	4519
809.174	4405
809.316	4284
809.458	4268
809.6	4131
809.741	4147
809.883	4207
810.025	4188
810.166	4265
810.308	4207
810.45	4268
810.591	4227
810.733	4253
810.875	4546
811.016	4824
811.158	5132
811.299	5277
811.441	5303
811.582	5014
811.724	4790
811.865	4497
812.007	4462
812.148	4455
812.29	4447
812.431	4394
812.573	4390
812.714	4421
812.855	4478
812.997	4402
813.138	4474
813.279	4413
813.421	4405
813.562	4379
813.703	4371
813.845	4356
813.986	4253
814.127	4268
814.268	4280
814.41	4295
814.551	4265
814.692	4344
814.833	4287
814.974	4318
815.115	4356
815.256	4223
815.397	4227
815.539	4303
815.68	4185
815.821	4204
815.962	4337
816.103	4295
816.244	4196
816.385	4238
816.526	4287
816.666	4253
816.807	4112
816.948	4147
817.089	4185
817.23	4105
817.371	4078
817.512	4071
817.653	4109
817.793	4074
817.934	4032
818.075	4078
818.216	4120
818.356	4093
818.497	4032
818.638	3964
818.778	3907
818.919	3941
819.06	3861
819.2	3934
819.341	3888
819.481	3831
819.622	3949
819.762	4017
819.903	3949
820.043	3869
820.184	3865
820.324	3842
820.465	3869
820.605	3903
820.746	3899
820.886	3797
821.026	3918
821.167	3918
821.307	3994
821.447	4006
821.588	3983
821.728	3987
821.868	3987
822.008	3888
822.149	3918
822.289	3953
822.429	3823
822.569	3785
822.709	3789
822.849	3724
822.99	3709
823.13	3732
823.27	3759
823.41	3736
823.55	3732
823.69	3743
823.83	3762
823.97	3690
824.11	3591
824.25	3591
824.389	3686
824.529	3686
824.669	3637
824.809	3740
824.949	3755
825.089	3766
825.228	3690
825.368	3603
825.508	3557
825.648	3595
825.787	3618
825.927	3576
826.067	3595
826.206	3705
826.346	3747
826.485	3850
826.625	3896
826.765	3975
826.904	3850
827.044	3610
827.183	3542
827.323	3473
827.462	3481
827.601	3431
827.741	3454
827.88	3454
828.02	3355
828.159	3428
828.298	3477
828.437	3523
828.577	3500
828.716	3633
828.855	3523
828.994	3409
829.134	3378
829.273	3393
829.412	3367
829.551	3370
829.69	3405
829.829	3431
829.968	3511
830.107	3481
830.246	3485
830.385	3389
830.524	3363
830.663	3310
830.802	3298
830.941	3214
831.08	3211
831.219	3313
831.357	3264
831.496	3416
831.635	3218
831.774	3211
831.913	3230
832.051	3100
832.19	3165
832.329	3195
832.467	3131
832.606	3138
832.744	3188
832.883	3184
833.022	3203
833.16	3256
833.299	3310
833.437	3367
833.576	3389
833.714	3420
833.852	3473
833.991	3454
834.129	3477
834.267	3462
834.406	3405
834.544	3473
834.682	3424
834.821	3416
834.959	3599
835.097	3420
835.235	3545
835.373	3515
835.511	3519
835.65	3439
835.788	3511
835.926	3397
836.064	3397
836.202	3409
836.34	3576
836.478	3622
836.615	3568
836.753	3584
836.891	3663
837.029	3606
837.167	3614
837.305	3572
837.443	3523
837.58	3526
837.718	3622
837.856	3599
837.993	3553
838.131	3576
838.269	3599
838.406	3606
838.544	3542
838.681	3473
838.819	3458
838.956	3382
839.094	3401
839.231	3397
839.369	3526
839.506	3747
839.643	3644
839.781	3469
839.918	3428
840.055	3545
840.193	3500
840.33	3526
840.467	3557
840.604	3614
840.742	3808
840.879	3603
841.016	3595
841.153	3610
841.29	3747
841.427	3724
841.564	3698
841.701	3747
841.838	3675
841.975	3717
842.112	3724
842.249	3644
842.385	3660
842.522	3789
842.659	3694
842.796	3671
842.933	3759
843.069	3709
843.206	3701
843.343	3823
843.479	3793
843.616	3835
843.752	3720
843.889	3679
844.025	3861
844.162	3728
844.298	3850
844.435	3793
844.571	3732
844.708	3903
844.844	3979
844.98	4097
845.117	4051
845.253	3903
845.389	3880
845.525	3991
845.661	3991
845.798	3903
845.934	4021
846.07	3972
846.206	4048
846.342	4086
846.478	4051
846.614	3994
846.75	3930
846.886	3926
847.022	4063
847.158	3983
847.294	4021
847.429	4029
847.565	4006
847.701	4261
847.837	3922
847.972	3842
848.108	3915
848.244	3972
848.379	3861
848.515	3838
848.65	3831
848.786	3823
848.921	3857
849.057	3907
849.192	3983
849.328	3922
849.463	3918
849.598	3915
849.734	3854
849.869	3873
850.004	3827
850.14	3766
850.275	3785
850.41	3709
850.545	3724
850.68	3785
850.815	3793
850.95	3827
851.085	3953
851.22	3884
851.355	3865
851.49	3838
851.625	3808
851.76	3819
851.895	3728
852.03	3698
852.165	3797
852.299	3831
852.434	3953
852.569	3812
852.703	3926
852.838	3930
852.973	4006
853.107	4025
853.242	3922
853.376	3865
853.511	3774
853.645	3816
853.78	4025
853.914	3937
854.048	3907
854.183	3903
854.317	3926
854.451	4105
854.585	3949
854.72	3949
854.854	4055
854.988	3949
855.122	3983
855.256	3949
855.39	4044
855.524	4139
855.658	4109
855.792	4109
855.926	4169
856.06	4234
856.194	4211
856.327	4166
856.461	4162
856.595	4147
856.729	4204
856.862	4310
856.996	4295
857.13	4318
857.263	4318
857.397	4329
857.53	4333
857.664	4344
857.797	4405
857.931	4436
858.064	4367
858.197	4485
858.331	4405
858.464	4367
858.597	4383
858.731	4466
858.864	4504
858.997	4451
859.13	4535
859.263	4531
859.396	4634
859.529	4577
859.662	4535
859.795	4535
859.928	4592
860.061	4698
860.194	4778
860.327	4668
860.46	4672
860.592	4729
860.725	4771
860.858	4759
860.99	4721
861.123	4683
861.256	4717
861.388	4733
861.521	5414
861.653	4721
861.786	4748
861.918	4801
862.05	4797
862.183	4885
862.315	4911
862.447	4949
862.58	4892
862.712	4790
862.844	4759
862.976	4850
863.108	4930
863.24	5239
863.372	4839
863.504	4877
863.636	4953
863.768	4949
863.9	4961
864.032	4953
864.164	4976
864.296	4987
864.428	5079
864.559	5117
864.691	5124
864.823	5117
864.954	5128
865.086	5227
865.217	5132
865.349	5132
865.48	5151
865.612	5181
865.743	5254
865.875	5220
866.006	5181
866.137	5231
866.269	5204
866.4	5197
866.531	5284
866.662	5227
866.793	5254
866.924	5277
867.055	5337
867.186	5334
867.317	5364
867.448	5307
867.579	5364
867.71	5383
867.841	5414
867.972	5459
868.103	5520
868.233	5474
868.364	5486
868.495	5547
868.625	5680
868.756	5847
868.886	5634
869.017	5805
869.147	5878
869.278	5885
869.408	5824
869.539	5824
869.669	5916
869.799	5935
869.929	5942
870.06	6045
870.19	6243
870.32	6148
870.45	6254
870.58	6361
870.71	6456
870.84	6437
870.97	6410
871.1	6452
871.23	6673
871.36	6707
871.489	6631
871.619	6749
871.749	6745
871.879	6894
872.008	6951
872.138	6981
872.267	7000
872.397	7023
872.526	7072
872.656	7149
872.785	7217
872.915	7419
873.044	7544
873.173	7582
873.303	7636
873.432	7822
873.561	7852
873.69	7989
873.819	8058
873.948	8157
874.077	8229
874.206	8313
874.335	8522
874.464	8640
874.593	8891
874.722	8929
874.851	9154
874.979	9256
875.108	9298
875.237	9435
875.365	9458
875.494	9644
875.623	9876
875.751	9831
875.88	10010
876.008	10131
876.136	10318
876.265	10531
876.393	10748
876.521	10755
876.65	10805
876.778	10881
876.906	10881
877.034	10987
877.162	11045
877.29	11105
877.418	11250
877.546	11406
877.674	11467
877.802	11467
877.93	11520
878.058	11558
878.185	11638
878.313	11634
878.441	11817
878.568	11646
878.696	11798
878.824	11851
878.951	11874
879.079	11999
879.206	12060
879.333	12049
879.461	11980
879.588	12159
879.715	12026
879.842	12281
879.97	12140
880.097	11882
880.224	11923
880.351	11863
880.478	11958
880.605	11855
880.732	11878
880.859	11973
880.986	11760
881.112	11863
881.239	11691
881.366	11714
881.493	11642
881.619	11528
881.746	11543
881.872	11547
881.999	11539
882.125	11455
882.252	11596
882.378	11474
882.505	11608
882.631	11372
882.757	11364
882.883	11417
883.01	11242
883.136	11288
883.262	11102
883.388	11140
883.514	11174
883.64	11136
883.766	11124
883.892	11022
884.018	10987
884.143	11086
884.269	11090
884.395	10908
884.52	10805
884.646	10786
884.772	10740
884.897	10664
885.023	10717
885.148	10850
885.274	10698
885.399	10744
885.524	10626
885.65	10565
885.775	10504
885.9	10531
886.025	10531
886.15	10634
886.275	10466
886.4	10436
886.525	10421
886.65	10375
886.775	10363
886.9	10474
887.025	10584
887.149	10371
887.274	10268
887.399	10227
887.523	10128
887.648	10169
887.773	10055
887.897	10249
888.021	10230
888.146	10135
888.27	10284
888.395	10169
888.519	10215
888.643	10120
888.767	10192
888.891	10013
889.015	9991
889.139	10021
889.263	9949
889.387	10116
889.511	10143
889.635	10048
889.759	9949
889.883	10025
890.006	9991
890.13	10116
890.254	10040
890.377	9934
890.501	9835
890.624	9869
890.748	9899
890.871	9838
890.995	9800
891.118	9728
891.241	9789
891.364	9774
891.488	9781
891.611	9728
891.734	9755
891.857	9793
891.98	9679
892.103	9804
892.226	9793
892.349	9637
892.471	9488
892.594	9603
892.717	9576
892.839	9587
892.962	9622
893.085	9618
893.207	9507
893.33	9568
893.452	9625
893.575	9561
893.697	9511
893.819	9728
893.941	9629
894.064	9576
894.186	9492
894.308	9443
894.43	9511
894.552	9595
894.674	9561
894.796	9378
894.918	9382
895.04	9374
895.161	9378
895.283	9355
895.405	9306
895.526	9283
895.648	9211
895.769	9275
895.891	9332
896.012	9332
896.134	9218
896.255	9161
896.376	9100
896.498	9154
896.619	9047
896.74	9142
896.861	9097
896.982	9298
897.103	9249
897.224	9203
897.345	9116
897.466	9070
897.587	8994
897.708	9085
897.828	9005
897.949	8933
898.07	8887
898.19	8853
898.311	9058
898.431	8918
898.552	8902
898.672	8971
898.792	9001
898.913	8933
899.033	8864
899.153	8735
899.273	8743
899.393	8735
899.513	8743
899.633	8667
899.753	8766
899.873	8701
899.993	8712
900.113	8667
900.232	8720
900.352	8648
900.472	8644
900.591	8625
900.711	8632
900.83	8526
900.95	8739
901.069	8651
901.189	8556
901.308	8457
901.427	8415
901.546	8415
901.665	8480
901.784	8583
901.904	8400
902.023	8396
902.141	8275
902.26	8202
902.379	8294
902.498	8199
902.617	8221
902.735	8286
902.854	8301
902.973	8225
903.091	8149
903.21	8161
903.328	8142
903.446	8138
903.565	8111
903.683	8043
903.801	8077
903.919	8123
904.038	8149
904.156	8119
904.274	8058
904.392	8020
904.51	8062
904.627	8008
904.745	8058
904.863	8092
904.981	7944
905.098	7894
905.216	7875
905.334	7944
905.451	7814
905.569	7860
905.686	7955
905.803	7913
905.921	7822
906.038	7875
906.155	7822
906.272	7742
906.389	7666
906.506	7647
906.623	7670
906.74	7597
906.857	7571
906.974	7601
907.091	7700
907.208	7822
907.324	7628
907.441	7556
907.557	7430
907.674	7415
907.79	7510
907.907	7388
908.023	7403
908.139	7422
908.256	7415
908.372	7392
908.488	7407
908.604	7305
908.72	7145
908.836	7247
908.952	7255
909.068	7240
909.184	7350
909.3	7285
909.415	7320
909.531	7305
909.647	7118
909.762	7129
909.878	7084
909.993	7099
910.108	7088
910.224	7080
910.339	7141
910.454	7095
910.57	7023
910.685	6989
910.8	7114
910.915	7118
911.03	7015
911.145	6928
911.259	6920
911.374	6886
911.489	6882
911.604	6871
911.718	6783
911.833	6719
911.947	6711
912.062	6566
912.176	6741
912.291	6772
912.405	6711
912.519	6798
912.633	6867
912.748	6760
912.862	6719
912.976	6612
913.09	6559
913.204	6578
913.318	6639
913.431	6681
913.545	6627
913.659	6753
913.772	6620
913.886	6589
914	6601
914.113	6582
914.226	6669
914.34	6608
914.453	6506
914.566	6566
914.68	6452
914.793	6525
914.906	6403
915.019	6399
915.132	6410
915.245	6456
915.358	6494
915.47	6380
915.583	6471
915.696	6513
915.809	6566
915.921	6593
916.034	6410
916.146	6410
916.259	6372
916.371	6460
916.483	6525
916.595	6391
916.708	6399
916.82	6426
916.932	6407
917.044	6418
917.156	6429
917.268	6247
917.38	6365
917.491	6346
917.603	6296
917.715	6433
917.826	6410
917.938	6361
918.049	6228
918.161	6369
918.272	6452
918.384	6452
918.495	6334
918.606	6243
918.717	6232
918.828	6289
918.939	6323
919.05	6232
919.161	6292
919.272	6117
919.383	6167
919.494	6300
919.604	6391
919.715	6308
919.826	6228
919.936	6254
920.047	6304
920.157	6277
920.267	6483
920.378	6346
920.488	6273
920.598	6452
920.708	6544
920.818	6506
920.928	6547
921.038	6593
921.148	6544
921.258	6334
921.368	6300
921.477	6243
921.587	6171
921.697	6053
921.806	6216
921.916	6076
922.025	5980
922.134	5916
922.244	5844
922.353	5961
922.462	5786
922.571	5828
922.68	5748
922.789	5695
922.898	5710
923.007	5661
923.116	5714
923.224	5653
923.333	5672
923.442	5619
923.55	5585
923.659	5573
923.767	5600
923.876	5535
923.984	5604
924.092	5524
924.201	5615
924.309	5566
924.417	5627
924.525	5539
924.633	5471
924.741	6159
924.849	5341
924.956	5471
925.064	5398
925.172	5322
925.279	5322
925.387	5364
925.494	5299
925.602	5436
925.709	5372
925.816	5288
925.924	5337
926.031	5387
926.138	5383
926.245	5269
926.352	5258
926.459	5334
926.566	5368
926.673	5170
926.779	5109
926.886	5151
926.993	4999
927.099	4991
927.206	5025
927.312	4976
927.419	4999
927.525	4953
927.631	5010
927.737	4885
927.843	4892
927.95	4797
928.056	4843
928.162	4862
928.267	4858
928.373	5349
928.479	4854
928.585	4717
928.69	4824
928.796	4771
928.901	4679
929.007	4588
929.112	4714
929.218	4679
929.323	4645
929.428	4550
929.533	4660
929.638	4542
929.743	4546
929.848	4546
929.953	4508
930.058	4470
930.163	4333
930.267	4341
930.372	4440
930.477	4299
930.581	4440
930.685	4405
930.79	4268
930.894	4325
930.998	4242
931.103	4417
931.207	4147
931.311	4101
931.415	4017
931.519	3934
931.623	3941
