Data from glass_V78500241_1813.txt Node
Date: Wed Sep 01 19:27:04 CST 2021
User: usil
Spectrometer: V785-0024
Trigger mode: 0
Integration Time (sec): 4.000000E-1
Scans to average: 1
Nonlinearity correction enabled: false
Boxcar width: 0
Storing dark spectrum: false
XAxis mode: Wavelengths
Number of Pixels in Spectrum: 1024
>>>>>Begin Spectral Data<<<<<
801.071	3728
801.214	3766
801.356	3679
801.499	3740
801.641	3740
801.783	3766
801.926	3854
802.068	3797
802.211	3857
802.353	3876
802.496	3827
802.638	3850
802.78	3888
802.923	3945
803.065	3915
803.208	3865
803.35	3861
803.492	3880
803.635	3892
803.777	3846
803.919	3930
804.061	4139
804.204	3941
804.346	3979
804.488	3918
804.63	4051
804.773	3945
804.915	4025
805.057	4147
805.199	4013
805.341	4093
805.483	4097
805.626	4173
805.768	4143
805.91	4196
806.052	4265
806.194	4196
806.336	4348
806.478	4158
806.62	4181
806.762	4177
806.904	4268
807.046	4314
807.188	4238
807.33	4173
807.472	4219
807.614	4192
807.756	4234
807.898	4204
808.04	4227
808.182	4257
808.324	4352
808.465	4379
808.607	4436
808.749	4421
808.891	4478
809.033	4497
809.174	4447
809.316	4257
809.458	4246
809.6	4105
809.741	4135
809.883	4147
810.025	4227
810.166	4204
810.308	4215
810.45	4223
810.591	4196
810.733	4303
810.875	4500
811.016	4862
811.158	5098
811.299	5280
811.441	5280
811.582	5022
811.724	4675
811.865	4443
812.007	4451
812.148	4451
812.29	4386
812.431	4455
812.573	4383
812.714	4383
812.855	4383
812.997	4443
813.138	4470
813.279	4363
813.421	4341
813.562	4352
813.703	4344
813.845	4341
813.986	4238
814.127	4261
814.268	4219
814.41	4211
814.551	4287
814.692	4291
814.833	4306
814.974	4310
815.115	4299
815.256	4257
815.397	4238
815.539	4276
815.68	4162
815.821	4147
815.962	4284
816.103	4268
816.244	4204
816.385	4268
816.526	4272
816.666	4188
816.807	4086
816.948	4166
817.089	4162
817.23	4128
817.371	4048
817.512	4078
817.653	4090
817.793	4048
817.934	4010
818.075	4071
818.216	4036
818.356	4097
818.497	3998
818.638	3922
818.778	3934
818.919	3850
819.06	3922
819.2	3896
819.341	3854
819.481	3778
819.622	3915
819.762	4017
819.903	4002
820.043	3899
820.184	3865
820.324	3804
820.465	3876
820.605	3838
820.746	3850
820.886	3816
821.026	3899
821.167	3899
821.307	3953
821.447	3975
821.588	3941
821.728	3934
821.868	3911
822.008	3865
822.149	3888
822.289	3922
822.429	3819
822.569	3797
822.709	3759
822.849	3694
822.99	3717
823.13	3778
823.27	3751
823.41	3728
823.55	3759
823.69	3698
823.83	3751
823.97	3656
824.11	3603
824.25	3576
824.389	3618
824.529	3637
824.669	3629
824.809	3728
824.949	3701
825.089	3743
825.228	3667
825.368	3625
825.508	3523
825.648	3553
825.787	3584
825.927	3629
826.067	3656
826.206	3671
826.346	3774
826.485	3793
826.625	3823
826.765	3915
826.904	3827
827.044	3660
827.183	3545
827.323	3424
827.462	3519
827.601	3393
827.741	3424
827.88	3450
828.02	3378
828.159	3439
828.298	3454
828.437	3523
828.577	3477
828.716	3576
828.855	3473
828.994	3401
829.134	3389
829.273	3374
829.412	3325
829.551	3336
829.69	3306
829.829	3443
829.968	3507
830.107	3428
830.246	3439
830.385	3389
830.524	3317
830.663	3332
830.802	3249
830.941	3146
831.08	3214
831.219	3218
831.357	3249
831.496	3397
831.635	3222
831.774	3192
831.913	3192
832.051	3089
832.19	3146
832.329	3184
832.467	3138
832.606	3116
832.744	3150
832.883	3184
833.022	3184
833.16	3226
833.299	3306
833.437	3348
833.576	3367
833.714	3401
833.852	3428
833.991	3416
834.129	3473
834.267	3454
834.406	3397
834.544	3386
834.682	3477
834.821	3397
834.959	3580
835.097	3397
835.235	3496
835.373	3477
835.511	3492
835.65	3447
835.788	3469
835.926	3420
836.064	3401
836.202	3405
836.34	3542
836.478	3652
836.615	3549
836.753	3568
836.891	3618
837.029	3603
837.167	3568
837.305	3568
837.443	3545
837.58	3515
837.718	3576
837.856	3576
837.993	3507
838.131	3595
838.269	3576
838.406	3584
838.544	3572
838.681	3469
838.819	3450
838.956	3382
839.094	3401
839.231	3450
839.369	3542
839.506	3736
839.643	3641
839.781	3466
839.918	3450
840.055	3523
840.193	3500
840.33	3511
840.467	3587
840.604	3572
840.742	3781
840.879	3538
841.016	3580
841.153	3595
841.29	3705
841.427	3705
841.564	3717
841.701	3713
841.838	3641
841.975	3694
842.112	3724
842.249	3633
842.385	3622
842.522	3793
842.659	3694
842.796	3694
842.933	3698
843.069	3736
843.206	3686
843.343	3819
843.479	3774
843.616	3778
843.752	3644
843.889	3679
844.025	3846
844.162	3717
844.298	3884
844.435	3778
844.571	3785
844.708	3953
844.844	3937
844.98	4044
845.117	4021
845.253	3956
845.389	3888
845.525	3941
845.661	3937
845.798	3926
845.934	3983
846.07	3953
846.206	4063
846.342	4116
846.478	4032
846.614	3953
846.75	3892
846.886	3918
847.022	4105
847.158	3945
847.294	3964
847.429	4029
847.565	3987
847.701	4246
847.837	3888
847.972	3865
848.108	4013
848.244	3975
848.379	3869
848.515	3804
848.65	3808
848.786	3876
848.921	3846
849.057	3899
849.192	3953
849.328	3884
849.463	3896
849.598	3888
849.734	3899
849.869	3838
850.004	3808
850.14	3831
850.275	3793
850.41	3736
850.545	3720
850.68	3743
850.815	3785
850.95	3766
851.085	3991
851.22	3857
851.355	3842
851.49	3800
851.625	3804
851.76	3816
851.895	3713
852.03	3724
852.165	3778
852.299	3846
852.434	3876
852.569	3915
852.703	3907
852.838	3937
852.973	4006
853.107	3968
853.242	3880
853.376	3831
853.511	3808
853.645	3846
853.78	3975
853.914	3884
854.048	3911
854.183	3903
854.317	3926
854.451	4071
854.585	3968
854.72	3918
854.854	4055
854.988	3953
855.122	4010
855.256	3937
855.39	4021
855.524	4093
855.658	4078
855.792	4093
855.926	4128
856.06	4173
856.194	4192
856.327	4131
856.461	4105
856.595	4116
856.729	4169
856.862	4299
856.996	4246
857.13	4280
857.263	4375
857.397	4398
857.53	4284
857.664	4329
857.797	4394
857.931	4421
858.064	4375
858.197	4432
858.331	4386
858.464	4371
858.597	4337
858.731	4478
858.864	4455
858.997	4436
859.13	4462
859.263	4542
859.396	4577
859.529	4478
859.662	4542
859.795	4512
859.928	4580
860.061	4702
860.194	4717
860.327	4626
860.46	4588
860.592	4755
860.725	4778
860.858	4774
860.99	4714
861.123	4706
861.256	4702
861.388	4782
861.521	5376
861.653	4694
861.786	4694
861.918	4736
862.05	4782
862.183	4824
862.315	4866
862.447	4923
862.58	4843
862.712	4797
862.844	4816
862.976	4911
863.108	4858
863.24	5292
863.372	4877
863.504	4915
863.636	4873
863.768	4980
863.9	4961
864.032	4934
864.164	4961
864.296	5083
864.428	5090
864.559	5090
864.691	5064
864.823	5132
864.954	5033
865.086	5166
865.217	5128
865.349	5113
865.48	5159
865.612	5170
865.743	5334
865.875	5193
866.006	5155
866.137	5189
866.269	5231
866.4	5208
866.531	5216
866.662	5189
866.793	5288
866.924	5273
867.055	5372
867.186	5406
867.317	5368
867.448	5296
867.579	5402
867.71	5372
867.841	5387
867.972	5452
868.103	5429
868.233	5459
868.364	5524
868.495	5604
868.625	5710
868.756	5790
868.886	5710
869.017	5733
869.147	5847
869.278	5821
869.408	5786
869.539	5802
869.669	5912
869.799	5897
869.929	5973
870.06	6057
870.19	6171
870.32	6220
870.45	6247
870.58	6327
870.71	6479
870.84	6479
870.97	6380
871.1	6418
871.23	6684
871.36	6665
871.489	6684
871.619	6779
871.749	6825
871.879	6852
872.008	6966
872.138	6935
872.267	6977
872.397	6970
872.526	7046
872.656	7050
872.785	7065
872.915	7297
873.044	7480
873.173	7514
873.303	7666
873.432	7776
873.561	7887
873.69	7947
873.819	7989
873.948	8161
874.077	8221
874.206	8237
874.335	8396
874.464	8644
874.593	8868
874.722	8975
874.851	9142
874.979	9203
875.108	9370
875.237	9454
875.365	9458
875.494	9652
875.623	9854
875.751	9800
875.88	9968
876.008	10128
876.136	10280
876.265	10447
876.393	10721
876.521	10801
876.65	10862
876.778	10824
876.906	10965
877.034	11010
877.162	11098
877.29	11235
877.418	11261
877.546	11341
877.674	11311
877.802	11444
877.93	11482
878.058	11547
878.185	11577
878.313	11653
878.441	11840
878.568	11646
878.696	11794
878.824	11893
878.951	11889
879.079	12011
879.206	12125
879.333	12079
879.461	11912
879.588	12022
879.715	12079
879.842	12136
879.97	12038
880.097	11874
880.224	11874
880.351	11859
880.478	11874
880.605	11851
880.732	11832
880.859	12011
880.986	11817
881.112	11802
881.239	11703
881.366	11688
881.493	11638
881.619	11501
881.746	11619
881.872	11573
881.999	11444
882.125	11383
882.252	11547
882.378	11474
882.505	11566
882.631	11349
882.757	11318
882.883	11250
883.01	11242
883.136	11250
883.262	11174
883.388	11094
883.514	11181
883.64	11170
883.766	11041
883.892	10923
884.018	10938
884.143	11056
884.269	11121
884.395	10900
884.52	10771
884.646	10790
884.772	10698
884.897	10694
885.023	10767
885.148	10721
885.274	10809
885.399	10596
885.524	10653
885.65	10607
885.775	10538
885.9	10558
886.025	10588
886.15	10596
886.275	10443
886.4	10306
886.525	10348
886.65	10379
886.775	10375
886.9	10478
887.025	10432
887.149	10329
887.274	10257
887.399	10207
887.523	10150
887.648	10158
887.773	10139
887.897	10268
888.021	10280
888.146	10109
888.27	10299
888.395	10158
888.519	10211
888.643	10249
888.767	10196
888.891	10044
889.015	10017
889.139	9979
889.263	9953
889.387	10101
889.511	10116
889.635	10105
889.759	9922
889.883	9915
890.006	10006
890.13	10112
890.254	9930
890.377	9949
890.501	9876
890.624	9861
890.748	9918
890.871	9789
890.995	9762
891.118	9686
891.241	9770
891.364	9740
891.488	9785
891.611	9766
891.734	9800
891.857	9713
891.98	9732
892.103	9778
892.226	9720
892.349	9606
892.471	9363
892.594	9622
892.717	9606
892.839	9568
892.962	9545
893.085	9610
893.207	9515
893.33	9477
893.452	9504
893.575	9599
893.697	9439
893.819	9576
893.941	9568
894.064	9568
894.186	9382
894.308	9340
894.43	9492
894.552	9587
894.674	9545
894.796	9340
894.918	9332
895.04	9340
895.161	9367
895.283	9370
895.405	9317
895.526	9241
895.648	9214
895.769	9184
895.891	9169
896.012	9245
896.134	9245
896.255	9176
896.376	9188
896.498	9131
896.619	9192
896.74	9108
896.861	9055
896.982	9279
897.103	9275
897.224	9184
897.345	9074
897.466	8990
897.587	9032
897.708	9093
897.828	8990
897.949	8944
898.07	8838
898.19	8925
898.311	9020
898.431	8925
898.552	8891
898.672	8937
898.792	9051
898.913	8849
899.033	8830
899.153	8792
899.273	8708
899.393	8746
899.513	8693
899.633	8712
899.753	8750
899.873	8762
899.993	8659
900.113	8693
900.232	8746
900.352	8708
900.472	8568
900.591	8537
900.711	8598
900.83	8571
900.95	8670
901.069	8693
901.189	8533
901.308	8473
901.427	8393
901.546	8469
901.665	8507
901.784	8511
901.904	8389
902.023	8370
902.141	8225
902.26	8218
902.379	8286
902.498	8218
902.617	8229
902.735	8259
902.854	8275
902.973	8263
903.091	8088
903.21	8153
903.328	8218
903.446	8119
903.565	8065
903.683	8130
903.801	8024
903.919	8039
904.038	8195
904.156	8008
904.274	8100
904.392	7993
904.51	8077
904.627	8046
904.745	8134
904.863	8103
904.981	7913
905.098	7871
905.216	7875
905.334	7917
905.451	7894
905.569	7917
905.686	7906
905.803	7883
905.921	7708
906.038	7909
906.155	7803
906.272	7708
906.389	7677
906.506	7597
906.623	7662
906.74	7594
906.857	7548
906.974	7521
907.091	7696
907.208	7670
907.324	7605
907.441	7578
907.557	7460
907.674	7491
907.79	7400
907.907	7411
908.023	7472
908.139	7403
908.256	7301
908.372	7354
908.488	7324
908.604	7190
908.72	7255
908.836	7278
908.952	7213
909.068	7209
909.184	7297
909.3	7194
909.415	7297
909.531	7278
909.647	7118
909.762	7141
909.878	7019
909.993	7095
910.108	7091
910.224	7084
910.339	7114
910.454	7099
910.57	7027
910.685	6935
910.8	7122
910.915	7145
911.03	7046
911.145	6844
911.259	6844
911.374	6875
911.489	6833
911.604	6806
911.718	6764
911.833	6726
911.947	6646
912.062	6608
912.176	6741
912.291	6703
912.405	6673
912.519	6844
912.633	6821
912.748	6760
912.862	6696
912.976	6688
913.09	6551
913.204	6521
913.318	6627
913.431	6604
913.545	6662
913.659	6757
913.772	6650
913.886	6582
914	6502
914.113	6608
914.226	6650
914.34	6544
914.453	6486
914.566	6589
914.68	6547
914.793	6426
914.906	6391
915.019	6369
915.132	6346
915.245	6467
915.358	6445
915.47	6483
915.583	6441
915.696	6498
915.809	6517
915.921	6494
916.034	6403
916.146	6395
916.259	6403
916.371	6532
916.483	6460
916.595	6418
916.708	6376
916.82	6353
916.932	6338
917.044	6403
917.156	6319
917.268	6353
917.38	6338
917.491	6315
917.603	6296
917.715	6429
917.826	6384
917.938	6323
918.049	6266
918.161	6300
918.272	6422
918.384	6460
918.495	6319
918.606	6270
918.717	6201
918.828	6289
918.939	6220
919.05	6205
919.161	6209
919.272	6106
919.383	6171
919.494	6270
919.604	6395
919.715	6235
919.826	6201
919.936	6197
920.047	6285
920.157	6319
920.267	6445
920.378	6380
920.488	6266
920.598	6475
920.708	6574
920.818	6506
920.928	6452
921.038	6612
921.148	6563
921.258	6376
921.368	6353
921.477	6148
921.587	6148
921.697	6083
921.806	6102
921.916	6079
922.025	5958
922.134	5916
922.244	5859
922.353	5954
922.462	5836
922.571	5752
922.68	5691
922.789	5691
922.898	5676
923.007	5623
923.116	5703
923.224	5688
923.333	5661
923.442	5581
923.55	5596
923.659	5627
923.767	5623
923.876	5482
923.984	5596
924.092	5471
924.201	5520
924.309	5543
924.417	5570
924.525	5509
924.633	5509
924.741	6285
924.849	5417
924.956	5459
925.064	5379
925.172	5337
925.279	5330
925.387	5318
925.494	5360
925.602	5436
925.709	5345
925.816	5277
925.924	5296
926.031	5368
926.138	5280
926.245	5311
926.352	5235
926.459	5307
926.566	5299
926.673	5170
926.779	5151
926.886	5151
926.993	5064
927.099	4965
927.206	4991
927.312	4965
927.419	4995
927.525	4923
927.631	5010
927.737	4892
927.843	4862
927.95	4820
928.056	4835
928.162	4790
928.267	4942
928.373	5341
928.479	4801
928.585	4653
928.69	4755
928.796	4797
928.901	4645
929.007	4615
929.112	4710
929.218	4607
929.323	4607
929.428	4535
929.533	4679
929.638	4527
929.743	4519
929.848	4550
929.953	4497
930.058	4443
930.163	4318
930.267	4325
930.372	4447
930.477	4310
930.581	4455
930.685	4356
930.79	4265
930.894	4314
930.998	4268
931.103	4379
931.207	4139
931.311	4044
931.415	4029
931.519	3998
931.623	3953
