Data from glass_V78500241_1979.txt Node
Date: Wed Sep 01 19:28:13 CST 2021
User: usil
Spectrometer: V785-0024
Trigger mode: 0
Integration Time (sec): 4.000000E-1
Scans to average: 1
Nonlinearity correction enabled: false
Boxcar width: 0
Storing dark spectrum: false
XAxis mode: Wavelengths
Number of Pixels in Spectrum: 1024
>>>>>Begin Spectral Data<<<<<
801.071	3732
801.214	3751
801.356	3698
801.499	3766
801.641	3751
801.783	3728
801.926	3865
802.068	3812
802.211	3857
802.353	3869
802.496	3804
802.638	3922
802.78	3850
802.923	3918
803.065	3888
803.208	3827
803.35	3865
803.492	3896
803.635	3949
803.777	3842
803.919	3911
804.061	4162
804.204	3937
804.346	3899
804.488	3934
804.63	4025
804.773	3934
804.915	3987
805.057	4147
805.199	4048
805.341	4086
805.483	4124
805.626	4150
805.768	4097
805.91	4223
806.052	4219
806.194	4211
806.336	4310
806.478	4211
806.62	4166
806.762	4188
806.904	4215
807.046	4318
807.188	4200
807.33	4139
807.472	4219
807.614	4196
807.756	4291
807.898	4211
808.04	4234
808.182	4249
808.324	4306
808.465	4341
808.607	4436
808.749	4485
808.891	4459
809.033	4516
809.174	4394
809.316	4284
809.458	4276
809.6	4097
809.741	4143
809.883	4116
810.025	4211
810.166	4200
810.308	4211
810.45	4238
810.591	4227
810.733	4261
810.875	4485
811.016	4763
811.158	5109
811.299	5288
811.441	5303
811.582	5056
811.724	4710
811.865	4459
812.007	4462
812.148	4436
812.29	4424
812.431	4371
812.573	4394
812.714	4303
812.855	4421
812.997	4428
813.138	4478
813.279	4436
813.421	4394
813.562	4390
813.703	4352
813.845	4325
813.986	4230
814.127	4265
814.268	4268
814.41	4306
814.551	4230
814.692	4337
814.833	4207
814.974	4337
815.115	4299
815.256	4215
815.397	4234
815.539	4215
815.68	4181
815.821	4185
815.962	4337
816.103	4291
816.244	4242
816.385	4253
816.526	4249
816.666	4207
816.807	4090
816.948	4219
817.089	4120
817.23	4097
817.371	4010
817.512	4051
817.653	4093
817.793	4071
817.934	4074
818.075	4082
818.216	4071
818.356	4086
818.497	4002
818.638	3892
818.778	3930
818.919	3922
819.06	3865
819.2	3941
819.341	3888
819.481	3850
819.622	3907
819.762	4029
819.903	3922
820.043	3857
820.184	3842
820.324	3835
820.465	3857
820.605	3873
820.746	3892
820.886	3816
821.026	3903
821.167	3896
821.307	3964
821.447	4051
821.588	3945
821.728	3975
821.868	3934
822.008	3865
822.149	3907
822.289	3949
822.429	3781
822.569	3759
822.709	3781
822.849	3728
822.99	3720
823.13	3720
823.27	3808
823.41	3679
823.55	3732
823.69	3694
823.83	3747
823.97	3644
824.11	3610
824.25	3606
824.389	3660
824.529	3656
824.669	3641
824.809	3720
824.949	3728
825.089	3720
825.228	3679
825.368	3606
825.508	3549
825.648	3561
825.787	3610
825.927	3656
826.067	3584
826.206	3648
826.346	3736
826.485	3884
826.625	3857
826.765	3896
826.904	3831
827.044	3629
827.183	3530
827.323	3420
827.462	3450
827.601	3462
827.741	3428
827.88	3473
828.02	3336
828.159	3420
828.298	3504
828.437	3557
828.577	3485
828.716	3610
828.855	3473
828.994	3382
829.134	3321
829.273	3424
829.412	3355
829.551	3370
829.69	3348
829.829	3428
829.968	3496
830.107	3424
830.246	3447
830.385	3370
830.524	3332
830.663	3298
830.802	3214
830.941	3222
831.08	3169
831.219	3241
831.357	3275
831.496	3409
831.635	3249
831.774	3207
831.913	3207
832.051	3119
832.19	3157
832.329	3192
832.467	3112
832.606	3100
832.744	3184
832.883	3199
833.022	3195
833.16	3279
833.299	3298
833.437	3329
833.576	3329
833.714	3386
833.852	3405
833.991	3401
834.129	3481
834.267	3485
834.406	3370
834.544	3439
834.682	3443
834.821	3409
834.959	3538
835.097	3382
835.235	3496
835.373	3496
835.511	3477
835.65	3462
835.788	3485
835.926	3431
836.064	3374
836.202	3405
836.34	3587
836.478	3599
836.615	3542
836.753	3568
836.891	3591
837.029	3610
837.167	3591
837.305	3523
837.443	3557
837.58	3492
837.718	3580
837.856	3553
837.993	3561
838.131	3603
838.269	3587
838.406	3584
838.544	3587
838.681	3454
838.819	3450
838.956	3424
839.094	3412
839.231	3416
839.369	3492
839.506	3679
839.643	3584
839.781	3485
839.918	3439
840.055	3553
840.193	3526
840.33	3469
840.467	3545
840.604	3629
840.742	3751
840.879	3500
841.016	3553
841.153	3622
841.29	3747
841.427	3667
841.564	3675
841.701	3705
841.838	3694
841.975	3660
842.112	3732
842.249	3644
842.385	3633
842.522	3808
842.659	3717
842.796	3663
842.933	3713
843.069	3717
843.206	3724
843.343	3823
843.479	3816
843.616	3816
843.752	3648
843.889	3671
844.025	3827
844.162	3701
844.298	3842
844.435	3762
844.571	3785
844.708	3892
844.844	3983
844.98	3998
845.117	4017
845.253	3960
845.389	3884
845.525	3956
845.661	3979
845.798	3896
845.934	3998
846.07	3915
846.206	4040
846.342	4116
846.478	4036
846.614	4017
846.75	3964
846.886	3915
847.022	4051
847.158	3972
847.294	3979
847.429	4078
847.565	3994
847.701	4207
847.837	3892
847.972	3819
848.108	4029
848.244	3945
848.379	3888
848.515	3808
848.65	3804
848.786	3823
848.921	3838
849.057	3888
849.192	3922
849.328	3835
849.463	3918
849.598	3888
849.734	3846
849.869	3789
850.004	3785
850.14	3819
850.275	3781
850.41	3743
850.545	3774
850.68	3736
850.815	3766
850.95	3781
851.085	3915
851.22	3812
851.355	3816
851.49	3797
851.625	3755
851.76	3793
851.895	3709
852.03	3747
852.165	3819
852.299	3842
852.434	3876
852.569	3823
852.703	3896
852.838	3907
852.973	4021
853.107	3994
853.242	3911
853.376	3850
853.511	3743
853.645	3861
853.78	3949
853.914	3876
854.048	3888
854.183	3831
854.317	3941
854.451	4048
854.585	3937
854.72	3922
854.854	4071
854.988	3941
855.122	3994
855.256	3865
855.39	4013
855.524	4086
855.658	4078
855.792	4131
855.926	4173
856.06	4131
856.194	4215
856.327	4128
856.461	4143
856.595	4196
856.729	4158
856.862	4310
856.996	4234
857.13	4291
857.263	4303
857.397	4356
857.53	4234
857.664	4341
857.797	4390
857.931	4405
858.064	4375
858.197	4443
858.331	4375
858.464	4421
858.597	4337
858.731	4447
858.864	4436
858.997	4474
859.13	4447
859.263	4577
859.396	4542
859.529	4481
859.662	4550
859.795	4538
859.928	4603
860.061	4641
860.194	4733
860.327	4656
860.46	4706
860.592	4740
860.725	4721
860.858	4744
860.99	4706
861.123	4630
861.256	4653
861.388	4786
861.521	5410
861.653	4710
861.786	4752
861.918	4687
862.05	4774
862.183	4831
862.315	4900
862.447	4957
862.58	4923
862.712	4759
862.844	4767
862.976	4854
863.108	4858
863.24	5162
863.372	4862
863.504	4927
863.636	4889
863.768	4953
863.9	4980
864.032	4938
864.164	4980
864.296	5003
864.428	5113
864.559	5098
864.691	5140
864.823	5128
864.954	5121
865.086	5140
865.217	5132
865.349	5060
865.48	5159
865.612	5162
865.743	5303
865.875	5227
866.006	5162
866.137	5277
866.269	5273
866.4	5212
866.531	5258
866.662	5261
866.793	5212
866.924	5307
867.055	5387
867.186	5322
867.317	5334
867.448	5246
867.579	5376
867.71	5364
867.841	5379
867.972	5425
868.103	5459
868.233	5440
868.364	5478
868.495	5516
868.625	5661
868.756	5707
868.886	5684
869.017	5779
869.147	5828
869.278	5927
869.408	5859
869.539	5851
869.669	5912
869.799	5927
869.929	5973
870.06	5973
870.19	6144
870.32	6194
870.45	6266
870.58	6300
870.71	6426
870.84	6479
870.97	6418
871.1	6467
871.23	6612
871.36	6700
871.489	6627
871.619	6806
871.749	6802
871.879	6909
872.008	6977
872.138	6909
872.267	7019
872.397	7019
872.526	7065
872.656	7107
872.785	7152
872.915	7373
873.044	7487
873.173	7540
873.303	7605
873.432	7731
873.561	7898
873.69	7913
873.819	7959
873.948	8157
874.077	8225
874.206	8370
874.335	8480
874.464	8644
874.593	8823
874.722	8944
874.851	9104
874.979	9203
875.108	9439
875.237	9469
875.365	9496
875.494	9682
875.623	9880
875.751	9808
875.88	10010
876.008	10177
876.136	10257
876.265	10459
876.393	10664
876.521	10668
876.65	10782
876.778	10927
876.906	10908
877.034	10949
877.162	11048
877.29	11075
877.418	11322
877.546	11269
877.674	11459
877.802	11512
877.93	11440
878.058	11516
878.185	11604
878.313	11596
878.441	11760
878.568	11634
878.696	11863
878.824	11904
878.951	11954
879.079	11973
879.206	12125
879.333	12159
879.461	11988
879.588	12083
879.715	12060
879.842	12186
879.97	12106
880.097	11904
880.224	11847
880.351	11813
880.478	11885
880.605	11855
880.732	11817
880.859	11916
880.986	11847
881.112	11824
881.239	11714
881.366	11600
881.493	11558
881.619	11501
881.746	11554
881.872	11471
881.999	11490
882.125	11421
882.252	11535
882.378	11512
882.505	11630
882.631	11383
882.757	11254
882.883	11277
883.01	11265
883.136	11136
883.262	11136
883.388	11094
883.514	11170
883.64	11185
883.766	11124
883.892	11056
884.018	10965
884.143	11048
884.269	11094
884.395	10858
884.52	10729
884.646	10752
884.772	10733
884.897	10687
885.023	10725
885.148	10767
885.274	10801
885.399	10694
885.524	10599
885.65	10599
885.775	10607
885.9	10531
886.025	10580
886.15	10497
886.275	10485
886.4	10405
886.525	10493
886.65	10402
886.775	10402
886.9	10512
887.025	10512
887.149	10436
887.274	10207
887.399	10204
887.523	10120
887.648	10230
887.773	10109
887.897	10196
888.021	10223
888.146	10093
888.27	10249
888.395	10242
888.519	10124
888.643	10223
888.767	10234
888.891	10067
889.015	9983
889.139	10010
889.263	9968
889.387	10071
889.511	10055
889.635	10097
889.759	9949
889.883	9956
890.006	10021
890.13	10139
890.254	9945
890.377	10021
890.501	9861
890.624	9922
890.748	9873
890.871	9762
890.995	9751
891.118	9789
891.241	9728
891.364	9751
891.488	9808
891.611	9740
891.734	9698
891.857	9778
891.98	9667
892.103	9747
892.226	9740
892.349	9705
892.471	9504
892.594	9610
892.717	9660
892.839	9515
892.962	9603
893.085	9568
893.207	9606
893.33	9477
893.452	9530
893.575	9572
893.697	9458
893.819	9606
893.941	9603
894.064	9599
894.186	9496
894.308	9405
894.43	9523
894.552	9561
894.674	9408
894.796	9367
894.918	9382
895.04	9249
895.161	9351
895.283	9306
895.405	9214
895.526	9283
895.648	9222
895.769	9237
895.891	9241
896.012	9180
896.134	9214
896.255	9184
896.376	9188
896.498	9100
896.619	9085
896.74	9085
896.861	9104
896.982	9291
897.103	9230
897.224	9131
897.345	9085
897.466	9047
897.587	9058
897.708	9123
897.828	9070
897.949	8994
898.07	8937
898.19	8906
898.311	8979
898.431	8792
898.552	8880
898.672	9055
898.792	8925
898.913	8880
899.033	8777
899.153	8731
899.273	8731
899.393	8735
899.513	8750
899.633	8762
899.753	8777
899.873	8693
899.993	8754
900.113	8693
900.232	8693
900.352	8598
900.472	8545
900.591	8560
900.711	8575
900.83	8549
900.95	8712
901.069	8659
901.189	8514
901.308	8393
901.427	8415
901.546	8408
901.665	8438
901.784	8476
901.904	8457
902.023	8244
902.141	8202
902.26	8259
902.379	8343
902.498	8214
902.617	8183
902.735	8301
902.854	8271
902.973	8317
903.091	8153
903.21	8142
903.328	8119
903.446	8107
903.565	8005
903.683	8065
903.801	8046
903.919	8153
904.038	8153
904.156	7986
904.274	8088
904.392	8031
904.51	8050
904.627	8073
904.745	8100
904.863	8134
904.981	7887
905.098	7856
905.216	7833
905.334	7913
905.451	7845
905.569	7871
905.686	7997
905.803	7925
905.921	7799
906.038	7852
906.155	7780
906.272	7700
906.389	7704
906.506	7624
906.623	7624
906.74	7586
906.857	7480
906.974	7556
907.091	7666
907.208	7715
907.324	7590
907.441	7575
907.557	7506
907.674	7468
907.79	7396
907.907	7403
908.023	7483
908.139	7403
908.256	7419
908.372	7346
908.488	7327
908.604	7251
908.72	7285
908.836	7236
908.952	7187
909.068	7270
909.184	7308
909.3	7209
909.415	7259
909.531	7236
909.647	7156
909.762	7107
909.878	7080
909.993	7072
910.108	7107
910.224	7034
910.339	7133
910.454	7084
910.57	7008
910.685	6951
910.8	7118
910.915	7129
911.03	7019
911.145	6871
911.259	6844
911.374	6875
911.489	6833
911.604	6787
911.718	6734
911.833	6734
911.947	6696
912.062	6555
912.176	6669
912.291	6711
912.405	6662
912.519	6806
912.633	6749
912.748	6700
912.862	6700
912.976	6585
913.09	6563
913.204	6608
913.318	6623
913.431	6616
913.545	6642
913.659	6707
913.772	6585
913.886	6570
914	6517
914.113	6604
914.226	6566
914.34	6578
914.453	6448
914.566	6559
914.68	6570
914.793	6475
914.906	6395
915.019	6410
915.132	6388
915.245	6418
915.358	6437
915.47	6448
915.583	6467
915.696	6414
915.809	6460
915.921	6570
916.034	6429
916.146	6391
916.259	6384
916.371	6475
916.483	6395
916.595	6388
916.708	6426
916.82	6372
916.932	6372
917.044	6384
917.156	6395
917.268	6277
917.38	6342
917.491	6357
917.603	6357
917.715	6357
917.826	6384
917.938	6311
918.049	6251
918.161	6346
918.272	6437
918.384	6437
918.495	6346
918.606	6216
918.717	6220
918.828	6243
918.939	6292
919.05	6144
919.161	6273
919.272	6125
919.383	6171
919.494	6327
919.604	6479
919.715	6296
919.826	6209
919.936	6201
920.047	6372
920.157	6228
920.267	6384
920.378	6296
920.488	6258
920.598	6448
920.708	6525
920.818	6437
920.928	6509
921.038	6582
921.148	6494
921.258	6300
921.368	6251
921.477	6178
921.587	6167
921.697	6087
921.806	6194
921.916	6076
922.025	5980
922.134	5916
922.244	5866
922.353	5927
922.462	5851
922.571	5821
922.68	5657
922.789	5714
922.898	5729
923.007	5615
923.116	5680
923.224	5695
923.333	5661
923.442	5570
923.55	5577
923.659	5600
923.767	5592
923.876	5490
923.984	5592
924.092	5532
924.201	5539
924.309	5520
924.417	5497
924.525	5478
924.633	5478
924.741	6224
924.849	5364
924.956	5471
925.064	5341
925.172	5326
925.279	5330
925.387	5360
925.494	5307
925.602	5425
925.709	5395
925.816	5246
925.924	5337
926.031	5322
926.138	5315
926.245	5337
926.352	5178
926.459	5261
926.566	5292
926.673	5193
926.779	5166
926.886	5071
926.993	5022
927.099	4995
927.206	4949
927.312	4938
927.419	5018
927.525	4942
927.631	4991
927.737	4854
927.843	4870
927.95	4809
928.056	4801
928.162	4873
928.267	4843
928.373	5364
928.479	4824
928.585	4664
928.69	4763
928.796	4790
928.901	4660
929.007	4641
929.112	4710
929.218	4622
929.323	4599
929.428	4588
929.533	4664
929.638	4504
929.743	4588
929.848	4565
929.953	4504
930.058	4371
930.163	4325
930.267	4276
930.372	4440
930.477	4348
930.581	4459
930.685	4367
930.79	4219
930.894	4265
930.998	4265
931.103	4363
931.207	4074
931.311	4078
931.415	4017
931.519	3854
931.623	3915
