Data from glass_V78500241_975.txt Node
Date: Wed Sep 01 19:21:15 CST 2021
User: usil
Spectrometer: V785-0024
Trigger mode: 0
Integration Time (sec): 4.000000E-1
Scans to average: 1
Nonlinearity correction enabled: false
Boxcar width: 0
Storing dark spectrum: false
XAxis mode: Wavelengths
Number of Pixels in Spectrum: 1024
>>>>>Begin Spectral Data<<<<<
801.071	3778
801.214	3770
801.356	3732
801.499	3755
801.641	3698
801.783	3770
801.926	3880
802.068	3819
802.211	3835
802.353	3903
802.496	3857
802.638	3941
802.78	3926
802.923	3949
803.065	3899
803.208	3892
803.35	3903
803.492	3945
803.635	3911
803.777	3819
803.919	3949
804.061	4173
804.204	3975
804.346	3945
804.488	3949
804.63	4029
804.773	3994
804.915	4017
805.057	4181
805.199	4051
805.341	4086
805.483	4120
805.626	4109
805.768	4116
805.91	4211
806.052	4223
806.194	4181
806.336	4390
806.478	4230
806.62	4128
806.762	4238
806.904	4322
807.046	4352
807.188	4204
807.33	4173
807.472	4242
807.614	4215
807.756	4303
807.898	4238
808.04	4227
808.182	4310
808.324	4272
808.465	4356
808.607	4455
808.749	4470
808.891	4481
809.033	4478
809.174	4402
809.316	4253
809.458	4291
809.6	4131
809.741	4135
809.883	4166
810.025	4200
810.166	4204
810.308	4207
810.45	4230
810.591	4265
810.733	4303
810.875	4497
811.016	4812
811.158	5159
811.299	5288
811.441	5277
811.582	5071
811.724	4725
811.865	4443
812.007	4470
812.148	4478
812.29	4386
812.431	4432
812.573	4398
812.714	4398
812.855	4478
812.997	4398
813.138	4459
813.279	4462
813.421	4379
813.562	4386
813.703	4341
813.845	4329
813.986	4284
814.127	4268
814.268	4200
814.41	4272
814.551	4272
814.692	4325
814.833	4284
814.974	4295
815.115	4348
815.256	4204
815.397	4265
815.539	4287
815.68	4211
815.821	4238
815.962	4325
816.103	4268
816.244	4230
816.385	4215
816.526	4303
816.666	4276
816.807	4109
816.948	4207
817.089	4192
817.23	4131
817.371	4063
817.512	4029
817.653	4128
817.793	4059
817.934	4074
818.075	4082
818.216	4078
818.356	4078
818.497	3994
818.638	3907
818.778	3884
818.919	3972
819.06	3873
819.2	3915
819.341	3861
819.481	3835
819.622	3941
819.762	3994
819.903	3960
820.043	3941
820.184	3861
820.324	3854
820.465	3865
820.605	3922
820.746	3873
820.886	3800
821.026	3941
821.167	3934
821.307	4006
821.447	4017
821.588	3945
821.728	3972
821.868	3956
822.008	3873
822.149	3964
822.289	3930
822.429	3762
822.569	3785
822.709	3816
822.849	3671
822.99	3766
823.13	3770
823.27	3759
823.41	3694
823.55	3759
823.69	3762
823.83	3778
823.97	3736
824.11	3610
824.25	3614
824.389	3667
824.529	3682
824.669	3652
824.809	3755
824.949	3751
825.089	3736
825.228	3736
825.368	3599
825.508	3595
825.648	3603
825.787	3660
825.927	3637
826.067	3644
826.206	3663
826.346	3804
826.485	3876
826.625	3838
826.765	3930
826.904	3804
827.044	3587
827.183	3507
827.323	3469
827.462	3511
827.601	3424
827.741	3447
827.88	3450
828.02	3397
828.159	3469
828.298	3458
828.437	3492
828.577	3466
828.716	3629
828.855	3545
828.994	3416
829.134	3412
829.273	3431
829.412	3363
829.551	3378
829.69	3367
829.829	3431
829.968	3481
830.107	3428
830.246	3450
830.385	3378
830.524	3378
830.663	3302
830.802	3272
830.941	3245
831.08	3192
831.219	3291
831.357	3256
831.496	3344
831.635	3245
831.774	3195
831.913	3211
832.051	3154
832.19	3123
832.329	3211
832.467	3146
832.606	3123
832.744	3165
832.883	3203
833.022	3214
833.16	3241
833.299	3302
833.437	3321
833.576	3374
833.714	3443
833.852	3466
833.991	3450
834.129	3485
834.267	3481
834.406	3389
834.544	3382
834.682	3401
834.821	3386
834.959	3610
835.097	3401
835.235	3549
835.373	3496
835.511	3500
835.65	3496
835.788	3526
835.926	3409
836.064	3355
836.202	3424
836.34	3553
836.478	3599
836.615	3587
836.753	3641
836.891	3652
837.029	3644
837.167	3618
837.305	3557
837.443	3576
837.58	3523
837.718	3603
837.856	3542
837.993	3526
838.131	3603
838.269	3576
838.406	3606
838.544	3584
838.681	3481
838.819	3496
838.956	3393
839.094	3412
839.231	3447
839.369	3477
839.506	3743
839.643	3652
839.781	3492
839.918	3507
840.055	3504
840.193	3519
840.33	3549
840.467	3549
840.604	3610
840.742	3797
840.879	3549
841.016	3587
841.153	3584
841.29	3747
841.427	3732
841.564	3740
841.701	3755
841.838	3705
841.975	3724
842.112	3713
842.249	3660
842.385	3625
842.522	3808
842.659	3705
842.796	3633
842.933	3717
843.069	3728
843.206	3751
843.343	3819
843.479	3785
843.616	3842
843.752	3671
843.889	3690
844.025	3876
844.162	3728
844.298	3861
844.435	3778
844.571	3861
844.708	3903
844.844	4025
844.98	4002
845.117	4048
845.253	3945
845.389	3865
845.525	3949
845.661	3979
845.798	3934
845.934	4051
846.07	3998
846.206	4093
846.342	4169
846.478	4067
846.614	3987
846.75	3934
846.886	3975
847.022	4055
847.158	3975
847.294	3991
847.429	4013
847.565	4010
847.701	4246
847.837	3835
847.972	3831
848.108	3983
848.244	3972
848.379	3850
848.515	3861
848.65	3816
848.786	3808
848.921	3846
849.057	3918
849.192	3915
849.328	3884
849.463	3907
849.598	3884
849.734	3854
849.869	3911
850.004	3797
850.14	3819
850.275	3778
850.41	3709
850.545	3762
850.68	3804
850.815	3831
850.95	3781
851.085	3907
851.22	3861
851.355	3854
851.49	3789
851.625	3785
851.76	3781
851.895	3740
852.03	3717
852.165	3804
852.299	3873
852.434	3934
852.569	3896
852.703	3880
852.838	3926
852.973	4025
853.107	3987
853.242	3960
853.376	3835
853.511	3732
853.645	3812
853.78	3972
853.914	3918
854.048	3922
854.183	3838
854.317	3960
854.451	4074
854.585	3968
854.72	3945
854.854	4029
854.988	3960
855.122	4002
855.256	3956
855.39	4067
855.524	4090
855.658	4105
855.792	4105
855.926	4128
856.06	4204
856.194	4253
856.327	4150
856.461	4143
856.595	4162
856.729	4158
856.862	4280
856.996	4219
857.13	4299
857.263	4314
857.397	4363
857.53	4287
857.664	4394
857.797	4379
857.931	4443
858.064	4417
858.197	4466
858.331	4386
858.464	4417
858.597	4337
858.731	4470
858.864	4478
858.997	4516
859.13	4527
859.263	4531
859.396	4550
859.529	4558
859.662	4542
859.795	4523
859.928	4653
860.061	4634
860.194	4683
860.327	4611
860.46	4637
860.592	4721
860.725	4790
860.858	4774
860.99	4694
861.123	4698
861.256	4752
861.388	4797
861.521	5596
861.653	4721
861.786	4717
861.918	4771
862.05	4816
862.183	4797
862.315	4930
862.447	4942
862.58	4900
862.712	4786
862.844	4797
862.976	4923
863.108	4911
863.24	5223
863.372	4809
863.504	4904
863.636	4908
863.768	4946
863.9	4965
864.032	4923
864.164	4976
864.296	5018
864.428	5094
864.559	5147
864.691	5124
864.823	5166
864.954	5140
865.086	5151
865.217	5140
865.349	5083
865.48	5147
865.612	5208
865.743	5315
865.875	5250
866.006	5181
866.137	5208
866.269	5208
866.4	5261
866.531	5197
866.662	5261
866.793	5273
866.924	5318
867.055	5341
867.186	5402
867.317	5265
867.448	5280
867.579	5417
867.71	5391
867.841	5410
867.972	5482
868.103	5471
868.233	5562
868.364	5547
868.495	5539
868.625	5646
868.756	5813
868.886	5672
869.017	5775
869.147	5847
869.278	5874
869.408	5798
869.539	5824
869.669	5946
869.799	5965
869.929	6045
870.06	6019
870.19	6243
870.32	6182
870.45	6243
870.58	6327
870.71	6445
870.84	6494
870.97	6380
871.1	6513
871.23	6608
871.36	6692
871.489	6673
871.619	6749
871.749	6818
871.879	6886
872.008	6973
872.138	6951
872.267	6943
872.397	6996
872.526	7053
872.656	7122
872.785	7209
872.915	7438
873.044	7559
873.173	7590
873.303	7613
873.432	7784
873.561	7879
873.69	7967
873.819	8020
873.948	8176
874.077	8271
874.206	8423
874.335	8473
874.464	8667
874.593	8861
874.722	8971
874.851	9100
874.979	9173
875.108	9340
875.237	9492
875.365	9488
875.494	9698
875.623	9838
875.751	9857
875.88	10017
876.008	10112
876.136	10272
876.265	10615
876.393	10683
876.521	10649
876.65	10828
876.778	10877
876.906	10900
877.034	11014
877.162	11140
877.29	11105
877.418	11288
877.546	11383
877.674	11379
877.802	11558
877.93	11577
878.058	11592
878.185	11608
878.313	11642
878.441	11741
878.568	11714
878.696	11817
878.824	11874
878.951	11916
879.079	12057
879.206	12175
879.333	12102
879.461	12102
879.588	12064
879.715	12136
879.842	12213
879.97	12129
880.097	11935
880.224	11840
880.351	11847
880.478	11897
880.605	11874
880.732	11836
880.859	11946
880.986	11779
881.112	11828
881.239	11783
881.366	11653
881.493	11562
881.619	11596
881.746	11585
881.872	11611
881.999	11486
882.125	11463
882.252	11558
882.378	11448
882.505	11573
882.631	11421
882.757	11284
882.883	11349
883.01	11261
883.136	11265
883.262	11083
883.388	11083
883.514	11159
883.64	11246
883.766	11090
883.892	11006
884.018	11052
884.143	11071
884.269	11098
884.395	10881
884.52	10866
884.646	10687
884.772	10778
884.897	10672
885.023	10733
885.148	10729
885.274	10778
885.399	10782
885.524	10607
885.65	10637
885.775	10565
885.9	10592
886.025	10554
886.15	10546
886.275	10478
886.4	10402
886.525	10356
886.65	10493
886.775	10363
886.9	10485
887.025	10523
887.149	10333
887.274	10341
887.399	10211
887.523	10185
887.648	10120
887.773	10158
887.897	10234
888.021	10166
888.146	10158
888.27	10261
888.395	10200
888.519	10181
888.643	10230
888.767	10211
888.891	10078
889.015	10059
889.139	10036
889.263	10051
889.387	10097
889.511	10093
889.635	10139
889.759	9903
889.883	10021
890.006	10010
890.13	10059
890.254	9960
890.377	10040
890.501	9850
890.624	9937
890.748	9941
890.871	9778
890.995	9774
891.118	9743
891.241	9709
891.364	9717
891.488	9865
891.611	9732
891.734	9751
891.857	9690
891.98	9781
892.103	9823
892.226	9709
892.349	9724
892.471	9542
892.594	9622
892.717	9625
892.839	9530
892.962	9614
893.085	9713
893.207	9587
893.33	9545
893.452	9477
893.575	9667
893.697	9477
893.819	9671
893.941	9622
894.064	9595
894.186	9469
894.308	9401
894.43	9576
894.552	9595
894.674	9488
894.796	9431
894.918	9382
895.04	9298
895.161	9389
895.283	9313
895.405	9298
895.526	9294
895.648	9245
895.769	9253
895.891	9287
896.012	9214
896.134	9287
896.255	9165
896.376	9116
896.498	9188
896.619	9066
896.74	9119
896.861	9066
896.982	9256
897.103	9348
897.224	9245
897.345	9116
897.466	8982
897.587	9020
897.708	9089
897.828	9097
897.949	8956
898.07	8880
898.19	8910
898.311	9028
898.431	8906
898.552	8883
898.672	9039
898.792	8910
898.913	8864
899.033	8769
899.153	8807
899.273	8686
899.393	8727
899.513	8678
899.633	8754
899.753	8754
899.873	8693
899.993	8769
900.113	8682
900.232	8796
900.352	8682
900.472	8533
900.591	8545
900.711	8655
900.83	8610
900.95	8686
901.069	8632
901.189	8613
901.308	8469
901.427	8423
901.546	8427
901.665	8469
901.784	8438
901.904	8415
902.023	8317
902.141	8267
902.26	8206
902.379	8252
902.498	8183
902.617	8229
902.735	8279
902.854	8355
902.973	8366
903.091	8123
903.21	8134
903.328	8111
903.446	8149
903.565	8111
903.683	8119
903.801	8043
903.919	8145
904.038	8111
904.156	8027
904.274	8065
904.392	8043
904.51	8065
904.627	8092
904.745	8100
904.863	8069
904.981	7993
905.098	7879
905.216	7887
905.334	7845
905.451	7921
905.569	7909
905.686	7890
905.803	7883
905.921	7875
906.038	7909
906.155	7894
906.272	7696
906.389	7738
906.506	7666
906.623	7624
906.74	7609
906.857	7571
906.974	7586
907.091	7620
907.208	7772
907.324	7559
907.441	7552
907.557	7449
907.674	7506
907.79	7339
907.907	7384
908.023	7403
908.139	7403
908.256	7407
908.372	7430
908.488	7392
908.604	7301
908.72	7251
908.836	7324
908.952	7297
909.068	7312
909.184	7297
909.3	7228
909.415	7301
909.531	7285
909.647	7076
909.762	7088
909.878	7107
909.993	7065
910.108	7129
910.224	7107
910.339	7107
910.454	7053
910.57	7015
910.685	6985
910.8	7187
910.915	7118
911.03	7015
911.145	6890
911.259	6905
911.374	6825
911.489	6890
911.604	6882
911.718	6741
911.833	6791
911.947	6681
912.062	6612
912.176	6738
912.291	6734
912.405	6703
912.519	6821
912.633	6901
912.748	6741
912.862	6753
912.976	6635
913.09	6566
913.204	6597
913.318	6604
913.431	6711
913.545	6684
913.659	6730
913.772	6677
913.886	6566
914	6555
914.113	6623
914.226	6665
914.34	6597
914.453	6532
914.566	6623
914.68	6544
914.793	6502
914.906	6403
915.019	6414
915.132	6327
915.245	6475
915.358	6452
915.47	6471
915.583	6464
915.696	6445
915.809	6555
915.921	6479
916.034	6418
916.146	6494
916.259	6422
916.371	6486
916.483	6452
916.595	6376
916.708	6460
916.82	6403
916.932	6384
917.044	6365
917.156	6365
917.268	6350
917.38	6350
917.491	6331
917.603	6342
917.715	6452
917.826	6426
917.938	6311
918.049	6254
918.161	6342
918.272	6437
918.384	6407
918.495	6357
918.606	6285
918.717	6186
918.828	6281
918.939	6251
919.05	6224
919.161	6273
919.272	6140
919.383	6194
919.494	6292
919.604	6433
919.715	6353
919.826	6243
919.936	6266
920.047	6353
920.157	6331
920.267	6448
920.378	6311
920.488	6300
920.598	6464
920.708	6555
920.818	6479
920.928	6532
921.038	6658
921.148	6582
921.258	6346
921.368	6254
921.477	6178
921.587	6197
921.697	6140
921.806	6220
921.916	6034
922.025	5897
922.134	5958
922.244	5912
922.353	5958
922.462	5836
922.571	5779
922.68	5733
922.789	5676
922.898	5737
923.007	5668
923.116	5703
923.224	5649
923.333	5653
923.442	5608
923.55	5600
923.659	5566
923.767	5638
923.876	5554
923.984	5630
924.092	5539
924.201	5524
924.309	5615
924.417	5611
924.525	5520
924.633	5493
924.741	6186
924.849	5421
924.956	5448
925.064	5360
925.172	5261
925.279	5364
925.387	5341
925.494	5341
925.602	5448
925.709	5383
925.816	5307
925.924	5280
926.031	5414
926.138	5330
926.245	5330
926.352	5239
926.459	5307
926.566	5322
926.673	5258
926.779	5143
926.886	5124
926.993	5048
927.099	5018
927.206	5056
927.312	4968
927.419	5033
927.525	4965
927.631	4984
927.737	4911
927.843	4854
927.95	4790
928.056	4892
928.162	4854
928.267	4873
928.373	5349
928.479	4870
928.585	4668
928.69	4797
928.796	4839
928.901	4683
929.007	4626
929.112	4641
929.218	4668
929.323	4592
929.428	4535
929.533	4660
929.638	4535
929.743	4554
929.848	4580
929.953	4527
930.058	4451
930.163	4356
930.267	4360
930.372	4462
930.477	4276
930.581	4485
930.685	4417
930.79	4291
930.894	4265
930.998	4238
931.103	4409
931.207	4093
931.311	4109
931.415	4036
931.519	3949
931.623	4002
