Data from glass_V78500241_903.txt Node
Date: Wed Sep 01 19:20:45 CST 2021
User: usil
Spectrometer: V785-0024
Trigger mode: 0
Integration Time (sec): 4.000000E-1
Scans to average: 1
Nonlinearity correction enabled: false
Boxcar width: 0
Storing dark spectrum: false
XAxis mode: Wavelengths
Number of Pixels in Spectrum: 1024
>>>>>Begin Spectral Data<<<<<
801.071	3694
801.214	3781
801.356	3770
801.499	3759
801.641	3770
801.783	3762
801.926	3857
802.068	3774
802.211	3861
802.353	3892
802.496	3873
802.638	3831
802.78	3930
802.923	3918
803.065	3953
803.208	3823
803.35	3880
803.492	3907
803.635	3911
803.777	3800
803.919	3865
804.061	4173
804.204	3968
804.346	3983
804.488	3918
804.63	4044
804.773	3979
804.915	3987
805.057	4139
805.199	4044
805.341	4158
805.483	4150
805.626	4154
805.768	4154
805.91	4234
806.052	4234
806.194	4249
806.336	4333
806.478	4215
806.62	4188
806.762	4192
806.904	4306
807.046	4344
807.188	4257
807.33	4196
807.472	4230
807.614	4227
807.756	4246
807.898	4219
808.04	4223
808.182	4295
808.324	4360
808.465	4409
808.607	4466
808.749	4443
808.891	4459
809.033	4516
809.174	4394
809.316	4238
809.458	4268
809.6	4196
809.741	4112
809.883	4154
810.025	4291
810.166	4192
810.308	4242
810.45	4249
810.591	4291
810.733	4295
810.875	4478
811.016	4870
811.158	5178
811.299	5288
811.441	5315
811.582	5064
811.724	4725
811.865	4455
812.007	4500
812.148	4405
812.29	4398
812.431	4428
812.573	4386
812.714	4371
812.855	4447
812.997	4443
813.138	4527
813.279	4402
813.421	4421
813.562	4394
813.703	4325
813.845	4238
813.986	4261
814.127	4287
814.268	4287
814.41	4295
814.551	4253
814.692	4356
814.833	4295
814.974	4299
815.115	4375
815.256	4303
815.397	4215
815.539	4265
815.68	4253
815.821	4204
815.962	4291
816.103	4261
816.244	4261
816.385	4227
816.526	4325
816.666	4268
816.807	4147
816.948	4185
817.089	4177
817.23	4147
817.371	4067
817.512	4082
817.653	4093
817.793	4013
817.934	4097
818.075	4109
818.216	4048
818.356	4112
818.497	4025
818.638	3960
818.778	3945
818.919	3915
819.06	3884
819.2	3956
819.341	3865
819.481	3857
819.622	3880
819.762	4055
819.903	3953
820.043	3888
820.184	3888
820.324	3854
820.465	3876
820.605	3838
820.746	3876
820.886	3812
821.026	3930
821.167	3949
821.307	3994
821.447	3975
821.588	3979
821.728	3934
821.868	3964
822.008	3907
822.149	3926
822.289	3915
822.429	3789
822.569	3755
822.709	3827
822.849	3740
822.99	3732
823.13	3759
823.27	3838
823.41	3679
823.55	3720
823.69	3709
823.83	3762
823.97	3648
824.11	3564
824.25	3610
824.389	3644
824.529	3686
824.669	3622
824.809	3728
824.949	3759
825.089	3770
825.228	3690
825.368	3599
825.508	3637
825.648	3534
825.787	3637
825.927	3663
826.067	3633
826.206	3660
826.346	3793
826.485	3892
826.625	3854
826.765	3956
826.904	3819
827.044	3637
827.183	3485
827.323	3462
827.462	3519
827.601	3458
827.741	3443
827.88	3431
828.02	3382
828.159	3462
828.298	3477
828.437	3538
828.577	3439
828.716	3580
828.855	3542
828.994	3416
829.134	3363
829.273	3386
829.412	3367
829.551	3382
829.69	3405
829.829	3443
829.968	3549
830.107	3447
830.246	3500
830.385	3386
830.524	3336
830.663	3329
830.802	3272
830.941	3207
831.08	3214
831.219	3245
831.357	3260
831.496	3424
831.635	3241
831.774	3192
831.913	3165
832.051	3184
832.19	3199
832.329	3218
832.467	3138
832.606	3119
832.744	3135
832.883	3146
833.022	3241
833.16	3283
833.299	3298
833.437	3348
833.576	3370
833.714	3439
833.852	3450
833.991	3443
834.129	3466
834.267	3447
834.406	3378
834.544	3412
834.682	3405
834.821	3435
834.959	3614
835.097	3443
835.235	3568
835.373	3538
835.511	3439
835.65	3515
835.788	3549
835.926	3370
836.064	3401
836.202	3412
836.34	3568
836.478	3606
836.615	3538
836.753	3603
836.891	3644
837.029	3625
837.167	3614
837.305	3606
837.443	3557
837.58	3496
837.718	3610
837.856	3614
837.993	3523
838.131	3606
838.269	3557
838.406	3606
838.544	3599
838.681	3462
838.819	3473
838.956	3348
839.094	3424
839.231	3450
839.369	3545
839.506	3770
839.643	3606
839.781	3519
839.918	3492
840.055	3564
840.193	3561
840.33	3549
840.467	3568
840.604	3591
840.742	3838
840.879	3523
841.016	3580
841.153	3629
841.29	3728
841.427	3740
841.564	3717
841.701	3736
841.838	3709
841.975	3690
842.112	3747
842.249	3660
842.385	3633
842.522	3842
842.659	3633
842.796	3686
842.933	3740
843.069	3705
843.206	3694
843.343	3869
843.479	3789
843.616	3778
843.752	3698
843.889	3690
844.025	3827
844.162	3724
844.298	3861
844.435	3759
844.571	3827
844.708	3918
844.844	3987
844.98	4044
845.117	4006
845.253	3945
845.389	3880
845.525	3930
845.661	3972
845.798	3930
845.934	3998
846.07	3968
846.206	4097
846.342	4131
846.478	4097
846.614	4017
846.75	3941
846.886	3934
847.022	4044
847.158	3979
847.294	4006
847.429	4032
847.565	4021
847.701	4257
847.837	3903
847.972	3869
848.108	3998
848.244	3956
848.379	3861
848.515	3827
848.65	3812
848.786	3842
848.921	3956
849.057	3918
849.192	3941
849.328	3907
849.463	3949
849.598	3903
849.734	3911
849.869	3873
850.004	3835
850.14	3831
850.275	3781
850.41	3743
850.545	3759
850.68	3778
850.815	3774
850.95	3819
851.085	3941
851.22	3918
851.355	3819
851.49	3804
851.625	3766
851.76	3778
851.895	3736
852.03	3732
852.165	3804
852.299	3873
852.434	3869
852.569	3869
852.703	3911
852.838	3960
852.973	3994
853.107	3972
853.242	3892
853.376	3846
853.511	3785
853.645	3842
853.78	3991
853.914	3922
854.048	3926
854.183	3911
854.317	3949
854.451	4082
854.585	3922
854.72	3964
854.854	4044
854.988	3926
855.122	4040
855.256	3949
855.39	4010
855.524	4093
855.658	4090
855.792	4147
855.926	4139
856.06	4162
856.194	4249
856.327	4109
856.461	4158
856.595	4158
856.729	4177
856.862	4314
856.996	4249
857.13	4299
857.263	4314
857.397	4367
857.53	4291
857.664	4367
857.797	4383
857.931	4398
858.064	4424
858.197	4417
858.331	4348
858.464	4417
858.597	4383
858.731	4474
858.864	4485
858.997	4474
859.13	4542
859.263	4512
859.396	4607
859.529	4508
859.662	4561
859.795	4516
859.928	4554
860.061	4729
860.194	4733
860.327	4698
860.46	4691
860.592	4755
860.725	4748
860.858	4782
860.99	4714
861.123	4744
861.256	4691
861.388	4835
861.521	5524
861.653	4702
861.786	4691
861.918	4786
862.05	4805
862.183	4873
862.315	4870
862.447	4923
862.58	4908
862.712	4831
862.844	4778
862.976	4892
863.108	4870
863.24	5185
863.372	4812
863.504	4870
863.636	4870
863.768	4965
863.9	4984
864.032	4972
864.164	4980
864.296	5045
864.428	5079
864.559	5109
864.691	5113
864.823	5098
864.954	5102
865.086	5197
865.217	5170
865.349	5162
865.48	5140
865.612	5189
865.743	5307
865.875	5208
866.006	5208
866.137	5246
866.269	5269
866.4	5280
866.531	5242
866.662	5258
866.793	5288
866.924	5330
867.055	5318
867.186	5334
867.317	5357
867.448	5357
867.579	5376
867.71	5383
867.841	5372
867.972	5486
868.103	5543
868.233	5528
868.364	5520
868.495	5577
868.625	5668
868.756	5771
868.886	5684
869.017	5760
869.147	5908
869.278	5870
869.408	5844
869.539	5851
869.669	5939
869.799	5969
869.929	6011
870.06	6030
870.19	6209
870.32	6163
870.45	6277
870.58	6292
870.71	6426
870.84	6479
870.97	6407
871.1	6452
871.23	6658
871.36	6688
871.489	6707
871.619	6764
871.749	6814
871.879	6856
872.008	7004
872.138	6947
872.267	7034
872.397	6954
872.526	7012
872.656	7107
872.785	7179
872.915	7411
873.044	7537
873.173	7525
873.303	7647
873.432	7776
873.561	7841
873.69	7928
873.819	8016
873.948	8168
874.077	8294
874.206	8358
874.335	8366
874.464	8678
874.593	8902
874.722	9017
874.851	9192
874.979	9249
875.108	9439
875.237	9473
875.365	9466
875.494	9736
875.623	9857
875.751	9869
875.88	9968
876.008	10135
876.136	10253
876.265	10565
876.393	10740
876.521	10801
876.65	10797
876.778	10866
876.906	10877
877.034	10965
877.162	11067
877.29	11185
877.418	11269
877.546	11372
877.674	11486
877.802	11566
877.93	11463
878.058	11615
878.185	11562
878.313	11748
878.441	11798
878.568	11653
878.696	11722
878.824	11973
878.951	11927
879.079	12022
879.206	12155
879.333	12034
879.461	12053
879.588	12038
879.715	12117
879.842	12197
879.97	12091
880.097	11954
880.224	11889
880.351	11866
880.478	11954
880.605	11885
880.732	11802
880.859	11950
880.986	11832
881.112	11863
881.239	11726
881.366	11642
881.493	11653
881.619	11547
881.746	11615
881.872	11554
881.999	11512
882.125	11474
882.252	11611
882.378	11455
882.505	11512
882.631	11345
882.757	11273
882.883	11273
883.01	11277
883.136	11208
883.262	11056
883.388	11056
883.514	11216
883.64	11201
883.766	11151
883.892	11060
884.018	10991
884.143	11083
884.269	11185
884.395	10854
884.52	10748
884.646	10820
884.772	10683
884.897	10698
885.023	10687
885.148	10694
885.274	10816
885.399	10645
885.524	10607
885.65	10573
885.775	10580
885.9	10599
886.025	10603
886.15	10497
886.275	10436
886.4	10409
886.525	10493
886.65	10386
886.775	10447
886.9	10432
887.025	10558
887.149	10371
887.274	10192
887.399	10219
887.523	10162
887.648	10150
887.773	10105
887.897	10276
888.021	10188
888.146	10188
888.27	10261
888.395	10227
888.519	10192
888.643	10158
888.767	10169
888.891	10006
889.015	10074
889.139	10002
889.263	10048
889.387	10055
889.511	10093
889.635	10120
889.759	9945
889.883	9922
890.006	10025
890.13	10120
890.254	9956
890.377	10040
890.501	9812
890.624	9895
890.748	9861
890.871	9827
890.995	9751
891.118	9747
891.241	9800
891.364	9785
891.488	9888
891.611	9766
891.734	9781
891.857	9743
891.98	9724
892.103	9709
892.226	9781
892.349	9629
892.471	9580
892.594	9557
892.717	9606
892.839	9584
892.962	9644
893.085	9603
893.207	9568
893.33	9481
893.452	9473
893.575	9538
893.697	9553
893.819	9614
893.941	9591
894.064	9580
894.186	9458
894.308	9386
894.43	9557
894.552	9538
894.674	9492
894.796	9370
894.918	9408
895.04	9321
895.161	9397
895.283	9348
895.405	9321
895.526	9230
895.648	9283
895.769	9256
895.891	9310
896.012	9310
896.134	9184
896.255	9203
896.376	9112
896.498	9146
896.619	9127
896.74	9081
896.861	9089
896.982	9291
897.103	9332
897.224	9226
897.345	9066
897.466	9043
897.587	8975
897.708	9119
897.828	9005
897.949	9017
898.07	8853
898.19	8948
898.311	8994
898.431	8887
898.552	9013
898.672	9047
898.792	8998
898.913	8849
899.033	8853
899.153	8838
899.273	8667
899.393	8746
899.513	8819
899.633	8693
899.753	8670
899.873	8758
899.993	8716
900.113	8746
900.232	8678
900.352	8678
900.472	8571
900.591	8560
900.711	8644
900.83	8640
900.95	8670
901.069	8781
901.189	8503
901.308	8530
901.427	8393
901.546	8404
901.665	8457
901.784	8522
901.904	8404
902.023	8351
902.141	8263
902.26	8267
902.379	8267
902.498	8202
902.617	8240
902.735	8320
902.854	8294
902.973	8279
903.091	8172
903.21	8176
903.328	8153
903.446	8142
903.565	8065
903.683	8096
903.801	8081
903.919	8142
904.038	8164
904.156	8043
904.274	8115
904.392	8043
904.51	8012
904.627	8043
904.745	8062
904.863	8035
904.981	7947
905.098	7917
905.216	7894
905.334	7887
905.451	7940
905.569	7917
905.686	7940
905.803	7925
905.921	7818
906.038	7879
906.155	7833
906.272	7742
906.389	7799
906.506	7636
906.623	7620
906.74	7681
906.857	7578
906.974	7575
907.091	7708
907.208	7727
907.324	7628
907.441	7567
907.557	7468
907.674	7468
907.79	7407
907.907	7468
908.023	7407
908.139	7415
908.256	7354
908.372	7411
908.488	7419
908.604	7312
908.72	7221
908.836	7278
908.952	7285
909.068	7270
909.184	7396
909.3	7236
909.415	7320
909.531	7282
909.647	7122
909.762	7114
909.878	7183
909.993	7141
910.108	7084
910.224	7103
910.339	7187
910.454	7050
910.57	7008
910.685	6958
910.8	7190
910.915	7137
911.03	7031
911.145	6905
911.259	6856
911.374	6897
911.489	6875
911.604	6837
911.718	6722
911.833	6662
911.947	6734
912.062	6627
912.176	6719
912.291	6707
912.405	6715
912.519	6833
912.633	6837
912.748	6726
912.862	6745
912.976	6608
913.09	6486
913.204	6608
913.318	6623
913.431	6684
913.545	6707
913.659	6745
913.772	6627
913.886	6574
914	6559
914.113	6604
914.226	6654
914.34	6570
914.453	6502
914.566	6593
914.68	6574
914.793	6486
914.906	6475
915.019	6376
915.132	6365
915.245	6395
915.358	6433
915.47	6410
915.583	6445
915.696	6490
915.809	6532
915.921	6494
916.034	6361
916.146	6407
916.259	6372
916.371	6426
916.483	6521
916.595	6407
916.708	6452
916.82	6380
916.932	6407
917.044	6437
917.156	6410
917.268	6365
917.38	6365
917.491	6357
917.603	6407
917.715	6414
917.826	6422
917.938	6342
918.049	6243
918.161	6391
918.272	6384
918.384	6410
918.495	6334
918.606	6277
918.717	6201
918.828	6300
918.939	6239
919.05	6201
919.161	6285
919.272	6106
919.383	6167
919.494	6251
919.604	6460
919.715	6262
919.826	6239
919.936	6285
920.047	6342
920.157	6262
920.267	6448
920.378	6323
920.488	6289
920.598	6467
920.708	6494
920.818	6467
920.928	6433
921.038	6665
921.148	6623
921.258	6391
921.368	6327
921.477	6216
921.587	6182
921.697	6144
921.806	6175
921.916	6095
922.025	5999
922.134	5859
922.244	5961
922.353	5950
922.462	5813
922.571	5798
922.68	5733
922.789	5722
922.898	5718
923.007	5668
923.116	5733
923.224	5695
923.333	5703
923.442	5630
923.55	5551
923.659	5623
923.767	5661
923.876	5520
923.984	5532
924.092	5539
924.201	5528
924.309	5558
924.417	5611
924.525	5524
924.633	5543
924.741	6186
924.849	5395
924.956	5490
925.064	5398
925.172	5311
925.279	5288
925.387	5387
925.494	5364
925.602	5474
925.709	5398
925.816	5296
925.924	5299
926.031	5326
926.138	5318
926.245	5334
926.352	5258
926.459	5349
926.566	5360
926.673	5223
926.779	5155
926.886	5102
926.993	5014
927.099	4995
927.206	5003
927.312	4957
927.419	5064
927.525	4946
927.631	4961
927.737	4866
927.843	4831
927.95	4759
928.056	4858
928.162	4801
928.267	4866
928.373	5330
928.479	4915
928.585	4706
928.69	4733
928.796	4759
928.901	4675
929.007	4634
929.112	4645
929.218	4664
929.323	4611
929.428	4561
929.533	4637
929.638	4516
929.743	4561
929.848	4599
929.953	4500
930.058	4478
930.163	4371
930.267	4318
930.372	4421
930.477	4295
930.581	4508
930.685	4413
930.79	4348
930.894	4299
930.998	4272
931.103	4421
931.207	4139
931.311	4112
931.415	4002
931.519	3956
931.623	3915
