Data from glass_V78500241_854.txt Node
Date: Wed Sep 01 19:20:25 CST 2021
User: usil
Spectrometer: V785-0024
Trigger mode: 0
Integration Time (sec): 4.000000E-1
Scans to average: 1
Nonlinearity correction enabled: false
Boxcar width: 0
Storing dark spectrum: false
XAxis mode: Wavelengths
Number of Pixels in Spectrum: 1024
>>>>>Begin Spectral Data<<<<<
801.071	3709
801.214	3808
801.356	3762
801.499	3781
801.641	3720
801.783	3762
801.926	3903
802.068	3873
802.211	3873
802.353	3899
802.496	3854
802.638	3846
802.78	3892
802.923	3945
803.065	3865
803.208	3880
803.35	3888
803.492	3903
803.635	3903
803.777	3831
803.919	3907
804.061	4169
804.204	3987
804.346	3960
804.488	3930
804.63	4051
804.773	3991
804.915	4048
805.057	4166
805.199	4071
805.341	4112
805.483	4147
805.626	4188
805.768	4128
805.91	4238
806.052	4246
806.194	4234
806.336	4356
806.478	4181
806.62	4173
806.762	4181
806.904	4219
807.046	4371
807.188	4268
807.33	4162
807.472	4276
807.614	4234
807.756	4295
807.898	4238
808.04	4265
808.182	4268
808.324	4348
808.465	4337
808.607	4478
808.749	4432
808.891	4478
809.033	4489
809.174	4383
809.316	4276
809.458	4303
809.6	4143
809.741	4135
809.883	4166
810.025	4257
810.166	4257
810.308	4276
810.45	4268
810.591	4291
810.733	4322
810.875	4523
811.016	4850
811.158	5151
811.299	5223
811.441	5303
811.582	5056
811.724	4740
811.865	4478
812.007	4489
812.148	4440
812.29	4405
812.431	4424
812.573	4409
812.714	4402
812.855	4409
812.997	4462
813.138	4470
813.279	4398
813.421	4390
813.562	4386
813.703	4375
813.845	4352
813.986	4268
814.127	4227
814.268	4284
814.41	4306
814.551	4253
814.692	4329
814.833	4265
814.974	4333
815.115	4341
815.256	4276
815.397	4242
815.539	4230
815.68	4181
815.821	4204
815.962	4371
816.103	4242
816.244	4257
816.385	4207
816.526	4287
816.666	4246
816.807	4093
816.948	4150
817.089	4173
817.23	4143
817.371	4090
817.512	4055
817.653	4086
817.793	4044
817.934	4010
818.075	4112
818.216	4082
818.356	4101
818.497	3991
818.638	3930
818.778	3934
818.919	3892
819.06	3892
819.2	3861
819.341	3865
819.481	3846
819.622	3945
819.762	4044
819.903	3930
820.043	3922
820.184	3857
820.324	3850
820.465	3880
820.605	3922
820.746	3896
820.886	3793
821.026	3930
821.167	3922
821.307	3975
821.447	4021
821.588	3941
821.728	3926
821.868	3930
822.008	3903
822.149	3953
822.289	3941
822.429	3800
822.569	3781
822.709	3819
822.849	3724
822.99	3675
823.13	3797
823.27	3778
823.41	3740
823.55	3778
823.69	3713
823.83	3728
823.97	3698
824.11	3599
824.25	3564
824.389	3652
824.529	3671
824.669	3652
824.809	3701
824.949	3785
825.089	3759
825.228	3698
825.368	3599
825.508	3599
825.648	3591
825.787	3538
825.927	3637
826.067	3610
826.206	3667
826.346	3831
826.485	3838
826.625	3846
826.765	3930
826.904	3876
827.044	3622
827.183	3557
827.323	3428
827.462	3492
827.601	3466
827.741	3435
827.88	3458
828.02	3386
828.159	3428
828.298	3504
828.437	3519
828.577	3481
828.716	3599
828.855	3515
828.994	3374
829.134	3344
829.273	3397
829.412	3363
829.551	3382
829.69	3336
829.829	3447
829.968	3526
830.107	3435
830.246	3454
830.385	3359
830.524	3306
830.663	3298
830.802	3268
830.941	3207
831.08	3169
831.219	3268
831.357	3245
831.496	3405
831.635	3233
831.774	3203
831.913	3218
832.051	3116
832.19	3161
832.329	3214
832.467	3146
832.606	3131
832.744	3188
832.883	3199
833.022	3188
833.16	3264
833.299	3306
833.437	3336
833.576	3401
833.714	3409
833.852	3431
833.991	3412
834.129	3485
834.267	3488
834.406	3393
834.544	3443
834.682	3458
834.821	3420
834.959	3572
835.097	3454
835.235	3530
835.373	3530
835.511	3507
835.65	3454
835.788	3447
835.926	3405
836.064	3378
836.202	3416
836.34	3561
836.478	3633
836.615	3530
836.753	3644
836.891	3641
837.029	3629
837.167	3576
837.305	3538
837.443	3545
837.58	3523
837.718	3625
837.856	3572
837.993	3523
838.131	3606
838.269	3595
838.406	3576
838.544	3625
838.681	3496
838.819	3454
838.956	3409
839.094	3409
839.231	3439
839.369	3523
839.506	3766
839.643	3633
839.781	3488
839.918	3443
840.055	3557
840.193	3523
840.33	3549
840.467	3591
840.604	3614
840.742	3838
840.879	3542
841.016	3576
841.153	3652
841.29	3747
841.427	3736
841.564	3755
841.701	3740
841.838	3701
841.975	3736
842.112	3709
842.249	3641
842.385	3656
842.522	3831
842.659	3694
842.796	3732
842.933	3690
843.069	3728
843.206	3698
843.343	3850
843.479	3774
843.616	3861
843.752	3652
843.889	3671
844.025	3865
844.162	3701
844.298	3827
844.435	3816
844.571	3747
844.708	3857
844.844	3994
844.98	4029
845.117	4040
845.253	3911
845.389	3892
845.525	3949
845.661	3998
845.798	3937
845.934	4013
846.07	3953
846.206	4063
846.342	4131
846.478	4078
846.614	3991
846.75	3903
846.886	3926
847.022	4032
847.158	4040
847.294	3998
847.429	4036
847.565	4048
847.701	4238
847.837	3850
847.972	3907
848.108	3987
848.244	4013
848.379	3873
848.515	3861
848.65	3816
848.786	3857
848.921	3873
849.057	3983
849.192	3972
849.328	3907
849.463	3926
849.598	3930
849.734	3812
849.869	3835
850.004	3781
850.14	3823
850.275	3774
850.41	3747
850.545	3781
850.68	3800
850.815	3793
850.95	3778
851.085	3964
851.22	3892
851.355	3827
851.49	3838
851.625	3819
851.76	3808
851.895	3762
852.03	3720
852.165	3793
852.299	3857
852.434	3911
852.569	3892
852.703	3930
852.838	3953
852.973	4029
853.107	3987
853.242	3911
853.376	3888
853.511	3838
853.645	3861
853.78	3960
853.914	3949
854.048	3892
854.183	3896
854.317	3975
854.451	4112
854.585	3934
854.72	3949
854.854	4082
854.988	3949
855.122	4017
855.256	3934
855.39	4025
855.524	4139
855.658	4105
855.792	4150
855.926	4188
856.06	4188
856.194	4238
856.327	4124
856.461	4120
856.595	4196
856.729	4192
856.862	4322
856.996	4276
857.13	4310
857.263	4325
857.397	4394
857.53	4234
857.664	4310
857.797	4386
857.931	4440
858.064	4428
858.197	4478
858.331	4367
858.464	4375
858.597	4367
858.731	4474
858.864	4512
858.997	4478
859.13	4489
859.263	4535
859.396	4615
859.529	4535
859.662	4577
859.795	4535
859.928	4607
860.061	4771
860.194	4721
860.327	4679
860.46	4679
860.592	4721
860.725	4782
860.858	4778
860.99	4714
861.123	4687
861.256	4721
861.388	4812
861.521	5402
861.653	4725
861.786	4694
861.918	4771
862.05	4793
862.183	4847
862.315	4911
862.447	5003
862.58	4854
862.712	4831
862.844	4771
862.976	4866
863.108	4820
863.24	5239
863.372	4831
863.504	4904
863.636	4908
863.768	4980
863.9	4930
864.032	4980
864.164	4949
864.296	5033
864.428	5128
864.559	5128
864.691	5064
864.823	5143
864.954	5064
865.086	5189
865.217	5102
865.349	5109
865.48	5128
865.612	5170
865.743	5277
865.875	5220
866.006	5223
866.137	5288
866.269	5246
866.4	5277
866.531	5223
866.662	5231
866.793	5307
866.924	5345
867.055	5368
867.186	5364
867.317	5322
867.448	5337
867.579	5337
867.71	5364
867.841	5414
867.972	5425
868.103	5497
868.233	5471
868.364	5543
868.495	5509
868.625	5718
868.756	5794
868.886	5684
869.017	5767
869.147	5908
869.278	5836
869.408	5794
869.539	5855
869.669	5954
869.799	5912
869.929	6007
870.06	6015
870.19	6213
870.32	6171
870.45	6262
870.58	6315
870.71	6399
870.84	6509
870.97	6452
871.1	6471
871.23	6623
871.36	6719
871.489	6650
871.619	6730
871.749	6882
871.879	6901
872.008	6977
872.138	6897
872.267	7012
872.397	6966
872.526	7099
872.656	7103
872.785	7175
872.915	7331
873.044	7521
873.173	7544
873.303	7605
873.432	7719
873.561	7894
873.69	7917
873.819	8005
873.948	8168
874.077	8221
874.206	8294
874.335	8507
874.464	8686
874.593	8826
874.722	8872
874.851	9169
874.979	9237
875.108	9401
875.237	9473
875.365	9477
875.494	9641
875.623	9827
875.751	9827
875.88	10036
876.008	10101
876.136	10265
876.265	10561
876.393	10672
876.521	10733
876.65	10839
876.778	10843
876.906	10869
877.034	10938
877.162	11143
877.29	11094
877.418	11368
877.546	11280
877.674	11345
877.802	11444
877.93	11535
878.058	11501
878.185	11528
878.313	11657
878.441	11783
878.568	11703
878.696	11790
878.824	11855
878.951	11885
879.079	12030
879.206	12163
879.333	12087
879.461	12015
879.588	12053
879.715	12068
879.842	12266
879.97	12060
880.097	11836
880.224	11851
880.351	11840
880.478	11866
880.605	11779
880.732	11866
880.859	12076
880.986	11870
881.112	11802
881.239	11760
881.366	11649
881.493	11619
881.619	11585
881.746	11600
881.872	11509
881.999	11505
882.125	11505
882.252	11604
882.378	11528
882.505	11516
882.631	11387
882.757	11269
882.883	11277
883.01	11227
883.136	11239
883.262	11132
883.388	11067
883.514	11261
883.64	11132
883.766	11128
883.892	10976
884.018	10999
884.143	11098
884.269	11136
884.395	10790
884.52	10710
884.646	10820
884.772	10729
884.897	10679
885.023	10653
885.148	10717
885.274	10797
885.399	10729
885.524	10626
885.65	10634
885.775	10603
885.9	10535
886.025	10675
886.15	10554
886.275	10382
886.4	10371
886.525	10428
886.65	10436
886.775	10360
886.9	10485
887.025	10451
887.149	10318
887.274	10249
887.399	10227
887.523	10219
887.648	10139
887.773	10177
887.897	10185
888.021	10272
888.146	10154
888.27	10188
888.395	10169
888.519	10169
888.643	10204
888.767	10143
888.891	10173
889.015	10063
889.139	10097
889.263	9964
889.387	10078
889.511	10143
889.635	10029
889.759	9907
889.883	10055
890.006	10105
890.13	10124
890.254	9960
890.377	9953
890.501	9812
890.624	9930
890.748	9895
890.871	9793
890.995	9740
891.118	9755
891.241	9663
891.364	9755
891.488	9816
891.611	9759
891.734	9728
891.857	9740
891.98	9759
892.103	9751
892.226	9717
892.349	9709
892.471	9595
892.594	9637
892.717	9629
892.839	9641
892.962	9686
893.085	9580
893.207	9595
893.33	9458
893.452	9576
893.575	9603
893.697	9523
893.819	9587
893.941	9644
894.064	9587
894.186	9477
894.308	9466
894.43	9469
894.552	9603
894.674	9530
894.796	9435
894.918	9405
895.04	9336
895.161	9355
895.283	9344
895.405	9306
895.526	9294
895.648	9302
895.769	9226
895.891	9268
896.012	9275
896.134	9230
896.255	9192
896.376	9169
896.498	9173
896.619	9161
896.74	9058
896.861	9131
896.982	9313
897.103	9291
897.224	9146
897.345	9093
897.466	9036
897.587	9043
897.708	9123
897.828	9039
897.949	9032
898.07	8963
898.19	8921
898.311	8967
898.431	8872
898.552	8960
898.672	8944
898.792	9020
898.913	8963
899.033	8815
899.153	8697
899.273	8712
899.393	8731
899.513	8766
899.633	8648
899.753	8705
899.873	8731
899.993	8750
900.113	8746
900.232	8766
900.352	8632
900.472	8636
900.591	8571
900.711	8640
900.83	8526
900.95	8720
901.069	8670
901.189	8549
901.308	8423
901.427	8423
901.546	8446
901.665	8488
901.784	8552
901.904	8427
902.023	8282
902.141	8282
902.26	8244
902.379	8351
902.498	8282
902.617	8305
902.735	8347
902.854	8248
902.973	8210
903.091	8115
903.21	8149
903.328	8187
903.446	8111
903.565	8043
903.683	8187
903.801	8096
903.919	8157
904.038	8084
904.156	8077
904.274	8065
904.392	8043
904.51	8065
904.627	8111
904.745	8081
904.863	8092
904.981	7959
905.098	7856
905.216	7928
905.334	7898
905.451	7818
905.569	7951
905.686	7913
905.803	7902
905.921	7780
906.038	7871
906.155	7784
906.272	7712
906.389	7769
906.506	7636
906.623	7556
906.74	7548
906.857	7533
906.974	7616
907.091	7613
907.208	7807
907.324	7658
907.441	7575
907.557	7495
907.674	7468
907.79	7411
907.907	7460
908.023	7441
908.139	7400
908.256	7324
908.372	7396
908.488	7388
908.604	7282
908.72	7255
908.836	7232
908.952	7179
909.068	7236
909.184	7316
909.3	7206
909.415	7301
909.531	7301
909.647	7149
909.762	7019
909.878	7084
909.993	7088
910.108	7088
910.224	7072
910.339	7107
910.454	7080
910.57	7065
910.685	7008
910.8	7103
910.915	7114
911.03	7031
911.145	6905
911.259	6894
911.374	6867
911.489	6844
911.604	6821
911.718	6764
911.833	6730
911.947	6631
912.062	6585
912.176	6726
912.291	6738
912.405	6665
912.519	6901
912.633	6833
912.748	6795
912.862	6719
912.976	6642
913.09	6559
913.204	6608
913.318	6589
913.431	6677
913.545	6696
913.659	6764
913.772	6650
913.886	6608
914	6555
914.113	6646
914.226	6654
914.34	6662
914.453	6464
914.566	6559
914.68	6551
914.793	6486
914.906	6506
915.019	6418
915.132	6395
915.245	6414
915.358	6452
915.47	6410
915.583	6407
915.696	6445
915.809	6578
915.921	6555
916.034	6403
916.146	6407
916.259	6407
916.371	6517
916.483	6441
916.595	6376
916.708	6399
916.82	6414
916.932	6422
917.044	6410
917.156	6388
917.268	6350
917.38	6311
917.491	6388
917.603	6327
917.715	6357
917.826	6384
917.938	6292
918.049	6292
918.161	6342
918.272	6509
918.384	6471
918.495	6399
918.606	6232
918.717	6254
918.828	6346
918.939	6232
919.05	6228
919.161	6220
919.272	6133
919.383	6148
919.494	6323
919.604	6388
919.715	6228
919.826	6243
919.936	6262
920.047	6334
920.157	6296
920.267	6475
920.378	6281
920.488	6346
920.598	6448
920.708	6551
920.818	6475
920.928	6441
921.038	6593
921.148	6574
921.258	6395
921.368	6273
921.477	6194
921.587	6155
921.697	6076
921.806	6220
921.916	6148
922.025	5901
922.134	5958
922.244	5912
922.353	5927
922.462	5840
922.571	5805
922.68	5737
922.789	5676
922.898	5718
923.007	5684
923.116	5767
923.224	5710
923.333	5608
923.442	5547
923.55	5600
923.659	5589
923.767	5611
923.876	5577
923.984	5592
924.092	5554
924.201	5551
924.309	5535
924.417	5570
924.525	5490
924.633	5509
924.741	6129
924.849	5303
924.956	5493
925.064	5341
925.172	5360
925.279	5284
925.387	5372
925.494	5311
925.602	5448
925.709	5364
925.816	5322
925.924	5315
926.031	5337
926.138	5254
926.245	5239
926.352	5220
926.459	5307
926.566	5318
926.673	5216
926.779	5197
926.886	5098
926.993	5018
927.099	4961
927.206	4961
927.312	4980
927.419	5052
927.525	5083
927.631	5006
927.737	4881
927.843	4820
927.95	4752
928.056	4831
928.162	4862
928.267	4850
928.373	5379
928.479	4881
928.585	4672
928.69	4733
928.796	4805
928.901	4679
929.007	4611
929.112	4702
929.218	4653
929.323	4565
929.428	4580
929.533	4706
929.638	4519
929.743	4523
929.848	4577
929.953	4523
930.058	4413
930.163	4367
930.267	4363
930.372	4466
930.477	4333
930.581	4489
930.685	4402
930.79	4284
930.894	4325
930.998	4272
931.103	4390
931.207	4128
931.311	4055
931.415	4109
931.519	3926
931.623	3987
