Data from glass_V78500241_1583.txt Node
Date: Wed Sep 01 19:25:28 CST 2021
User: usil
Spectrometer: V785-0024
Trigger mode: 0
Integration Time (sec): 4.000000E-1
Scans to average: 1
Nonlinearity correction enabled: false
Boxcar width: 0
Storing dark spectrum: false
XAxis mode: Wavelengths
Number of Pixels in Spectrum: 1024
>>>>>Begin Spectral Data<<<<<
801.071	3747
801.214	3701
801.356	3724
801.499	3766
801.641	3755
801.783	3793
801.926	3861
802.068	3789
802.211	3842
802.353	3854
802.496	3819
802.638	3876
802.78	3903
802.923	3941
803.065	3892
803.208	3812
803.35	3896
803.492	3899
803.635	3827
803.777	3808
803.919	3842
804.061	4147
804.204	3968
804.346	3968
804.488	3907
804.63	4067
804.773	4006
804.915	4044
805.057	4158
805.199	4025
805.341	4063
805.483	4116
805.626	4093
805.768	4169
805.91	4185
806.052	4211
806.194	4230
806.336	4367
806.478	4173
806.62	4177
806.762	4204
806.904	4265
807.046	4367
807.188	4230
807.33	4204
807.472	4261
807.614	4196
807.756	4295
807.898	4230
808.04	4158
808.182	4306
808.324	4299
808.465	4375
808.607	4474
808.749	4440
808.891	4466
809.033	4516
809.174	4371
809.316	4242
809.458	4253
809.6	4215
809.741	4162
809.883	4150
810.025	4173
810.166	4162
810.308	4230
810.45	4207
810.591	4200
810.733	4265
810.875	4508
811.016	4790
811.158	5109
811.299	5273
811.441	5258
811.582	5045
811.724	4683
811.865	4542
812.007	4428
812.148	4451
812.29	4459
812.431	4390
812.573	4394
812.714	4390
812.855	4375
812.997	4417
813.138	4500
813.279	4375
813.421	4379
813.562	4322
813.703	4356
813.845	4325
813.986	4219
814.127	4242
814.268	4284
814.41	4322
814.551	4295
814.692	4333
814.833	4306
814.974	4287
815.115	4367
815.256	4261
815.397	4219
815.539	4246
815.68	4200
815.821	4223
815.962	4333
816.103	4261
816.244	4253
816.385	4219
816.526	4272
816.666	4207
816.807	4105
816.948	4192
817.089	4166
817.23	4143
817.371	4101
817.512	4074
817.653	4105
817.793	4021
817.934	4051
818.075	4082
818.216	4086
818.356	4071
818.497	3994
818.638	3956
818.778	3930
818.919	3888
819.06	3888
819.2	3926
819.341	3842
819.481	3823
819.622	3903
819.762	4029
819.903	3994
820.043	3896
820.184	3857
820.324	3823
820.465	3850
820.605	3884
820.746	3876
820.886	3831
821.026	3915
821.167	3937
821.307	3941
821.447	3991
821.588	3903
821.728	3956
821.868	3945
822.008	3846
822.149	3873
822.289	3884
822.429	3819
822.569	3762
822.709	3819
822.849	3732
822.99	3789
823.13	3747
823.27	3793
823.41	3724
823.55	3720
823.69	3724
823.83	3736
823.97	3660
824.11	3603
824.25	3603
824.389	3663
824.529	3644
824.669	3644
824.809	3755
824.949	3755
825.089	3743
825.228	3705
825.368	3591
825.508	3553
825.648	3576
825.787	3603
825.927	3660
826.067	3625
826.206	3705
826.346	3797
826.485	3854
826.625	3831
826.765	3941
826.904	3835
827.044	3614
827.183	3511
827.323	3447
827.462	3454
827.601	3458
827.741	3443
827.88	3462
828.02	3359
828.159	3450
828.298	3507
828.437	3534
828.577	3473
828.716	3618
828.855	3515
828.994	3367
829.134	3367
829.273	3397
829.412	3359
829.551	3310
829.69	3370
829.829	3420
829.968	3507
830.107	3409
830.246	3435
830.385	3401
830.524	3325
830.663	3253
830.802	3249
830.941	3199
831.08	3226
831.219	3245
831.357	3268
831.496	3393
831.635	3241
831.774	3176
831.913	3180
832.051	3138
832.19	3157
832.329	3207
832.467	3195
832.606	3070
832.744	3211
832.883	3203
833.022	3138
833.16	3237
833.299	3283
833.437	3332
833.576	3378
833.714	3382
833.852	3439
833.991	3389
834.129	3431
834.267	3447
834.406	3420
834.544	3450
834.682	3473
834.821	3405
834.959	3572
835.097	3431
835.235	3511
835.373	3477
835.511	3511
835.65	3466
835.788	3492
835.926	3424
836.064	3378
836.202	3401
836.34	3587
836.478	3595
836.615	3530
836.753	3595
836.891	3686
837.029	3656
837.167	3561
837.305	3599
837.443	3507
837.58	3500
837.718	3595
837.856	3549
837.993	3530
838.131	3584
838.269	3580
838.406	3542
838.544	3561
838.681	3439
838.819	3447
838.956	3397
839.094	3409
839.231	3435
839.369	3545
839.506	3705
839.643	3629
839.781	3504
839.918	3477
840.055	3530
840.193	3477
840.33	3530
840.467	3599
840.604	3572
840.742	3819
840.879	3523
841.016	3614
841.153	3618
841.29	3747
841.427	3713
841.564	3732
841.701	3740
841.838	3694
841.975	3682
842.112	3717
842.249	3663
842.385	3603
842.522	3808
842.659	3705
842.796	3663
842.933	3728
843.069	3686
843.206	3701
843.343	3827
843.479	3774
843.616	3888
843.752	3675
843.889	3694
844.025	3804
844.162	3717
844.298	3842
844.435	3778
844.571	3781
844.708	3937
844.844	3968
844.98	4036
845.117	4029
845.253	3991
845.389	3888
845.525	3937
845.661	3987
845.798	3930
845.934	3979
846.07	3972
846.206	4048
846.342	4120
846.478	4044
846.614	3964
846.75	3956
846.886	3907
847.022	4048
847.158	4010
847.294	4021
847.429	4032
847.565	3991
847.701	4238
847.837	3857
847.972	3869
848.108	3968
848.244	3937
848.379	3869
848.515	3838
848.65	3827
848.786	3827
848.921	3922
849.057	3865
849.192	3907
849.328	3926
849.463	3907
849.598	3869
849.734	3896
849.869	3857
850.004	3778
850.14	3766
850.275	3789
850.41	3778
850.545	3740
850.68	3778
850.815	3778
850.95	3800
851.085	3899
851.22	3857
851.355	3865
851.49	3800
851.625	3770
851.76	3785
851.895	3732
852.03	3743
852.165	3838
852.299	3819
852.434	3915
852.569	3861
852.703	3937
852.838	3949
852.973	4036
853.107	3983
853.242	3915
853.376	3804
853.511	3797
853.645	3819
853.78	3945
853.914	3896
854.048	3930
854.183	3896
854.317	3964
854.451	4055
854.585	3949
854.72	3918
854.854	4036
854.988	3949
855.122	3987
855.256	3953
855.39	4013
855.524	4109
855.658	4086
855.792	4093
855.926	4097
856.06	4185
856.194	4207
856.327	4112
856.461	4147
856.595	4143
856.729	4150
856.862	4325
856.996	4257
857.13	4329
857.263	4360
857.397	4333
857.53	4291
857.664	4352
857.797	4379
857.931	4424
858.064	4386
858.197	4455
858.331	4371
858.464	4367
858.597	4344
858.731	4466
858.864	4447
858.997	4466
859.13	4527
859.263	4527
859.396	4565
859.529	4508
859.662	4558
859.795	4531
859.928	4577
860.061	4694
860.194	4748
860.327	4694
860.46	4630
860.592	4721
860.725	4714
860.858	4763
860.99	4675
861.123	4641
861.256	4672
861.388	4740
861.521	5539
861.653	4755
861.786	4702
861.918	4714
862.05	4771
862.183	4824
862.315	4873
862.447	4930
862.58	4896
862.712	4843
862.844	4748
862.976	4790
863.108	4911
863.24	5303
863.372	4786
863.504	4953
863.636	4892
863.768	5003
863.9	4961
864.032	4949
864.164	4980
864.296	5022
864.428	5052
864.559	5083
864.691	5086
864.823	5083
864.954	5102
865.086	5162
865.217	5113
865.349	5083
865.48	5151
865.612	5181
865.743	5334
865.875	5220
866.006	5216
866.137	5197
866.269	5254
866.4	5208
866.531	5235
866.662	5250
866.793	5280
866.924	5322
867.055	5334
867.186	5326
867.317	5337
867.448	5299
867.579	5421
867.71	5379
867.841	5383
867.972	5440
868.103	5459
868.233	5467
868.364	5520
868.495	5573
868.625	5672
868.756	5783
868.886	5684
869.017	5718
869.147	5798
869.278	5923
869.408	5767
869.539	5855
869.669	5912
869.799	5889
869.929	6019
870.06	6030
870.19	6243
870.32	6152
870.45	6239
870.58	6334
870.71	6460
870.84	6475
870.97	6395
871.1	6426
871.23	6642
871.36	6726
871.489	6612
871.619	6757
871.749	6791
871.879	6818
872.008	6981
872.138	6985
872.267	6985
872.397	7019
872.526	7019
872.656	7061
872.785	7247
872.915	7438
873.044	7502
873.173	7552
873.303	7696
873.432	7807
873.561	7841
873.69	7894
873.819	8096
873.948	8153
874.077	8294
874.206	8366
874.335	8434
874.464	8621
874.593	8842
874.722	9051
874.851	9089
874.979	9287
875.108	9329
875.237	9458
875.365	9500
875.494	9595
875.623	9808
875.751	9842
875.88	10017
876.008	10147
876.136	10257
876.265	10462
876.393	10694
876.521	10683
876.65	10820
876.778	10824
876.906	10900
877.034	11014
877.162	11041
877.29	11064
877.418	11307
877.546	11326
877.674	11444
877.802	11471
877.93	11516
878.058	11600
878.185	11497
878.313	11623
878.441	11707
878.568	11726
878.696	11707
878.824	11783
878.951	11939
879.079	11988
879.206	12117
879.333	12038
879.461	11992
879.588	12133
879.715	12034
879.842	12243
879.97	12030
880.097	11809
880.224	11843
880.351	11866
880.478	11889
880.605	11866
880.732	11817
880.859	11965
880.986	11832
881.112	11813
881.239	11657
881.366	11661
881.493	11581
881.619	11528
881.746	11627
881.872	11493
881.999	11512
882.125	11482
882.252	11539
882.378	11535
882.505	11554
882.631	11360
882.757	11223
882.883	11356
883.01	11242
883.136	11220
883.262	11109
883.388	11056
883.514	11147
883.64	11212
883.766	11147
883.892	10991
884.018	10965
884.143	11124
884.269	11090
884.395	10877
884.52	10740
884.646	10717
884.772	10702
884.897	10668
885.023	10717
885.148	10717
885.274	10809
885.399	10706
885.524	10577
885.65	10580
885.775	10630
885.9	10531
886.025	10622
886.15	10622
886.275	10504
886.4	10363
886.525	10360
886.65	10417
886.775	10344
886.9	10417
887.025	10485
887.149	10352
887.274	10322
887.399	10261
887.523	10219
887.648	10120
887.773	10067
887.897	10227
888.021	10234
888.146	10124
888.27	10227
888.395	10310
888.519	10078
888.643	10162
888.767	10154
888.891	10131
889.015	10067
889.139	10029
889.263	9987
889.387	10048
889.511	10135
889.635	10063
889.759	10021
889.883	9983
890.006	10154
890.13	10082
890.254	9918
890.377	9899
890.501	9835
890.624	9899
890.748	9918
890.871	9759
890.995	9770
891.118	9740
891.241	9747
891.364	9762
891.488	9915
891.611	9724
891.734	9701
891.857	9816
891.98	9679
892.103	9785
892.226	9740
892.349	9622
892.471	9587
892.594	9610
892.717	9618
892.839	9591
892.962	9576
893.085	9644
893.207	9584
893.33	9553
893.452	9553
893.575	9561
893.697	9523
893.819	9606
893.941	9656
894.064	9622
894.186	9454
894.308	9447
894.43	9477
894.552	9511
894.674	9507
894.796	9344
894.918	9393
895.04	9367
895.161	9382
895.283	9348
895.405	9279
895.526	9241
895.648	9207
895.769	9226
895.891	9226
896.012	9275
896.134	9264
896.255	9199
896.376	9188
896.498	9203
896.619	9150
896.74	9066
896.861	9112
896.982	9222
897.103	9241
897.224	9127
897.345	9062
897.466	9005
897.587	9001
897.708	9074
897.828	9005
897.949	8929
898.07	8861
898.19	8925
898.311	9066
898.431	8891
898.552	8899
898.672	8998
898.792	8944
898.913	8941
899.033	8777
899.153	8788
899.273	8693
899.393	8735
899.513	8785
899.633	8720
899.753	8746
899.873	8667
899.993	8746
900.113	8689
900.232	8716
900.352	8689
900.472	8613
900.591	8503
900.711	8613
900.83	8568
900.95	8712
901.069	8769
901.189	8575
901.308	8465
901.427	8393
901.546	8408
901.665	8469
901.784	8488
901.904	8355
902.023	8332
902.141	8248
902.26	8263
902.379	8332
902.498	8263
902.617	8233
902.735	8362
902.854	8263
902.973	8256
903.091	8107
903.21	8191
903.328	8172
903.446	8119
903.565	8084
903.683	8145
903.801	8020
903.919	8172
904.038	8107
904.156	8062
904.274	8088
904.392	8027
904.51	8115
904.627	8016
904.745	8081
904.863	8123
904.981	7932
905.098	7826
905.216	7887
905.334	7875
905.451	7925
905.569	7868
905.686	7883
905.803	7932
905.921	7795
906.038	7852
906.155	7784
906.272	7719
906.389	7715
906.506	7677
906.623	7647
906.74	7586
906.857	7620
906.974	7616
907.091	7563
907.208	7719
907.324	7651
907.441	7537
907.557	7407
907.674	7453
907.79	7392
907.907	7411
908.023	7422
908.139	7392
908.256	7415
908.372	7369
908.488	7308
908.604	7282
908.72	7251
908.836	7225
908.952	7221
909.068	7228
909.184	7324
909.3	7305
909.415	7320
909.531	7225
909.647	7099
909.762	7091
909.878	7118
909.993	7080
910.108	7118
910.224	7076
910.339	7088
910.454	7008
910.57	7091
910.685	6924
910.8	7190
910.915	7076
911.03	7012
911.145	6875
911.259	6909
911.374	6913
911.489	6802
911.604	6776
911.718	6700
911.833	6745
911.947	6616
912.062	6620
912.176	6673
912.291	6677
912.405	6715
912.519	6837
912.633	6829
912.748	6726
912.862	6707
912.976	6593
913.09	6616
913.204	6563
913.318	6616
913.431	6650
913.545	6650
913.659	6692
913.772	6684
913.886	6601
914	6597
914.113	6669
914.226	6688
914.34	6616
914.453	6456
914.566	6559
914.68	6483
914.793	6525
914.906	6448
915.019	6410
915.132	6361
915.245	6403
915.358	6426
915.47	6445
915.583	6452
915.696	6433
915.809	6464
915.921	6532
916.034	6391
916.146	6350
916.259	6376
916.371	6486
916.483	6426
916.595	6380
916.708	6452
916.82	6395
916.932	6369
917.044	6376
917.156	6391
917.268	6346
917.38	6357
917.491	6342
917.603	6334
917.715	6380
917.826	6418
917.938	6331
918.049	6251
918.161	6353
918.272	6433
918.384	6448
918.495	6395
918.606	6277
918.717	6197
918.828	6251
918.939	6277
919.05	6216
919.161	6266
919.272	6083
919.383	6155
919.494	6315
919.604	6403
919.715	6273
919.826	6186
919.936	6235
920.047	6357
920.157	6216
920.267	6460
920.378	6308
920.488	6273
920.598	6475
920.708	6551
920.818	6460
920.928	6521
921.038	6570
921.148	6604
921.258	6380
921.368	6327
921.477	6213
921.587	6197
921.697	6045
921.806	6125
921.916	6117
922.025	5973
922.134	5897
922.244	5878
922.353	5920
922.462	5859
922.571	5802
922.68	5703
922.789	5695
922.898	5688
923.007	5630
923.116	5733
923.224	5634
923.333	5623
923.442	5634
923.55	5532
923.659	5585
923.767	5634
923.876	5558
923.984	5638
924.092	5474
924.201	5562
924.309	5528
924.417	5554
924.525	5512
924.633	5501
924.741	6095
924.849	5379
924.956	5482
925.064	5368
925.172	5303
925.279	5330
925.387	5284
925.494	5379
925.602	5429
925.709	5395
925.816	5322
925.924	5334
926.031	5368
926.138	5303
926.245	5315
926.352	5258
926.459	5315
926.566	5307
926.673	5174
926.779	5162
926.886	5162
926.993	4984
927.099	4987
927.206	4991
927.312	4957
927.419	4987
927.525	4957
927.631	4984
927.737	4877
927.843	4885
927.95	4755
928.056	4816
928.162	4824
928.267	4862
928.373	5330
928.479	4839
928.585	4687
928.69	4759
928.796	4793
928.901	4706
929.007	4603
929.112	4645
929.218	4694
929.323	4622
929.428	4565
929.533	4668
929.638	4512
929.743	4592
929.848	4535
929.953	4470
930.058	4443
930.163	4379
930.267	4379
930.372	4478
930.477	4341
930.581	4451
930.685	4337
930.79	4230
930.894	4284
930.998	4238
931.103	4360
931.207	4086
931.311	4128
931.415	4032
931.519	3892
931.623	3945
