Data from glass_V78500241_1722.txt Node
Date: Wed Sep 01 19:26:26 CST 2021
User: usil
Spectrometer: V785-0024
Trigger mode: 0
Integration Time (sec): 4.000000E-1
Scans to average: 1
Nonlinearity correction enabled: false
Boxcar width: 0
Storing dark spectrum: false
XAxis mode: Wavelengths
Number of Pixels in Spectrum: 1024
>>>>>Begin Spectral Data<<<<<
801.071	3705
801.214	3732
801.356	3755
801.499	3751
801.641	3720
801.783	3800
801.926	3800
802.068	3800
802.211	3865
802.353	3861
802.496	3831
802.638	3873
802.78	3880
802.923	3896
803.065	3892
803.208	3816
803.35	3842
803.492	3907
803.635	3903
803.777	3827
803.919	3869
804.061	4131
804.204	3998
804.346	3964
804.488	3869
804.63	4013
804.773	3949
804.915	4101
805.057	4143
805.199	4040
805.341	4131
805.483	4166
805.626	4135
805.768	4090
805.91	4230
806.052	4276
806.194	4219
806.336	4344
806.478	4238
806.62	4196
806.762	4169
806.904	4238
807.046	4303
807.188	4257
807.33	4200
807.472	4204
807.614	4219
807.756	4287
807.898	4249
808.04	4185
808.182	4310
808.324	4348
808.465	4375
808.607	4462
808.749	4432
808.891	4405
809.033	4459
809.174	4394
809.316	4284
809.458	4223
809.6	4124
809.741	4124
809.883	4147
810.025	4219
810.166	4196
810.308	4257
810.45	4234
810.591	4188
810.733	4299
810.875	4493
811.016	4812
811.158	5109
811.299	5227
811.441	5288
811.582	5067
811.724	4717
811.865	4516
812.007	4504
812.148	4462
812.29	4402
812.431	4443
812.573	4386
812.714	4325
812.855	4440
812.997	4398
813.138	4455
813.279	4455
813.421	4386
813.562	4383
813.703	4363
813.845	4356
813.986	4268
814.127	4204
814.268	4223
814.41	4280
814.551	4280
814.692	4318
814.833	4337
814.974	4329
815.115	4337
815.256	4234
815.397	4227
815.539	4223
815.68	4215
815.821	4219
815.962	4272
816.103	4257
816.244	4246
816.385	4230
816.526	4261
816.666	4207
816.807	4112
816.948	4215
817.089	4143
817.23	4131
817.371	4029
817.512	4048
817.653	4112
817.793	3979
817.934	3983
818.075	4109
818.216	4078
818.356	4006
818.497	4002
818.638	3896
818.778	3907
818.919	3854
819.06	3861
819.2	3896
819.341	3865
819.481	3823
819.622	3903
819.762	4044
819.903	3987
820.043	3861
820.184	3838
820.324	3842
820.465	3884
820.605	3819
820.746	3857
820.886	3816
821.026	3949
821.167	3953
821.307	4006
821.447	3949
821.588	3945
821.728	3945
821.868	3968
822.008	3888
822.149	3930
822.289	3884
822.429	3789
822.569	3785
822.709	3789
822.849	3705
822.99	3694
823.13	3751
823.27	3732
823.41	3686
823.55	3675
823.69	3732
823.83	3747
823.97	3641
824.11	3603
824.25	3557
824.389	3675
824.529	3629
824.669	3629
824.809	3709
824.949	3747
825.089	3701
825.228	3694
825.368	3603
825.508	3538
825.648	3553
825.787	3606
825.927	3648
826.067	3599
826.206	3713
826.346	3808
826.485	3789
826.625	3880
826.765	3907
826.904	3846
827.044	3660
827.183	3496
827.323	3447
827.462	3500
827.601	3393
827.741	3420
827.88	3409
828.02	3393
828.159	3443
828.298	3473
828.437	3576
828.577	3454
828.716	3606
828.855	3515
828.994	3405
829.134	3405
829.273	3428
829.412	3344
829.551	3336
829.69	3348
829.829	3443
829.968	3511
830.107	3439
830.246	3397
830.385	3393
830.524	3325
830.663	3302
830.802	3222
830.941	3203
831.08	3173
831.219	3302
831.357	3245
831.496	3393
831.635	3222
831.774	3214
831.913	3214
832.051	3116
832.19	3142
832.329	3218
832.467	3135
832.606	3108
832.744	3169
832.883	3184
833.022	3218
833.16	3237
833.299	3283
833.437	3351
833.576	3359
833.714	3416
833.852	3439
833.991	3473
834.129	3443
834.267	3439
834.406	3397
834.544	3393
834.682	3454
834.821	3431
834.959	3587
835.097	3412
835.235	3530
835.373	3488
835.511	3477
835.65	3462
835.788	3473
835.926	3428
836.064	3428
836.202	3374
836.34	3618
836.478	3610
836.615	3595
836.753	3629
836.891	3652
837.029	3644
837.167	3542
837.305	3561
837.443	3549
837.58	3500
837.718	3568
837.856	3557
837.993	3530
838.131	3599
838.269	3580
838.406	3591
838.544	3603
838.681	3473
838.819	3454
838.956	3397
839.094	3374
839.231	3439
839.369	3526
839.506	3732
839.643	3576
839.781	3439
839.918	3439
840.055	3511
840.193	3523
840.33	3530
840.467	3568
840.604	3599
840.742	3785
840.879	3561
841.016	3587
841.153	3572
841.29	3747
841.427	3728
841.564	3762
841.701	3709
841.838	3705
841.975	3663
842.112	3720
842.249	3637
842.385	3648
842.522	3816
842.659	3701
842.796	3667
842.933	3720
843.069	3709
843.206	3660
843.343	3800
843.479	3789
843.616	3804
843.752	3671
843.889	3682
844.025	3857
844.162	3713
844.298	3846
844.435	3800
844.571	3747
844.708	3896
844.844	3960
844.98	4013
845.117	4006
845.253	3930
845.389	3884
845.525	3888
845.661	3953
845.798	3896
845.934	4013
846.07	3983
846.206	4006
846.342	4112
846.478	4067
846.614	3956
846.75	3869
846.886	3922
847.022	4002
847.158	3979
847.294	3983
847.429	4017
847.565	3998
847.701	4238
847.837	3884
847.972	3884
848.108	3960
848.244	3994
848.379	3873
848.515	3857
848.65	3835
848.786	3831
848.921	3869
849.057	3937
849.192	3903
849.328	3911
849.463	3941
849.598	3876
849.734	3846
849.869	3861
850.004	3831
850.14	3835
850.275	3793
850.41	3728
850.545	3759
850.68	3728
850.815	3808
850.95	3774
851.085	3953
851.22	3896
851.355	3797
851.49	3793
851.625	3819
851.76	3808
851.895	3762
852.03	3717
852.165	3808
852.299	3823
852.434	3896
852.569	3869
852.703	3865
852.838	3972
852.973	3979
853.107	3945
853.242	3884
853.376	3869
853.511	3755
853.645	3819
853.78	3987
853.914	3873
854.048	3907
854.183	3888
854.317	3960
854.451	4059
854.585	3941
854.72	3964
854.854	4036
854.988	3915
855.122	4017
855.256	3873
855.39	4021
855.524	4090
855.658	4116
855.792	4082
855.926	4116
856.06	4150
856.194	4234
856.327	4120
856.461	4109
856.595	4128
856.729	4192
856.862	4287
856.996	4242
857.13	4261
857.263	4333
857.397	4337
857.53	4261
857.664	4356
857.797	4405
857.931	4390
858.064	4371
858.197	4462
858.331	4394
858.464	4424
858.597	4375
858.731	4462
858.864	4443
858.997	4451
859.13	4512
859.263	4504
859.396	4615
859.529	4489
859.662	4546
859.795	4504
859.928	4599
860.061	4683
860.194	4694
860.327	4653
860.46	4637
860.592	4679
860.725	4744
860.858	4790
860.99	4656
861.123	4702
861.256	4714
861.388	4752
861.521	5383
861.653	4698
861.786	4771
861.918	4729
862.05	4839
862.183	4870
862.315	4911
862.447	4908
862.58	4904
862.712	4805
862.844	4801
862.976	4896
863.108	4908
863.24	5223
863.372	4816
863.504	4919
863.636	4892
863.768	4968
863.9	4957
864.032	4972
864.164	4995
864.296	4972
864.428	5090
864.559	5075
864.691	5121
864.823	5128
864.954	5124
865.086	5223
865.217	5079
865.349	5090
865.48	5124
865.612	5239
865.743	5296
865.875	5204
866.006	5162
866.137	5239
866.269	5250
866.4	5181
866.531	5269
866.662	5220
866.793	5261
866.924	5277
867.055	5322
867.186	5330
867.317	5318
867.448	5376
867.579	5345
867.71	5341
867.841	5398
867.972	5474
868.103	5478
868.233	5459
868.364	5539
868.495	5558
868.625	5688
868.756	5748
868.886	5665
869.017	5756
869.147	5828
869.278	5844
869.408	5836
869.539	5847
869.669	5920
869.799	5901
869.929	5977
870.06	6026
870.19	6155
870.32	6171
870.45	6273
870.58	6334
870.71	6536
870.84	6388
870.97	6464
871.1	6426
871.23	6669
871.36	6642
871.489	6688
871.619	6715
871.749	6802
871.879	6878
872.008	6939
872.138	6932
872.267	7012
872.397	6954
872.526	7061
872.656	7145
872.785	7255
872.915	7343
873.044	7502
873.173	7510
873.303	7677
873.432	7670
873.561	7879
873.69	7898
873.819	8043
873.948	8103
874.077	8298
874.206	8381
874.335	8434
874.464	8625
874.593	8807
874.722	8914
874.851	9123
874.979	9226
875.108	9367
875.237	9412
875.365	9462
875.494	9679
875.623	9797
875.751	9838
875.88	10013
876.008	10204
876.136	10257
876.265	10550
876.393	10679
876.521	10683
876.65	10877
876.778	10892
876.906	10877
877.034	11037
877.162	11090
877.29	11136
877.418	11318
877.546	11299
877.674	11398
877.802	11444
877.93	11497
878.058	11547
878.185	11577
878.313	11649
878.441	11748
878.568	11630
878.696	11809
878.824	11863
878.951	11878
879.079	12045
879.206	12076
879.333	12041
879.461	11977
879.588	12110
879.715	11996
879.842	12178
879.97	12125
880.097	11775
880.224	11874
880.351	11885
880.478	11836
880.605	11840
880.732	11828
880.859	11984
880.986	11775
881.112	11786
881.239	11760
881.366	11707
881.493	11646
881.619	11604
881.746	11596
881.872	11615
881.999	11448
882.125	11520
882.252	11448
882.378	11463
882.505	11524
882.631	11395
882.757	11284
882.883	11299
883.01	11208
883.136	11201
883.262	11216
883.388	11113
883.514	11223
883.64	11166
883.766	11067
883.892	11006
884.018	10961
884.143	11052
884.269	11094
884.395	10843
884.52	10778
884.646	10755
884.772	10755
884.897	10755
885.023	10725
885.148	10717
885.274	10797
885.399	10626
885.524	10580
885.65	10637
885.775	10599
885.9	10489
886.025	10675
886.15	10565
886.275	10493
886.4	10386
886.525	10352
886.65	10344
886.775	10341
886.9	10500
887.025	10519
887.149	10341
887.274	10280
887.399	10181
887.523	10173
887.648	10196
887.773	10086
887.897	10284
888.021	10162
888.146	10162
888.27	10291
888.395	10173
888.519	10131
888.643	10162
888.767	10188
888.891	10131
889.015	10017
889.139	10044
889.263	9979
889.387	10032
889.511	10150
889.635	10154
889.759	9915
889.883	9983
890.006	10059
890.13	10162
890.254	9983
890.377	9975
890.501	9869
890.624	9937
890.748	9895
890.871	9861
890.995	9774
891.118	9743
891.241	9728
891.364	9720
891.488	9816
891.611	9842
891.734	9804
891.857	9743
891.98	9778
892.103	9819
892.226	9732
892.349	9698
892.471	9545
892.594	9656
892.717	9561
892.839	9553
892.962	9553
893.085	9675
893.207	9610
893.33	9553
893.452	9492
893.575	9633
893.697	9492
893.819	9599
893.941	9671
894.064	9637
894.186	9416
894.308	9393
894.43	9572
894.552	9660
894.674	9542
894.796	9378
894.918	9431
895.04	9302
895.161	9310
895.283	9374
895.405	9230
895.526	9340
895.648	9272
895.769	9279
895.891	9211
896.012	9211
896.134	9230
896.255	9184
896.376	9070
896.498	9112
896.619	9161
896.74	9062
896.861	9051
896.982	9256
897.103	9279
897.224	9169
897.345	9020
897.466	8902
897.587	9013
897.708	9005
897.828	9020
897.949	9005
898.07	8834
898.19	8925
898.311	9051
898.431	8868
898.552	8861
898.672	8956
898.792	8861
898.913	8902
899.033	8762
899.153	8727
899.273	8644
899.393	8708
899.513	8792
899.633	8697
899.753	8758
899.873	8766
899.993	8731
900.113	8735
900.232	8697
900.352	8674
900.472	8610
900.591	8564
900.711	8530
900.83	8503
900.95	8640
901.069	8769
901.189	8598
901.308	8465
901.427	8374
901.546	8446
901.665	8412
901.784	8473
901.904	8355
902.023	8339
902.141	8237
902.26	8172
902.379	8229
902.498	8221
902.617	8195
902.735	8252
902.854	8259
902.973	8313
903.091	8149
903.21	8157
903.328	8157
903.446	8107
903.565	8073
903.683	8073
903.801	8081
903.919	8115
904.038	8142
904.156	7970
904.274	8126
904.392	8039
904.51	8054
904.627	8050
904.745	8103
904.863	8073
904.981	7879
905.098	7849
905.216	7894
905.334	7860
905.451	7894
905.569	7833
905.686	7982
905.803	7921
905.921	7822
906.038	7894
906.155	7822
906.272	7784
906.389	7746
906.506	7639
906.623	7556
906.74	7590
906.857	7563
906.974	7559
907.091	7696
907.208	7734
907.324	7670
907.441	7632
907.557	7495
907.674	7457
907.79	7449
907.907	7480
908.023	7419
908.139	7415
908.256	7373
908.372	7434
908.488	7453
908.604	7274
908.72	7274
908.836	7206
908.952	7213
909.068	7270
909.184	7327
909.3	7232
909.415	7289
909.531	7285
909.647	7076
909.762	7110
909.878	7126
909.993	7076
910.108	7129
910.224	7122
910.339	7126
910.454	7027
910.57	6985
910.685	6977
910.8	7206
910.915	7110
911.03	7042
911.145	6962
911.259	6814
911.374	6871
911.489	6863
911.604	6840
911.718	6722
911.833	6730
911.947	6635
912.062	6604
912.176	6726
912.291	6719
912.405	6673
912.519	6825
912.633	6844
912.748	6795
912.862	6684
912.976	6616
913.09	6494
913.204	6574
913.318	6608
913.431	6665
913.545	6658
913.659	6734
913.772	6612
913.886	6536
914	6513
914.113	6604
914.226	6616
914.34	6631
914.453	6464
914.566	6589
914.68	6521
914.793	6570
914.906	6437
915.019	6426
915.132	6338
915.245	6407
915.358	6483
915.47	6483
915.583	6410
915.696	6528
915.809	6525
915.921	6479
916.034	6426
916.146	6414
916.259	6422
916.371	6486
916.483	6456
916.595	6437
916.708	6414
916.82	6388
916.932	6388
917.044	6372
917.156	6353
917.268	6380
917.38	6407
917.491	6311
917.603	6357
917.715	6384
917.826	6426
917.938	6331
918.049	6243
918.161	6331
918.272	6365
918.384	6464
918.495	6391
918.606	6262
918.717	6251
918.828	6247
918.939	6281
919.05	6224
919.161	6224
919.272	6144
919.383	6167
919.494	6304
919.604	6399
919.715	6292
919.826	6232
919.936	6197
920.047	6285
920.157	6289
920.267	6483
920.378	6372
920.488	6273
920.598	6445
920.708	6623
920.818	6490
920.928	6414
921.038	6578
921.148	6654
921.258	6372
921.368	6289
921.477	6171
921.587	6133
921.697	6045
921.806	6209
921.916	6091
922.025	5980
922.134	5927
922.244	5878
922.353	5935
922.462	5828
922.571	5855
922.68	5726
922.789	5657
922.898	5668
923.007	5611
923.116	5680
923.224	5661
923.333	5657
923.442	5592
923.55	5535
923.659	5577
923.767	5627
923.876	5604
923.984	5589
924.092	5512
924.201	5592
924.309	5562
924.417	5509
924.525	5512
924.633	5482
924.741	6243
924.849	5436
924.956	5509
925.064	5364
925.172	5299
925.279	5273
925.387	5360
925.494	5334
925.602	5383
925.709	5463
925.816	5311
925.924	5353
926.031	5383
926.138	5273
926.245	5299
926.352	5246
926.459	5273
926.566	5337
926.673	5197
926.779	5151
926.886	5090
926.993	5064
927.099	5022
927.206	4968
927.312	4942
927.419	4984
927.525	5010
927.631	5041
927.737	4889
927.843	4816
927.95	4752
928.056	4805
928.162	4847
928.267	4873
928.373	5353
928.479	4843
928.585	4691
928.69	4778
928.796	4797
928.901	4679
929.007	4599
929.112	4664
929.218	4615
929.323	4580
929.428	4538
929.533	4649
929.638	4573
929.743	4523
929.848	4565
929.953	4466
930.058	4405
930.163	4383
930.267	4314
930.372	4421
930.477	4280
930.581	4432
930.685	4379
930.79	4261
930.894	4299
930.998	4276
931.103	4402
931.207	4101
931.311	4105
931.415	4059
931.519	3922
931.623	3907
