Data from glass_V78500241_1837.txt Node
Date: Wed Sep 01 19:27:14 CST 2021
User: usil
Spectrometer: V785-0024
Trigger mode: 0
Integration Time (sec): 4.000000E-1
Scans to average: 1
Nonlinearity correction enabled: false
Boxcar width: 0
Storing dark spectrum: false
XAxis mode: Wavelengths
Number of Pixels in Spectrum: 1024
>>>>>Begin Spectral Data<<<<<
801.071	3720
801.214	3778
801.356	3709
801.499	3717
801.641	3705
801.783	3766
801.926	3850
802.068	3842
802.211	3797
802.353	3865
802.496	3838
802.638	3888
802.78	3903
802.923	3956
803.065	3899
803.208	3903
803.35	3884
803.492	3930
803.635	3880
803.777	3774
803.919	3888
804.061	4150
804.204	3983
804.346	3922
804.488	3922
804.63	4074
804.773	3964
804.915	4021
805.057	4166
805.199	4025
805.341	4067
805.483	4131
805.626	4139
805.768	4124
805.91	4204
806.052	4188
806.194	4192
806.336	4322
806.478	4188
806.62	4223
806.762	4188
806.904	4238
807.046	4360
807.188	4185
807.33	4204
807.472	4234
807.614	4196
807.756	4257
807.898	4223
808.04	4192
808.182	4276
808.324	4299
808.465	4398
808.607	4455
808.749	4462
808.891	4455
809.033	4485
809.174	4375
809.316	4230
809.458	4154
809.6	4131
809.741	4181
809.883	4120
810.025	4207
810.166	4219
810.308	4169
810.45	4257
810.591	4207
810.733	4295
810.875	4527
811.016	4824
811.158	5098
811.299	5265
811.441	5246
811.582	5105
811.724	4725
811.865	4417
812.007	4436
812.148	4413
812.29	4470
812.431	4375
812.573	4363
812.714	4417
812.855	4409
812.997	4386
813.138	4440
813.279	4432
813.421	4383
813.562	4383
813.703	4325
813.845	4398
813.986	4272
814.127	4204
814.268	4261
814.41	4303
814.551	4211
814.692	4341
814.833	4261
814.974	4295
815.115	4344
815.256	4227
815.397	4238
815.539	4284
815.68	4177
815.821	4181
815.962	4257
816.103	4257
816.244	4227
816.385	4230
816.526	4257
816.666	4185
816.807	4063
816.948	4219
817.089	4109
817.23	4086
817.371	4029
817.512	4067
817.653	4063
817.793	4021
817.934	4021
818.075	4090
818.216	4097
818.356	4048
818.497	3979
818.638	3922
818.778	3903
818.919	3880
819.06	3846
819.2	3854
819.341	3816
819.481	3861
819.622	3926
819.762	4025
819.903	3949
820.043	3823
820.184	3797
820.324	3846
820.465	3873
820.605	3865
820.746	3831
820.886	3774
821.026	3975
821.167	3888
821.307	4006
821.447	3945
821.588	3972
821.728	3930
821.868	3922
822.008	3865
822.149	3972
822.289	3926
822.429	3743
822.569	3812
822.709	3793
822.849	3686
822.99	3682
823.13	3816
823.27	3755
823.41	3740
823.55	3694
823.69	3717
823.83	3751
823.97	3679
824.11	3629
824.25	3606
824.389	3663
824.529	3625
824.669	3595
824.809	3701
824.949	3747
825.089	3694
825.228	3671
825.368	3576
825.508	3553
825.648	3591
825.787	3587
825.927	3633
826.067	3641
826.206	3694
826.346	3793
826.485	3812
826.625	3865
826.765	3915
826.904	3854
827.044	3580
827.183	3526
827.323	3420
827.462	3519
827.601	3439
827.741	3409
827.88	3469
828.02	3359
828.159	3435
828.298	3492
828.437	3523
828.577	3473
828.716	3587
828.855	3481
828.994	3370
829.134	3367
829.273	3409
829.412	3359
829.551	3351
829.69	3393
829.829	3439
829.968	3511
830.107	3428
830.246	3420
830.385	3355
830.524	3351
830.663	3310
830.802	3256
830.941	3214
831.08	3169
831.219	3268
831.357	3268
831.496	3405
831.635	3230
831.774	3207
831.913	3211
832.051	3123
832.19	3135
832.329	3222
832.467	3169
832.606	3112
832.744	3199
832.883	3184
833.022	3199
833.16	3256
833.299	3302
833.437	3336
833.576	3359
833.714	3386
833.852	3454
833.991	3466
834.129	3485
834.267	3450
834.406	3367
834.544	3420
834.682	3397
834.821	3348
834.959	3584
835.097	3420
835.235	3477
835.373	3496
835.511	3477
835.65	3469
835.788	3469
835.926	3435
836.064	3348
836.202	3378
836.34	3595
836.478	3614
836.615	3549
836.753	3549
836.891	3682
837.029	3629
837.167	3603
837.305	3576
837.443	3523
837.58	3443
837.718	3625
837.856	3515
837.993	3564
838.131	3591
838.269	3599
838.406	3561
838.544	3587
838.681	3454
838.819	3492
838.956	3351
839.094	3416
839.231	3416
839.369	3538
839.506	3717
839.643	3603
839.781	3473
839.918	3401
840.055	3519
840.193	3515
840.33	3580
840.467	3515
840.604	3587
840.742	3819
840.879	3538
841.016	3534
841.153	3561
841.29	3732
841.427	3728
841.564	3694
841.701	3766
841.838	3671
841.975	3694
842.112	3717
842.249	3648
842.385	3644
842.522	3831
842.659	3717
842.796	3648
842.933	3686
843.069	3675
843.206	3728
843.343	3850
843.479	3816
843.616	3816
843.752	3660
843.889	3694
844.025	3854
844.162	3732
844.298	3857
844.435	3747
844.571	3781
844.708	3922
844.844	4013
844.98	3994
845.117	4040
845.253	3945
845.389	3876
845.525	3956
845.661	3983
845.798	3922
845.934	4013
846.07	3983
846.206	4059
846.342	4109
846.478	4006
846.614	3968
846.75	3941
846.886	3941
847.022	4048
847.158	3960
847.294	4013
847.429	4032
847.565	4021
847.701	4192
847.837	3876
847.972	3880
848.108	4002
848.244	3930
848.379	3823
848.515	3823
848.65	3812
848.786	3827
848.921	3842
849.057	3930
849.192	3953
849.328	3918
849.463	3911
849.598	3846
849.734	3861
849.869	3835
850.004	3770
850.14	3831
850.275	3800
850.41	3713
850.545	3762
850.68	3789
850.815	3793
850.95	3804
851.085	3945
851.22	3892
851.355	3861
851.49	3797
851.625	3797
851.76	3781
851.895	3747
852.03	3717
852.165	3827
852.299	3884
852.434	3857
852.569	3857
852.703	3930
852.838	3953
852.973	3964
853.107	4013
853.242	3945
853.376	3861
853.511	3766
853.645	3896
853.78	3918
853.914	3926
854.048	3911
854.183	3899
854.317	3945
854.451	4093
854.585	3937
854.72	3953
854.854	4029
854.988	3953
855.122	4025
855.256	3911
855.39	4093
855.524	4109
855.658	4093
855.792	4120
855.926	4090
856.06	4150
856.194	4162
856.327	4173
856.461	4131
856.595	4112
856.729	4116
856.862	4268
856.996	4253
857.13	4272
857.263	4272
857.397	4356
857.53	4265
857.664	4344
857.797	4413
857.931	4421
858.064	4375
858.197	4421
858.331	4424
858.464	4325
858.597	4402
858.731	4443
858.864	4417
858.997	4466
859.13	4500
859.263	4519
859.396	4580
859.529	4561
859.662	4535
859.795	4512
859.928	4569
860.061	4698
860.194	4717
860.327	4668
860.46	4626
860.592	4797
860.725	4717
860.858	4793
860.99	4710
861.123	4710
861.256	4691
861.388	4725
861.521	5364
861.653	4744
861.786	4714
861.918	4729
862.05	4809
862.183	4889
862.315	4904
862.447	4957
862.58	4847
862.712	4740
862.844	4774
862.976	4866
863.108	4873
863.24	5204
863.372	4824
863.504	4858
863.636	4877
863.768	4961
863.9	4942
864.032	4927
864.164	4984
864.296	5045
864.428	5060
864.559	5079
864.691	5147
864.823	5132
864.954	5071
865.086	5178
865.217	5094
865.349	5090
865.48	5174
865.612	5155
865.743	5330
865.875	5166
866.006	5178
866.137	5235
866.269	5223
866.4	5280
866.531	5204
866.662	5265
866.793	5277
866.924	5277
867.055	5337
867.186	5345
867.317	5334
867.448	5277
867.579	5368
867.71	5395
867.841	5417
867.972	5417
868.103	5448
868.233	5516
868.364	5486
868.495	5600
868.625	5676
868.756	5813
868.886	5684
869.017	5718
869.147	5855
869.278	5893
869.408	5821
869.539	5897
869.669	5908
869.799	5901
869.929	5942
870.06	6003
870.19	6167
870.32	6228
870.45	6273
870.58	6342
870.71	6426
870.84	6410
870.97	6433
871.1	6429
871.23	6646
871.36	6654
871.489	6612
871.619	6795
871.749	6791
871.879	6905
872.008	7023
872.138	7000
872.267	6993
872.397	6958
872.526	6962
872.656	7095
872.785	7236
872.915	7346
873.044	7495
873.173	7571
873.303	7632
873.432	7746
873.561	7921
873.69	7894
873.819	7967
873.948	8202
874.077	8206
874.206	8275
874.335	8408
874.464	8651
874.593	8804
874.722	8994
874.851	9138
874.979	9146
875.108	9313
875.237	9485
875.365	9515
875.494	9686
875.623	9899
875.751	9869
875.88	10055
876.008	10082
876.136	10215
876.265	10432
876.393	10656
876.521	10736
876.65	10889
876.778	10858
876.906	10953
877.034	10900
877.162	11052
877.29	11159
877.418	11376
877.546	11368
877.674	11471
877.802	11493
877.93	11490
878.058	11528
878.185	11638
878.313	11668
878.441	11756
878.568	11608
878.696	11847
878.824	11870
878.951	11950
879.079	11996
879.206	12209
879.333	12182
879.461	12019
879.588	12114
879.715	12057
879.842	12270
879.97	12030
880.097	11946
880.224	11927
880.351	11893
880.478	11920
880.605	11866
880.732	11878
880.859	11950
880.986	11920
881.112	11805
881.239	11661
881.366	11752
881.493	11661
881.619	11608
881.746	11547
881.872	11501
881.999	11505
882.125	11509
882.252	11516
882.378	11486
882.505	11501
882.631	11387
882.757	11315
882.883	11246
883.01	11315
883.136	11185
883.262	11056
883.388	11052
883.514	11128
883.64	11185
883.766	11109
883.892	10934
884.018	10991
884.143	11022
884.269	11136
884.395	10831
884.52	10702
884.646	10721
884.772	10714
884.897	10626
885.023	10668
885.148	10744
885.274	10763
885.399	10660
885.524	10622
885.65	10641
885.775	10584
885.9	10481
886.025	10675
886.15	10561
886.275	10508
886.4	10405
886.525	10417
886.65	10409
886.775	10272
886.9	10554
887.025	10478
887.149	10333
887.274	10219
887.399	10124
887.523	10181
887.648	10150
887.773	10135
887.897	10276
888.021	10265
888.146	10105
888.27	10261
888.395	10192
888.519	10246
888.643	10185
888.767	10204
888.891	10120
889.015	9987
889.139	9975
889.263	9945
889.387	10086
889.511	10048
889.635	10032
889.759	9934
889.883	9991
890.006	9972
890.13	10120
890.254	9934
890.377	9968
890.501	9873
890.624	9895
890.748	9934
890.871	9770
890.995	9732
891.118	9762
891.241	9823
891.364	9789
891.488	9846
891.611	9728
891.734	9747
891.857	9819
891.98	9667
892.103	9838
892.226	9686
892.349	9648
892.471	9492
892.594	9633
892.717	9599
892.839	9606
892.962	9595
893.085	9648
893.207	9523
893.33	9481
893.452	9553
893.575	9629
893.697	9519
893.819	9591
893.941	9606
894.064	9568
894.186	9488
894.308	9428
894.43	9652
894.552	9618
894.674	9526
894.796	9416
894.918	9420
895.04	9359
895.161	9412
895.283	9169
895.405	9272
895.526	9332
895.648	9279
895.769	9195
895.891	9283
896.012	9310
896.134	9241
896.255	9222
896.376	9176
896.498	9116
896.619	9131
896.74	9062
896.861	9051
896.982	9294
897.103	9348
897.224	9199
897.345	9150
897.466	8982
897.587	9013
897.708	8998
897.828	9017
897.949	8963
898.07	8849
898.19	8910
898.311	8967
898.431	8929
898.552	8910
898.672	8998
898.792	8929
898.913	8887
899.033	8826
899.153	8842
899.273	8663
899.393	8769
899.513	8678
899.633	8705
899.753	8720
899.873	8667
899.993	8689
900.113	8754
900.232	8697
900.352	8689
900.472	8598
900.591	8575
900.711	8552
900.83	8575
900.95	8705
901.069	8621
901.189	8545
901.308	8469
901.427	8408
901.546	8389
901.665	8415
901.784	8541
901.904	8412
902.023	8355
902.141	8225
902.26	8187
902.379	8221
902.498	8164
902.617	8263
902.735	8259
902.854	8271
902.973	8240
903.091	8195
903.21	8081
903.328	8123
903.446	8103
903.565	8142
903.683	8107
903.801	8039
903.919	8081
904.038	8111
904.156	8046
904.274	8077
904.392	8031
904.51	8065
904.627	8058
904.745	8092
904.863	8096
904.981	7909
905.098	7849
905.216	7868
905.334	7860
905.451	7921
905.569	7921
905.686	8005
905.803	7921
905.921	7826
906.038	7890
906.155	7852
906.272	7693
906.389	7780
906.506	7674
906.623	7575
906.74	7632
906.857	7594
906.974	7510
907.091	7628
907.208	7731
907.324	7605
907.441	7609
907.557	7460
907.674	7430
907.79	7438
907.907	7377
908.023	7396
908.139	7346
908.256	7362
908.372	7419
908.488	7320
908.604	7251
908.72	7255
908.836	7259
908.952	7213
909.068	7247
909.184	7282
909.3	7221
909.415	7339
909.531	7362
909.647	7103
909.762	7133
909.878	7129
909.993	7110
910.108	7141
910.224	7053
910.339	7080
910.454	7053
910.57	7023
910.685	6977
910.8	7164
910.915	7091
911.03	7042
911.145	6920
911.259	6833
911.374	6897
911.489	6852
911.604	6798
911.718	6692
911.833	6703
911.947	6616
912.062	6582
912.176	6688
912.291	6654
912.405	6646
912.519	6818
912.633	6787
912.748	6700
912.862	6654
912.976	6658
913.09	6506
913.204	6589
913.318	6646
913.431	6669
913.545	6646
913.659	6703
913.772	6662
913.886	6521
914	6547
914.113	6604
914.226	6692
914.34	6612
914.453	6502
914.566	6601
914.68	6585
914.793	6528
914.906	6403
915.019	6395
915.132	6350
915.245	6410
915.358	6426
915.47	6372
915.583	6475
915.696	6490
915.809	6559
915.921	6551
916.034	6448
916.146	6384
916.259	6441
916.371	6479
916.483	6445
916.595	6471
916.708	6407
916.82	6391
916.932	6429
917.044	6403
917.156	6460
917.268	6228
917.38	6254
917.491	6414
917.603	6399
917.715	6384
917.826	6384
917.938	6315
918.049	6235
918.161	6311
918.272	6391
918.384	6391
918.495	6388
918.606	6258
918.717	6216
918.828	6266
918.939	6266
919.05	6197
919.161	6258
919.272	6136
919.383	6159
919.494	6266
919.604	6422
919.715	6247
919.826	6190
919.936	6190
920.047	6285
920.157	6300
920.267	6441
920.378	6350
920.488	6319
920.598	6502
920.708	6509
920.818	6521
920.928	6502
921.038	6631
921.148	6536
921.258	6350
921.368	6281
921.477	6155
921.587	6155
921.697	6091
921.806	6148
921.916	6083
922.025	5878
922.134	5908
922.244	5882
922.353	5939
922.462	5832
922.571	5794
922.68	5729
922.789	5684
922.898	5691
923.007	5627
923.116	5714
923.224	5642
923.333	5752
923.442	5551
923.55	5524
923.659	5592
923.767	5638
923.876	5543
923.984	5592
924.092	5539
924.201	5520
924.309	5562
924.417	5516
924.525	5486
924.633	5505
924.741	6285
924.849	5326
924.956	5474
925.064	5337
925.172	5261
925.279	5303
925.387	5364
925.494	5307
925.602	5417
925.709	5376
925.816	5254
925.924	5326
926.031	5299
926.138	5242
926.245	5360
926.352	5216
926.459	5288
926.566	5341
926.673	5166
926.779	5124
926.886	5155
926.993	5025
927.099	5018
927.206	4961
927.312	4980
927.419	4987
927.525	4961
927.631	4987
927.737	4934
927.843	4858
927.95	4771
928.056	4797
928.162	4801
928.267	4915
928.373	5231
928.479	4839
928.585	4717
928.69	4721
928.796	4828
928.901	4637
929.007	4580
929.112	4630
929.218	4634
929.323	4615
929.428	4599
929.533	4683
929.638	4538
929.743	4519
929.848	4550
929.953	4523
930.058	4379
930.163	4299
930.267	4341
930.372	4436
930.477	4299
930.581	4504
930.685	4371
930.79	4306
930.894	4257
930.998	4242
931.103	4360
931.207	4093
931.311	4097
931.415	4059
931.519	3956
931.623	3907
