Data from glass_V78500241_2007.txt Node
Date: Wed Sep 01 19:28:24 CST 2021
User: usil
Spectrometer: V785-0024
Trigger mode: 0
Integration Time (sec): 4.000000E-1
Scans to average: 1
Nonlinearity correction enabled: false
Boxcar width: 0
Storing dark spectrum: false
XAxis mode: Wavelengths
Number of Pixels in Spectrum: 1024
>>>>>Begin Spectral Data<<<<<
801.071	3743
801.214	3781
801.356	3694
801.499	3736
801.641	3747
801.783	3793
801.926	3850
802.068	3766
802.211	3827
802.353	3911
802.496	3797
802.638	3869
802.78	3850
802.923	3899
803.065	3854
803.208	3778
803.35	3808
803.492	3873
803.635	3896
803.777	3770
803.919	3903
804.061	4139
804.204	3937
804.346	3941
804.488	3896
804.63	3975
804.773	3949
804.915	3953
805.057	4139
805.199	3987
805.341	4097
805.483	4162
805.626	4143
805.768	4093
805.91	4192
806.052	4238
806.194	4177
806.336	4322
806.478	4192
806.62	4150
806.762	4211
806.904	4200
807.046	4325
807.188	4204
807.33	4192
807.472	4230
807.614	4166
807.756	4291
807.898	4230
808.04	4185
808.182	4314
808.324	4363
808.465	4394
808.607	4455
808.749	4436
808.891	4462
809.033	4508
809.174	4383
809.316	4284
809.458	4234
809.6	4139
809.741	4131
809.883	4112
810.025	4219
810.166	4192
810.308	4211
810.45	4272
810.591	4249
810.733	4295
810.875	4527
811.016	4793
811.158	5124
811.299	5254
811.441	5288
811.582	5083
811.724	4714
811.865	4519
812.007	4497
812.148	4432
812.29	4398
812.431	4413
812.573	4421
812.714	4432
812.855	4367
812.997	4405
813.138	4531
813.279	4390
813.421	4394
813.562	4421
813.703	4291
813.845	4287
813.986	4295
814.127	4234
814.268	4287
814.41	4280
814.551	4257
814.692	4310
814.833	4272
814.974	4291
815.115	4348
815.256	4265
815.397	4268
815.539	4268
815.68	4227
815.821	4219
815.962	4329
816.103	4272
816.244	4230
816.385	4223
816.526	4242
816.666	4204
816.807	4131
816.948	4124
817.089	4204
817.23	4082
817.371	4055
817.512	4040
817.653	4055
817.793	4029
817.934	4074
818.075	4071
818.216	4063
818.356	4074
818.497	3991
818.638	3949
818.778	3888
818.919	3903
819.06	3842
819.2	3899
819.341	3838
819.481	3838
819.622	3896
819.762	4017
819.903	3949
820.043	3873
820.184	3823
820.324	3804
820.465	3854
820.605	3869
820.746	3896
820.886	3842
821.026	3972
821.167	3918
821.307	3968
821.447	3979
821.588	3975
821.728	3884
821.868	3911
822.008	3842
822.149	3888
822.289	3953
822.429	3797
822.569	3755
822.709	3816
822.849	3675
822.99	3751
823.13	3785
823.27	3774
823.41	3682
823.55	3759
823.69	3690
823.83	3762
823.97	3671
824.11	3606
824.25	3564
824.389	3637
824.529	3675
824.669	3610
824.809	3694
824.949	3686
825.089	3762
825.228	3717
825.368	3576
825.508	3557
825.648	3587
825.787	3629
825.927	3625
826.067	3641
826.206	3663
826.346	3793
826.485	3831
826.625	3846
826.765	3884
826.904	3850
827.044	3599
827.183	3545
827.323	3458
827.462	3469
827.601	3439
827.741	3389
827.88	3428
828.02	3393
828.159	3458
828.298	3466
828.437	3507
828.577	3447
828.716	3606
828.855	3496
828.994	3340
829.134	3355
829.273	3389
829.412	3317
829.551	3344
829.69	3348
829.829	3397
829.968	3519
830.107	3412
830.246	3435
830.385	3382
830.524	3378
830.663	3294
830.802	3233
830.941	3199
831.08	3188
831.219	3230
831.357	3272
831.496	3378
831.635	3218
831.774	3176
831.913	3192
832.051	3127
832.19	3146
832.329	3184
832.467	3135
832.606	3093
832.744	3169
832.883	3188
833.022	3218
833.16	3218
833.299	3294
833.437	3329
833.576	3321
833.714	3374
833.852	3405
833.991	3409
834.129	3454
834.267	3443
834.406	3401
834.544	3447
834.682	3439
834.821	3401
834.959	3526
835.097	3428
835.235	3515
835.373	3473
835.511	3485
835.65	3435
835.788	3496
835.926	3374
836.064	3348
836.202	3405
836.34	3580
836.478	3599
836.615	3606
836.753	3629
836.891	3663
837.029	3622
837.167	3603
837.305	3568
837.443	3534
837.58	3466
837.718	3606
837.856	3515
837.993	3561
838.131	3606
838.269	3572
838.406	3564
838.544	3580
838.681	3496
838.819	3458
838.956	3351
839.094	3386
839.231	3454
839.369	3511
839.506	3724
839.643	3606
839.781	3523
839.918	3466
840.055	3526
840.193	3534
840.33	3534
840.467	3534
840.604	3595
840.742	3812
840.879	3519
841.016	3564
841.153	3591
841.29	3770
841.427	3736
841.564	3724
841.701	3713
841.838	3720
841.975	3656
842.112	3698
842.249	3614
842.385	3629
842.522	3804
842.659	3694
842.796	3701
842.933	3675
843.069	3713
843.206	3751
843.343	3797
843.479	3778
843.616	3812
843.752	3667
843.889	3675
844.025	3831
844.162	3732
844.298	3831
844.435	3785
844.571	3743
844.708	3869
844.844	3964
844.98	4025
845.117	4010
845.253	3953
845.389	3934
845.525	3968
845.661	3934
845.798	3934
845.934	3994
846.07	3991
846.206	4040
846.342	4036
846.478	4051
846.614	3937
846.75	3956
846.886	3964
847.022	4029
847.158	3968
847.294	3991
847.429	4010
847.565	3975
847.701	4200
847.837	3842
847.972	3854
848.108	3964
848.244	3918
848.379	3835
848.515	3812
848.65	3819
848.786	3857
848.921	3857
849.057	3972
849.192	3953
849.328	3861
849.463	3915
849.598	3869
849.734	3838
849.869	3838
850.004	3800
850.14	3785
850.275	3743
850.41	3740
850.545	3740
850.68	3778
850.815	3762
850.95	3800
851.085	3937
851.22	3861
851.355	3808
851.49	3747
851.625	3800
851.76	3804
851.895	3759
852.03	3770
852.165	3819
852.299	3854
852.434	3907
852.569	3854
852.703	3869
852.838	3915
852.973	4002
853.107	3964
853.242	3907
853.376	3835
853.511	3781
853.645	3827
853.78	3930
853.914	3896
854.048	3861
854.183	3892
854.317	3994
854.451	4021
854.585	3956
854.72	3953
854.854	4017
854.988	3991
855.122	3979
855.256	3899
855.39	4036
855.524	4105
855.658	4101
855.792	4120
855.926	4124
856.06	4109
856.194	4181
856.327	4192
856.461	4116
856.595	4116
856.729	4173
856.862	4303
856.996	4265
857.13	4276
857.263	4310
857.397	4329
857.53	4268
857.664	4333
857.797	4344
857.931	4455
858.064	4341
858.197	4440
858.331	4428
858.464	4383
858.597	4356
858.731	4428
858.864	4447
858.997	4440
859.13	4512
859.263	4535
859.396	4596
859.529	4512
859.662	4508
859.795	4512
859.928	4580
860.061	4653
860.194	4710
860.327	4698
860.46	4611
860.592	4755
860.725	4778
860.858	4752
860.99	4702
861.123	4702
861.256	4691
861.388	4786
861.521	5379
861.653	4748
861.786	4687
861.918	4748
862.05	4782
862.183	4835
862.315	4858
862.447	4892
862.58	4896
862.712	4736
862.844	4767
862.976	4934
863.108	4889
863.24	5216
863.372	4847
863.504	4877
863.636	4889
863.768	4961
863.9	4953
864.032	4942
864.164	4927
864.296	5037
864.428	5056
864.559	5067
864.691	5086
864.823	5151
864.954	5105
865.086	5117
865.217	5155
865.349	5109
865.48	5109
865.612	5166
865.743	5330
865.875	5246
866.006	5162
866.137	5239
866.269	5227
866.4	5269
866.531	5193
866.662	5265
866.793	5261
866.924	5273
867.055	5349
867.186	5330
867.317	5357
867.448	5280
867.579	5345
867.71	5425
867.841	5364
867.972	5535
868.103	5478
868.233	5505
868.364	5539
868.495	5596
868.625	5665
868.756	5786
868.886	5726
869.017	5729
869.147	5824
869.278	5844
869.408	5779
869.539	5840
869.669	5931
869.799	5973
869.929	5973
870.06	6026
870.19	6186
870.32	6216
870.45	6300
870.58	6380
870.71	6422
870.84	6494
870.97	6426
871.1	6502
871.23	6604
871.36	6707
871.489	6642
871.619	6711
871.749	6829
871.879	6806
872.008	6973
872.138	6882
872.267	6977
872.397	6996
872.526	6977
872.656	7156
872.785	7175
872.915	7403
873.044	7499
873.173	7544
873.303	7620
873.432	7818
873.561	7852
873.69	7970
873.819	8020
873.948	8157
874.077	8180
874.206	8328
874.335	8408
874.464	8659
874.593	8861
874.722	8948
874.851	9085
874.979	9192
875.108	9351
875.237	9435
875.365	9450
875.494	9663
875.623	9846
875.751	9804
875.88	10055
876.008	10131
876.136	10287
876.265	10569
876.393	10622
876.521	10710
876.65	10767
876.778	10831
876.906	10892
877.034	10976
877.162	11105
877.29	11170
877.418	11254
877.546	11337
877.674	11501
877.802	11501
877.93	11562
878.058	11459
878.185	11573
878.313	11558
878.441	11676
878.568	11630
878.696	11741
878.824	11851
878.951	12034
879.079	12019
879.206	12140
879.333	12045
879.461	12038
879.588	12041
879.715	12087
879.842	12224
879.97	12110
880.097	11916
880.224	11878
880.351	11893
880.478	11889
880.605	11866
880.732	11779
880.859	11969
880.986	11783
881.112	11840
881.239	11718
881.366	11638
881.493	11657
881.619	11551
881.746	11543
881.872	11535
881.999	11589
882.125	11448
882.252	11490
882.378	11486
882.505	11547
882.631	11376
882.757	11368
882.883	11360
883.01	11235
883.136	11189
883.262	11170
883.388	10984
883.514	11208
883.64	11147
883.766	11033
883.892	11079
884.018	11037
884.143	10995
884.269	11098
884.395	10908
884.52	10809
884.646	10809
884.772	10740
884.897	10630
885.023	10733
885.148	10706
885.274	10733
885.399	10656
885.524	10626
885.65	10607
885.775	10550
885.9	10527
886.025	10519
886.15	10538
886.275	10402
886.4	10436
886.525	10421
886.65	10394
886.775	10348
886.9	10512
887.025	10493
887.149	10344
887.274	10207
887.399	10261
887.523	10116
887.648	10090
887.773	10150
887.897	10173
888.021	10169
888.146	10036
888.27	10227
888.395	10169
888.519	10139
888.643	10166
888.767	10215
888.891	10158
889.015	10013
889.139	10055
889.263	9979
889.387	10032
889.511	10101
889.635	10059
889.759	9854
889.883	9994
890.006	10032
890.13	10128
890.254	9926
890.377	9998
890.501	9899
890.624	9899
890.748	9915
890.871	9789
890.995	9755
891.118	9667
891.241	9751
891.364	9770
891.488	9861
891.611	9778
891.734	9720
891.857	9762
891.98	9724
892.103	9781
892.226	9641
892.349	9694
892.471	9500
892.594	9603
892.717	9629
892.839	9625
892.962	9663
893.085	9675
893.207	9599
893.33	9530
893.452	9530
893.575	9580
893.697	9447
893.819	9663
893.941	9591
894.064	9587
894.186	9454
894.308	9351
894.43	9557
894.552	9606
894.674	9549
894.796	9386
894.918	9355
895.04	9389
895.161	9393
895.283	9310
895.405	9253
895.526	9291
895.648	9264
895.769	9192
895.891	9218
896.012	9310
896.134	9218
896.255	9161
896.376	9066
896.498	9188
896.619	9180
896.74	9085
896.861	9062
896.982	9294
897.103	9302
897.224	9131
897.345	9062
897.466	8979
897.587	9043
897.708	9085
897.828	9032
897.949	8994
898.07	8861
898.19	8880
898.311	8941
898.431	8883
898.552	8899
898.672	8944
898.792	8925
898.913	8902
899.033	8830
899.153	8708
899.273	8613
899.393	8727
899.513	8804
899.633	8701
899.753	8766
899.873	8644
899.993	8785
900.113	8693
900.232	8602
900.352	8667
900.472	8621
900.591	8545
900.711	8617
900.83	8575
900.95	8629
901.069	8705
901.189	8613
901.308	8396
901.427	8412
901.546	8438
901.665	8434
901.784	8530
901.904	8355
902.023	8320
902.141	8256
902.26	8195
902.379	8271
902.498	8168
902.617	8214
902.735	8298
902.854	8298
902.973	8240
903.091	8096
903.21	8157
903.328	8195
903.446	8168
903.565	8081
903.683	8119
903.801	8012
903.919	8138
904.038	8134
904.156	8001
904.274	8119
904.392	7989
904.51	8062
904.627	8046
904.745	8016
904.863	8092
904.981	7925
905.098	7875
905.216	7898
905.334	7921
905.451	7944
905.569	7879
905.686	7890
905.803	7887
905.921	7753
906.038	7921
906.155	7795
906.272	7734
906.389	7761
906.506	7582
906.623	7666
906.74	7624
906.857	7563
906.974	7563
907.091	7643
907.208	7689
907.324	7632
907.441	7476
907.557	7426
907.674	7384
907.79	7373
907.907	7400
908.023	7388
908.139	7407
908.256	7434
908.372	7274
908.488	7343
908.604	7240
908.72	7282
908.836	7282
908.952	7190
909.068	7217
909.184	7343
909.3	7282
909.415	7225
909.531	7274
909.647	7145
909.762	7126
909.878	7088
909.993	7076
910.108	7038
910.224	6996
910.339	7129
910.454	7065
910.57	7023
910.685	6970
910.8	7213
910.915	7103
911.03	7053
911.145	6890
911.259	6837
911.374	6924
911.489	6852
911.604	6764
911.718	6700
911.833	6753
911.947	6650
912.062	6635
912.176	6730
912.291	6646
912.405	6741
912.519	6776
912.633	6791
912.748	6681
912.862	6677
912.976	6631
913.09	6540
913.204	6612
913.318	6585
913.431	6703
913.545	6707
913.659	6722
913.772	6665
913.886	6570
914	6597
914.113	6608
914.226	6650
914.34	6608
914.453	6445
914.566	6597
914.68	6502
914.793	6506
914.906	6403
915.019	6376
915.132	6407
915.245	6323
915.358	6528
915.47	6441
915.583	6445
915.696	6460
915.809	6540
915.921	6563
916.034	6441
916.146	6418
916.259	6350
916.371	6433
916.483	6486
916.595	6376
916.708	6391
916.82	6414
916.932	6304
917.044	6369
917.156	6342
917.268	6319
917.38	6407
917.491	6247
917.603	6323
917.715	6433
917.826	6426
917.938	6323
918.049	6194
918.161	6277
918.272	6437
918.384	6403
918.495	6365
918.606	6247
918.717	6194
918.828	6205
918.939	6277
919.05	6213
919.161	6239
919.272	6133
919.383	6194
919.494	6331
919.604	6509
919.715	6300
919.826	6205
919.936	6224
920.047	6304
920.157	6247
920.267	6467
920.378	6331
920.488	6285
920.598	6452
920.708	6544
920.818	6437
920.928	6464
921.038	6604
921.148	6608
921.258	6327
921.368	6308
921.477	6224
921.587	6205
921.697	6140
921.806	6152
921.916	6083
922.025	5904
922.134	5920
922.244	5901
922.353	5904
922.462	5855
922.571	5798
922.68	5775
922.789	5665
922.898	5688
923.007	5646
923.116	5756
923.224	5657
923.333	5672
923.442	5619
923.55	5581
923.659	5558
923.767	5596
923.876	5566
923.984	5528
924.092	5482
924.201	5589
924.309	5497
924.417	5535
924.525	5493
924.633	5471
924.741	6304
924.849	5353
924.956	5509
925.064	5391
925.172	5269
925.279	5330
925.387	5372
925.494	5280
925.602	5372
925.709	5395
925.816	5322
925.924	5337
926.031	5372
926.138	5288
926.245	5273
926.352	5223
926.459	5269
926.566	5277
926.673	5212
926.779	5189
926.886	5162
926.993	4999
927.099	5014
927.206	4965
927.312	4987
927.419	4987
927.525	5003
927.631	4938
927.737	4896
927.843	4835
927.95	4759
928.056	4786
928.162	4820
928.267	4870
928.373	5246
928.479	4812
928.585	4637
928.69	4797
928.796	4763
928.901	4660
929.007	4588
929.112	4691
929.218	4584
929.323	4607
929.428	4546
929.533	4641
929.638	4512
929.743	4485
929.848	4535
929.953	4519
930.058	4440
930.163	4333
930.267	4325
930.372	4443
930.477	4268
930.581	4478
930.685	4360
930.79	4249
930.894	4276
930.998	4261
931.103	4352
931.207	4109
931.311	4105
931.415	4044
931.519	3968
931.623	3945
