Data from glass_V78500241_1637.txt Node
Date: Wed Sep 01 19:25:50 CST 2021
User: usil
Spectrometer: V785-0024
Trigger mode: 0
Integration Time (sec): 4.000000E-1
Scans to average: 1
Nonlinearity correction enabled: false
Boxcar width: 0
Storing dark spectrum: false
XAxis mode: Wavelengths
Number of Pixels in Spectrum: 1024
>>>>>Begin Spectral Data<<<<<
801.071	3698
801.214	3732
801.356	3732
801.499	3778
801.641	3759
801.783	3778
801.926	3842
802.068	3861
802.211	3857
802.353	3907
802.496	3827
802.638	3869
802.78	3926
802.923	3892
803.065	3869
803.208	3835
803.35	3850
803.492	3960
803.635	3896
803.777	3823
803.919	3888
804.061	4128
804.204	3941
804.346	3953
804.488	3937
804.63	3994
804.773	3953
804.915	4040
805.057	4139
805.199	4036
805.341	4097
805.483	4150
805.626	4131
805.768	4067
805.91	4207
806.052	4204
806.194	4276
806.336	4329
806.478	4238
806.62	4181
806.762	4177
806.904	4268
807.046	4314
807.188	4223
807.33	4188
807.472	4261
807.614	4158
807.756	4276
807.898	4215
808.04	4215
808.182	4280
808.324	4344
808.465	4375
808.607	4447
808.749	4440
808.891	4459
809.033	4462
809.174	4390
809.316	4276
809.458	4219
809.6	4196
809.741	4154
809.883	4109
810.025	4211
810.166	4223
810.308	4162
810.45	4257
810.591	4242
810.733	4337
810.875	4538
811.016	4847
811.158	5178
811.299	5273
811.441	5269
811.582	5090
811.724	4691
811.865	4466
812.007	4497
812.148	4417
812.29	4405
812.431	4402
812.573	4417
812.714	4352
812.855	4379
812.997	4432
813.138	4451
813.279	4383
813.421	4402
813.562	4360
813.703	4375
813.845	4314
813.986	4257
814.127	4238
814.268	4238
814.41	4287
814.551	4280
814.692	4333
814.833	4272
814.974	4253
815.115	4322
815.256	4299
815.397	4253
815.539	4223
815.68	4207
815.821	4204
815.962	4272
816.103	4227
816.244	4276
816.385	4242
816.526	4306
816.666	4230
816.807	4101
816.948	4135
817.089	4169
817.23	4131
817.371	4032
817.512	4040
817.653	4067
817.793	4044
817.934	3998
818.075	4059
818.216	4105
818.356	4051
818.497	4013
818.638	3911
818.778	3903
818.919	3903
819.06	3888
819.2	3880
819.341	3865
819.481	3812
819.622	3915
819.762	4002
819.903	3934
820.043	3876
820.184	3831
820.324	3854
820.465	3903
820.605	3797
820.746	3907
820.886	3823
821.026	3926
821.167	3918
821.307	4002
821.447	3994
821.588	3991
821.728	3934
821.868	3960
822.008	3861
822.149	3892
822.289	3903
822.429	3789
822.569	3778
822.709	3819
822.849	3701
822.99	3759
823.13	3781
823.27	3743
823.41	3728
823.55	3690
823.69	3720
823.83	3709
823.97	3717
824.11	3584
824.25	3603
824.389	3644
824.529	3622
824.669	3667
824.809	3705
824.949	3755
825.089	3732
825.228	3705
825.368	3572
825.508	3553
825.648	3572
825.787	3603
825.927	3591
826.067	3644
826.206	3694
826.346	3762
826.485	3819
826.625	3854
826.765	3918
826.904	3865
827.044	3614
827.183	3549
827.323	3435
827.462	3492
827.601	3412
827.741	3382
827.88	3458
828.02	3367
828.159	3447
828.298	3488
828.437	3523
828.577	3447
828.716	3549
828.855	3485
828.994	3389
829.134	3340
829.273	3374
829.412	3389
829.551	3310
829.69	3405
829.829	3443
829.968	3542
830.107	3435
830.246	3492
830.385	3340
830.524	3332
830.663	3298
830.802	3249
830.941	3211
831.08	3173
831.219	3245
831.357	3275
831.496	3397
831.635	3222
831.774	3207
831.913	3233
832.051	3127
832.19	3154
832.329	3218
832.467	3123
832.606	3116
832.744	3173
832.883	3184
833.022	3169
833.16	3253
833.299	3313
833.437	3332
833.576	3351
833.714	3409
833.852	3431
833.991	3462
834.129	3454
834.267	3485
834.406	3428
834.544	3428
834.682	3416
834.821	3405
834.959	3549
835.097	3397
835.235	3591
835.373	3500
835.511	3492
835.65	3450
835.788	3519
835.926	3405
836.064	3412
836.202	3397
836.34	3584
836.478	3606
836.615	3538
836.753	3561
836.891	3629
837.029	3648
837.167	3587
837.305	3564
837.443	3561
837.58	3504
837.718	3584
837.856	3587
837.993	3534
838.131	3606
838.269	3595
838.406	3629
838.544	3523
838.681	3477
838.819	3458
838.956	3389
839.094	3313
839.231	3439
839.369	3504
839.506	3724
839.643	3641
839.781	3519
839.918	3450
840.055	3496
840.193	3526
840.33	3485
840.467	3534
840.604	3545
840.742	3774
840.879	3564
841.016	3530
841.153	3587
841.29	3781
841.427	3686
841.564	3720
841.701	3766
841.838	3732
841.975	3667
842.112	3675
842.249	3644
842.385	3606
842.522	3857
842.659	3679
842.796	3694
842.933	3732
843.069	3698
843.206	3736
843.343	3793
843.479	3774
843.616	3827
843.752	3644
843.889	3736
844.025	3831
844.162	3732
844.298	3838
844.435	3778
844.571	3808
844.708	3941
844.844	3983
844.98	4051
845.117	4013
845.253	3918
845.389	3880
845.525	4002
845.661	4013
845.798	3937
845.934	4013
846.07	3926
846.206	4074
846.342	4128
846.478	4078
846.614	3941
846.75	3930
846.886	3911
847.022	4036
847.158	3941
847.294	4025
847.429	3987
847.565	4025
847.701	4230
847.837	3903
847.972	3873
848.108	3968
848.244	3983
848.379	3846
848.515	3785
848.65	3812
848.786	3854
848.921	3873
849.057	3888
849.192	3911
849.328	3899
849.463	3934
849.598	3850
849.734	3835
849.869	3835
850.004	3823
850.14	3823
850.275	3842
850.41	3770
850.545	3740
850.68	3816
850.815	3778
850.95	3747
851.085	3937
851.22	3907
851.355	3831
851.49	3762
851.625	3793
851.76	3785
851.895	3728
852.03	3732
852.165	3808
852.299	3835
852.434	3873
852.569	3835
852.703	3835
852.838	3949
852.973	4040
853.107	3994
853.242	3911
853.376	3850
853.511	3785
853.645	3812
853.78	3945
853.914	3896
854.048	3926
854.183	3888
854.317	3934
854.451	4059
854.585	3941
854.72	3937
854.854	4059
854.988	3926
855.122	4055
855.256	3930
855.39	4010
855.524	4116
855.658	4059
855.792	4082
855.926	4139
856.06	4150
856.194	4257
856.327	4158
856.461	4086
856.595	4082
856.729	4188
856.862	4276
856.996	4230
857.13	4318
857.263	4299
857.397	4371
857.53	4287
857.664	4363
857.797	4367
857.931	4417
858.064	4421
858.197	4421
858.331	4413
858.464	4375
858.597	4337
858.731	4417
858.864	4405
858.997	4459
859.13	4542
859.263	4531
859.396	4641
859.529	4459
859.662	4527
859.795	4538
859.928	4596
860.061	4698
860.194	4740
860.327	4702
860.46	4691
860.592	4744
860.725	4714
860.858	4778
860.99	4691
861.123	4702
861.256	4683
861.388	4710
861.521	5490
861.653	4641
861.786	4691
861.918	4763
862.05	4778
862.183	4866
862.315	4892
862.447	4949
862.58	4797
862.712	4816
862.844	4786
862.976	4885
863.108	4858
863.24	5227
863.372	4809
863.504	4892
863.636	4896
863.768	4961
863.9	4946
864.032	4908
864.164	4946
864.296	5010
864.428	5155
864.559	5113
864.691	5102
864.823	5136
864.954	5098
865.086	5124
865.217	5109
865.349	5121
865.48	5124
865.612	5166
865.743	5341
865.875	5235
866.006	5178
866.137	5277
866.269	5235
866.4	5227
866.531	5269
866.662	5223
866.793	5258
866.924	5288
867.055	5296
867.186	5334
867.317	5337
867.448	5299
867.579	5357
867.71	5368
867.841	5353
867.972	5452
868.103	5421
868.233	5440
868.364	5520
868.495	5573
868.625	5672
868.756	5798
868.886	5691
869.017	5733
869.147	5893
869.278	5859
869.408	5790
869.539	5832
869.669	5927
869.799	5946
869.929	5961
870.06	5996
870.19	6209
870.32	6163
870.45	6239
870.58	6327
870.71	6429
870.84	6456
870.97	6414
871.1	6376
871.23	6696
871.36	6726
871.489	6715
871.619	6715
871.749	6783
871.879	6905
872.008	6939
872.138	6920
872.267	7019
872.397	6981
872.526	7012
872.656	7149
872.785	7168
872.915	7392
873.044	7506
873.173	7571
873.303	7628
873.432	7693
873.561	7894
873.69	7932
873.819	8039
873.948	8149
874.077	8218
874.206	8305
874.335	8533
874.464	8655
874.593	8849
874.722	8914
874.851	9093
874.979	9241
875.108	9443
875.237	9435
875.365	9507
875.494	9614
875.623	9778
875.751	9781
875.88	9998
876.008	10101
876.136	10261
876.265	10516
876.393	10618
876.521	10679
876.65	10763
876.778	10873
876.906	10892
877.034	10968
877.162	11079
877.29	11128
877.418	11368
877.546	11322
877.674	11452
877.802	11459
877.93	11516
878.058	11554
878.185	11535
878.313	11691
878.441	11752
878.568	11668
878.696	11771
878.824	11824
878.951	11882
879.079	12007
879.206	12190
879.333	12087
879.461	12030
879.588	12152
879.715	12011
879.842	12243
879.97	11980
880.097	11840
880.224	11965
880.351	11847
880.478	11809
880.605	11805
880.732	11912
880.859	11965
880.986	11836
881.112	11908
881.239	11786
881.366	11661
881.493	11661
881.619	11516
881.746	11551
881.872	11452
881.999	11543
882.125	11497
882.252	11604
882.378	11512
882.505	11539
882.631	11372
882.757	11330
882.883	11322
883.01	11220
883.136	11204
883.262	11181
883.388	11071
883.514	11117
883.64	11124
883.766	11201
883.892	10980
884.018	11006
884.143	11109
884.269	11151
884.395	10900
884.52	10763
884.646	10828
884.772	10706
884.897	10675
885.023	10660
885.148	10675
885.274	10763
885.399	10649
885.524	10550
885.65	10577
885.775	10519
885.9	10565
886.025	10565
886.15	10584
886.275	10451
886.4	10382
886.525	10394
886.65	10367
886.775	10341
886.9	10379
887.025	10447
887.149	10333
887.274	10287
887.399	10173
887.523	10207
887.648	10112
887.773	10044
887.897	10242
888.021	10188
888.146	10082
888.27	10227
888.395	10173
888.519	10177
888.643	10131
888.767	10204
888.891	10029
889.015	10017
889.139	10017
889.263	10017
889.387	10109
889.511	10109
889.635	10143
889.759	10029
889.883	10006
890.006	10010
890.13	10013
890.254	9926
890.377	10025
890.501	9823
890.624	9888
890.748	9812
890.871	9835
890.995	9819
891.118	9701
891.241	9774
891.364	9728
891.488	9816
891.611	9755
891.734	9755
891.857	9743
891.98	9648
892.103	9759
892.226	9720
892.349	9755
892.471	9564
892.594	9580
892.717	9614
892.839	9622
892.962	9614
893.085	9637
893.207	9622
893.33	9492
893.452	9507
893.575	9633
893.697	9511
893.819	9610
893.941	9580
894.064	9614
894.186	9507
894.308	9424
894.43	9481
894.552	9519
894.674	9500
894.796	9389
894.918	9401
895.04	9363
895.161	9367
895.283	9344
895.405	9260
895.526	9249
895.648	9249
895.769	9237
895.891	9279
896.012	9355
896.134	9199
896.255	9253
896.376	9161
896.498	9169
896.619	9188
896.74	9058
896.861	9150
896.982	9275
897.103	9287
897.224	9203
897.345	9047
897.466	8952
897.587	9017
897.708	9135
897.828	9013
897.949	8845
898.07	8910
898.19	8887
898.311	8971
898.431	8895
898.552	8902
898.672	8902
898.792	8944
898.913	8925
899.033	8796
899.153	8769
899.273	8655
899.393	8769
899.513	8735
899.633	8777
899.753	8777
899.873	8777
899.993	8674
900.113	8689
900.232	8663
900.352	8617
900.472	8587
900.591	8530
900.711	8590
900.83	8495
900.95	8724
901.069	8701
901.189	8564
901.308	8454
901.427	8423
901.546	8396
901.665	8465
901.784	8476
901.904	8385
902.023	8294
902.141	8214
902.26	8267
902.379	8233
902.498	8199
902.617	8233
902.735	8248
902.854	8279
902.973	8298
903.091	8092
903.21	8180
903.328	8191
903.446	8130
903.565	8134
903.683	8039
903.801	8050
903.919	8062
904.038	8142
904.156	8092
904.274	8058
904.392	8058
904.51	8012
904.627	8046
904.745	8043
904.863	8043
904.981	7986
905.098	7841
905.216	7902
905.334	7925
905.451	7894
905.569	7864
905.686	7963
905.803	7890
905.921	7780
906.038	7887
906.155	7792
906.272	7719
906.389	7818
906.506	7655
906.623	7639
906.74	7624
906.857	7567
906.974	7616
907.091	7628
907.208	7696
907.324	7590
907.441	7567
907.557	7445
907.674	7381
907.79	7449
907.907	7445
908.023	7430
908.139	7426
908.256	7445
908.372	7384
908.488	7369
908.604	7305
908.72	7278
908.836	7263
908.952	7202
909.068	7259
909.184	7350
909.3	7282
909.415	7244
909.531	7255
909.647	7149
909.762	7088
909.878	7076
909.993	7084
910.108	7107
910.224	7053
910.339	7129
910.454	7099
910.57	6989
910.685	6977
910.8	7183
910.915	7133
911.03	7000
911.145	6947
911.259	6897
911.374	6825
911.489	6840
911.604	6772
911.718	6692
911.833	6734
911.947	6745
912.062	6635
912.176	6719
912.291	6768
912.405	6707
912.519	6776
912.633	6856
912.748	6711
912.862	6768
912.976	6635
913.09	6544
913.204	6551
913.318	6623
913.431	6669
913.545	6730
913.659	6730
913.772	6593
913.886	6623
914	6528
914.113	6620
914.226	6635
914.34	6578
914.453	6498
914.566	6578
914.68	6509
914.793	6460
914.906	6410
915.019	6391
915.132	6338
915.245	6464
915.358	6445
915.47	6433
915.583	6467
915.696	6456
915.809	6574
915.921	6517
916.034	6429
916.146	6410
916.259	6369
916.371	6460
916.483	6407
916.595	6391
916.708	6410
916.82	6365
916.932	6353
917.044	6429
917.156	6403
917.268	6334
917.38	6346
917.491	6338
917.603	6357
917.715	6323
917.826	6460
917.938	6388
918.049	6251
918.161	6346
918.272	6403
918.384	6426
918.495	6281
918.606	6315
918.717	6216
918.828	6251
918.939	6262
919.05	6197
919.161	6262
919.272	6125
919.383	6175
919.494	6262
919.604	6388
919.715	6300
919.826	6190
919.936	6281
920.047	6327
920.157	6262
920.267	6448
920.378	6304
920.488	6277
920.598	6467
920.708	6582
920.818	6422
920.928	6479
921.038	6593
921.148	6612
921.258	6384
921.368	6338
921.477	6205
921.587	6235
921.697	6117
921.806	6232
921.916	6087
922.025	5931
922.134	5946
922.244	5923
922.353	5893
922.462	5844
922.571	5805
922.68	5699
922.789	5668
922.898	5657
923.007	5623
923.116	5726
923.224	5710
923.333	5691
923.442	5634
923.55	5539
923.659	5600
923.767	5581
923.876	5642
923.984	5642
924.092	5547
924.201	5596
924.309	5501
924.417	5604
924.525	5478
924.633	5505
924.741	6289
924.849	5330
924.956	5433
925.064	5372
925.172	5307
925.279	5337
925.387	5345
925.494	5414
925.602	5357
925.709	5398
925.816	5288
925.924	5299
926.031	5337
926.138	5315
926.245	5299
926.352	5208
926.459	5318
926.566	5322
926.673	5181
926.779	5109
926.886	5201
926.993	5067
927.099	4991
927.206	5022
927.312	4961
927.419	5083
927.525	4968
927.631	4953
927.737	4896
927.843	4854
927.95	4763
928.056	4820
928.162	4850
928.267	4797
928.373	5341
928.479	4858
928.585	4714
928.69	4736
928.796	4774
928.901	4668
929.007	4603
929.112	4630
929.218	4599
929.323	4622
929.428	4554
929.533	4653
929.638	4546
929.743	4569
929.848	4542
929.953	4550
930.058	4417
930.163	4337
930.267	4325
930.372	4379
930.477	4333
930.581	4436
930.685	4341
930.79	4265
930.894	4253
930.998	4238
931.103	4432
931.207	4116
931.311	4124
931.415	4082
931.519	3918
931.623	3949
