Data from glass_V78500241_815.txt Node
Date: Wed Sep 01 19:20:08 CST 2021
User: usil
Spectrometer: V785-0024
Trigger mode: 0
Integration Time (sec): 4.000000E-1
Scans to average: 1
Nonlinearity correction enabled: false
Boxcar width: 0
Storing dark spectrum: false
XAxis mode: Wavelengths
Number of Pixels in Spectrum: 1024
>>>>>Begin Spectral Data<<<<<
801.071	3743
801.214	3701
801.356	3698
801.499	3743
801.641	3785
801.783	3789
801.926	3854
802.068	3816
802.211	3831
802.353	3888
802.496	3876
802.638	3915
802.78	3857
802.923	3975
803.065	3888
803.208	3838
803.35	3892
803.492	3850
803.635	3934
803.777	3816
803.919	3903
804.061	4143
804.204	4002
804.346	3964
804.488	3956
804.63	4036
804.773	3987
804.915	4048
805.057	4162
805.199	4078
805.341	4120
805.483	4192
805.626	4147
805.768	4120
805.91	4177
806.052	4261
806.194	4181
806.336	4325
806.478	4177
806.62	4211
806.762	4211
806.904	4246
807.046	4356
807.188	4280
807.33	4173
807.472	4223
807.614	4249
807.756	4261
807.898	4238
808.04	4227
808.182	4303
808.324	4291
808.465	4352
808.607	4500
808.749	4455
808.891	4478
809.033	4558
809.174	4428
809.316	4295
809.458	4238
809.6	4120
809.741	4181
809.883	4188
810.025	4215
810.166	4223
810.308	4265
810.45	4268
810.591	4207
810.733	4284
810.875	4489
811.016	4839
811.158	5155
811.299	5322
811.441	5330
811.582	5067
811.724	4721
811.865	4489
812.007	4481
812.148	4474
812.29	4409
812.431	4424
812.573	4405
812.714	4413
812.855	4432
812.997	4443
813.138	4508
813.279	4421
813.421	4383
813.562	4390
813.703	4287
813.845	4318
813.986	4249
814.127	4227
814.268	4257
814.41	4261
814.551	4295
814.692	4329
814.833	4299
814.974	4325
815.115	4356
815.256	4276
815.397	4257
815.539	4227
815.68	4192
815.821	4219
815.962	4325
816.103	4295
816.244	4242
816.385	4238
816.526	4253
816.666	4227
816.807	4139
816.948	4200
817.089	4196
817.23	4101
817.371	4044
817.512	4063
817.653	4093
817.793	4040
817.934	4036
818.075	4074
818.216	4124
818.356	4097
818.497	3994
818.638	3884
818.778	3896
818.919	3896
819.06	3865
819.2	3911
819.341	3926
819.481	3876
819.622	3922
819.762	3968
819.903	3975
820.043	3857
820.184	3854
820.324	3846
820.465	3873
820.605	3876
820.746	3922
820.886	3812
821.026	3918
821.167	3926
821.307	3945
821.447	3964
821.588	3915
821.728	3922
821.868	3945
822.008	3880
822.149	3907
822.289	3884
822.429	3804
822.569	3770
822.709	3812
822.849	3709
822.99	3781
823.13	3778
823.27	3797
823.41	3720
823.55	3705
823.69	3713
823.83	3736
823.97	3682
824.11	3648
824.25	3618
824.389	3641
824.529	3667
824.669	3656
824.809	3701
824.949	3724
825.089	3759
825.228	3679
825.368	3564
825.508	3584
825.648	3595
825.787	3591
825.927	3660
826.067	3652
826.206	3705
826.346	3850
826.485	3823
826.625	3850
826.765	3949
826.904	3861
827.044	3637
827.183	3561
827.323	3431
827.462	3515
827.601	3447
827.741	3431
827.88	3511
828.02	3348
828.159	3431
828.298	3469
828.437	3515
828.577	3511
828.716	3599
828.855	3511
828.994	3382
829.134	3401
829.273	3378
829.412	3351
829.551	3344
829.69	3351
829.829	3473
829.968	3523
830.107	3469
830.246	3500
830.385	3382
830.524	3397
830.663	3344
830.802	3230
830.941	3222
831.08	3184
831.219	3226
831.357	3294
831.496	3378
831.635	3253
831.774	3230
831.913	3222
832.051	3146
832.19	3154
832.329	3237
832.467	3165
832.606	3119
832.744	3157
832.883	3188
833.022	3218
833.16	3275
833.299	3287
833.437	3363
833.576	3397
833.714	3416
833.852	3454
833.991	3458
834.129	3458
834.267	3473
834.406	3462
834.544	3378
834.682	3409
834.821	3424
834.959	3591
835.097	3393
835.235	3485
835.373	3519
835.511	3492
835.65	3466
835.788	3481
835.926	3397
836.064	3428
836.202	3412
836.34	3561
836.478	3599
836.615	3542
836.753	3625
836.891	3625
837.029	3641
837.167	3603
837.305	3549
837.443	3599
837.58	3511
837.718	3603
837.856	3580
837.993	3561
838.131	3603
838.269	3584
838.406	3614
838.544	3572
838.681	3515
838.819	3485
838.956	3393
839.094	3450
839.231	3443
839.369	3538
839.506	3778
839.643	3629
839.781	3523
839.918	3466
840.055	3557
840.193	3553
840.33	3526
840.467	3557
840.604	3629
840.742	3812
840.879	3553
841.016	3603
841.153	3648
841.29	3755
841.427	3732
841.564	3751
841.701	3762
841.838	3724
841.975	3705
842.112	3736
842.249	3660
842.385	3663
842.522	3831
842.659	3705
842.796	3682
842.933	3797
843.069	3705
843.206	3736
843.343	3785
843.479	3827
843.616	3838
843.752	3641
843.889	3694
844.025	3892
844.162	3694
844.298	3808
844.435	3789
844.571	3812
844.708	3945
844.844	4013
844.98	4032
845.117	4036
845.253	3892
845.389	3949
845.525	4013
845.661	3987
845.798	3907
845.934	3994
846.07	4002
846.206	4086
846.342	4116
846.478	4082
846.614	3991
846.75	3941
846.886	3922
847.022	4074
847.158	3991
847.294	3972
847.429	4021
847.565	3987
847.701	4257
847.837	3892
847.972	3899
848.108	3987
848.244	3975
848.379	3876
848.515	3819
848.65	3816
848.786	3846
848.921	3892
849.057	3918
849.192	3930
849.328	3930
849.463	3956
849.598	3865
849.734	3892
849.869	3808
850.004	3838
850.14	3838
850.275	3819
850.41	3766
850.545	3778
850.68	3842
850.815	3823
850.95	3793
851.085	3937
851.22	3903
851.355	3831
851.49	3766
851.625	3800
851.76	3827
851.895	3698
852.03	3770
852.165	3797
852.299	3880
852.434	3941
852.569	3937
852.703	3857
852.838	3896
852.973	4029
853.107	4010
853.242	3922
853.376	3857
853.511	3835
853.645	3903
853.78	3953
853.914	3880
854.048	3873
854.183	3888
854.317	3991
854.451	4093
854.585	3968
854.72	3918
854.854	4059
854.988	3945
855.122	4032
855.256	3934
855.39	4032
855.524	4097
855.658	4093
855.792	4124
855.926	4158
856.06	4166
856.194	4200
856.327	4150
856.461	4124
856.595	4177
856.729	4177
856.862	4310
856.996	4234
857.13	4322
857.263	4329
857.397	4405
857.53	4310
857.664	4322
857.797	4432
857.931	4421
858.064	4394
858.197	4497
858.331	4436
858.464	4375
858.597	4341
858.731	4447
858.864	4466
858.997	4485
859.13	4538
859.263	4542
859.396	4577
859.529	4584
859.662	4531
859.795	4523
859.928	4630
860.061	4706
860.194	4778
860.327	4683
860.46	4702
860.592	4733
860.725	4755
860.858	4816
860.99	4694
861.123	4729
861.256	4698
861.388	4748
861.521	5474
861.653	4748
861.786	4771
861.918	4767
862.05	4801
862.183	4835
862.315	4927
862.447	4934
862.58	4858
862.712	4801
862.844	4771
862.976	4892
863.108	4877
863.24	5254
863.372	4877
863.504	4915
863.636	4892
863.768	4919
863.9	4957
864.032	4953
864.164	4987
864.296	4987
864.428	5124
864.559	5151
864.691	5124
864.823	5143
864.954	5143
865.086	5178
865.217	5151
865.349	5094
865.48	5159
865.612	5208
865.743	5288
865.875	5193
866.006	5216
866.137	5246
866.269	5201
866.4	5273
866.531	5220
866.662	5223
866.793	5280
866.924	5273
867.055	5334
867.186	5337
867.317	5330
867.448	5341
867.579	5448
867.71	5391
867.841	5353
867.972	5467
868.103	5482
868.233	5482
868.364	5486
868.495	5554
868.625	5634
868.756	5790
868.886	5733
869.017	5767
869.147	5904
869.278	5874
869.408	5767
869.539	5809
869.669	5840
869.799	5901
869.929	5958
870.06	6030
870.19	6201
870.32	6266
870.45	6205
870.58	6369
870.71	6456
870.84	6486
870.97	6369
871.1	6456
871.23	6589
871.36	6681
871.489	6688
871.619	6722
871.749	6779
871.879	6909
872.008	6966
872.138	7057
872.267	7023
872.397	7050
872.526	7061
872.656	7133
872.785	7206
872.915	7384
873.044	7556
873.173	7616
873.303	7696
873.432	7780
873.561	7909
873.69	7936
873.819	7986
873.948	8142
874.077	8301
874.206	8336
874.335	8400
874.464	8689
874.593	8826
874.722	8963
874.851	9116
874.979	9245
875.108	9401
875.237	9382
875.365	9466
875.494	9660
875.623	9835
875.751	9865
875.88	10025
876.008	10185
876.136	10295
876.265	10531
876.393	10714
876.521	10668
876.65	10843
876.778	10877
876.906	10923
877.034	11022
877.162	11128
877.29	11117
877.418	11315
877.546	11372
877.674	11478
877.802	11421
877.93	11543
878.058	11551
878.185	11592
878.313	11703
878.441	11771
878.568	11695
878.696	11893
878.824	11897
878.951	11931
879.079	12038
879.206	12182
879.333	12102
879.461	11984
879.588	12076
879.715	12007
879.842	12129
879.97	12034
880.097	11946
880.224	11931
880.351	11889
880.478	11954
880.605	11813
880.732	11817
880.859	11954
880.986	11824
881.112	11813
881.239	11684
881.366	11676
881.493	11722
881.619	11512
881.746	11592
881.872	11547
881.999	11493
882.125	11535
882.252	11501
882.378	11512
882.505	11543
882.631	11402
882.757	11341
882.883	11273
883.01	11299
883.136	11208
883.262	11159
883.388	11155
883.514	11113
883.64	11174
883.766	11102
883.892	10972
884.018	11014
884.143	11041
884.269	11121
884.395	10824
884.52	10839
884.646	10786
884.772	10645
884.897	10702
885.023	10744
885.148	10790
885.274	10725
885.399	10653
885.524	10691
885.65	10618
885.775	10569
885.9	10622
886.025	10603
886.15	10656
886.275	10478
886.4	10421
886.525	10459
886.65	10352
886.775	10352
886.9	10542
887.025	10538
887.149	10409
887.274	10246
887.399	10234
887.523	10200
887.648	10147
887.773	10116
887.897	10253
888.021	10249
888.146	10181
888.27	10310
888.395	10238
888.519	10192
888.643	10215
888.767	10188
888.891	10032
889.015	10010
889.139	10112
889.263	9941
889.387	10078
889.511	10112
889.635	10109
889.759	9968
889.883	9968
890.006	10013
890.13	10116
890.254	9964
890.377	9937
890.501	9850
890.624	9884
890.748	9983
890.871	9812
890.995	9804
891.118	9701
891.241	9755
891.364	9770
891.488	9778
891.611	9762
891.734	9724
891.857	9755
891.98	9648
892.103	9789
892.226	9682
892.349	9667
892.471	9507
892.594	9610
892.717	9606
892.839	9603
892.962	9713
893.085	9667
893.207	9637
893.33	9519
893.452	9538
893.575	9671
893.697	9549
893.819	9641
893.941	9694
894.064	9663
894.186	9500
894.308	9443
894.43	9511
894.552	9641
894.674	9561
894.796	9401
894.918	9405
895.04	9393
895.161	9424
895.283	9344
895.405	9268
895.526	9306
895.648	9218
895.769	9188
895.891	9256
896.012	9313
896.134	9226
896.255	9180
896.376	9119
896.498	9146
896.619	9127
896.74	9138
896.861	9058
896.982	9279
897.103	9355
897.224	9165
897.345	9032
897.466	9009
897.587	9017
897.708	9138
897.828	9001
897.949	8929
898.07	8830
898.19	8876
898.311	9089
898.431	8853
898.552	8849
898.672	9028
898.792	8948
898.913	8937
899.033	8864
899.153	8758
899.273	8701
899.393	8743
899.513	8750
899.633	8701
899.753	8845
899.873	8720
899.993	8773
900.113	8682
900.232	8773
900.352	8682
900.472	8568
900.591	8533
900.711	8640
900.83	8518
900.95	8693
901.069	8705
901.189	8587
901.308	8423
901.427	8423
901.546	8404
901.665	8454
901.784	8492
901.904	8431
902.023	8347
902.141	8259
902.26	8180
902.379	8301
902.498	8317
902.617	8263
902.735	8290
902.854	8279
902.973	8210
903.091	8161
903.21	8119
903.328	8153
903.446	8210
903.565	8062
903.683	8168
903.801	8096
903.919	8199
904.038	8142
904.156	8008
904.274	8058
904.392	8050
904.51	7959
904.627	8062
904.745	8043
904.863	8168
904.981	8020
905.098	7864
905.216	7898
905.334	7917
905.451	7932
905.569	7947
905.686	7921
905.803	7898
905.921	7765
906.038	7826
906.155	7883
906.272	7685
906.389	7757
906.506	7685
906.623	7719
906.74	7666
906.857	7616
906.974	7601
907.091	7674
907.208	7769
907.324	7575
907.441	7590
907.557	7468
907.674	7495
907.79	7381
907.907	7449
908.023	7476
908.139	7400
908.256	7381
908.372	7373
908.488	7365
908.604	7282
908.72	7247
908.836	7285
908.952	7221
909.068	7285
909.184	7305
909.3	7259
909.415	7324
909.531	7312
909.647	7141
909.762	7118
909.878	7091
909.993	7171
910.108	7133
910.224	7091
910.339	7141
910.454	7031
910.57	7065
910.685	6970
910.8	7206
910.915	7137
911.03	7057
911.145	6970
911.259	6886
911.374	6989
911.489	6798
911.604	6760
911.718	6707
911.833	6810
911.947	6635
912.062	6585
912.176	6688
912.291	6734
912.405	6692
912.519	6867
912.633	6863
912.748	6692
912.862	6741
912.976	6662
913.09	6585
913.204	6578
913.318	6616
913.431	6669
913.545	6700
913.659	6753
913.772	6696
913.886	6627
914	6551
914.113	6601
914.226	6650
914.34	6631
914.453	6547
914.566	6593
914.68	6525
914.793	6540
914.906	6445
915.019	6391
915.132	6365
915.245	6464
915.358	6509
915.47	6403
915.583	6498
915.696	6502
915.809	6532
915.921	6566
916.034	6395
916.146	6429
916.259	6391
916.371	6456
916.483	6471
916.595	6445
916.708	6403
916.82	6426
916.932	6384
917.044	6414
917.156	6399
917.268	6395
917.38	6357
917.491	6334
917.603	6376
917.715	6445
917.826	6395
917.938	6315
918.049	6235
918.161	6311
918.272	6448
918.384	6445
918.495	6350
918.606	6262
918.717	6247
918.828	6258
918.939	6296
919.05	6197
919.161	6262
919.272	6216
919.383	6148
919.494	6270
919.604	6433
919.715	6338
919.826	6201
919.936	6216
920.047	6285
920.157	6289
920.267	6437
920.378	6365
920.488	6300
920.598	6426
920.708	6582
920.818	6471
920.928	6479
921.038	6623
921.148	6566
921.258	6327
921.368	6319
921.477	6243
921.587	6201
921.697	6098
921.806	6155
921.916	6095
922.025	5920
922.134	5878
922.244	5824
922.353	5977
922.462	5855
922.571	5828
922.68	5745
922.789	5722
922.898	5714
923.007	5634
923.116	5672
923.224	5634
923.333	5691
923.442	5554
923.55	5558
923.659	5619
923.767	5661
923.876	5573
923.984	5619
924.092	5486
924.201	5539
924.309	5604
924.417	5577
924.525	5474
924.633	5509
924.741	6148
924.849	5383
924.956	5444
925.064	5345
925.172	5334
925.279	5318
925.387	5337
925.494	5391
925.602	5410
925.709	5357
925.816	5284
925.924	5318
926.031	5391
926.138	5303
926.245	5311
926.352	5231
926.459	5353
926.566	5318
926.673	5231
926.779	5181
926.886	5113
926.993	5033
927.099	5056
927.206	4953
927.312	4957
927.419	5064
927.525	4946
927.631	5025
927.737	4915
927.843	4858
927.95	4744
928.056	4877
928.162	4923
928.267	4885
928.373	5357
928.479	4862
928.585	4668
928.69	4740
928.796	4820
928.901	4744
929.007	4607
929.112	4717
929.218	4596
929.323	4672
929.428	4580
929.533	4641
929.638	4542
929.743	4538
929.848	4561
929.953	4565
930.058	4440
930.163	4306
930.267	4360
930.372	4504
930.477	4306
930.581	4481
930.685	4367
930.79	4234
930.894	4291
930.998	4249
931.103	4371
931.207	4112
931.311	4120
931.415	4055
931.519	3911
931.623	3907
