Data from glass_V78500241_2187.txt Node
Date: Wed Sep 01 19:29:39 CST 2021
User: usil
Spectrometer: V785-0024
Trigger mode: 0
Integration Time (sec): 4.000000E-1
Scans to average: 1
Nonlinearity correction enabled: false
Boxcar width: 0
Storing dark spectrum: false
XAxis mode: Wavelengths
Number of Pixels in Spectrum: 1024
>>>>>Begin Spectral Data<<<<<
801.071	3728
801.214	3770
801.356	3656
801.499	3762
801.641	3667
801.783	3774
801.926	3854
802.068	3816
802.211	3888
802.353	3838
802.496	3861
802.638	3880
802.78	3903
802.923	3930
803.065	3899
803.208	3838
803.35	3827
803.492	3922
803.635	3903
803.777	3785
803.919	3861
804.061	4150
804.204	3918
804.346	3934
804.488	3930
804.63	4040
804.773	3991
804.915	4006
805.057	4105
805.199	4017
805.341	4074
805.483	4101
805.626	4101
805.768	4105
805.91	4249
806.052	4223
806.194	4162
806.336	4337
806.478	4253
806.62	4143
806.762	4162
806.904	4211
807.046	4299
807.188	4227
807.33	4158
807.472	4268
807.614	4162
807.756	4265
807.898	4185
808.04	4162
808.182	4268
808.324	4276
808.465	4325
808.607	4413
808.749	4428
808.891	4440
809.033	4519
809.174	4440
809.316	4257
809.458	4265
809.6	4143
809.741	4158
809.883	4166
810.025	4204
810.166	4173
810.308	4192
810.45	4276
810.591	4230
810.733	4318
810.875	4519
811.016	4774
811.158	5121
811.299	5296
811.441	5269
811.582	5014
811.724	4721
811.865	4432
812.007	4497
812.148	4394
812.29	4383
812.431	4375
812.573	4383
812.714	4356
812.855	4394
812.997	4409
813.138	4466
813.279	4417
813.421	4360
813.562	4341
813.703	4333
813.845	4329
813.986	4238
814.127	4211
814.268	4227
814.41	4268
814.551	4261
814.692	4314
814.833	4287
814.974	4261
815.115	4386
815.256	4219
815.397	4257
815.539	4287
815.68	4215
815.821	4204
815.962	4291
816.103	4314
816.244	4253
816.385	4230
816.526	4272
816.666	4173
816.807	4109
816.948	4147
817.089	4223
817.23	4074
817.371	4063
817.512	4078
817.653	4093
817.793	3991
817.934	4044
818.075	4029
818.216	4090
818.356	4097
818.497	3949
818.638	3934
818.778	3899
818.919	3869
819.06	3835
819.2	3899
819.341	3876
819.481	3842
819.622	3869
819.762	3987
819.903	3930
820.043	3873
820.184	3819
820.324	3774
820.465	3857
820.605	3880
820.746	3888
820.886	3781
821.026	3930
821.167	3941
821.307	3979
821.447	3934
821.588	3960
821.728	3964
821.868	3915
822.008	3854
822.149	3896
822.289	3941
822.429	3823
822.569	3694
822.709	3800
822.849	3686
822.99	3732
823.13	3747
823.27	3793
823.41	3701
823.55	3755
823.69	3682
823.83	3751
823.97	3675
824.11	3652
824.25	3572
824.389	3667
824.529	3644
824.669	3610
824.809	3709
824.949	3728
825.089	3747
825.228	3713
825.368	3549
825.508	3587
825.648	3538
825.787	3614
825.927	3629
826.067	3622
826.206	3641
826.346	3823
826.485	3816
826.625	3861
826.765	3926
826.904	3827
827.044	3625
827.183	3530
827.323	3450
827.462	3473
827.601	3428
827.741	3435
827.88	3435
828.02	3351
828.159	3447
828.298	3450
828.437	3564
828.577	3462
828.716	3561
828.855	3443
828.994	3397
829.134	3317
829.273	3367
829.412	3397
829.551	3329
829.69	3386
829.829	3428
829.968	3519
830.107	3454
830.246	3409
830.385	3378
830.524	3348
830.663	3287
830.802	3222
830.941	3207
831.08	3222
831.219	3245
831.357	3272
831.496	3401
831.635	3207
831.774	3203
831.913	3222
832.051	3150
832.19	3157
832.329	3176
832.467	3093
832.606	3093
832.744	3150
832.883	3188
833.022	3237
833.16	3256
833.299	3275
833.437	3329
833.576	3378
833.714	3405
833.852	3443
833.991	3454
834.129	3492
834.267	3424
834.406	3393
834.544	3409
834.682	3431
834.821	3382
834.959	3542
835.097	3416
835.235	3511
835.373	3481
835.511	3504
835.65	3481
835.788	3485
835.926	3397
836.064	3367
836.202	3382
836.34	3515
836.478	3515
836.615	3523
836.753	3584
836.891	3652
837.029	3625
837.167	3561
837.305	3511
837.443	3488
837.58	3530
837.718	3614
837.856	3557
837.993	3458
838.131	3606
838.269	3545
838.406	3591
838.544	3580
838.681	3466
838.819	3416
838.956	3367
839.094	3378
839.231	3424
839.369	3515
839.506	3709
839.643	3637
839.781	3481
839.918	3485
840.055	3534
840.193	3504
840.33	3504
840.467	3526
840.604	3599
840.742	3766
840.879	3538
841.016	3572
841.153	3603
841.29	3759
841.427	3701
841.564	3724
841.701	3728
841.838	3667
841.975	3682
842.112	3701
842.249	3644
842.385	3656
842.522	3827
842.659	3694
842.796	3690
842.933	3679
843.069	3713
843.206	3698
843.343	3812
843.479	3747
843.616	3812
843.752	3682
843.889	3675
844.025	3842
844.162	3675
844.298	3854
844.435	3793
844.571	3770
844.708	3880
844.844	3949
844.98	4006
845.117	4025
845.253	3922
845.389	3861
845.525	4002
845.661	3934
845.798	3972
845.934	3975
846.07	3922
846.206	4017
846.342	4109
846.478	4025
846.614	3987
846.75	3922
846.886	3888
847.022	4006
847.158	3991
847.294	3972
847.429	4006
847.565	4002
847.701	4246
847.837	3846
847.972	3838
848.108	3994
848.244	3968
848.379	3876
848.515	3804
848.65	3808
848.786	3831
848.921	3876
849.057	3884
849.192	3953
849.328	3899
849.463	3915
849.598	3876
849.734	3876
849.869	3819
850.004	3781
850.14	3842
850.275	3774
850.41	3747
850.545	3762
850.68	3770
850.815	3812
850.95	3774
851.085	3884
851.22	3808
851.355	3819
851.49	3808
851.625	3816
851.76	3800
851.895	3728
852.03	3736
852.165	3797
852.299	3816
852.434	3838
852.569	3861
852.703	3903
852.838	3930
852.973	3991
853.107	3987
853.242	3892
853.376	3846
853.511	3736
853.645	3835
853.78	3941
853.914	3880
854.048	3896
854.183	3865
854.317	3953
854.451	4051
854.585	3922
854.72	4025
854.854	4036
854.988	3888
855.122	4025
855.256	3941
855.39	3983
855.524	4090
855.658	4078
855.792	4021
855.926	4116
856.06	4166
856.194	4196
856.327	4143
856.461	4116
856.595	4147
856.729	4150
856.862	4257
856.996	4196
857.13	4261
857.263	4318
857.397	4363
857.53	4276
857.664	4322
857.797	4371
857.931	4417
858.064	4394
858.197	4466
858.331	4394
858.464	4360
858.597	4356
858.731	4432
858.864	4493
858.997	4432
859.13	4462
859.263	4535
859.396	4531
859.529	4538
859.662	4500
859.795	4542
859.928	4599
860.061	4706
860.194	4702
860.327	4626
860.46	4656
860.592	4698
860.725	4729
860.858	4755
860.99	4687
861.123	4672
861.256	4664
861.388	4782
861.521	5341
861.653	4683
861.786	4717
861.918	4755
862.05	4782
862.183	4854
862.315	4915
862.447	4930
862.58	4839
862.712	4820
862.844	4797
862.976	4911
863.108	4824
863.24	5136
863.372	4896
863.504	4885
863.636	4889
863.768	4957
863.9	4930
864.032	4930
864.164	4953
864.296	5060
864.428	5079
864.559	5083
864.691	5128
864.823	5083
864.954	5075
865.086	5166
865.217	5132
865.349	5052
865.48	5170
865.612	5212
865.743	5296
865.875	5174
866.006	5212
866.137	5227
866.269	5189
866.4	5242
866.531	5250
866.662	5280
866.793	5246
866.924	5334
867.055	5318
867.186	5284
867.317	5296
867.448	5341
867.579	5357
867.71	5372
867.841	5353
867.972	5490
868.103	5467
868.233	5520
868.364	5471
868.495	5566
868.625	5668
868.756	5783
868.886	5642
869.017	5703
869.147	5866
869.278	5802
869.408	5790
869.539	5889
869.669	5969
869.799	5920
869.929	5988
870.06	6041
870.19	6182
870.32	6163
870.45	6205
870.58	6334
870.71	6441
870.84	6460
870.97	6445
871.1	6399
871.23	6616
871.36	6726
871.489	6673
871.619	6711
871.749	6745
871.879	6905
872.008	6996
872.138	6970
872.267	7008
872.397	7031
872.526	7034
872.656	7080
872.785	7190
872.915	7377
873.044	7422
873.173	7518
873.303	7616
873.432	7715
873.561	7852
873.69	7913
873.819	8016
873.948	8183
874.077	8263
874.206	8237
874.335	8412
874.464	8549
874.593	8861
874.722	8925
874.851	9100
874.979	9184
875.108	9348
875.237	9424
875.365	9515
875.494	9568
875.623	9816
875.751	9816
875.88	10002
876.008	10211
876.136	10318
876.265	10466
876.393	10637
876.521	10691
876.65	10767
876.778	10866
876.906	10873
877.034	11025
877.162	10991
877.29	11094
877.418	11174
877.546	11387
877.674	11368
877.802	11543
877.93	11532
878.058	11608
878.185	11520
878.313	11623
878.441	11771
878.568	11615
878.696	11775
878.824	11855
878.951	11931
879.079	11988
879.206	12083
879.333	12041
879.461	11977
879.588	12060
879.715	12026
879.842	12167
879.97	12114
880.097	11870
880.224	11916
880.351	11809
880.478	11874
880.605	11821
880.732	11859
880.859	11961
880.986	11855
881.112	11859
881.239	11668
881.366	11646
881.493	11608
881.619	11524
881.746	11608
881.872	11589
881.999	11448
882.125	11463
882.252	11467
882.378	11455
882.505	11535
882.631	11315
882.757	11326
882.883	11254
883.01	11235
883.136	11193
883.262	11109
883.388	11041
883.514	11113
883.64	11128
883.766	11124
883.892	11018
884.018	10976
884.143	11105
884.269	11117
884.395	10839
884.52	10748
884.646	10805
884.772	10820
884.897	10622
885.023	10649
885.148	10767
885.274	10706
885.399	10687
885.524	10641
885.65	10512
885.775	10485
885.9	10588
886.025	10615
886.15	10607
886.275	10462
886.4	10360
886.525	10421
886.65	10367
886.775	10382
886.9	10413
887.025	10440
887.149	10284
887.274	10166
887.399	10188
887.523	10185
887.648	10158
887.773	10124
887.897	10234
888.021	10207
888.146	10044
888.27	10246
888.395	10147
888.519	10253
888.643	10162
888.767	10219
888.891	10063
889.015	9987
889.139	9972
889.263	10021
889.387	10101
889.511	10090
889.635	10040
889.759	9915
889.883	9987
890.006	9998
890.13	10032
890.254	9960
890.377	9926
890.501	9823
890.624	9880
890.748	9793
890.871	9838
890.995	9793
891.118	9736
891.241	9751
891.364	9781
891.488	9816
891.611	9679
891.734	9766
891.857	9797
891.98	9732
892.103	9774
892.226	9656
892.349	9694
892.471	9504
892.594	9580
892.717	9648
892.839	9576
892.962	9610
893.085	9633
893.207	9576
893.33	9538
893.452	9496
893.575	9652
893.697	9485
893.819	9553
893.941	9652
894.064	9618
894.186	9424
894.308	9435
894.43	9572
894.552	9557
894.674	9568
894.796	9348
894.918	9374
895.04	9367
895.161	9355
895.283	9329
895.405	9214
895.526	9192
895.648	9195
895.769	9275
895.891	9310
896.012	9249
896.134	9275
896.255	9138
896.376	9089
896.498	9123
896.619	9066
896.74	9051
896.861	9097
896.982	9230
897.103	9253
897.224	9108
897.345	9119
897.466	8982
897.587	9081
897.708	9093
897.828	9036
897.949	8944
898.07	8834
898.19	8971
898.311	9013
898.431	8929
898.552	8960
898.672	8963
898.792	8941
898.913	8845
899.033	8845
899.153	8823
899.273	8693
899.393	8750
899.513	8750
899.633	8716
899.753	8659
899.873	8651
899.993	8750
900.113	8686
900.232	8682
900.352	8708
900.472	8655
900.591	8549
900.711	8636
900.83	8560
900.95	8629
901.069	8674
901.189	8545
901.308	8427
901.427	8419
901.546	8389
901.665	8488
901.784	8488
901.904	8347
902.023	8305
902.141	8199
902.26	8233
902.379	8271
902.498	8164
902.617	8290
902.735	8279
902.854	8233
902.973	8313
903.091	8126
903.21	8153
903.328	8176
903.446	8134
903.565	8027
903.683	8046
903.801	8012
903.919	8069
904.038	8180
904.156	8050
904.274	8035
904.392	8058
904.51	8111
904.627	8020
904.745	8077
904.863	8100
904.981	7944
905.098	7849
905.216	7890
905.334	7784
905.451	7875
905.569	7830
905.686	7970
905.803	7841
905.921	7784
906.038	7841
906.155	7788
906.272	7681
906.389	7727
906.506	7655
906.623	7624
906.74	7533
906.857	7529
906.974	7628
907.091	7639
907.208	7765
907.324	7643
907.441	7567
907.557	7392
907.674	7411
907.79	7343
907.907	7362
908.023	7411
908.139	7346
908.256	7350
908.372	7343
908.488	7343
908.604	7278
908.72	7225
908.836	7251
908.952	7217
909.068	7266
909.184	7339
909.3	7289
909.415	7305
909.531	7270
909.647	7069
909.762	7129
909.878	7050
909.993	7122
910.108	7126
910.224	7091
910.339	7091
910.454	6996
910.57	6985
910.685	6958
910.8	7160
910.915	7088
911.03	7038
911.145	6886
911.259	6859
911.374	6840
911.489	6844
911.604	6867
911.718	6722
911.833	6726
911.947	6677
912.062	6623
912.176	6703
912.291	6779
912.405	6681
912.519	6798
912.633	6821
912.748	6711
912.862	6650
912.976	6593
913.09	6445
913.204	6555
913.318	6623
913.431	6681
913.545	6673
913.659	6673
913.772	6589
913.886	6566
914	6506
914.113	6631
914.226	6669
914.34	6566
914.453	6498
914.566	6566
914.68	6528
914.793	6525
914.906	6418
915.019	6369
915.132	6304
915.245	6410
915.358	6448
915.47	6506
915.583	6467
915.696	6456
915.809	6490
915.921	6525
916.034	6391
916.146	6372
916.259	6372
916.371	6467
916.483	6433
916.595	6357
916.708	6448
916.82	6399
916.932	6372
917.044	6369
917.156	6372
917.268	6292
917.38	6365
917.491	6300
917.603	6357
917.715	6353
917.826	6418
917.938	6308
918.049	6292
918.161	6315
918.272	6422
918.384	6502
918.495	6369
918.606	6285
918.717	6209
918.828	6285
918.939	6319
919.05	6209
919.161	6239
919.272	6144
919.383	6114
919.494	6296
919.604	6403
919.715	6281
919.826	6251
919.936	6152
920.047	6353
920.157	6220
920.267	6429
920.378	6289
920.488	6281
920.598	6475
920.708	6544
920.818	6490
920.928	6506
921.038	6650
921.148	6578
921.258	6311
921.368	6300
921.477	6178
921.587	6209
921.697	6064
921.806	6178
921.916	6106
922.025	5996
922.134	5908
922.244	5935
922.353	5935
922.462	5840
922.571	5767
922.68	5729
922.789	5710
922.898	5695
923.007	5596
923.116	5760
923.224	5668
923.333	5718
923.442	5570
923.55	5524
923.659	5543
923.767	5611
923.876	5528
923.984	5585
924.092	5551
924.201	5573
924.309	5455
924.417	5505
924.525	5516
924.633	5440
924.741	6331
924.849	5334
924.956	5444
925.064	5410
925.172	5284
925.279	5284
925.387	5334
925.494	5322
925.602	5402
925.709	5444
925.816	5284
925.924	5277
926.031	5364
926.138	5284
926.245	5303
926.352	5250
926.459	5299
926.566	5372
926.673	5151
926.779	5117
926.886	5109
926.993	5048
927.099	4976
927.206	4968
927.312	4961
927.419	5014
927.525	4976
927.631	4984
927.737	4839
927.843	4885
927.95	4774
928.056	4873
928.162	4820
928.267	4828
928.373	5345
928.479	4824
928.585	4710
928.69	4721
928.796	4748
928.901	4679
929.007	4615
929.112	4660
929.218	4672
929.323	4599
929.428	4565
929.533	4668
929.638	4512
929.743	4500
929.848	4565
929.953	4489
930.058	4440
930.163	4291
930.267	4356
930.372	4383
930.477	4249
930.581	4470
930.685	4341
930.79	4242
930.894	4268
930.998	4234
931.103	4367
931.207	4112
931.311	4078
931.415	4025
931.519	3945
931.623	3975
