Data from glass_V78500241_2352.txt Node
Date: Wed Sep 01 19:30:48 CST 2021
User: usil
Spectrometer: V785-0024
Trigger mode: 0
Integration Time (sec): 4.000000E-1
Scans to average: 1
Nonlinearity correction enabled: false
Boxcar width: 0
Storing dark spectrum: false
XAxis mode: Wavelengths
Number of Pixels in Spectrum: 1024
>>>>>Begin Spectral Data<<<<<
801.071	3759
801.214	3789
801.356	3663
801.499	3747
801.641	3724
801.783	3762
801.926	3880
802.068	3838
802.211	3831
802.353	3880
802.496	3819
802.638	3861
802.78	3903
802.923	3922
803.065	3861
803.208	3854
803.35	3888
803.492	3899
803.635	3922
803.777	3804
803.919	3888
804.061	4105
804.204	3930
804.346	3941
804.488	3892
804.63	4036
804.773	3937
804.915	4044
805.057	4158
805.199	4025
805.341	4059
805.483	4116
805.626	4177
805.768	4131
805.91	4185
806.052	4238
806.194	4200
806.336	4371
806.478	4234
806.62	4131
806.762	4166
806.904	4219
807.046	4291
807.188	4188
807.33	4162
807.472	4257
807.614	4215
807.756	4204
807.898	4169
808.04	4207
808.182	4272
808.324	4371
808.465	4383
808.607	4462
808.749	4462
808.891	4455
809.033	4497
809.174	4462
809.316	4314
809.458	4223
809.6	4120
809.741	4097
809.883	4120
810.025	4177
810.166	4196
810.308	4207
810.45	4215
810.591	4211
810.733	4291
810.875	4512
811.016	4778
811.158	5117
811.299	5235
811.441	5269
811.582	4999
811.724	4687
811.865	4493
812.007	4436
812.148	4443
812.29	4398
812.431	4428
812.573	4413
812.714	4371
812.855	4436
812.997	4428
813.138	4447
813.279	4424
813.421	4348
813.562	4390
813.703	4299
813.845	4329
813.986	4272
814.127	4200
814.268	4268
814.41	4242
814.551	4268
814.692	4341
814.833	4287
814.974	4265
815.115	4303
815.256	4238
815.397	4249
815.539	4227
815.68	4162
815.821	4181
815.962	4299
816.103	4318
816.244	4207
816.385	4242
816.526	4303
816.666	4128
816.807	4051
816.948	4192
817.089	4158
817.23	4116
817.371	4006
817.512	4032
817.653	4063
817.793	4002
817.934	4059
818.075	4086
818.216	4078
818.356	4093
818.497	3964
818.638	3896
818.778	3937
818.919	3892
819.06	3850
819.2	3899
819.341	3865
819.481	3827
819.622	3869
819.762	4010
819.903	3930
820.043	3819
820.184	3850
820.324	3831
820.465	3899
820.605	3915
820.746	3911
820.886	3819
821.026	3953
821.167	3918
821.307	3949
821.447	3949
821.588	3964
821.728	3987
821.868	3899
822.008	3869
822.149	3896
822.289	3873
822.429	3747
822.569	3762
822.709	3812
822.849	3625
822.99	3679
823.13	3755
823.27	3778
823.41	3724
823.55	3728
823.69	3728
823.83	3682
823.97	3633
824.11	3599
824.25	3587
824.389	3656
824.529	3603
824.669	3625
824.809	3717
824.949	3778
825.089	3709
825.228	3751
825.368	3553
825.508	3576
825.648	3572
825.787	3564
825.927	3614
826.067	3618
826.206	3701
826.346	3804
826.485	3804
826.625	3842
826.765	3945
826.904	3800
827.044	3610
827.183	3530
827.323	3405
827.462	3469
827.601	3424
827.741	3412
827.88	3462
828.02	3359
828.159	3378
828.298	3454
828.437	3515
828.577	3492
828.716	3606
828.855	3462
828.994	3382
829.134	3351
829.273	3367
829.412	3325
829.551	3294
829.69	3363
829.829	3431
829.968	3519
830.107	3412
830.246	3412
830.385	3378
830.524	3317
830.663	3298
830.802	3249
830.941	3184
831.08	3146
831.219	3249
831.357	3245
831.496	3367
831.635	3268
831.774	3226
831.913	3230
832.051	3142
832.19	3127
832.329	3222
832.467	3127
832.606	3112
832.744	3173
832.883	3173
833.022	3180
833.16	3256
833.299	3268
833.437	3348
833.576	3310
833.714	3420
833.852	3462
833.991	3443
834.129	3439
834.267	3458
834.406	3409
834.544	3370
834.682	3424
834.821	3389
834.959	3568
835.097	3378
835.235	3530
835.373	3496
835.511	3515
835.65	3420
835.788	3519
835.926	3370
836.064	3397
836.202	3409
836.34	3572
836.478	3564
836.615	3553
836.753	3576
836.891	3622
837.029	3622
837.167	3614
837.305	3553
837.443	3496
837.58	3492
837.718	3610
837.856	3587
837.993	3553
838.131	3576
838.269	3545
838.406	3591
838.544	3568
838.681	3458
838.819	3458
838.956	3374
839.094	3363
839.231	3409
839.369	3523
839.506	3740
839.643	3595
839.781	3469
839.918	3450
840.055	3515
840.193	3511
840.33	3515
840.467	3553
840.604	3625
840.742	3785
840.879	3549
841.016	3542
841.153	3572
841.29	3686
841.427	3701
841.564	3709
841.701	3732
841.838	3652
841.975	3675
842.112	3667
842.249	3618
842.385	3587
842.522	3823
842.659	3671
842.796	3686
842.933	3698
843.069	3698
843.206	3663
843.343	3842
843.479	3755
843.616	3819
843.752	3663
843.889	3713
844.025	3831
844.162	3713
844.298	3823
844.435	3827
844.571	3751
844.708	3873
844.844	3979
844.98	4010
845.117	3991
845.253	3964
845.389	3899
845.525	3975
845.661	3979
845.798	3918
845.934	3983
846.07	3968
846.206	4021
846.342	4124
846.478	4048
846.614	3964
846.75	3930
846.886	3873
847.022	4013
847.158	3975
847.294	4032
847.429	4006
847.565	4017
847.701	4234
847.837	3861
847.972	3854
848.108	4006
848.244	4006
848.379	3835
848.515	3797
848.65	3789
848.786	3842
848.921	3854
849.057	3956
849.192	3960
849.328	3926
849.463	3907
849.598	3907
849.734	3865
849.869	3819
850.004	3751
850.14	3812
850.275	3774
850.41	3724
850.545	3774
850.68	3762
850.815	3819
850.95	3778
851.085	3911
851.22	3819
851.355	3876
851.49	3781
851.625	3781
851.76	3812
851.895	3724
852.03	3709
852.165	3816
852.299	3850
852.434	3865
852.569	3854
852.703	3854
852.838	3930
852.973	4017
853.107	3979
853.242	3857
853.376	3789
853.511	3789
853.645	3842
853.78	3968
853.914	3880
854.048	3873
854.183	3876
854.317	3941
854.451	4048
854.585	3987
854.72	3915
854.854	4059
854.988	3899
855.122	4013
855.256	3934
855.39	4021
855.524	4105
855.658	4078
855.792	4082
855.926	4154
856.06	4120
856.194	4242
856.327	4143
856.461	4192
856.595	4150
856.729	4154
856.862	4280
856.996	4223
857.13	4284
857.263	4276
857.397	4352
857.53	4306
857.664	4344
857.797	4417
857.931	4402
858.064	4333
858.197	4443
858.331	4390
858.464	4417
858.597	4341
858.731	4436
858.864	4428
858.997	4451
859.13	4497
859.263	4527
859.396	4588
859.529	4527
859.662	4489
859.795	4451
859.928	4618
860.061	4748
860.194	4752
860.327	4622
860.46	4615
860.592	4683
860.725	4729
860.858	4736
860.99	4679
861.123	4645
861.256	4664
861.388	4778
861.521	5258
861.653	4687
861.786	4717
861.918	4805
862.05	4767
862.183	4839
862.315	4858
862.447	4919
862.58	4870
862.712	4850
862.844	4797
862.976	4847
863.108	4873
863.24	5159
863.372	4790
863.504	4885
863.636	4885
863.768	4930
863.9	4961
864.032	4923
864.164	4957
864.296	4961
864.428	5098
864.559	5105
864.691	5189
864.823	5117
864.954	5048
865.086	5124
865.217	5178
865.349	5105
865.48	5162
865.612	5174
865.743	5292
865.875	5117
866.006	5162
866.137	5223
866.269	5242
866.4	5273
866.531	5277
866.662	5208
866.793	5246
866.924	5246
867.055	5406
867.186	5326
867.317	5296
867.448	5288
867.579	5376
867.71	5368
867.841	5406
867.972	5455
868.103	5471
868.233	5486
868.364	5459
868.495	5501
868.625	5684
868.756	5775
868.886	5653
869.017	5824
869.147	5828
869.278	5783
869.408	5855
869.539	5802
869.669	5920
869.799	5912
869.929	5912
870.06	6045
870.19	6095
870.32	6117
870.45	6228
870.58	6308
870.71	6365
870.84	6460
870.97	6486
871.1	6388
871.23	6688
871.36	6662
871.489	6677
871.619	6715
871.749	6810
871.879	6837
872.008	6962
872.138	7004
872.267	6962
872.397	7019
872.526	7031
872.656	7076
872.785	7232
872.915	7430
873.044	7521
873.173	7548
873.303	7636
873.432	7792
873.561	7871
873.69	7902
873.819	8012
873.948	8149
874.077	8305
874.206	8294
874.335	8408
874.464	8651
874.593	8800
874.722	8952
874.851	9077
874.979	9203
875.108	9310
875.237	9534
875.365	9424
875.494	9652
875.623	9861
875.751	9880
875.88	9949
876.008	10116
876.136	10230
876.265	10500
876.393	10683
876.521	10683
876.65	10824
876.778	10904
876.906	10961
877.034	11037
877.162	11083
877.29	11223
877.418	11254
877.546	11288
877.674	11459
877.802	11471
877.93	11535
878.058	11615
878.185	11467
878.313	11649
878.441	11752
878.568	11661
878.696	11790
878.824	11824
878.951	11935
879.079	11927
879.206	12125
879.333	12068
879.461	11897
879.588	12079
879.715	12068
879.842	12182
879.97	12072
880.097	11821
880.224	11863
880.351	11863
880.478	11874
880.605	11904
880.732	11813
880.859	12038
880.986	11840
881.112	11840
881.239	11684
881.366	11577
881.493	11672
881.619	11581
881.746	11509
881.872	11566
881.999	11490
882.125	11444
882.252	11611
882.378	11509
882.505	11604
882.631	11345
882.757	11273
882.883	11307
883.01	11292
883.136	11189
883.262	11124
883.388	11105
883.514	11181
883.64	11201
883.766	11178
883.892	11052
884.018	10965
884.143	11090
884.269	11037
884.395	10866
884.52	10782
884.646	10740
884.772	10771
884.897	10565
885.023	10683
885.148	10740
885.274	10797
885.399	10691
885.524	10611
885.65	10584
885.775	10580
885.9	10626
886.025	10580
886.15	10497
886.275	10417
886.4	10306
886.525	10379
886.65	10344
886.775	10325
886.9	10459
887.025	10580
887.149	10341
887.274	10230
887.399	10242
887.523	10234
887.648	10200
887.773	10116
887.897	10333
888.021	10196
888.146	10177
888.27	10211
888.395	10234
888.519	10291
888.643	10173
888.767	10249
888.891	10036
889.015	9998
889.139	10017
889.263	9960
889.387	10097
889.511	10109
889.635	9975
889.759	9949
889.883	9983
890.006	9926
890.13	10071
890.254	9888
890.377	9964
890.501	9888
890.624	9876
890.748	9915
890.871	9808
890.995	9770
891.118	9656
891.241	9770
891.364	9717
891.488	9873
891.611	9759
891.734	9766
891.857	9823
891.98	9671
892.103	9846
892.226	9755
892.349	9705
892.471	9580
892.594	9641
892.717	9580
892.839	9641
892.962	9603
893.085	9679
893.207	9526
893.33	9485
893.452	9534
893.575	9610
893.697	9500
893.819	9667
893.941	9663
894.064	9549
894.186	9412
894.308	9420
894.43	9534
894.552	9519
894.674	9416
894.796	9431
894.918	9416
895.04	9351
895.161	9473
895.283	9336
895.405	9184
895.526	9306
895.648	9249
895.769	9188
895.891	9195
896.012	9260
896.134	9230
896.255	9123
896.376	9051
896.498	9150
896.619	9165
896.74	9043
896.861	9089
896.982	9241
897.103	9275
897.224	9184
897.345	9131
897.466	8960
897.587	9005
897.708	9165
897.828	9020
897.949	8982
898.07	8910
898.19	8971
898.311	9009
898.431	9001
898.552	8914
898.672	8921
898.792	8986
898.913	8921
899.033	8845
899.153	8731
899.273	8686
899.393	8689
899.513	8762
899.633	8720
899.753	8743
899.873	8724
899.993	8651
900.113	8705
900.232	8617
900.352	8678
900.472	8537
900.591	8613
900.711	8632
900.83	8579
900.95	8651
901.069	8667
901.189	8610
901.308	8415
901.427	8457
901.546	8419
901.665	8393
901.784	8469
901.904	8393
902.023	8279
902.141	8271
902.26	8221
902.379	8259
902.498	8225
902.617	8206
902.735	8286
902.854	8244
902.973	8313
903.091	8115
903.21	8153
903.328	8149
903.446	8103
903.565	8054
903.683	8039
903.801	8031
903.919	8050
904.038	8157
904.156	7986
904.274	8073
904.392	7963
904.51	8024
904.627	8092
904.745	8103
904.863	8142
904.981	7932
905.098	7890
905.216	7833
905.334	7963
905.451	7925
905.569	7894
905.686	7913
905.803	7898
905.921	7776
906.038	7932
906.155	7822
906.272	7666
906.389	7700
906.506	7647
906.623	7609
906.74	7605
906.857	7521
906.974	7559
907.091	7639
907.208	7674
907.324	7632
907.441	7601
907.557	7411
907.674	7407
907.79	7392
907.907	7449
908.023	7453
908.139	7407
908.256	7327
908.372	7403
908.488	7327
908.604	7285
908.72	7221
908.836	7316
908.952	7244
909.068	7285
909.184	7331
909.3	7244
909.415	7381
909.531	7266
909.647	7053
909.762	7072
909.878	7129
909.993	7076
910.108	7099
910.224	7027
910.339	7065
910.454	6996
910.57	6951
910.685	6947
910.8	7126
910.915	7076
911.03	7008
911.145	6875
911.259	6871
911.374	6886
911.489	6833
911.604	6798
911.718	6730
911.833	6741
911.947	6677
912.062	6616
912.176	6673
912.291	6715
912.405	6684
912.519	6795
912.633	6791
912.748	6719
912.862	6684
912.976	6593
913.09	6566
913.204	6582
913.318	6627
913.431	6726
913.545	6639
913.659	6677
913.772	6681
913.886	6551
914	6528
914.113	6604
914.226	6620
914.34	6627
914.453	6513
914.566	6665
914.68	6525
914.793	6582
914.906	6357
915.019	6426
915.132	6353
915.245	6437
915.358	6403
915.47	6452
915.583	6486
915.696	6467
915.809	6540
915.921	6551
916.034	6403
916.146	6479
916.259	6384
916.371	6429
916.483	6448
916.595	6391
916.708	6391
916.82	6410
916.932	6357
917.044	6361
917.156	6395
917.268	6334
917.38	6285
917.491	6292
917.603	6331
917.715	6391
917.826	6384
917.938	6296
918.049	6258
918.161	6292
918.272	6376
918.384	6418
918.495	6376
918.606	6266
918.717	6186
918.828	6266
918.939	6258
919.05	6213
919.161	6266
919.272	6087
919.383	6129
919.494	6338
919.604	6391
919.715	6304
919.826	6247
919.936	6270
920.047	6372
920.157	6273
920.267	6502
920.378	6292
920.488	6258
920.598	6467
920.708	6544
920.818	6517
920.928	6433
921.038	6593
921.148	6509
921.258	6323
921.368	6232
921.477	6194
921.587	6129
921.697	6034
921.806	6095
921.916	6022
922.025	5942
922.134	5893
922.244	5878
922.353	5916
922.462	5847
922.571	5764
922.68	5718
922.789	5646
922.898	5691
923.007	5680
923.116	5657
923.224	5630
923.333	5676
923.442	5543
923.55	5680
923.659	5528
923.767	5604
923.876	5547
923.984	5589
924.092	5486
924.201	5558
924.309	5600
924.417	5558
924.525	5573
924.633	5493
924.741	6254
924.849	5372
924.956	5490
925.064	5379
925.172	5277
925.279	5292
925.387	5330
925.494	5334
925.602	5330
925.709	5406
925.816	5292
925.924	5326
926.031	5360
926.138	5296
926.245	5372
926.352	5216
926.459	5246
926.566	5311
926.673	5223
926.779	5166
926.886	5143
926.993	5006
927.099	5018
927.206	4938
927.312	4965
927.419	5018
927.525	4957
927.631	4987
927.737	4873
927.843	4858
927.95	4767
928.056	4801
928.162	4793
928.267	4847
928.373	5349
928.479	4870
928.585	4721
928.69	4714
928.796	4828
928.901	4656
929.007	4607
929.112	4653
929.218	4554
929.323	4580
929.428	4596
929.533	4668
929.638	4485
929.743	4538
929.848	4546
929.953	4485
930.058	4474
930.163	4287
930.267	4280
930.372	4443
930.477	4230
930.581	4432
930.685	4375
930.79	4268
930.894	4257
930.998	4265
931.103	4367
931.207	4063
931.311	4082
931.415	4051
931.519	3941
931.623	3979
