Data from glass_V78500241_998.txt Node
Date: Wed Sep 01 19:21:25 CST 2021
User: usil
Spectrometer: V785-0024
Trigger mode: 0
Integration Time (sec): 4.000000E-1
Scans to average: 1
Nonlinearity correction enabled: false
Boxcar width: 0
Storing dark spectrum: false
XAxis mode: Wavelengths
Number of Pixels in Spectrum: 1024
>>>>>Begin Spectral Data<<<<<
801.071	3736
801.214	3747
801.356	3720
801.499	3736
801.641	3751
801.783	3797
801.926	3857
802.068	3797
802.211	3842
802.353	3911
802.496	3857
802.638	3899
802.78	3922
802.923	3926
803.065	3873
803.208	3861
803.35	3892
803.492	3945
803.635	3926
803.777	3816
803.919	3842
804.061	4177
804.204	3937
804.346	3975
804.488	3922
804.63	4097
804.773	3987
804.915	4082
805.057	4150
805.199	4048
805.341	4090
805.483	4154
805.626	4128
805.768	4135
805.91	4253
806.052	4291
806.194	4173
806.336	4363
806.478	4306
806.62	4181
806.762	4181
806.904	4249
807.046	4352
807.188	4207
807.33	4211
807.472	4227
807.614	4200
807.756	4223
807.898	4192
808.04	4234
808.182	4299
808.324	4356
808.465	4352
808.607	4459
808.749	4436
808.891	4481
809.033	4554
809.174	4405
809.316	4295
809.458	4253
809.6	4211
809.741	4162
809.883	4154
810.025	4230
810.166	4223
810.308	4196
810.45	4272
810.591	4227
810.733	4318
810.875	4500
811.016	4885
811.158	5102
811.299	5353
811.441	5296
811.582	5075
811.724	4714
811.865	4440
812.007	4451
812.148	4504
812.29	4424
812.431	4455
812.573	4398
812.714	4360
812.855	4405
812.997	4462
813.138	4527
813.279	4440
813.421	4394
813.562	4386
813.703	4341
813.845	4352
813.986	4238
814.127	4253
814.268	4291
814.41	4318
814.551	4265
814.692	4341
814.833	4295
814.974	4291
815.115	4329
815.256	4295
815.397	4253
815.539	4253
815.68	4223
815.821	4215
815.962	4379
816.103	4276
816.244	4253
816.385	4272
816.526	4287
816.666	4257
816.807	4135
816.948	4188
817.089	4169
817.23	4124
817.371	4078
817.512	4128
817.653	4093
817.793	4044
817.934	4074
818.075	4101
818.216	4090
818.356	4063
818.497	4017
818.638	3888
818.778	3934
818.919	3907
819.06	3857
819.2	3915
819.341	3850
819.481	3861
819.622	3949
819.762	4048
819.903	3998
820.043	3888
820.184	3827
820.324	3804
820.465	3899
820.605	3892
820.746	3876
820.886	3797
821.026	3960
821.167	3873
821.307	3979
821.447	3983
821.588	3979
821.728	3937
821.868	3949
822.008	3880
822.149	3903
822.289	3960
822.429	3827
822.569	3759
822.709	3781
822.849	3705
822.99	3740
823.13	3770
823.27	3800
823.41	3728
823.55	3778
823.69	3766
823.83	3717
823.97	3686
824.11	3641
824.25	3576
824.389	3648
824.529	3709
824.669	3633
824.809	3720
824.949	3762
825.089	3728
825.228	3732
825.368	3584
825.508	3549
825.648	3576
825.787	3618
825.927	3644
826.067	3663
826.206	3717
826.346	3797
826.485	3854
826.625	3880
826.765	3934
826.904	3819
827.044	3595
827.183	3584
827.323	3443
827.462	3481
827.601	3431
827.741	3450
827.88	3466
828.02	3412
828.159	3450
828.298	3519
828.437	3584
828.577	3477
828.716	3633
828.855	3526
828.994	3409
829.134	3355
829.273	3405
829.412	3351
829.551	3336
829.69	3401
829.829	3439
829.968	3511
830.107	3431
830.246	3439
830.385	3409
830.524	3370
830.663	3310
830.802	3313
830.941	3188
831.08	3214
831.219	3260
831.357	3283
831.496	3393
831.635	3249
831.774	3188
831.913	3195
832.051	3165
832.19	3154
832.329	3214
832.467	3188
832.606	3142
832.744	3192
832.883	3207
833.022	3203
833.16	3317
833.299	3310
833.437	3336
833.576	3389
833.714	3454
833.852	3435
833.991	3401
834.129	3507
834.267	3492
834.406	3454
834.544	3401
834.682	3462
834.821	3431
834.959	3572
835.097	3439
835.235	3530
835.373	3473
835.511	3504
835.65	3511
835.788	3477
835.926	3401
836.064	3405
836.202	3412
836.34	3572
836.478	3599
836.615	3511
836.753	3580
836.891	3675
837.029	3629
837.167	3603
837.305	3553
837.443	3564
837.58	3488
837.718	3591
837.856	3576
837.993	3504
838.131	3603
838.269	3606
838.406	3610
838.544	3557
838.681	3481
838.819	3473
838.956	3428
839.094	3405
839.231	3473
839.369	3481
839.506	3759
839.643	3625
839.781	3504
839.918	3481
840.055	3511
840.193	3523
840.33	3534
840.467	3580
840.604	3614
840.742	3793
840.879	3587
841.016	3561
841.153	3572
841.29	3770
841.427	3705
841.564	3720
841.701	3709
841.838	3755
841.975	3728
842.112	3732
842.249	3603
842.385	3618
842.522	3819
842.659	3736
842.796	3679
842.933	3747
843.069	3694
843.206	3705
843.343	3835
843.479	3774
843.616	3854
843.752	3736
843.889	3682
844.025	3831
844.162	3743
844.298	3831
844.435	3781
844.571	3797
844.708	3922
844.844	4010
844.98	4044
845.117	4010
845.253	3949
845.389	3907
845.525	3991
845.661	3972
845.798	3941
845.934	4010
846.07	3964
846.206	4078
846.342	4109
846.478	4105
846.614	3987
846.75	3941
846.886	3979
847.022	4044
847.158	3972
847.294	4044
847.429	4048
847.565	4017
847.701	4257
847.837	3892
847.972	3869
848.108	3964
848.244	3991
848.379	3880
848.515	3819
848.65	3800
848.786	3880
848.921	3892
849.057	3911
849.192	3915
849.328	3934
849.463	3983
849.598	3911
849.734	3816
849.869	3865
850.004	3835
850.14	3861
850.275	3808
850.41	3762
850.545	3778
850.68	3793
850.815	3819
850.95	3770
851.085	3941
851.22	3865
851.355	3846
851.49	3793
851.625	3751
851.76	3816
851.895	3751
852.03	3732
852.165	3759
852.299	3861
852.434	3937
852.569	3884
852.703	3915
852.838	3918
852.973	3987
853.107	3975
853.242	3930
853.376	3865
853.511	3766
853.645	3835
853.78	4010
853.914	3892
854.048	3911
854.183	3892
854.317	3983
854.451	4131
854.585	3983
854.72	3930
854.854	4036
854.988	3960
855.122	4002
855.256	3953
855.39	4044
855.524	4116
855.658	4090
855.792	4143
855.926	4139
856.06	4158
856.194	4227
856.327	4124
856.461	4101
856.595	4227
856.729	4181
856.862	4280
856.996	4261
857.13	4310
857.263	4363
857.397	4333
857.53	4303
857.664	4379
857.797	4390
857.931	4367
858.064	4447
858.197	4436
858.331	4451
858.464	4432
858.597	4363
858.731	4504
858.864	4478
858.997	4466
859.13	4527
859.263	4550
859.396	4596
859.529	4554
859.662	4542
859.795	4558
859.928	4630
860.061	4748
860.194	4748
860.327	4706
860.46	4668
860.592	4774
860.725	4835
860.858	4835
860.99	4668
861.123	4694
861.256	4698
861.388	4759
861.521	5493
861.653	4698
861.786	4710
861.918	4755
862.05	4828
862.183	4904
862.315	4881
862.447	4942
862.58	4866
862.712	4820
862.844	4752
862.976	4934
863.108	4889
863.24	5258
863.372	4866
863.504	4892
863.636	4934
863.768	4976
863.9	4923
864.032	4946
864.164	4946
864.296	5056
864.428	5090
864.559	5151
864.691	5113
864.823	5094
864.954	5090
865.086	5117
865.217	5098
865.349	5113
865.48	5159
865.612	5178
865.743	5299
865.875	5231
866.006	5231
866.137	5197
866.269	5227
866.4	5242
866.531	5231
866.662	5246
866.793	5292
866.924	5239
867.055	5364
867.186	5318
867.317	5368
867.448	5372
867.579	5398
867.71	5376
867.841	5391
867.972	5486
868.103	5482
868.233	5482
868.364	5486
868.495	5573
868.625	5649
868.756	5805
868.886	5703
869.017	5752
869.147	5882
869.278	5889
869.408	5813
869.539	5779
869.669	5866
869.799	5882
869.929	6007
870.06	6053
870.19	6201
870.32	6182
870.45	6270
870.58	6338
870.71	6494
870.84	6407
870.97	6464
871.1	6460
871.23	6627
871.36	6749
871.489	6623
871.619	6768
871.749	6795
871.879	6825
872.008	6939
872.138	6977
872.267	7084
872.397	7031
872.526	7076
872.656	7137
872.785	7297
872.915	7373
873.044	7552
873.173	7605
873.303	7609
873.432	7761
873.561	7841
873.69	7894
873.819	7982
873.948	8157
874.077	8210
874.206	8328
874.335	8419
874.464	8724
874.593	8849
874.722	8925
874.851	9154
874.979	9272
875.108	9291
875.237	9458
875.365	9469
875.494	9675
875.623	9812
875.751	9850
875.88	10040
876.008	10181
876.136	10234
876.265	10531
876.393	10805
876.521	10721
876.65	10774
876.778	10915
876.906	10900
877.034	11022
877.162	11098
877.29	11140
877.418	11307
877.546	11467
877.674	11414
877.802	11433
877.93	11482
878.058	11562
878.185	11581
878.313	11752
878.441	11756
878.568	11657
878.696	11859
878.824	11843
878.951	11927
879.079	12072
879.206	12133
879.333	12117
879.461	11999
879.588	12030
879.715	12045
879.842	12334
879.97	11988
880.097	11882
880.224	11931
880.351	11866
880.478	11992
880.605	11798
880.732	11760
880.859	11996
880.986	11885
881.112	11961
881.239	11783
881.366	11695
881.493	11630
881.619	11566
881.746	11528
881.872	11547
881.999	11566
882.125	11520
882.252	11554
882.378	11558
882.505	11600
882.631	11379
882.757	11273
882.883	11376
883.01	11292
883.136	11277
883.262	11094
883.388	11022
883.514	11212
883.64	11197
883.766	11174
883.892	10908
884.018	11045
884.143	11117
884.269	11083
884.395	10850
884.52	10778
884.646	10774
884.772	10653
884.897	10637
885.023	10740
885.148	10786
885.274	10793
885.399	10740
885.524	10542
885.65	10660
885.775	10599
885.9	10554
886.025	10584
886.15	10592
886.275	10573
886.4	10489
886.525	10337
886.65	10363
886.775	10253
886.9	10569
887.025	10535
887.149	10310
887.274	10211
887.399	10219
887.523	10192
887.648	10139
887.773	10131
887.897	10223
888.021	10261
888.146	10124
888.27	10227
888.395	10223
888.519	10143
888.643	10234
888.767	10192
888.891	10116
889.015	10006
889.139	10055
889.263	9998
889.387	10101
889.511	10147
889.635	10116
889.759	10010
889.883	10013
890.006	10044
890.13	10067
890.254	9895
890.377	10002
890.501	9857
890.624	9960
890.748	9945
890.871	9804
890.995	9759
891.118	9724
891.241	9736
891.364	9736
891.488	9892
891.611	9755
891.734	9747
891.857	9778
891.98	9698
892.103	9797
892.226	9766
892.349	9717
892.471	9526
892.594	9610
892.717	9663
892.839	9652
892.962	9637
893.085	9641
893.207	9622
893.33	9519
893.452	9595
893.575	9660
893.697	9553
893.819	9633
893.941	9663
894.064	9656
894.186	9458
894.308	9420
894.43	9519
894.552	9534
894.674	9519
894.796	9367
894.918	9363
895.04	9428
895.161	9313
895.283	9306
895.405	9230
895.526	9306
895.648	9237
895.769	9233
895.891	9294
896.012	9233
896.134	9222
896.255	9119
896.376	9173
896.498	9226
896.619	9188
896.74	9089
896.861	9074
896.982	9287
897.103	9249
897.224	9192
897.345	9043
897.466	9036
897.587	8967
897.708	9173
897.828	9055
897.949	8979
898.07	8864
898.19	8842
898.311	9043
898.431	8883
898.552	8979
898.672	8937
898.792	8967
898.913	8914
899.033	8819
899.153	8777
899.273	8678
899.393	8731
899.513	8842
899.633	8670
899.753	8746
899.873	8758
899.993	8750
900.113	8727
900.232	8678
900.352	8629
900.472	8629
900.591	8602
900.711	8625
900.83	8514
900.95	8640
901.069	8651
901.189	8533
901.308	8438
901.427	8328
901.546	8415
901.665	8469
901.784	8537
901.904	8400
902.023	8332
902.141	8229
902.26	8218
902.379	8279
902.498	8214
902.617	8180
902.735	8286
902.854	8267
902.973	8252
903.091	8096
903.21	8103
903.328	8157
903.446	8168
903.565	8088
903.683	8115
903.801	8058
903.919	8119
904.038	8107
904.156	8069
904.274	8103
904.392	8092
904.51	8043
904.627	8107
904.745	8130
904.863	8081
904.981	7951
905.098	7913
905.216	7913
905.334	7917
905.451	7909
905.569	7883
905.686	7894
905.803	7955
905.921	7769
906.038	7928
906.155	7818
906.272	7689
906.389	7734
906.506	7704
906.623	7670
906.74	7651
906.857	7521
906.974	7575
907.091	7666
907.208	7708
907.324	7616
907.441	7594
907.557	7499
907.674	7426
907.79	7331
907.907	7415
908.023	7396
908.139	7422
908.256	7415
908.372	7335
908.488	7377
908.604	7346
908.72	7152
908.836	7339
908.952	7240
909.068	7274
909.184	7343
909.3	7270
909.415	7266
909.531	7187
909.647	7095
909.762	7118
909.878	7145
909.993	7114
910.108	7107
910.224	7118
910.339	7091
910.454	7061
910.57	7061
910.685	7015
910.8	7213
910.915	7129
911.03	7065
911.145	6954
911.259	6890
911.374	6935
911.489	6856
911.604	6787
911.718	6730
911.833	6764
911.947	6707
912.062	6578
912.176	6719
912.291	6760
912.405	6688
912.519	6840
912.633	6859
912.748	6650
912.862	6749
912.976	6616
913.09	6521
913.204	6623
913.318	6642
913.431	6700
913.545	6673
913.659	6719
913.772	6700
913.886	6551
914	6608
914.113	6677
914.226	6719
914.34	6646
914.453	6509
914.566	6540
914.68	6532
914.793	6589
914.906	6445
915.019	6407
915.132	6376
915.245	6403
915.358	6483
915.47	6494
915.583	6445
915.696	6479
915.809	6521
915.921	6536
916.034	6376
916.146	6410
916.259	6437
916.371	6464
916.483	6388
916.595	6429
916.708	6391
916.82	6369
916.932	6315
917.044	6418
917.156	6369
917.268	6369
917.38	6372
917.491	6308
917.603	6338
917.715	6414
917.826	6433
917.938	6300
918.049	6243
918.161	6319
918.272	6441
918.384	6399
918.495	6350
918.606	6262
918.717	6201
918.828	6228
918.939	6285
919.05	6239
919.161	6281
919.272	6117
919.383	6220
919.494	6281
919.604	6441
919.715	6292
919.826	6235
919.936	6239
920.047	6369
920.157	6262
920.267	6441
920.378	6369
920.488	6262
920.598	6513
920.708	6563
920.818	6494
920.928	6460
921.038	6551
921.148	6608
921.258	6391
921.368	6258
921.477	6281
921.587	6159
921.697	6095
921.806	6194
921.916	6041
922.025	5889
922.134	5893
922.244	5901
922.353	5946
922.462	5828
922.571	5809
922.68	5741
922.789	5699
922.898	5707
923.007	5665
923.116	5684
923.224	5714
923.333	5653
923.442	5661
923.55	5547
923.659	5627
923.767	5665
923.876	5516
923.984	5615
924.092	5474
924.201	5596
924.309	5596
924.417	5551
924.525	5524
924.633	5497
924.741	6296
924.849	5360
924.956	5501
925.064	5376
925.172	5341
925.279	5330
925.387	5372
925.494	5357
925.602	5440
925.709	5360
925.816	5280
925.924	5299
926.031	5391
926.138	5318
926.245	5345
926.352	5197
926.459	5334
926.566	5364
926.673	5197
926.779	5174
926.886	5159
926.993	5060
927.099	4972
927.206	4938
927.312	4968
927.419	5033
927.525	5041
927.631	4976
927.737	4889
927.843	4847
927.95	4771
928.056	4828
928.162	4793
928.267	4850
928.373	5410
928.479	4870
928.585	4691
928.69	4793
928.796	4839
928.901	4672
929.007	4603
929.112	4694
929.218	4683
929.323	4649
929.428	4584
929.533	4679
929.638	4508
929.743	4554
929.848	4538
929.953	4561
930.058	4459
930.163	4337
930.267	4344
930.372	4462
930.477	4344
930.581	4470
930.685	4329
930.79	4261
930.894	4295
930.998	4261
931.103	4417
931.207	4169
931.311	4074
931.415	3987
931.519	3934
931.623	3934
