Data from glass_V78500241_1129.txt Node
Date: Wed Sep 01 19:22:19 CST 2021
User: usil
Spectrometer: V785-0024
Trigger mode: 0
Integration Time (sec): 4.000000E-1
Scans to average: 1
Nonlinearity correction enabled: false
Boxcar width: 0
Storing dark spectrum: false
XAxis mode: Wavelengths
Number of Pixels in Spectrum: 1024
>>>>>Begin Spectral Data<<<<<
801.071	3762
801.214	3701
801.356	3728
801.499	3778
801.641	3717
801.783	3785
801.926	3865
802.068	3861
802.211	3861
802.353	3827
802.496	3865
802.638	3842
802.78	3915
802.923	3945
803.065	3941
803.208	3861
803.35	3896
803.492	3922
803.635	3915
803.777	3823
803.919	3884
804.061	4166
804.204	3972
804.346	3911
804.488	3953
804.63	4032
804.773	3987
804.915	4029
805.057	4090
805.199	4051
805.341	4082
805.483	4147
805.626	4158
805.768	4143
805.91	4234
806.052	4249
806.194	4192
806.336	4356
806.478	4227
806.62	4166
806.762	4230
806.904	4246
807.046	4371
807.188	4196
807.33	4211
807.472	4253
807.614	4169
807.756	4242
807.898	4253
808.04	4223
808.182	4276
808.324	4325
808.465	4371
808.607	4489
808.749	4455
808.891	4470
809.033	4474
809.174	4428
809.316	4284
809.458	4272
809.6	4105
809.741	4128
809.883	4166
810.025	4249
810.166	4188
810.308	4188
810.45	4272
810.591	4234
810.733	4249
810.875	4535
811.016	4877
811.158	5136
811.299	5258
811.441	5322
811.582	5090
811.724	4683
811.865	4504
812.007	4481
812.148	4443
812.29	4421
812.431	4417
812.573	4383
812.714	4390
812.855	4436
812.997	4451
813.138	4519
813.279	4489
813.421	4367
813.562	4363
813.703	4322
813.845	4318
813.986	4246
814.127	4253
814.268	4318
814.41	4284
814.551	4318
814.692	4314
814.833	4303
814.974	4367
815.115	4341
815.256	4223
815.397	4196
815.539	4272
815.68	4177
815.821	4192
815.962	4322
816.103	4253
816.244	4242
816.385	4257
816.526	4261
816.666	4249
816.807	4116
816.948	4223
817.089	4158
817.23	4158
817.371	4040
817.512	4090
817.653	4071
817.793	4055
817.934	4112
818.075	4071
818.216	4109
818.356	4116
818.497	3968
818.638	3956
818.778	3930
818.919	3865
819.06	3888
819.2	3907
819.341	3869
819.481	3846
819.622	3888
819.762	4010
819.903	3968
820.043	3850
820.184	3838
820.324	3857
820.465	3846
820.605	3857
820.746	3903
820.886	3850
821.026	3945
821.167	3972
821.307	3960
821.447	4010
821.588	3994
821.728	3922
821.868	3953
822.008	3873
822.149	3941
822.289	3964
822.429	3759
822.569	3789
822.709	3808
822.849	3720
822.99	3789
823.13	3789
823.27	3800
823.41	3747
823.55	3747
823.69	3701
823.83	3751
823.97	3690
824.11	3595
824.25	3584
824.389	3652
824.529	3644
824.669	3663
824.809	3720
824.949	3740
825.089	3766
825.228	3720
825.368	3568
825.508	3561
825.648	3591
825.787	3644
825.927	3641
826.067	3633
826.206	3667
826.346	3781
826.485	3842
826.625	3892
826.765	3972
826.904	3827
827.044	3637
827.183	3561
827.323	3420
827.462	3496
827.601	3431
827.741	3401
827.88	3416
828.02	3367
828.159	3500
828.298	3469
828.437	3542
828.577	3443
828.716	3599
828.855	3500
828.994	3397
829.134	3374
829.273	3382
829.412	3363
829.551	3386
829.69	3382
829.829	3443
829.968	3542
830.107	3454
830.246	3435
830.385	3409
830.524	3397
830.663	3294
830.802	3268
830.941	3222
831.08	3192
831.219	3249
831.357	3253
831.496	3443
831.635	3241
831.774	3226
831.913	3161
832.051	3188
832.19	3127
832.329	3245
832.467	3135
832.606	3138
832.744	3146
832.883	3188
833.022	3203
833.16	3287
833.299	3287
833.437	3313
833.576	3367
833.714	3412
833.852	3447
833.991	3500
834.129	3450
834.267	3424
834.406	3447
834.544	3454
834.682	3443
834.821	3386
834.959	3587
835.097	3397
835.235	3511
835.373	3507
835.511	3511
835.65	3477
835.788	3496
835.926	3393
836.064	3382
836.202	3409
836.34	3545
836.478	3606
836.615	3545
836.753	3618
836.891	3671
837.029	3660
837.167	3576
837.305	3580
837.443	3545
837.58	3542
837.718	3610
837.856	3545
837.993	3542
838.131	3576
838.269	3599
838.406	3610
838.544	3599
838.681	3515
838.819	3416
838.956	3393
839.094	3378
839.231	3424
839.369	3511
839.506	3778
839.643	3614
839.781	3534
839.918	3477
840.055	3523
840.193	3576
840.33	3561
840.467	3545
840.604	3633
840.742	3816
840.879	3545
841.016	3587
841.153	3587
841.29	3785
841.427	3720
841.564	3728
841.701	3740
841.838	3717
841.975	3694
842.112	3762
842.249	3629
842.385	3709
842.522	3823
842.659	3709
842.796	3694
842.933	3751
843.069	3724
843.206	3690
843.343	3793
843.479	3778
843.616	3888
843.752	3705
843.889	3717
844.025	3873
844.162	3740
844.298	3857
844.435	3785
844.571	3759
844.708	3899
844.844	3956
844.98	4044
845.117	4006
845.253	3922
845.389	3915
845.525	3956
845.661	3975
845.798	3930
845.934	3998
846.07	3945
846.206	4051
846.342	4120
846.478	4074
846.614	3987
846.75	3941
846.886	3934
847.022	4048
847.158	3968
847.294	4082
847.429	4032
847.565	3964
847.701	4234
847.837	3896
847.972	3869
848.108	3983
848.244	3964
848.379	3876
848.515	3823
848.65	3816
848.786	3838
848.921	3899
849.057	3972
849.192	3968
849.328	3922
849.463	3896
849.598	3922
849.734	3884
849.869	3846
850.004	3823
850.14	3850
850.275	3789
850.41	3766
850.545	3789
850.68	3797
850.815	3819
850.95	3797
851.085	3953
851.22	3865
851.355	3827
851.49	3789
851.625	3781
851.76	3835
851.895	3751
852.03	3736
852.165	3808
852.299	3873
852.434	3922
852.569	3869
852.703	3888
852.838	3926
852.973	3983
853.107	3994
853.242	3937
853.376	3827
853.511	3789
853.645	3812
853.78	3991
853.914	3922
854.048	3922
854.183	3876
854.317	3953
854.451	4078
854.585	3930
854.72	3998
854.854	4101
854.988	3937
855.122	4002
855.256	3922
855.39	4059
855.524	4120
855.658	4082
855.792	4120
855.926	4173
856.06	4169
856.194	4215
856.327	4101
856.461	4116
856.595	4181
856.729	4207
856.862	4295
856.996	4261
857.13	4280
857.263	4375
857.397	4379
857.53	4333
857.664	4337
857.797	4402
857.931	4459
858.064	4356
858.197	4451
858.331	4367
858.464	4428
858.597	4363
858.731	4424
858.864	4485
858.997	4478
859.13	4508
859.263	4542
859.396	4561
859.529	4519
859.662	4523
859.795	4527
859.928	4584
860.061	4683
860.194	4668
860.327	4664
860.46	4683
860.592	4771
860.725	4797
860.858	4733
860.99	4733
861.123	4714
861.256	4691
861.388	4801
861.521	5360
861.653	4714
861.786	4691
861.918	4744
862.05	4793
862.183	4854
862.315	4885
862.447	4961
862.58	4896
862.712	4774
862.844	4733
862.976	4877
863.108	4877
863.24	5140
863.372	4889
863.504	4938
863.636	4908
863.768	5010
863.9	5037
864.032	4965
864.164	4987
864.296	4999
864.428	5079
864.559	5094
864.691	5143
864.823	5143
864.954	5181
865.086	5178
865.217	5178
865.349	5067
865.48	5193
865.612	5189
865.743	5261
865.875	5181
866.006	5143
866.137	5261
866.269	5216
866.4	5208
866.531	5254
866.662	5235
866.793	5318
866.924	5288
867.055	5345
867.186	5330
867.317	5368
867.448	5391
867.579	5341
867.71	5337
867.841	5436
867.972	5448
868.103	5455
868.233	5493
868.364	5516
868.495	5566
868.625	5684
868.756	5851
868.886	5695
869.017	5737
869.147	5844
869.278	5904
869.408	5859
869.539	5836
869.669	5897
869.799	5809
869.929	5980
870.06	5988
870.19	6243
870.32	6228
870.45	6235
870.58	6304
870.71	6456
870.84	6498
870.97	6456
871.1	6395
871.23	6623
871.36	6715
871.489	6658
871.619	6722
871.749	6844
871.879	6947
872.008	7015
872.138	6993
872.267	7000
872.397	7019
872.526	7110
872.656	7088
872.785	7232
872.915	7381
873.044	7540
873.173	7578
873.303	7613
873.432	7799
873.561	7841
873.69	7864
873.819	7982
873.948	8157
874.077	8279
874.206	8393
874.335	8366
874.464	8651
874.593	8941
874.722	8929
874.851	9127
874.979	9146
875.108	9435
875.237	9462
875.365	9466
875.494	9625
875.623	9892
875.751	9835
875.88	9975
876.008	10169
876.136	10363
876.265	10538
876.393	10740
876.521	10717
876.65	10736
876.778	10850
876.906	10896
877.034	11075
877.162	11124
877.29	11208
877.418	11341
877.546	11353
877.674	11490
877.802	11440
877.93	11528
878.058	11570
878.185	11532
878.313	11638
878.441	11745
878.568	11699
878.696	11878
878.824	11923
878.951	11961
879.079	12053
879.206	12121
879.333	12079
879.461	12003
879.588	12091
879.715	12129
879.842	12281
879.97	12064
880.097	11878
880.224	11904
880.351	11866
880.478	11931
880.605	11779
880.732	11973
880.859	12007
880.986	11840
881.112	11779
881.239	11786
881.366	11722
881.493	11653
881.619	11585
881.746	11592
881.872	11463
881.999	11497
882.125	11433
882.252	11501
882.378	11520
882.505	11543
882.631	11398
882.757	11322
882.883	11337
883.01	11197
883.136	11299
883.262	11159
883.388	11079
883.514	11277
883.64	11208
883.766	11090
883.892	10953
884.018	10953
884.143	11185
884.269	11143
884.395	10824
884.52	10729
884.646	10736
884.772	10729
884.897	10691
885.023	10710
885.148	10824
885.274	10809
885.399	10717
885.524	10634
885.65	10577
885.775	10550
885.9	10516
886.025	10527
886.15	10512
886.275	10519
886.4	10390
886.525	10447
886.65	10379
886.775	10405
886.9	10440
887.025	10573
887.149	10405
887.274	10211
887.399	10188
887.523	10215
887.648	10207
887.773	10154
887.897	10265
888.021	10268
888.146	10109
888.27	10215
888.395	10207
888.519	10181
888.643	10310
888.767	10173
888.891	10116
889.015	9975
889.139	10086
889.263	9991
889.387	10082
889.511	10112
889.635	10116
889.759	9987
889.883	10002
890.006	9987
890.13	10128
890.254	9956
890.377	9960
890.501	9800
890.624	9846
890.748	9918
890.871	9800
890.995	9800
891.118	9740
891.241	9747
891.364	9728
891.488	9869
891.611	9812
891.734	9808
891.857	9850
891.98	9663
892.103	9831
892.226	9751
892.349	9660
892.471	9519
892.594	9641
892.717	9584
892.839	9595
892.962	9618
893.085	9644
893.207	9644
893.33	9530
893.452	9511
893.575	9614
893.697	9477
893.819	9629
893.941	9549
894.064	9644
894.186	9477
894.308	9504
894.43	9587
894.552	9587
894.674	9526
894.796	9374
894.918	9435
895.04	9408
895.161	9412
895.283	9367
895.405	9279
895.526	9283
895.648	9253
895.769	9260
895.891	9256
896.012	9253
896.134	9211
896.255	9146
896.376	9180
896.498	9112
896.619	9184
896.74	9036
896.861	9131
896.982	9256
897.103	9291
897.224	9176
897.345	9066
897.466	9020
897.587	9051
897.708	9161
897.828	9047
897.949	8925
898.07	8853
898.19	8906
898.311	9017
898.431	8887
898.552	8952
898.672	9051
898.792	8956
898.913	8921
899.033	8800
899.153	8800
899.273	8731
899.393	8712
899.513	8762
899.633	8750
899.753	8792
899.873	8659
899.993	8731
900.113	8792
900.232	8804
900.352	8640
900.472	8640
900.591	8556
900.711	8689
900.83	8549
900.95	8701
901.069	8788
901.189	8507
901.308	8465
901.427	8381
901.546	8400
901.665	8495
901.784	8495
901.904	8434
902.023	8301
902.141	8309
902.26	8130
902.379	8290
902.498	8244
902.617	8244
902.735	8313
902.854	8298
902.973	8263
903.091	8115
903.21	8115
903.328	8157
903.446	8115
903.565	8081
903.683	8130
903.801	8054
903.919	8168
904.038	8134
904.156	8058
904.274	8012
904.392	8027
904.51	8043
904.627	8043
904.745	8062
904.863	8119
904.981	7928
905.098	7902
905.216	7887
905.334	7947
905.451	7883
905.569	7856
905.686	7936
905.803	7917
905.921	7826
906.038	7864
906.155	7738
906.272	7712
906.389	7704
906.506	7643
906.623	7632
906.74	7544
906.857	7529
906.974	7578
907.091	7651
907.208	7776
907.324	7605
907.441	7590
907.557	7495
907.674	7419
907.79	7426
907.907	7373
908.023	7506
908.139	7483
908.256	7407
908.372	7320
908.488	7362
908.604	7240
908.72	7209
908.836	7270
908.952	7259
909.068	7232
909.184	7350
909.3	7198
909.415	7308
909.531	7346
909.647	7118
909.762	7145
909.878	7061
909.993	7114
910.108	7110
910.224	7103
910.339	7084
910.454	7008
910.57	6996
910.685	6928
910.8	7187
910.915	7095
911.03	7050
911.145	6909
911.259	6859
911.374	6878
911.489	6840
911.604	6783
911.718	6760
911.833	6779
911.947	6722
912.062	6597
912.176	6681
912.291	6665
912.405	6684
912.519	6875
912.633	6875
912.748	6738
912.862	6662
912.976	6623
913.09	6555
913.204	6658
913.318	6597
913.431	6707
913.545	6673
913.659	6707
913.772	6658
913.886	6578
914	6589
914.113	6612
914.226	6673
914.34	6604
914.453	6547
914.566	6612
914.68	6506
914.793	6563
914.906	6448
915.019	6422
915.132	6376
915.245	6429
915.358	6445
915.47	6456
915.583	6475
915.696	6452
915.809	6555
915.921	6509
916.034	6391
916.146	6414
916.259	6384
916.371	6513
916.483	6426
916.595	6407
916.708	6418
916.82	6433
916.932	6376
917.044	6410
917.156	6391
917.268	6308
917.38	6350
917.491	6319
917.603	6304
917.715	6391
917.826	6437
917.938	6342
918.049	6235
918.161	6338
918.272	6475
918.384	6532
918.495	6304
918.606	6292
918.717	6273
918.828	6311
918.939	6327
919.05	6152
919.161	6209
919.272	6114
919.383	6102
919.494	6300
919.604	6460
919.715	6251
919.826	6235
919.936	6235
920.047	6365
920.157	6296
920.267	6464
920.378	6331
920.488	6277
920.598	6490
920.708	6555
920.818	6490
920.928	6502
921.038	6635
921.148	6578
921.258	6277
921.368	6304
921.477	6182
921.587	6194
921.697	6091
921.806	6224
921.916	6155
922.025	5897
922.134	5897
922.244	5836
922.353	5935
922.462	5866
922.571	5790
922.68	5691
922.789	5729
922.898	5691
923.007	5646
923.116	5729
923.224	5729
923.333	5661
923.442	5642
923.55	5566
923.659	5619
923.767	5691
923.876	5566
923.984	5619
924.092	5535
924.201	5577
924.309	5547
924.417	5570
924.525	5471
924.633	5509
924.741	6289
924.849	5337
924.956	5486
925.064	5353
925.172	5334
925.279	5296
925.387	5383
925.494	5345
925.602	5490
925.709	5421
925.816	5322
925.924	5341
926.031	5368
926.138	5318
926.245	5345
926.352	5273
926.459	5372
926.566	5299
926.673	5212
926.779	5155
926.886	5155
926.993	5041
927.099	4991
927.206	4957
927.312	4930
927.419	4999
927.525	4961
927.631	4987
927.737	4904
927.843	4915
927.95	4786
928.056	4782
928.162	4801
928.267	4839
928.373	5395
928.479	4873
928.585	4683
928.69	4774
928.796	4831
928.901	4653
929.007	4603
929.112	4679
929.218	4630
929.323	4596
929.428	4554
929.533	4664
929.638	4535
929.743	4573
929.848	4611
929.953	4519
930.058	4421
930.163	4344
930.267	4348
930.372	4474
930.477	4276
930.581	4455
930.685	4344
930.79	4261
930.894	4325
930.998	4314
931.103	4413
931.207	4128
931.311	4036
931.415	4032
931.519	3926
931.623	3888
