Data from glass_V78500241_2675.txt Node
Date: Wed Sep 01 19:33:02 CST 2021
User: usil
Spectrometer: V785-0024
Trigger mode: 0
Integration Time (sec): 4.000000E-1
Scans to average: 1
Nonlinearity correction enabled: false
Boxcar width: 0
Storing dark spectrum: false
XAxis mode: Wavelengths
Number of Pixels in Spectrum: 1024
>>>>>Begin Spectral Data<<<<<
801.071	3690
801.214	3774
801.356	3671
801.499	3728
801.641	3698
801.783	3732
801.926	3831
802.068	3793
802.211	3812
802.353	3846
802.496	3838
802.638	3819
802.78	3899
802.923	3899
803.065	3838
803.208	3880
803.35	3911
803.492	3861
803.635	3892
803.777	3781
803.919	3899
804.061	4105
804.204	3907
804.346	3922
804.488	3922
804.63	4029
804.773	3941
804.915	4074
805.057	4097
805.199	4040
805.341	4063
805.483	4090
805.626	4158
805.768	4116
805.91	4188
806.052	4242
806.194	4188
806.336	4310
806.478	4173
806.62	4173
806.762	4185
806.904	4249
807.046	4272
807.188	4181
807.33	4169
807.472	4249
807.614	4219
807.756	4253
807.898	4188
808.04	4192
808.182	4303
808.324	4272
808.465	4360
808.607	4459
808.749	4451
808.891	4447
809.033	4500
809.174	4402
809.316	4207
809.458	4177
809.6	4128
809.741	4109
809.883	4128
810.025	4204
810.166	4219
810.308	4177
810.45	4215
810.591	4215
810.733	4287
810.875	4421
811.016	4801
811.158	5094
811.299	5174
811.441	5250
811.582	5075
811.724	4725
811.865	4455
812.007	4394
812.148	4432
812.29	4394
812.431	4405
812.573	4417
812.714	4337
812.855	4390
812.997	4383
813.138	4470
813.279	4421
813.421	4352
813.562	4363
813.703	4322
813.845	4363
813.986	4230
814.127	4227
814.268	4238
814.41	4257
814.551	4272
814.692	4322
814.833	4249
814.974	4287
815.115	4329
815.256	4234
815.397	4246
815.539	4276
815.68	4234
815.821	4188
815.962	4291
816.103	4234
816.244	4284
816.385	4242
816.526	4249
816.666	4223
816.807	4097
816.948	4131
817.089	4204
817.23	4112
817.371	4105
817.512	4078
817.653	4032
817.793	3994
817.934	4048
818.075	4086
818.216	4017
818.356	4082
818.497	3968
818.638	3930
818.778	3949
818.919	3892
819.06	3884
819.2	3892
819.341	3854
819.481	3827
819.622	3838
819.762	4010
819.903	3888
820.043	3876
820.184	3774
820.324	3800
820.465	3869
820.605	3884
820.746	3846
820.886	3774
821.026	3903
821.167	3865
821.307	4002
821.447	3934
821.588	3964
821.728	3956
821.868	3896
822.008	3857
822.149	3907
822.289	3876
822.429	3774
822.569	3751
822.709	3762
822.849	3717
822.99	3690
823.13	3724
823.27	3717
823.41	3717
823.55	3682
823.69	3720
823.83	3743
823.97	3652
824.11	3587
824.25	3618
824.389	3633
824.529	3641
824.669	3625
824.809	3713
824.949	3705
825.089	3732
825.228	3736
825.368	3572
825.508	3553
825.648	3530
825.787	3568
825.927	3572
826.067	3599
826.206	3663
826.346	3781
826.485	3812
826.625	3827
826.765	3956
826.904	3816
827.044	3591
827.183	3488
827.323	3439
827.462	3462
827.601	3439
827.741	3409
827.88	3424
828.02	3382
828.159	3458
828.298	3443
828.437	3526
828.577	3443
828.716	3519
828.855	3477
828.994	3382
829.134	3332
829.273	3389
829.412	3351
829.551	3313
829.69	3325
829.829	3409
829.968	3500
830.107	3416
830.246	3466
830.385	3344
830.524	3389
830.663	3298
830.802	3218
830.941	3184
831.08	3180
831.219	3226
831.357	3237
831.496	3389
831.635	3241
831.774	3165
831.913	3184
832.051	3142
832.19	3127
832.329	3157
832.467	3123
832.606	3089
832.744	3161
832.883	3157
833.022	3188
833.16	3233
833.299	3325
833.437	3317
833.576	3340
833.714	3397
833.852	3374
833.991	3386
834.129	3405
834.267	3435
834.406	3428
834.544	3405
834.682	3405
834.821	3401
834.959	3557
835.097	3443
835.235	3523
835.373	3473
835.511	3466
835.65	3496
835.788	3462
835.926	3389
836.064	3382
836.202	3386
836.34	3576
836.478	3557
836.615	3526
836.753	3580
836.891	3595
837.029	3606
837.167	3557
837.305	3561
837.443	3534
837.58	3511
837.718	3580
837.856	3557
837.993	3545
838.131	3618
838.269	3561
838.406	3568
838.544	3591
838.681	3469
838.819	3412
838.956	3325
839.094	3386
839.231	3416
839.369	3492
839.506	3690
839.643	3599
839.781	3473
839.918	3393
840.055	3488
840.193	3488
840.33	3469
840.467	3526
840.604	3561
840.742	3797
840.879	3530
841.016	3530
841.153	3576
841.29	3728
841.427	3694
841.564	3755
841.701	3740
841.838	3724
841.975	3686
842.112	3682
842.249	3660
842.385	3580
842.522	3800
842.659	3694
842.796	3663
842.933	3732
843.069	3660
843.206	3679
843.343	3770
843.479	3797
843.616	3789
843.752	3694
843.889	3701
844.025	3823
844.162	3709
844.298	3857
844.435	3751
844.571	3770
844.708	3880
844.844	3922
844.98	3998
845.117	4021
845.253	3884
845.389	3892
845.525	3956
845.661	3922
845.798	3850
845.934	3941
846.07	3903
846.206	4067
846.342	4086
846.478	4036
846.614	3953
846.75	3922
846.886	3937
847.022	4071
847.158	3934
847.294	3953
847.429	4017
847.565	3979
847.701	4188
847.837	3896
847.972	3861
848.108	3964
848.244	3941
848.379	3823
848.515	3835
848.65	3831
848.786	3804
848.921	3857
849.057	3937
849.192	3880
849.328	3892
849.463	3892
849.598	3915
849.734	3880
849.869	3793
850.004	3793
850.14	3770
850.275	3789
850.41	3747
850.545	3732
850.68	3736
850.815	3743
850.95	3797
851.085	3941
851.22	3869
851.355	3797
851.49	3789
851.625	3774
851.76	3759
851.895	3720
852.03	3671
852.165	3819
852.299	3838
852.434	3892
852.569	3800
852.703	3865
852.838	3960
852.973	3960
853.107	3949
853.242	3876
853.376	3823
853.511	3766
853.645	3831
853.78	3960
853.914	3922
854.048	3865
854.183	3880
854.317	3911
854.451	4082
854.585	3945
854.72	3880
854.854	4048
854.988	3892
855.122	4032
855.256	3918
855.39	3991
855.524	4082
855.658	4063
855.792	4124
855.926	4147
856.06	4112
856.194	4204
856.327	4158
856.461	4128
856.595	4097
856.729	4185
856.862	4219
856.996	4253
857.13	4287
857.263	4322
857.397	4352
857.53	4261
857.664	4348
857.797	4371
857.931	4436
858.064	4360
858.197	4504
858.331	4405
858.464	4356
858.597	4363
858.731	4440
858.864	4478
858.997	4405
859.13	4519
859.263	4489
859.396	4596
859.529	4516
859.662	4527
859.795	4542
859.928	4596
860.061	4645
860.194	4691
860.327	4653
860.46	4611
860.592	4694
860.725	4752
860.858	4721
860.99	4710
861.123	4729
861.256	4634
861.388	4767
861.521	5280
861.653	4687
861.786	4691
861.918	4706
862.05	4782
862.183	4805
862.315	4866
862.447	4847
862.58	4873
862.712	4778
862.844	4748
862.976	4801
863.108	4801
863.24	5193
863.372	4824
863.504	4873
863.636	4923
863.768	4938
863.9	4984
864.032	4915
864.164	4976
864.296	4984
864.428	5056
864.559	5064
864.691	5121
864.823	5086
864.954	5098
865.086	5094
865.217	5132
865.349	5071
865.48	5121
865.612	5174
865.743	5261
865.875	5208
866.006	5162
866.137	5223
866.269	5201
866.4	5212
866.531	5239
866.662	5197
866.793	5277
866.924	5242
867.055	5322
867.186	5258
867.317	5303
867.448	5349
867.579	5349
867.71	5372
867.841	5372
867.972	5414
868.103	5417
868.233	5448
868.364	5501
868.495	5520
868.625	5638
868.756	5752
868.886	5661
869.017	5767
869.147	5760
869.278	5847
869.408	5840
869.539	5851
869.669	5851
869.799	5939
869.929	5935
870.06	5992
870.19	6224
870.32	6182
870.45	6262
870.58	6342
870.71	6407
870.84	6422
870.97	6384
871.1	6403
871.23	6612
871.36	6681
871.489	6639
871.619	6696
871.749	6818
871.879	6859
872.008	6977
872.138	6951
872.267	7015
872.397	6989
872.526	6977
872.656	7061
872.785	7278
872.915	7381
873.044	7487
873.173	7525
873.303	7662
873.432	7693
873.561	7856
873.69	7890
873.819	7974
873.948	8092
874.077	8199
874.206	8339
874.335	8427
874.464	8682
874.593	8823
874.722	8887
874.851	9062
874.979	9199
875.108	9374
875.237	9374
875.365	9454
875.494	9595
875.623	9713
875.751	9755
875.88	9979
876.008	10074
876.136	10219
876.265	10489
876.393	10653
876.521	10675
876.65	10835
876.778	10778
876.906	10942
877.034	11014
877.162	11109
877.29	11117
877.418	11265
877.546	11364
877.674	11364
877.802	11429
877.93	11551
878.058	11516
878.185	11600
878.313	11672
878.441	11790
878.568	11668
878.696	11836
878.824	11847
878.951	11904
879.079	12030
879.206	12163
879.333	12053
879.461	11969
879.588	12011
879.715	12034
879.842	12224
879.97	11954
880.097	11901
880.224	11794
880.351	11882
880.478	11946
880.605	11908
880.732	11832
880.859	11988
880.986	11771
881.112	11847
881.239	11710
881.366	11630
881.493	11573
881.619	11539
881.746	11566
881.872	11448
881.999	11425
882.125	11421
882.252	11566
882.378	11452
882.505	11554
882.631	11391
882.757	11315
882.883	11269
883.01	11136
883.136	11284
883.262	11117
883.388	11003
883.514	11128
883.64	11204
883.766	11166
883.892	10942
884.018	10930
884.143	11010
884.269	11060
884.395	10816
884.52	10809
884.646	10725
884.772	10691
884.897	10626
885.023	10675
885.148	10702
885.274	10694
885.399	10710
885.524	10584
885.65	10607
885.775	10527
885.9	10527
886.025	10569
886.15	10569
886.275	10440
886.4	10432
886.525	10462
886.65	10440
886.775	10318
886.9	10424
887.025	10527
887.149	10390
887.274	10204
887.399	10192
887.523	10192
887.648	10272
887.773	10101
887.897	10314
888.021	10207
888.146	10051
888.27	10139
888.395	10147
888.519	10143
888.643	10124
888.767	10139
888.891	10093
889.015	10029
889.139	10040
889.263	9975
889.387	10063
889.511	10078
889.635	10097
889.759	9987
889.883	9998
890.006	9975
890.13	10078
890.254	9873
890.377	9968
890.501	9873
890.624	9873
890.748	9865
890.871	9835
890.995	9701
891.118	9686
891.241	9770
891.364	9747
891.488	9808
891.611	9751
891.734	9709
891.857	9766
891.98	9720
892.103	9660
892.226	9679
892.349	9694
892.471	9473
892.594	9584
892.717	9603
892.839	9603
892.962	9542
893.085	9663
893.207	9549
893.33	9515
893.452	9504
893.575	9542
893.697	9435
893.819	9591
893.941	9584
894.064	9545
894.186	9340
894.308	9359
894.43	9584
894.552	9534
894.674	9538
894.796	9359
894.918	9374
895.04	9344
895.161	9397
895.283	9325
895.405	9245
895.526	9313
895.648	9218
895.769	9211
895.891	9233
896.012	9253
896.134	9207
896.255	9184
896.376	9077
896.498	9104
896.619	9138
896.74	9077
896.861	9043
896.982	9203
897.103	9313
897.224	9154
897.345	9017
897.466	8986
897.587	9009
897.708	9055
897.828	9009
897.949	8986
898.07	8868
898.19	8815
898.311	9039
898.431	8929
898.552	8956
898.672	8986
898.792	8975
898.913	8880
899.033	8815
899.153	8727
899.273	8667
899.393	8712
899.513	8731
899.633	8766
899.753	8739
899.873	8689
899.993	8705
900.113	8686
900.232	8674
900.352	8659
900.472	8568
900.591	8545
900.711	8655
900.83	8526
900.95	8583
901.069	8701
901.189	8541
901.308	8355
901.427	8339
901.546	8412
901.665	8450
901.784	8419
901.904	8320
902.023	8351
902.141	8237
902.26	8164
902.379	8240
902.498	8180
902.617	8176
902.735	8298
902.854	8244
902.973	8214
903.091	8126
903.21	8153
903.328	8081
903.446	8126
903.565	8096
903.683	8069
903.801	8046
903.919	8157
904.038	8145
904.156	8005
904.274	8050
904.392	8062
904.51	8088
904.627	8008
904.745	8077
904.863	8096
904.981	7887
905.098	7822
905.216	7879
905.334	7868
905.451	7811
905.569	7799
905.686	7902
905.803	7947
905.921	7719
906.038	7856
906.155	7799
906.272	7696
906.389	7715
906.506	7586
906.623	7613
906.74	7567
906.857	7518
906.974	7556
907.091	7609
907.208	7643
907.324	7624
907.441	7548
907.557	7400
907.674	7441
907.79	7358
907.907	7426
908.023	7457
908.139	7419
908.256	7407
908.372	7274
908.488	7324
908.604	7209
908.72	7236
908.836	7221
908.952	7221
909.068	7187
909.184	7381
909.3	7221
909.415	7270
909.531	7251
909.647	7118
909.762	7080
909.878	7114
909.993	7152
910.108	7053
910.224	7080
910.339	7065
910.454	7031
910.57	6970
910.685	6947
910.8	7110
910.915	7065
911.03	6970
911.145	6947
911.259	6798
911.374	6875
911.489	6795
911.604	6833
911.718	6688
911.833	6711
911.947	6707
912.062	6608
912.176	6715
912.291	6684
912.405	6738
912.519	6764
912.633	6779
912.748	6726
912.862	6707
912.976	6654
913.09	6422
913.204	6582
913.318	6604
913.431	6669
913.545	6753
913.659	6753
913.772	6593
913.886	6551
914	6513
914.113	6540
914.226	6627
914.34	6631
914.453	6513
914.566	6559
914.68	6502
914.793	6498
914.906	6464
915.019	6361
915.132	6357
915.245	6395
915.358	6369
915.47	6445
915.583	6422
915.696	6456
915.809	6506
915.921	6490
916.034	6407
916.146	6403
916.259	6342
916.371	6441
916.483	6460
916.595	6388
916.708	6410
916.82	6388
916.932	6384
917.044	6357
917.156	6350
917.268	6327
917.38	6308
917.491	6304
917.603	6327
917.715	6384
917.826	6384
917.938	6296
918.049	6209
918.161	6319
918.272	6414
918.384	6418
918.495	6323
918.606	6224
918.717	6159
918.828	6224
918.939	6258
919.05	6194
919.161	6270
919.272	6114
919.383	6125
919.494	6258
919.604	6410
919.715	6232
919.826	6163
919.936	6232
920.047	6338
920.157	6239
920.267	6475
920.378	6350
920.488	6243
920.598	6414
920.708	6601
920.818	6452
920.928	6471
921.038	6555
921.148	6582
921.258	6357
921.368	6235
921.477	6197
921.587	6235
921.697	6091
921.806	6136
921.916	6045
922.025	5923
922.134	5882
922.244	5889
922.353	5927
922.462	5783
922.571	5786
922.68	5729
922.789	5676
922.898	5714
923.007	5619
923.116	5676
923.224	5672
923.333	5665
923.442	5600
923.55	5551
923.659	5570
923.767	5611
923.876	5493
923.984	5558
924.092	5478
924.201	5528
924.309	5570
924.417	5547
924.525	5463
924.633	5467
924.741	6273
924.849	5322
924.956	5455
925.064	5280
925.172	5261
925.279	5273
925.387	5322
925.494	5284
925.602	5360
925.709	5353
925.816	5315
925.924	5311
926.031	5372
926.138	5284
926.245	5318
926.352	5220
926.459	5334
926.566	5265
926.673	5235
926.779	5086
926.886	5109
926.993	5003
927.099	5041
927.206	4972
927.312	4923
927.419	4999
927.525	4949
927.631	5025
927.737	4866
927.843	4858
927.95	4755
928.056	4805
928.162	4828
928.267	4854
928.373	5239
928.479	4824
928.585	4694
928.69	4748
928.796	4740
928.901	4645
929.007	4577
929.112	4660
929.218	4626
929.323	4580
929.428	4527
929.533	4645
929.638	4493
929.743	4527
929.848	4531
929.953	4493
930.058	4432
930.163	4322
930.267	4287
930.372	4436
930.477	4272
930.581	4466
930.685	4322
930.79	4246
930.894	4280
930.998	4253
931.103	4375
931.207	4086
931.311	4048
931.415	4006
931.519	3922
931.623	3941
