Data from glass_V78500241_1728.txt Node
Date: Wed Sep 01 19:26:28 CST 2021
User: usil
Spectrometer: V785-0024
Trigger mode: 0
Integration Time (sec): 4.000000E-1
Scans to average: 1
Nonlinearity correction enabled: false
Boxcar width: 0
Storing dark spectrum: false
XAxis mode: Wavelengths
Number of Pixels in Spectrum: 1024
>>>>>Begin Spectral Data<<<<<
801.071	3762
801.214	3747
801.356	3724
801.499	3736
801.641	3743
801.783	3720
801.926	3888
802.068	3823
802.211	3892
802.353	3876
802.496	3831
802.638	3911
802.78	3922
802.923	3926
803.065	3873
803.208	3873
803.35	3884
803.492	3915
803.635	3911
803.777	3835
803.919	3907
804.061	4173
804.204	3991
804.346	3926
804.488	3861
804.63	4036
804.773	3949
804.915	4032
805.057	4128
805.199	4025
805.341	4097
805.483	4101
805.626	4131
805.768	4124
805.91	4207
806.052	4257
806.194	4188
806.336	4352
806.478	4192
806.62	4162
806.762	4139
806.904	4242
807.046	4329
807.188	4238
807.33	4162
807.472	4238
807.614	4211
807.756	4230
807.898	4211
808.04	4227
808.182	4287
808.324	4329
808.465	4348
808.607	4451
808.749	4462
808.891	4443
809.033	4516
809.174	4360
809.316	4291
809.458	4257
809.6	4147
809.741	4147
809.883	4158
810.025	4219
810.166	4276
810.308	4173
810.45	4257
810.591	4234
810.733	4306
810.875	4493
811.016	4831
811.158	5052
811.299	5273
811.441	5318
811.582	5048
811.724	4694
811.865	4497
812.007	4497
812.148	4455
812.29	4371
812.431	4421
812.573	4421
812.714	4363
812.855	4344
812.997	4413
813.138	4508
813.279	4413
813.421	4383
813.562	4405
813.703	4367
813.845	4344
813.986	4223
814.127	4207
814.268	4257
814.41	4261
814.551	4272
814.692	4310
814.833	4249
814.974	4310
815.115	4329
815.256	4284
815.397	4272
815.539	4272
815.68	4181
815.821	4200
815.962	4322
816.103	4253
816.244	4223
816.385	4204
816.526	4276
816.666	4268
816.807	4071
816.948	4204
817.089	4200
817.23	4078
817.371	4044
817.512	4048
817.653	4044
817.793	3998
817.934	3998
818.075	4097
818.216	4086
818.356	4120
818.497	3956
818.638	3907
818.778	3911
818.919	3854
819.06	3869
819.2	3915
819.341	3899
819.481	3876
819.622	3922
819.762	4002
819.903	3934
820.043	3880
820.184	3827
820.324	3850
820.465	3915
820.605	3831
820.746	3892
820.886	3785
821.026	3926
821.167	3945
821.307	3956
821.447	4002
821.588	3956
821.728	3915
821.868	3975
822.008	3880
822.149	3926
822.289	3922
822.429	3789
822.569	3762
822.709	3789
822.849	3679
822.99	3709
823.13	3755
823.27	3732
823.41	3705
823.55	3755
823.69	3747
823.83	3724
823.97	3679
824.11	3641
824.25	3587
824.389	3667
824.529	3705
824.669	3633
824.809	3701
824.949	3755
825.089	3717
825.228	3682
825.368	3610
825.508	3526
825.648	3580
825.787	3584
825.927	3603
826.067	3644
826.206	3675
826.346	3823
826.485	3827
826.625	3865
826.765	3941
826.904	3823
827.044	3618
827.183	3538
827.323	3412
827.462	3534
827.601	3420
827.741	3424
827.88	3458
828.02	3351
828.159	3393
828.298	3462
828.437	3553
828.577	3466
828.716	3587
828.855	3515
828.994	3367
829.134	3355
829.273	3401
829.412	3351
829.551	3310
829.69	3386
829.829	3389
829.968	3500
830.107	3481
830.246	3458
830.385	3363
830.524	3317
830.663	3283
830.802	3249
830.941	3192
831.08	3188
831.219	3226
831.357	3264
831.496	3378
831.635	3226
831.774	3169
831.913	3199
832.051	3104
832.19	3142
832.329	3195
832.467	3119
832.606	3093
832.744	3150
832.883	3222
833.022	3173
833.16	3245
833.299	3294
833.437	3291
833.576	3340
833.714	3416
833.852	3469
833.991	3454
834.129	3488
834.267	3439
834.406	3409
834.544	3412
834.682	3439
834.821	3405
834.959	3553
835.097	3420
835.235	3523
835.373	3496
835.511	3469
835.65	3439
835.788	3500
835.926	3378
836.064	3367
836.202	3412
836.34	3591
836.478	3595
836.615	3557
836.753	3603
836.891	3660
837.029	3622
837.167	3561
837.305	3568
837.443	3519
837.58	3500
837.718	3595
837.856	3580
837.993	3538
838.131	3633
838.269	3595
838.406	3580
838.544	3576
838.681	3439
838.819	3462
838.956	3348
839.094	3378
839.231	3450
839.369	3538
839.506	3747
839.643	3648
839.781	3477
839.918	3469
840.055	3534
840.193	3584
840.33	3515
840.467	3545
840.604	3587
840.742	3793
840.879	3542
841.016	3568
841.153	3595
841.29	3762
841.427	3656
841.564	3698
841.701	3717
841.838	3713
841.975	3671
842.112	3736
842.249	3587
842.385	3648
842.522	3842
842.659	3682
842.796	3671
842.933	3717
843.069	3759
843.206	3728
843.343	3831
843.479	3797
843.616	3816
843.752	3656
843.889	3660
844.025	3823
844.162	3736
844.298	3846
844.435	3781
844.571	3785
844.708	3884
844.844	3960
844.98	4055
845.117	4017
845.253	3915
845.389	3903
845.525	3975
845.661	3991
845.798	3941
845.934	3945
846.07	3949
846.206	4078
846.342	4074
846.478	4032
846.614	3960
846.75	3937
846.886	3899
847.022	4021
847.158	3987
847.294	4013
847.429	4006
847.565	3968
847.701	4261
847.837	3907
847.972	3899
848.108	3941
848.244	4010
848.379	3857
848.515	3812
848.65	3804
848.786	3846
848.921	3888
849.057	3934
849.192	3956
849.328	3907
849.463	3896
849.598	3865
849.734	3854
849.869	3816
850.004	3789
850.14	3793
850.275	3778
850.41	3736
850.545	3770
850.68	3789
850.815	3759
850.95	3778
851.085	3907
851.22	3876
851.355	3812
851.49	3800
851.625	3804
851.76	3812
851.895	3732
852.03	3751
852.165	3808
852.299	3846
852.434	3918
852.569	3827
852.703	3873
852.838	3926
852.973	3998
853.107	4029
853.242	3880
853.376	3808
853.511	3793
853.645	3835
853.78	3972
853.914	3911
854.048	3918
854.183	3857
854.317	3956
854.451	4055
854.585	3953
854.72	3937
854.854	4044
854.988	3918
855.122	4013
855.256	3915
855.39	3998
855.524	4109
855.658	4063
855.792	4116
855.926	4116
856.06	4166
856.194	4215
856.327	4150
856.461	4128
856.595	4131
856.729	4215
856.862	4272
856.996	4253
857.13	4306
857.263	4284
857.397	4348
857.53	4318
857.664	4318
857.797	4360
857.931	4447
858.064	4360
858.197	4440
858.331	4363
858.464	4348
858.597	4348
858.731	4424
858.864	4432
858.997	4440
859.13	4577
859.263	4565
859.396	4599
859.529	4535
859.662	4554
859.795	4493
859.928	4546
860.061	4687
860.194	4729
860.327	4599
860.46	4653
860.592	4740
860.725	4790
860.858	4736
860.99	4691
861.123	4710
861.256	4687
861.388	4736
861.521	5391
861.653	4702
861.786	4748
861.918	4786
862.05	4812
862.183	4866
862.315	4885
862.447	4915
862.58	4892
862.712	4809
862.844	4744
862.976	4847
863.108	4900
863.24	5197
863.372	4786
863.504	4877
863.636	4930
863.768	4965
863.9	4984
864.032	4900
864.164	4949
864.296	5029
864.428	5071
864.559	5098
864.691	5121
864.823	5056
864.954	5117
865.086	5136
865.217	5121
865.349	5056
865.48	5105
865.612	5201
865.743	5265
865.875	5220
866.006	5208
866.137	5284
866.269	5223
866.4	5273
866.531	5189
866.662	5258
866.793	5288
866.924	5284
867.055	5334
867.186	5330
867.317	5292
867.448	5357
867.579	5364
867.71	5357
867.841	5387
867.972	5421
868.103	5497
868.233	5433
868.364	5471
868.495	5547
868.625	5585
868.756	5771
868.886	5695
869.017	5767
869.147	5870
869.278	5828
869.408	5794
869.539	5859
869.669	5897
869.799	5927
869.929	5999
870.06	6057
870.19	6270
870.32	6144
870.45	6285
870.58	6342
870.71	6441
870.84	6490
870.97	6445
871.1	6479
871.23	6646
871.36	6669
871.489	6654
871.619	6818
871.749	6787
871.879	6840
872.008	7004
872.138	6973
872.267	7027
872.397	6985
872.526	6996
872.656	7103
872.785	7206
872.915	7343
873.044	7556
873.173	7506
873.303	7639
873.432	7727
873.561	7856
873.69	7925
873.819	7967
873.948	8157
874.077	8187
874.206	8343
874.335	8438
874.464	8682
874.593	8868
874.722	8963
874.851	9081
874.979	9260
875.108	9336
875.237	9462
875.365	9511
875.494	9717
875.623	9838
875.751	9812
875.88	10059
876.008	10086
876.136	10265
876.265	10637
876.393	10759
876.521	10694
876.65	10782
876.778	10847
876.906	10953
877.034	10972
877.162	11162
877.29	11273
877.418	11269
877.546	11303
877.674	11490
877.802	11410
877.93	11543
878.058	11570
878.185	11581
878.313	11649
878.441	11821
878.568	11760
878.696	11798
878.824	11942
878.951	11946
879.079	11996
879.206	12213
879.333	12030
879.461	11923
879.588	12106
879.715	12003
879.842	12216
879.97	12102
880.097	11855
880.224	11832
880.351	11912
880.478	11832
880.605	11893
880.732	11737
880.859	11996
880.986	11786
881.112	11764
881.239	11726
881.366	11646
881.493	11661
881.619	11535
881.746	11585
881.872	11558
881.999	11524
882.125	11425
882.252	11512
882.378	11543
882.505	11516
882.631	11395
882.757	11223
882.883	11330
883.01	11254
883.136	11174
883.262	11136
883.388	11117
883.514	11151
883.64	11201
883.766	11121
883.892	10965
884.018	11029
884.143	11079
884.269	11109
884.395	10816
884.52	10729
884.646	10801
884.772	10698
884.897	10573
885.023	10733
885.148	10706
885.274	10717
885.399	10683
885.524	10649
885.65	10569
885.775	10611
885.9	10607
886.025	10607
886.15	10554
886.275	10531
886.4	10375
886.525	10436
886.65	10455
886.775	10284
886.9	10504
887.025	10542
887.149	10367
887.274	10249
887.399	10280
887.523	10158
887.648	10211
887.773	10116
887.897	10219
888.021	10192
888.146	10150
888.27	10215
888.395	10215
888.519	10257
888.643	10188
888.767	10280
888.891	10116
889.015	10051
889.139	10086
889.263	9994
889.387	10078
889.511	10135
889.635	10078
889.759	9934
889.883	9930
890.006	10029
890.13	10051
890.254	9964
890.377	9930
890.501	9819
890.624	9808
890.748	9911
890.871	9819
890.995	9759
891.118	9766
891.241	9812
891.364	9766
891.488	9762
891.611	9686
891.734	9720
891.857	9728
891.98	9740
892.103	9755
892.226	9701
892.349	9595
892.471	9553
892.594	9644
892.717	9549
892.839	9584
892.962	9545
893.085	9660
893.207	9587
893.33	9458
893.452	9507
893.575	9641
893.697	9530
893.819	9686
893.941	9610
894.064	9610
894.186	9374
894.308	9408
894.43	9580
894.552	9591
894.674	9447
894.796	9359
894.918	9397
895.04	9340
895.161	9412
895.283	9355
895.405	9241
895.526	9264
895.648	9283
895.769	9195
895.891	9222
896.012	9291
896.134	9222
896.255	9260
896.376	9097
896.498	9154
896.619	9127
896.74	9097
896.861	9104
896.982	9275
897.103	9340
897.224	9135
897.345	9085
897.466	9028
897.587	8994
897.708	9070
897.828	8975
897.949	8982
898.07	8834
898.19	8899
898.311	9024
898.431	8933
898.552	8925
898.672	8937
898.792	8918
898.913	8921
899.033	8872
899.153	8667
899.273	8708
899.393	8716
899.513	8720
899.633	8727
899.753	8826
899.873	8727
899.993	8701
900.113	8686
900.232	8705
900.352	8590
900.472	8575
900.591	8568
900.711	8526
900.83	8526
900.95	8724
901.069	8720
901.189	8560
901.308	8408
901.427	8374
901.546	8438
901.665	8469
901.784	8446
901.904	8339
902.023	8343
902.141	8290
902.26	8199
902.379	8347
902.498	8244
902.617	8202
902.735	8328
902.854	8336
902.973	8214
903.091	8088
903.21	8164
903.328	8233
903.446	8142
903.565	8084
903.683	8111
903.801	8024
903.919	8142
904.038	8164
904.156	8054
904.274	8107
904.392	8012
904.51	7997
904.627	8081
904.745	8123
904.863	8043
904.981	7963
905.098	7852
905.216	7913
905.334	7814
905.451	7830
905.569	7883
905.686	7883
905.803	7902
905.921	7742
906.038	7906
906.155	7776
906.272	7742
906.389	7677
906.506	7616
906.623	7616
906.74	7628
906.857	7556
906.974	7601
907.091	7723
907.208	7696
907.324	7708
907.441	7567
907.557	7495
907.674	7457
907.79	7396
907.907	7430
908.023	7472
908.139	7403
908.256	7331
908.372	7312
908.488	7419
908.604	7327
908.72	7228
908.836	7274
908.952	7206
909.068	7263
909.184	7343
909.3	7206
909.415	7327
909.531	7278
909.647	7160
909.762	7107
909.878	7065
909.993	7091
910.108	7080
910.224	7023
910.339	7156
910.454	7069
910.57	7008
910.685	6985
910.8	7247
910.915	7145
911.03	7000
911.145	6913
911.259	6856
911.374	6814
911.489	6852
911.604	6798
911.718	6730
911.833	6734
911.947	6700
912.062	6593
912.176	6730
912.291	6715
912.405	6677
912.519	6818
912.633	6844
912.748	6722
912.862	6665
912.976	6597
913.09	6536
913.204	6585
913.318	6597
913.431	6662
913.545	6684
913.659	6646
913.772	6593
913.886	6631
914	6597
914.113	6620
914.226	6696
914.34	6578
914.453	6486
914.566	6593
914.68	6563
914.793	6517
914.906	6414
915.019	6384
915.132	6388
915.245	6418
915.358	6414
915.47	6471
915.583	6502
915.696	6521
915.809	6532
915.921	6555
916.034	6479
916.146	6399
916.259	6353
916.371	6475
916.483	6475
916.595	6433
916.708	6376
916.82	6437
916.932	6395
917.044	6384
917.156	6464
917.268	6273
917.38	6372
917.491	6323
917.603	6281
917.715	6372
917.826	6391
917.938	6327
918.049	6228
918.161	6391
918.272	6429
918.384	6407
918.495	6346
918.606	6251
918.717	6216
918.828	6258
918.939	6258
919.05	6178
919.161	6289
919.272	6098
919.383	6140
919.494	6350
919.604	6452
919.715	6296
919.826	6228
919.936	6289
920.047	6319
920.157	6213
920.267	6388
920.378	6334
920.488	6220
920.598	6517
920.708	6551
920.818	6418
920.928	6471
921.038	6597
921.148	6627
921.258	6323
921.368	6323
921.477	6232
921.587	6201
921.697	6110
921.806	6121
921.916	6087
922.025	5874
922.134	5893
922.244	5882
922.353	5931
922.462	5805
922.571	5805
922.68	5680
922.789	5596
922.898	5695
923.007	5634
923.116	5676
923.224	5672
923.333	5688
923.442	5566
923.55	5596
923.659	5627
923.767	5638
923.876	5573
923.984	5611
924.092	5482
924.201	5539
924.309	5562
924.417	5566
924.525	5471
924.633	5524
924.741	6266
924.849	5337
924.956	5463
925.064	5357
925.172	5284
925.279	5273
925.387	5379
925.494	5368
925.602	5395
925.709	5391
925.816	5326
925.924	5307
926.031	5364
926.138	5311
926.245	5345
926.352	5250
926.459	5322
926.566	5269
926.673	5193
926.779	5109
926.886	5136
926.993	5060
927.099	5022
927.206	4980
927.312	4976
927.419	5037
927.525	4938
927.631	4965
927.737	4892
927.843	4854
927.95	4748
928.056	4786
928.162	4839
928.267	4847
928.373	5372
928.479	4870
928.585	4733
928.69	4759
928.796	4733
928.901	4691
929.007	4550
929.112	4675
929.218	4645
929.323	4611
929.428	4538
929.533	4679
929.638	4523
929.743	4561
929.848	4531
929.953	4459
930.058	4489
930.163	4341
930.267	4375
930.372	4440
930.477	4314
930.581	4516
930.685	4352
930.79	4234
930.894	4272
930.998	4196
931.103	4363
931.207	4116
931.311	4074
931.415	4048
931.519	3930
931.623	3922
