Data from glass_V78500241_317.txt Node
Date: Wed Sep 01 19:16:41 CST 2021
User: usil
Spectrometer: V785-0024
Trigger mode: 0
Integration Time (sec): 4.000000E-1
Scans to average: 1
Nonlinearity correction enabled: false
Boxcar width: 0
Storing dark spectrum: false
XAxis mode: Wavelengths
Number of Pixels in Spectrum: 1024
>>>>>Begin Spectral Data<<<<<
801.071	3747
801.214	3778
801.356	3709
801.499	3747
801.641	3766
801.783	3808
801.926	3869
802.068	3812
802.211	3876
802.353	3911
802.496	3827
802.638	3934
802.78	3892
802.923	3949
803.065	3903
803.208	3835
803.35	3884
803.492	3907
803.635	3953
803.777	3861
803.919	3915
804.061	4162
804.204	3949
804.346	4025
804.488	3918
804.63	4055
804.773	4002
804.915	4044
805.057	4139
805.199	4086
805.341	4109
805.483	4147
805.626	4128
805.768	4162
805.91	4249
806.052	4276
806.194	4242
806.336	4356
806.478	4268
806.62	4192
806.762	4166
806.904	4215
807.046	4325
807.188	4207
807.33	4200
807.472	4249
807.614	4265
807.756	4268
807.898	4242
808.04	4238
808.182	4272
808.324	4367
808.465	4398
808.607	4443
808.749	4432
808.891	4497
809.033	4470
809.174	4394
809.316	4318
809.458	4215
809.6	4200
809.741	4131
809.883	4135
810.025	4219
810.166	4234
810.308	4207
810.45	4246
810.591	4253
810.733	4322
810.875	4519
811.016	4816
811.158	5067
811.299	5307
811.441	5307
811.582	5098
811.724	4702
811.865	4493
812.007	4485
812.148	4417
812.29	4443
812.431	4417
812.573	4409
812.714	4402
812.855	4398
812.997	4436
813.138	4546
813.279	4424
813.421	4405
813.562	4390
813.703	4379
813.845	4337
813.986	4268
814.127	4272
814.268	4253
814.41	4291
814.551	4284
814.692	4329
814.833	4314
814.974	4268
815.115	4379
815.256	4246
815.397	4249
815.539	4291
815.68	4215
815.821	4230
815.962	4314
816.103	4257
816.244	4246
816.385	4253
816.526	4325
816.666	4223
816.807	4158
816.948	4207
817.089	4162
817.23	4101
817.371	4097
817.512	4093
817.653	4067
817.793	4032
817.934	4013
818.075	4128
818.216	4036
818.356	4116
818.497	4029
818.638	3968
818.778	3945
818.919	3911
819.06	3892
819.2	3934
819.341	3930
819.481	3880
819.622	3896
819.762	4013
819.903	3960
820.043	3922
820.184	3838
820.324	3861
820.465	3865
820.605	3850
820.746	3884
820.886	3778
821.026	3953
821.167	3926
821.307	4017
821.447	4002
821.588	3934
821.728	3937
821.868	3953
822.008	3880
822.149	3926
822.289	3899
822.429	3743
822.569	3808
822.709	3835
822.849	3694
822.99	3736
823.13	3740
823.27	3789
823.41	3732
823.55	3740
823.69	3709
823.83	3785
823.97	3675
824.11	3644
824.25	3633
824.389	3675
824.529	3682
824.669	3675
824.809	3705
824.949	3789
825.089	3751
825.228	3724
825.368	3591
825.508	3603
825.648	3564
825.787	3618
825.927	3660
826.067	3656
826.206	3679
826.346	3781
826.485	3846
826.625	3857
826.765	3934
826.904	3835
827.044	3652
827.183	3549
827.323	3412
827.462	3519
827.601	3439
827.741	3496
827.88	3473
828.02	3367
828.159	3428
828.298	3504
828.437	3545
828.577	3496
828.716	3561
828.855	3511
828.994	3397
829.134	3329
829.273	3405
829.412	3344
829.551	3336
829.69	3378
829.829	3428
829.968	3553
830.107	3458
830.246	3443
830.385	3416
830.524	3340
830.663	3351
830.802	3279
830.941	3211
831.08	3222
831.219	3272
831.357	3260
831.496	3389
831.635	3237
831.774	3230
831.913	3218
832.051	3211
832.19	3146
832.329	3233
832.467	3108
832.606	3131
832.744	3173
832.883	3207
833.022	3192
833.16	3279
833.299	3294
833.437	3302
833.576	3367
833.714	3389
833.852	3454
833.991	3473
834.129	3500
834.267	3439
834.406	3428
834.544	3428
834.682	3424
834.821	3370
834.959	3603
835.097	3454
835.235	3538
835.373	3500
835.511	3496
835.65	3477
835.788	3500
835.926	3401
836.064	3386
836.202	3424
836.34	3576
836.478	3599
836.615	3576
836.753	3629
836.891	3686
837.029	3625
837.167	3568
837.305	3564
837.443	3595
837.58	3519
837.718	3622
837.856	3572
837.993	3568
838.131	3618
838.269	3538
838.406	3614
838.544	3591
838.681	3469
838.819	3466
838.956	3428
839.094	3428
839.231	3435
839.369	3545
839.506	3732
839.643	3663
839.781	3511
839.918	3466
840.055	3572
840.193	3553
840.33	3584
840.467	3591
840.604	3603
840.742	3762
840.879	3553
841.016	3576
841.153	3618
841.29	3778
841.427	3747
841.564	3736
841.701	3736
841.838	3743
841.975	3667
842.112	3736
842.249	3641
842.385	3652
842.522	3865
842.659	3698
842.796	3694
842.933	3736
843.069	3701
843.206	3701
843.343	3808
843.479	3789
843.616	3846
843.752	3682
843.889	3686
844.025	3861
844.162	3759
844.298	3854
844.435	3819
844.571	3781
844.708	3926
844.844	4021
844.98	4036
845.117	4036
845.253	3941
845.389	3930
845.525	3956
845.661	3972
845.798	3937
845.934	3994
846.07	3975
846.206	4074
846.342	4169
846.478	4116
846.614	3979
846.75	3918
846.886	3937
847.022	4059
847.158	3964
847.294	3987
847.429	4021
847.565	4017
847.701	4188
847.837	3892
847.972	3896
848.108	3979
848.244	3960
848.379	3880
848.515	3823
848.65	3854
848.786	3903
848.921	3861
849.057	3930
849.192	4006
849.328	3918
849.463	3960
849.598	3903
849.734	3907
849.869	3918
850.004	3751
850.14	3842
850.275	3797
850.41	3732
850.545	3797
850.68	3800
850.815	3770
850.95	3831
851.085	3979
851.22	3896
851.355	3800
851.49	3785
851.625	3804
851.76	3812
851.895	3720
852.03	3740
852.165	3827
852.299	3865
852.434	3907
852.569	3903
852.703	3880
852.838	3937
852.973	3972
853.107	4025
853.242	3926
853.376	3831
853.511	3751
853.645	3842
853.78	3987
853.914	3911
854.048	3911
854.183	3911
854.317	3960
854.451	4071
854.585	4010
854.72	3937
854.854	4040
854.988	3968
855.122	4013
855.256	3934
855.39	4021
855.524	4086
855.658	4090
855.792	4067
855.926	4173
856.06	4196
856.194	4158
856.327	4185
856.461	4166
856.595	4177
856.729	4227
856.862	4295
856.996	4276
857.13	4295
857.263	4341
857.397	4333
857.53	4261
857.664	4367
857.797	4413
857.931	4478
858.064	4386
858.197	4417
858.331	4394
858.464	4413
858.597	4348
858.731	4462
858.864	4462
858.997	4451
859.13	4466
859.263	4561
859.396	4565
859.529	4489
859.662	4565
859.795	4569
859.928	4668
860.061	4714
860.194	4744
860.327	4702
860.46	4637
860.592	4725
860.725	4786
860.858	4816
860.99	4721
861.123	4698
861.256	4717
861.388	4767
861.521	5288
861.653	4774
861.786	4725
861.918	4744
862.05	4816
862.183	4858
862.315	4965
862.447	4930
862.58	4885
862.712	4812
862.844	4782
862.976	4877
863.108	4858
863.24	5296
863.372	4831
863.504	4904
863.636	4923
863.768	4949
863.9	4968
864.032	4987
864.164	4968
864.296	5006
864.428	5140
864.559	5117
864.691	5170
864.823	5117
864.954	5098
865.086	5178
865.217	5109
865.349	5174
865.48	5178
865.612	5201
865.743	5364
865.875	5216
866.006	5143
866.137	5265
866.269	5227
866.4	5239
866.531	5265
866.662	5212
866.793	5273
866.924	5277
867.055	5345
867.186	5364
867.317	5368
867.448	5288
867.579	5436
867.71	5376
867.841	5398
867.972	5436
868.103	5486
868.233	5512
868.364	5512
868.495	5570
868.625	5699
868.756	5790
868.886	5672
869.017	5737
869.147	5863
869.278	5893
869.408	5832
869.539	5824
869.669	5889
869.799	5942
869.929	6038
870.06	6022
870.19	6178
870.32	6209
870.45	6247
870.58	6346
870.71	6448
870.84	6414
870.97	6391
871.1	6448
871.23	6631
871.36	6681
871.489	6616
871.619	6821
871.749	6795
871.879	6856
872.008	6932
872.138	6996
872.267	7000
872.397	6962
872.526	7034
872.656	7095
872.785	7255
872.915	7400
873.044	7533
873.173	7597
873.303	7643
873.432	7788
873.561	7852
873.69	7917
873.819	7993
873.948	8172
874.077	8317
874.206	8393
874.335	8469
874.464	8629
874.593	8910
874.722	8933
874.851	9089
874.979	9237
875.108	9416
875.237	9488
875.365	9507
875.494	9679
875.623	9816
875.751	9903
875.88	10006
876.008	10257
876.136	10253
876.265	10451
876.393	10725
876.521	10672
876.65	10767
876.778	10904
876.906	10862
877.034	11079
877.162	11109
877.29	11155
877.418	11345
877.546	11395
877.674	11444
877.802	11535
877.93	11577
878.058	11562
878.185	11634
878.313	11611
878.441	11790
878.568	11638
878.696	11718
878.824	11840
878.951	11923
879.079	12076
879.206	12167
879.333	12079
879.461	11977
879.588	12167
879.715	12121
879.842	12266
879.97	12026
880.097	11851
880.224	11885
880.351	11961
880.478	11950
880.605	11832
880.732	11863
880.859	12045
880.986	11802
881.112	11737
881.239	11821
881.366	11718
881.493	11615
881.619	11478
881.746	11661
881.872	11551
881.999	11585
882.125	11482
882.252	11535
882.378	11543
882.505	11570
882.631	11349
882.757	11265
882.883	11315
883.01	11315
883.136	11284
883.262	11162
883.388	11117
883.514	11124
883.64	11189
883.766	11094
883.892	10976
884.018	11003
884.143	11060
884.269	11113
884.395	10843
884.52	10717
884.646	10786
884.772	10710
884.897	10706
885.023	10691
885.148	10736
885.274	10740
885.399	10698
885.524	10577
885.65	10641
885.775	10577
885.9	10546
886.025	10599
886.15	10527
886.275	10470
886.4	10436
886.525	10398
886.65	10363
886.775	10356
886.9	10497
887.025	10497
887.149	10394
887.274	10196
887.399	10162
887.523	10169
887.648	10238
887.773	10143
887.897	10268
888.021	10261
888.146	10154
888.27	10162
888.395	10204
888.519	10219
888.643	10093
888.767	10196
888.891	10078
889.015	10021
889.139	10029
889.263	9972
889.387	10032
889.511	10185
889.635	10090
889.759	10025
889.883	9983
890.006	10010
890.13	10139
890.254	9873
890.377	9926
890.501	9880
890.624	9838
890.748	9812
890.871	9819
890.995	9797
891.118	9751
891.241	9747
891.364	9812
891.488	9804
891.611	9743
891.734	9816
891.857	9812
891.98	9797
892.103	9823
892.226	9770
892.349	9656
892.471	9496
892.594	9576
892.717	9591
892.839	9610
892.962	9549
893.085	9686
893.207	9538
893.33	9538
893.452	9587
893.575	9572
893.697	9530
893.819	9557
893.941	9610
894.064	9606
894.186	9408
894.308	9428
894.43	9519
894.552	9622
894.674	9511
894.796	9355
894.918	9405
895.04	9363
895.161	9393
895.283	9370
895.405	9313
895.526	9245
895.648	9222
895.769	9226
895.891	9199
896.012	9344
896.134	9230
896.255	9226
896.376	9131
896.498	9161
896.619	9180
896.74	9089
896.861	9237
896.982	9329
897.103	9264
897.224	9184
897.345	9032
897.466	9024
897.587	9039
897.708	9024
897.828	9036
897.949	9017
898.07	8853
898.19	8937
898.311	8960
898.431	8921
898.552	8990
898.672	8944
898.792	9001
898.913	8937
899.033	8895
899.153	8686
899.273	8667
899.393	8815
899.513	8743
899.633	8781
899.753	8739
899.873	8758
899.993	8769
900.113	8689
900.232	8716
900.352	8686
900.472	8613
900.591	8537
900.711	8583
900.83	8533
900.95	8606
901.069	8686
901.189	8583
901.308	8465
901.427	8396
901.546	8457
901.665	8503
901.784	8530
901.904	8396
902.023	8328
902.141	8214
902.26	8267
902.379	8267
902.498	8279
902.617	8244
902.735	8305
902.854	8271
902.973	8187
903.091	8077
903.21	8176
903.328	8164
903.446	8145
903.565	8058
903.683	8081
903.801	8020
903.919	8103
904.038	8149
904.156	8054
904.274	8092
904.392	8020
904.51	8107
904.627	8065
904.745	8149
904.863	8161
904.981	7974
905.098	7883
905.216	7955
905.334	7856
905.451	7913
905.569	7944
905.686	7890
905.803	7936
905.921	7849
906.038	7887
906.155	7769
906.272	7719
906.389	7715
906.506	7708
906.623	7605
906.74	7613
906.857	7609
906.974	7620
907.091	7685
907.208	7757
907.324	7616
907.441	7578
907.557	7506
907.674	7419
907.79	7430
907.907	7426
908.023	7445
908.139	7426
908.256	7396
908.372	7407
908.488	7381
908.604	7301
908.72	7251
908.836	7266
908.952	7266
909.068	7274
909.184	7354
909.3	7247
909.415	7259
909.531	7358
909.647	7114
909.762	7084
909.878	7110
909.993	7141
910.108	7107
910.224	7118
910.339	7129
910.454	7053
910.57	7023
910.685	6951
910.8	7244
910.915	7168
911.03	7000
911.145	6909
911.259	6863
911.374	6905
911.489	6833
911.604	6776
911.718	6719
911.833	6734
911.947	6669
912.062	6589
912.176	6673
912.291	6711
912.405	6696
912.519	6802
912.633	6871
912.748	6738
912.862	6703
912.976	6585
913.09	6578
913.204	6597
913.318	6563
913.431	6681
913.545	6696
913.659	6688
913.772	6677
913.886	6627
914	6563
914.113	6608
914.226	6642
914.34	6639
914.453	6559
914.566	6654
914.68	6490
914.793	6517
914.906	6422
915.019	6456
915.132	6365
915.245	6372
915.358	6506
915.47	6433
915.583	6433
915.696	6479
915.809	6540
915.921	6502
916.034	6448
916.146	6422
916.259	6441
916.371	6460
916.483	6506
916.595	6388
916.708	6372
916.82	6350
916.932	6361
917.044	6433
917.156	6433
917.268	6342
917.38	6365
917.491	6346
917.603	6376
917.715	6376
917.826	6429
917.938	6350
918.049	6304
918.161	6304
918.272	6441
918.384	6414
918.495	6410
918.606	6266
918.717	6228
918.828	6342
918.939	6331
919.05	6197
919.161	6292
919.272	6163
919.383	6117
919.494	6304
919.604	6441
919.715	6323
919.826	6235
919.936	6300
920.047	6334
920.157	6247
920.267	6418
920.378	6388
920.488	6292
920.598	6506
920.708	6582
920.818	6494
920.928	6479
921.038	6604
921.148	6559
921.258	6353
921.368	6323
921.477	6224
921.587	6140
921.697	6129
921.806	6220
921.916	6114
922.025	5973
922.134	5935
922.244	5939
922.353	5977
922.462	5866
922.571	5828
922.68	5688
922.789	5699
922.898	5710
923.007	5653
923.116	5707
923.224	5733
923.333	5699
923.442	5623
923.55	5611
923.659	5623
923.767	5642
923.876	5551
923.984	5600
924.092	5509
924.201	5600
924.309	5596
924.417	5532
924.525	5455
924.633	5505
924.741	6323
924.849	5383
924.956	5478
925.064	5391
925.172	5311
925.279	5296
925.387	5395
925.494	5398
925.602	5433
925.709	5368
925.816	5280
925.924	5307
926.031	5341
926.138	5284
926.245	5334
926.352	5204
926.459	5334
926.566	5372
926.673	5208
926.779	5155
926.886	5166
926.993	5041
927.099	4968
927.206	5003
927.312	4934
927.419	5018
927.525	5022
927.631	5025
927.737	4927
927.843	4873
927.95	4805
928.056	4801
928.162	4801
928.267	4892
928.373	5273
928.479	4881
928.585	4702
928.69	4782
928.796	4767
928.901	4660
929.007	4573
929.112	4706
929.218	4626
929.323	4599
929.428	4584
929.533	4649
929.638	4516
929.743	4523
929.848	4554
929.953	4489
930.058	4497
930.163	4337
930.267	4329
930.372	4462
930.477	4333
930.581	4489
930.685	4318
930.79	4230
930.894	4310
930.998	4223
931.103	4402
931.207	4120
931.311	4124
931.415	3998
931.519	3899
931.623	3941
