Data from glass_V78500241_493.txt Node
Date: Wed Sep 01 19:17:55 CST 2021
User: usil
Spectrometer: V785-0024
Trigger mode: 0
Integration Time (sec): 4.000000E-1
Scans to average: 1
Nonlinearity correction enabled: false
Boxcar width: 0
Storing dark spectrum: false
XAxis mode: Wavelengths
Number of Pixels in Spectrum: 1024
>>>>>Begin Spectral Data<<<<<
801.071	3713
801.214	3766
801.356	3732
801.499	3781
801.641	3740
801.783	3781
801.926	3892
802.068	3857
802.211	3854
802.353	3880
802.496	3865
802.638	3911
802.78	3896
802.923	3930
803.065	3922
803.208	3850
803.35	3884
803.492	3911
803.635	3907
803.777	3819
803.919	3907
804.061	4124
804.204	3972
804.346	3972
804.488	3934
804.63	4055
804.773	3937
804.915	4059
805.057	4154
805.199	4017
805.341	4112
805.483	4204
805.626	4131
805.768	4116
805.91	4238
806.052	4204
806.194	4234
806.336	4352
806.478	4249
806.62	4188
806.762	4227
806.904	4238
807.046	4348
807.188	4249
807.33	4196
807.472	4230
807.614	4238
807.756	4242
807.898	4207
808.04	4238
808.182	4287
808.324	4325
808.465	4390
808.607	4470
808.749	4470
808.891	4447
809.033	4542
809.174	4459
809.316	4284
809.458	4234
809.6	4177
809.741	4109
809.883	4158
810.025	4234
810.166	4246
810.308	4219
810.45	4287
810.591	4257
810.733	4306
810.875	4546
811.016	4790
811.158	5170
811.299	5250
811.441	5318
811.582	5079
811.724	4675
811.865	4550
812.007	4440
812.148	4413
812.29	4417
812.431	4417
812.573	4428
812.714	4352
812.855	4428
812.997	4394
813.138	4500
813.279	4466
813.421	4405
813.562	4436
813.703	4299
813.845	4314
813.986	4261
814.127	4265
814.268	4284
814.41	4306
814.551	4261
814.692	4322
814.833	4276
814.974	4344
815.115	4341
815.256	4276
815.397	4253
815.539	4234
815.68	4196
815.821	4204
815.962	4325
816.103	4280
816.244	4242
816.385	4242
816.526	4287
816.666	4299
816.807	4131
816.948	4200
817.089	4181
817.23	4097
817.371	4055
817.512	4101
817.653	4055
817.793	4086
817.934	4055
818.075	4101
818.216	4082
818.356	4093
818.497	3998
818.638	3922
818.778	3949
818.919	3915
819.06	3922
819.2	3937
819.341	3911
819.481	3827
819.622	3899
819.762	4044
819.903	3945
820.043	3865
820.184	3869
820.324	3819
820.465	3873
820.605	3922
820.746	3903
820.886	3831
821.026	3937
821.167	3899
821.307	3994
821.447	4006
821.588	3983
821.728	4006
821.868	3956
822.008	3819
822.149	3926
822.289	3949
822.429	3838
822.569	3797
822.709	3797
822.849	3698
822.99	3751
823.13	3751
823.27	3789
823.41	3755
823.55	3705
823.69	3755
823.83	3751
823.97	3720
824.11	3618
824.25	3606
824.389	3690
824.529	3660
824.669	3625
824.809	3759
824.949	3800
825.089	3789
825.228	3740
825.368	3572
825.508	3587
825.648	3603
825.787	3629
825.927	3648
826.067	3637
826.206	3679
826.346	3823
826.485	3861
826.625	3892
826.765	3964
826.904	3812
827.044	3644
827.183	3545
827.323	3439
827.462	3431
827.601	3397
827.741	3447
827.88	3481
828.02	3412
828.159	3458
828.298	3477
828.437	3591
828.577	3469
828.716	3652
828.855	3526
828.994	3393
829.134	3420
829.273	3374
829.412	3401
829.551	3351
829.69	3370
829.829	3454
829.968	3526
830.107	3424
830.246	3458
830.385	3389
830.524	3348
830.663	3310
830.802	3260
830.941	3222
831.08	3192
831.219	3272
831.357	3268
831.496	3450
831.635	3218
831.774	3184
831.913	3218
832.051	3150
832.19	3176
832.329	3211
832.467	3123
832.606	3173
832.744	3184
832.883	3138
833.022	3214
833.16	3256
833.299	3310
833.437	3321
833.576	3344
833.714	3386
833.852	3428
833.991	3458
834.129	3473
834.267	3405
834.406	3401
834.544	3431
834.682	3431
834.821	3416
834.959	3561
835.097	3424
835.235	3542
835.373	3530
835.511	3485
835.65	3450
835.788	3473
835.926	3405
836.064	3412
836.202	3401
836.34	3625
836.478	3641
836.615	3587
836.753	3606
836.891	3656
837.029	3667
837.167	3603
837.305	3572
837.443	3538
837.58	3473
837.718	3633
837.856	3557
837.993	3568
838.131	3572
838.269	3595
838.406	3568
838.544	3587
838.681	3481
838.819	3443
838.956	3359
839.094	3386
839.231	3439
839.369	3568
839.506	3759
839.643	3633
839.781	3538
839.918	3485
840.055	3553
840.193	3580
840.33	3572
840.467	3549
840.604	3599
840.742	3804
840.879	3572
841.016	3568
841.153	3652
841.29	3804
841.427	3698
841.564	3755
841.701	3770
841.838	3713
841.975	3682
842.112	3724
842.249	3614
842.385	3622
842.522	3873
842.659	3690
842.796	3724
842.933	3755
843.069	3717
843.206	3663
843.343	3854
843.479	3804
843.616	3842
843.752	3736
843.889	3679
844.025	3816
844.162	3717
844.298	3873
844.435	3812
844.571	3804
844.708	3918
844.844	3968
844.98	4059
845.117	3998
845.253	3975
845.389	3911
845.525	3941
845.661	3979
845.798	3884
845.934	4006
846.07	3956
846.206	4036
846.342	4158
846.478	4063
846.614	3994
846.75	3930
846.886	3922
847.022	4051
847.158	3956
847.294	4032
847.429	3998
847.565	3979
847.701	4249
847.837	3892
847.972	3869
848.108	3979
848.244	3998
848.379	3903
848.515	3816
848.65	3835
848.786	3850
848.921	3876
849.057	3892
849.192	3991
849.328	3926
849.463	3922
849.598	3854
849.734	3884
849.869	3888
850.004	3816
850.14	3835
850.275	3819
850.41	3759
850.545	3781
850.68	3804
850.815	3857
850.95	3785
851.085	3968
851.22	3842
851.355	3876
851.49	3816
851.625	3827
851.76	3789
851.895	3743
852.03	3728
852.165	3835
852.299	3846
852.434	3896
852.569	3869
852.703	3907
852.838	3934
852.973	4002
853.107	4017
853.242	3937
853.376	3896
853.511	3778
853.645	3857
853.78	3994
853.914	3892
854.048	3907
854.183	3892
854.317	3930
854.451	4093
854.585	3956
854.72	3945
854.854	4074
854.988	3991
855.122	4029
855.256	3956
855.39	4002
855.524	4101
855.658	4139
855.792	4097
855.926	4139
856.06	4158
856.194	4249
856.327	4131
856.461	4143
856.595	4135
856.729	4166
856.862	4276
856.996	4272
857.13	4310
857.263	4390
857.397	4405
857.53	4310
857.664	4375
857.797	4363
857.931	4500
858.064	4462
858.197	4413
858.331	4344
858.464	4443
858.597	4356
858.731	4447
858.864	4489
858.997	4493
859.13	4516
859.263	4535
859.396	4637
859.529	4554
859.662	4508
859.795	4599
859.928	4618
860.061	4744
860.194	4744
860.327	4694
860.46	4626
860.592	4744
860.725	4763
860.858	4733
860.99	4763
861.123	4721
861.256	4717
861.388	4805
861.521	5505
861.653	4744
861.786	4691
861.918	4748
862.05	4812
862.183	4854
862.315	4930
862.447	4987
862.58	4892
862.712	4782
862.844	4805
862.976	4892
863.108	4850
863.24	5159
863.372	4843
863.504	4862
863.636	4953
863.768	4930
863.9	4961
864.032	4919
864.164	4930
864.296	5048
864.428	5098
864.559	5140
864.691	5128
864.823	5067
864.954	5113
865.086	5178
865.217	5128
865.349	5162
865.48	5170
865.612	5208
865.743	5307
865.875	5185
866.006	5185
866.137	5250
866.269	5254
866.4	5258
866.531	5296
866.662	5239
866.793	5223
866.924	5254
867.055	5395
867.186	5368
867.317	5337
867.448	5315
867.579	5349
867.71	5368
867.841	5395
867.972	5459
868.103	5459
868.233	5440
868.364	5486
868.495	5577
868.625	5680
868.756	5821
868.886	5649
869.017	5737
869.147	5851
869.278	5859
869.408	5813
869.539	5832
869.669	5927
869.799	5901
869.929	6038
870.06	6045
870.19	6220
870.32	6171
870.45	6315
870.58	6391
870.71	6456
870.84	6445
870.97	6471
871.1	6460
871.23	6707
871.36	6730
871.489	6711
871.619	6738
871.749	6814
871.879	6916
872.008	7023
872.138	6985
872.267	7031
872.397	7008
872.526	7038
872.656	7152
872.785	7270
872.915	7430
873.044	7556
873.173	7537
873.303	7609
873.432	7772
873.561	7860
873.69	7864
873.819	8012
873.948	8164
874.077	8237
874.206	8358
874.335	8461
874.464	8629
874.593	8849
874.722	8952
874.851	9157
874.979	9287
875.108	9428
875.237	9416
875.365	9454
875.494	9633
875.623	9869
875.751	9823
875.88	10029
876.008	10131
876.136	10314
876.265	10519
876.393	10698
876.521	10782
876.65	10782
876.778	10900
876.906	10896
877.034	10934
877.162	11079
877.29	11147
877.418	11318
877.546	11341
877.674	11505
877.802	11532
877.93	11558
878.058	11646
878.185	11490
878.313	11676
878.441	11688
878.568	11676
878.696	11821
878.824	11901
878.951	11923
879.079	12049
879.206	12102
879.333	12034
879.461	12003
879.588	12102
879.715	12064
879.842	12289
879.97	12106
880.097	11893
880.224	11885
880.351	11927
880.478	11843
880.605	11893
880.732	11805
880.859	12030
880.986	11809
881.112	11878
881.239	11805
881.366	11672
881.493	11646
881.619	11611
881.746	11573
881.872	11497
881.999	11497
882.125	11497
882.252	11509
882.378	11535
882.505	11600
882.631	11455
882.757	11292
882.883	11341
883.01	11265
883.136	11235
883.262	11098
883.388	11037
883.514	11117
883.64	11132
883.766	11117
883.892	11014
884.018	11006
884.143	11140
884.269	11136
884.395	10927
884.52	10755
884.646	10767
884.772	10622
884.897	10733
885.023	10687
885.148	10759
885.274	10786
885.399	10790
885.524	10641
885.65	10626
885.775	10584
885.9	10577
886.025	10656
886.15	10535
886.275	10424
886.4	10382
886.525	10367
886.65	10341
886.775	10348
886.9	10508
887.025	10508
887.149	10295
887.274	10242
887.399	10234
887.523	10150
887.648	10116
887.773	10158
887.897	10268
888.021	10177
888.146	10147
888.27	10234
888.395	10234
888.519	10173
888.643	10101
888.767	10200
888.891	10006
889.015	9956
889.139	10090
889.263	9987
889.387	10051
889.511	10086
889.635	10097
889.759	10010
889.883	10044
890.006	10006
890.13	10093
890.254	9987
890.377	9968
890.501	9861
890.624	9937
890.748	9880
890.871	9793
890.995	9838
891.118	9747
891.241	9755
891.364	9793
891.488	9838
891.611	9770
891.734	9800
891.857	9755
891.98	9743
892.103	9755
892.226	9644
892.349	9682
892.471	9519
892.594	9523
892.717	9549
892.839	9595
892.962	9648
893.085	9709
893.207	9587
893.33	9458
893.452	9511
893.575	9584
893.697	9496
893.819	9644
893.941	9614
894.064	9610
894.186	9469
894.308	9389
894.43	9504
894.552	9572
894.674	9572
894.796	9363
894.918	9431
895.04	9416
895.161	9412
895.283	9351
895.405	9241
895.526	9321
895.648	9211
895.769	9329
895.891	9207
896.012	9355
896.134	9218
896.255	9161
896.376	9169
896.498	9131
896.619	9176
896.74	9051
896.861	9119
896.982	9272
897.103	9393
897.224	9176
897.345	9081
897.466	9005
897.587	9112
897.708	9085
897.828	9017
897.949	8963
898.07	8933
898.19	8960
898.311	9020
898.431	8944
898.552	8944
898.672	9013
898.792	8960
898.913	8967
899.033	8842
899.153	8880
899.273	8678
899.393	8689
899.513	8807
899.633	8697
899.753	8697
899.873	8636
899.993	8743
900.113	8746
900.232	8708
900.352	8705
900.472	8655
900.591	8556
900.711	8571
900.83	8568
900.95	8636
901.069	8670
901.189	8632
901.308	8488
901.427	8446
901.546	8434
901.665	8492
901.784	8541
901.904	8427
902.023	8332
902.141	8240
902.26	8237
902.379	8271
902.498	8168
902.617	8328
902.735	8366
902.854	8282
902.973	8294
903.091	8077
903.21	8115
903.328	8164
903.446	8119
903.565	8058
903.683	8103
903.801	8103
903.919	8084
904.038	8191
904.156	8084
904.274	8103
904.392	7989
904.51	8031
904.627	8077
904.745	8138
904.863	8103
904.981	7940
905.098	7902
905.216	7852
905.334	7913
905.451	7909
905.569	7887
905.686	7898
905.803	7928
905.921	7814
906.038	7928
906.155	7807
906.272	7784
906.389	7708
906.506	7670
906.623	7620
906.74	7677
906.857	7521
906.974	7575
907.091	7639
907.208	7753
907.324	7647
907.441	7594
907.557	7460
907.674	7449
907.79	7392
907.907	7411
908.023	7419
908.139	7445
908.256	7438
908.372	7392
908.488	7369
908.604	7354
908.72	7301
908.836	7289
908.952	7285
909.068	7240
909.184	7324
909.3	7251
909.415	7289
909.531	7244
909.647	7084
909.762	7145
909.878	7118
909.993	7190
910.108	7118
910.224	7126
910.339	7050
910.454	7084
910.57	7008
910.685	6981
910.8	7114
910.915	7160
911.03	7027
911.145	6875
911.259	6901
911.374	6856
911.489	6856
911.604	6814
911.718	6745
911.833	6795
911.947	6612
912.062	6601
912.176	6692
912.291	6730
912.405	6703
912.519	6882
912.633	6844
912.748	6741
912.862	6684
912.976	6616
913.09	6502
913.204	6665
913.318	6601
913.431	6711
913.545	6741
913.659	6726
913.772	6612
913.886	6612
914	6525
914.113	6620
914.226	6658
914.34	6612
914.453	6544
914.566	6627
914.68	6566
914.793	6540
914.906	6414
915.019	6395
915.132	6361
915.245	6410
915.358	6460
915.47	6403
915.583	6513
915.696	6448
915.809	6517
915.921	6536
916.034	6422
916.146	6414
916.259	6410
916.371	6471
916.483	6418
916.595	6445
916.708	6410
916.82	6437
916.932	6407
917.044	6380
917.156	6475
917.268	6323
917.38	6342
917.491	6342
917.603	6380
917.715	6403
917.826	6437
917.938	6353
918.049	6209
918.161	6403
918.272	6448
918.384	6452
918.495	6350
918.606	6239
918.717	6213
918.828	6220
918.939	6239
919.05	6171
919.161	6315
919.272	6140
919.383	6167
919.494	6292
919.604	6445
919.715	6311
919.826	6209
919.936	6270
920.047	6334
920.157	6235
920.267	6433
920.378	6319
920.488	6319
920.598	6479
920.708	6563
920.818	6517
920.928	6471
921.038	6612
921.148	6604
921.258	6342
921.368	6311
921.477	6235
921.587	6228
921.697	6178
921.806	6251
921.916	6125
922.025	5999
922.134	5965
922.244	5923
922.353	5980
922.462	5828
922.571	5733
922.68	5710
922.789	5688
922.898	5775
923.007	5630
923.116	5805
923.224	5684
923.333	5680
923.442	5585
923.55	5589
923.659	5608
923.767	5623
923.876	5505
923.984	5566
924.092	5573
924.201	5547
924.309	5535
924.417	5547
924.525	5509
924.633	5459
924.741	6281
924.849	5368
924.956	5474
925.064	5402
925.172	5357
925.279	5353
925.387	5360
925.494	5349
925.602	5452
925.709	5436
925.816	5284
925.924	5379
926.031	5376
926.138	5315
926.245	5337
926.352	5250
926.459	5379
926.566	5326
926.673	5208
926.779	5174
926.886	5136
926.993	5010
927.099	5022
927.206	4968
927.312	4953
927.419	4995
927.525	4987
927.631	5029
927.737	4896
927.843	4881
927.95	4736
928.056	4858
928.162	4877
928.267	4862
928.373	5303
928.479	4892
928.585	4687
928.69	4790
928.796	4797
928.901	4733
929.007	4641
929.112	4660
929.218	4645
929.323	4615
929.428	4569
929.533	4687
929.638	4569
929.743	4546
929.848	4546
929.953	4500
930.058	4462
930.163	4348
930.267	4352
930.372	4466
930.477	4322
930.581	4470
930.685	4356
930.79	4268
930.894	4306
930.998	4268
931.103	4424
931.207	4143
931.311	4101
931.415	4017
931.519	3934
931.623	3975
