Data from glass_V78500241_1292.txt Node
Date: Wed Sep 01 19:23:27 CST 2021
User: usil
Spectrometer: V785-0024
Trigger mode: 0
Integration Time (sec): 4.000000E-1
Scans to average: 1
Nonlinearity correction enabled: false
Boxcar width: 0
Storing dark spectrum: false
XAxis mode: Wavelengths
Number of Pixels in Spectrum: 1024
>>>>>Begin Spectral Data<<<<<
801.071	3713
801.214	3740
801.356	3709
801.499	3740
801.641	3755
801.783	3785
801.926	3873
802.068	3816
802.211	3876
802.353	3854
802.496	3850
802.638	3880
802.78	3884
802.923	3930
803.065	3888
803.208	3876
803.35	3903
803.492	3918
803.635	3934
803.777	3797
803.919	3880
804.061	4166
804.204	3987
804.346	3926
804.488	3926
804.63	4017
804.773	3975
804.915	4025
805.057	4150
805.199	4067
805.341	4124
805.483	4120
805.626	4166
805.768	4124
805.91	4227
806.052	4253
806.194	4223
806.336	4314
806.478	4227
806.62	4166
806.762	4223
806.904	4227
807.046	4325
807.188	4207
807.33	4211
807.472	4261
807.614	4192
807.756	4234
807.898	4219
808.04	4242
808.182	4261
808.324	4333
808.465	4379
808.607	4440
808.749	4440
808.891	4512
809.033	4470
809.174	4402
809.316	4272
809.458	4314
809.6	4181
809.741	4181
809.883	4143
810.025	4211
810.166	4219
810.308	4246
810.45	4249
810.591	4227
810.733	4295
810.875	4500
811.016	4797
811.158	5117
811.299	5277
811.441	5258
811.582	5113
811.724	4748
811.865	4489
812.007	4485
812.148	4421
812.29	4447
812.431	4451
812.573	4360
812.714	4333
812.855	4428
812.997	4409
813.138	4462
813.279	4413
813.421	4390
813.562	4375
813.703	4352
813.845	4341
813.986	4265
814.127	4207
814.268	4272
814.41	4261
814.551	4280
814.692	4329
814.833	4287
814.974	4322
815.115	4344
815.256	4295
815.397	4249
815.539	4276
815.68	4196
815.821	4227
815.962	4322
816.103	4287
816.244	4227
816.385	4249
816.526	4310
816.666	4242
816.807	4128
816.948	4196
817.089	4196
817.23	4097
817.371	4067
817.512	4040
817.653	4067
817.793	4097
817.934	4032
818.075	4143
818.216	4078
818.356	4112
818.497	4006
818.638	3907
818.778	3945
818.919	3903
819.06	3846
819.2	3899
819.341	3873
819.481	3827
819.622	3903
819.762	4048
819.903	3953
820.043	3869
820.184	3804
820.324	3816
820.465	3873
820.605	3861
820.746	3876
820.886	3888
821.026	3926
821.167	3907
821.307	3972
821.447	3991
821.588	3987
821.728	3907
821.868	3915
822.008	3884
822.149	3911
822.289	3918
822.429	3793
822.569	3778
822.709	3766
822.849	3701
822.99	3736
823.13	3740
823.27	3804
823.41	3705
823.55	3736
823.69	3717
823.83	3751
823.97	3671
824.11	3625
824.25	3606
824.389	3633
824.529	3675
824.669	3679
824.809	3755
824.949	3778
825.089	3747
825.228	3694
825.368	3587
825.508	3564
825.648	3606
825.787	3625
825.927	3644
826.067	3663
826.206	3686
826.346	3804
826.485	3846
826.625	3884
826.765	3899
826.904	3850
827.044	3614
827.183	3519
827.323	3462
827.462	3477
827.601	3401
827.741	3431
827.88	3458
828.02	3393
828.159	3435
828.298	3447
828.437	3507
828.577	3481
828.716	3580
828.855	3523
828.994	3363
829.134	3367
829.273	3374
829.412	3367
829.551	3348
829.69	3382
829.829	3435
829.968	3553
830.107	3431
830.246	3428
830.385	3393
830.524	3344
830.663	3298
830.802	3291
830.941	3218
831.08	3199
831.219	3306
831.357	3272
831.496	3409
831.635	3249
831.774	3226
831.913	3203
832.051	3131
832.19	3142
832.329	3222
832.467	3142
832.606	3123
832.744	3195
832.883	3207
833.022	3173
833.16	3260
833.299	3298
833.437	3363
833.576	3416
833.714	3405
833.852	3435
833.991	3462
834.129	3477
834.267	3428
834.406	3416
834.544	3428
834.682	3397
834.821	3416
834.959	3584
835.097	3428
835.235	3538
835.373	3492
835.511	3485
835.65	3443
835.788	3500
835.926	3428
836.064	3359
836.202	3370
836.34	3576
836.478	3614
836.615	3545
836.753	3614
836.891	3682
837.029	3618
837.167	3587
837.305	3603
837.443	3553
837.58	3523
837.718	3614
837.856	3530
837.993	3545
838.131	3584
838.269	3587
838.406	3564
838.544	3587
838.681	3488
838.819	3428
838.956	3428
839.094	3386
839.231	3439
839.369	3500
839.506	3743
839.643	3641
839.781	3504
839.918	3496
840.055	3515
840.193	3504
840.33	3538
840.467	3564
840.604	3633
840.742	3835
840.879	3545
841.016	3584
841.153	3595
841.29	3751
841.427	3667
841.564	3724
841.701	3736
841.838	3724
841.975	3675
842.112	3717
842.249	3629
842.385	3660
842.522	3797
842.659	3682
842.796	3637
842.933	3694
843.069	3701
843.206	3724
843.343	3838
843.479	3785
843.616	3804
843.752	3682
843.889	3713
844.025	3899
844.162	3724
844.298	3854
844.435	3759
844.571	3816
844.708	3896
844.844	4025
844.98	4013
845.117	4048
845.253	3922
845.389	3941
845.525	3998
845.661	3983
845.798	3937
845.934	4029
846.07	3949
846.206	4032
846.342	4124
846.478	4055
846.614	3991
846.75	3983
846.886	3899
847.022	4082
847.158	3972
847.294	4017
847.429	4029
847.565	4002
847.701	4261
847.837	3911
847.972	3911
848.108	3956
848.244	3945
848.379	3846
848.515	3846
848.65	3823
848.786	3861
848.921	3850
849.057	3937
849.192	3930
849.328	3876
849.463	3937
849.598	3880
849.734	3888
849.869	3854
850.004	3797
850.14	3812
850.275	3804
850.41	3766
850.545	3736
850.68	3785
850.815	3835
850.95	3800
851.085	3934
851.22	3880
851.355	3804
851.49	3800
851.625	3766
851.76	3781
851.895	3770
852.03	3751
852.165	3789
852.299	3838
852.434	3922
852.569	3880
852.703	3915
852.838	3972
852.973	4040
853.107	4025
853.242	3865
853.376	3854
853.511	3747
853.645	3880
853.78	3949
853.914	3956
854.048	3884
854.183	3907
854.317	3953
854.451	4097
854.585	3972
854.72	3953
854.854	4017
854.988	3941
855.122	3994
855.256	3892
855.39	4059
855.524	4135
855.658	4097
855.792	4135
855.926	4124
856.06	4173
856.194	4227
856.327	4150
856.461	4131
856.595	4169
856.729	4158
856.862	4242
856.996	4246
857.13	4325
857.263	4371
857.397	4329
857.53	4314
857.664	4352
857.797	4394
857.931	4443
858.064	4402
858.197	4497
858.331	4402
858.464	4367
858.597	4356
858.731	4447
858.864	4470
858.997	4451
859.13	4542
859.263	4535
859.396	4607
859.529	4531
859.662	4500
859.795	4569
859.928	4630
860.061	4656
860.194	4748
860.327	4668
860.46	4694
860.592	4801
860.725	4771
860.858	4763
860.99	4702
861.123	4672
861.256	4672
861.388	4778
861.521	5395
861.653	4729
861.786	4752
861.918	4740
862.05	4771
862.183	4873
862.315	4892
862.447	4919
862.58	4904
862.712	4847
862.844	4782
862.976	4866
863.108	4919
863.24	5162
863.372	4839
863.504	4919
863.636	4927
863.768	4953
863.9	4938
864.032	4965
864.164	4915
864.296	5048
864.428	5052
864.559	5094
864.691	5136
864.823	5109
864.954	5098
865.086	5121
865.217	5147
865.349	5117
865.48	5227
865.612	5227
865.743	5288
865.875	5220
866.006	5178
866.137	5239
866.269	5284
866.4	5239
866.531	5220
866.662	5216
866.793	5284
866.924	5303
867.055	5318
867.186	5391
867.317	5372
867.448	5299
867.579	5406
867.71	5406
867.841	5387
867.972	5455
868.103	5501
868.233	5501
868.364	5497
868.495	5539
868.625	5691
868.756	5767
868.886	5688
869.017	5722
869.147	5828
869.278	5882
869.408	5832
869.539	5821
869.669	5931
869.799	5935
869.929	5961
870.06	6022
870.19	6136
870.32	6194
870.45	6270
870.58	6338
870.71	6399
870.84	6490
870.97	6395
871.1	6418
871.23	6669
871.36	6662
871.489	6684
871.619	6818
871.749	6867
871.879	6920
872.008	7061
872.138	7046
872.267	7027
872.397	6993
872.526	7076
872.656	7069
872.785	7152
872.915	7434
873.044	7480
873.173	7540
873.303	7662
873.432	7715
873.561	7841
873.69	7955
873.819	8046
873.948	8172
874.077	8229
874.206	8347
874.335	8454
874.464	8659
874.593	8887
874.722	8948
874.851	9108
874.979	9249
875.108	9408
875.237	9405
875.365	9488
875.494	9694
875.623	9804
875.751	9800
875.88	9960
876.008	10230
876.136	10280
876.265	10558
876.393	10729
876.521	10714
876.65	10862
876.778	10904
876.906	10805
877.034	10999
877.162	11052
877.29	11178
877.418	11318
877.546	11356
877.674	11497
877.802	11528
877.93	11509
878.058	11539
878.185	11551
878.313	11634
878.441	11775
878.568	11707
878.696	11786
878.824	11786
878.951	11859
879.079	11992
879.206	12167
879.333	12098
879.461	11946
879.588	12140
879.715	12110
879.842	12121
879.97	11999
880.097	11866
880.224	11893
880.351	11950
880.478	11904
880.605	11863
880.732	11897
880.859	11996
880.986	11779
881.112	11935
881.239	11783
881.366	11680
881.493	11600
881.619	11459
881.746	11585
881.872	11509
881.999	11482
882.125	11444
882.252	11547
882.378	11463
882.505	11505
882.631	11406
882.757	11307
882.883	11356
883.01	11242
883.136	11208
883.262	11132
883.388	11086
883.514	11223
883.64	11159
883.766	11162
883.892	10991
884.018	11083
884.143	10987
884.269	11086
884.395	10995
884.52	10733
884.646	10698
884.772	10710
884.897	10637
885.023	10714
885.148	10809
885.274	10656
885.399	10721
885.524	10573
885.65	10710
885.775	10538
885.9	10481
886.025	10615
886.15	10516
886.275	10413
886.4	10428
886.525	10432
886.65	10352
886.775	10421
886.9	10546
887.025	10523
887.149	10329
887.274	10280
887.399	10238
887.523	10169
887.648	10177
887.773	10063
887.897	10150
888.021	10200
888.146	10105
888.27	10261
888.395	10169
888.519	10131
888.643	10207
888.767	10234
888.891	10124
889.015	10112
889.139	10131
889.263	9941
889.387	10093
889.511	10124
889.635	10032
889.759	10055
889.883	9918
890.006	9911
890.13	10059
890.254	10025
890.377	9991
890.501	9934
890.624	9888
890.748	9850
890.871	9785
890.995	9785
891.118	9698
891.241	9800
891.364	9743
891.488	9861
891.611	9770
891.734	9781
891.857	9724
891.98	9698
892.103	9755
892.226	9732
892.349	9751
892.471	9507
892.594	9519
892.717	9648
892.839	9618
892.962	9648
893.085	9591
893.207	9610
893.33	9568
893.452	9481
893.575	9591
893.697	9439
893.819	9576
893.941	9652
894.064	9622
894.186	9485
894.308	9355
894.43	9507
894.552	9603
894.674	9542
894.796	9389
894.918	9439
895.04	9321
895.161	9397
895.283	9420
895.405	9298
895.526	9272
895.648	9336
895.769	9211
895.891	9218
896.012	9268
896.134	9195
896.255	9138
896.376	9150
896.498	9135
896.619	9062
896.74	9036
896.861	9173
896.982	9313
897.103	9313
897.224	9176
897.345	9070
897.466	9036
897.587	9032
897.708	9097
897.828	9017
897.949	8979
898.07	8861
898.19	8880
898.311	8982
898.431	8883
898.552	8963
898.672	8975
898.792	8925
898.913	8891
899.033	8838
899.153	8693
899.273	8659
899.393	8727
899.513	8743
899.633	8788
899.753	8716
899.873	8693
899.993	8727
900.113	8708
900.232	8735
900.352	8629
900.472	8583
900.591	8606
900.711	8651
900.83	8552
900.95	8610
901.069	8670
901.189	8530
901.308	8499
901.427	8408
901.546	8488
901.665	8476
901.784	8507
901.904	8446
902.023	8317
902.141	8168
902.26	8134
902.379	8309
902.498	8202
902.617	8237
902.735	8324
902.854	8301
902.973	8301
903.091	8081
903.21	8153
903.328	8233
903.446	8164
903.565	8153
903.683	8153
903.801	8069
903.919	8115
904.038	8180
904.156	8077
904.274	8134
904.392	7940
904.51	8046
904.627	8039
904.745	8103
904.863	8130
904.981	7936
905.098	7826
905.216	7871
905.334	7917
905.451	7887
905.569	7940
905.686	7955
905.803	7974
905.921	7788
906.038	7894
906.155	7731
906.272	7689
906.389	7769
906.506	7689
906.623	7681
906.74	7586
906.857	7510
906.974	7601
907.091	7628
907.208	7693
907.324	7624
907.441	7540
907.557	7472
907.674	7457
907.79	7438
907.907	7392
908.023	7396
908.139	7430
908.256	7384
908.372	7419
908.488	7335
908.604	7282
908.72	7297
908.836	7259
908.952	7232
909.068	7244
909.184	7297
909.3	7270
909.415	7301
909.531	7270
909.647	7084
909.762	7099
909.878	7065
909.993	7080
910.108	7084
910.224	7076
910.339	7080
910.454	7015
910.57	6993
910.685	6993
910.8	7114
910.915	7168
911.03	7088
911.145	6871
911.259	6859
911.374	6913
911.489	6897
911.604	6821
911.718	6757
911.833	6753
911.947	6654
912.062	6608
912.176	6730
912.291	6684
912.405	6776
912.519	6814
912.633	6802
912.748	6783
912.862	6719
912.976	6631
913.09	6597
913.204	6582
913.318	6639
913.431	6677
913.545	6715
913.659	6757
913.772	6681
913.886	6551
914	6547
914.113	6608
914.226	6654
914.34	6566
914.453	6509
914.566	6639
914.68	6547
914.793	6540
914.906	6399
915.019	6418
915.132	6296
915.245	6380
915.358	6483
915.47	6437
915.583	6452
915.696	6388
915.809	6547
915.921	6555
916.034	6441
916.146	6403
916.259	6399
916.371	6445
916.483	6498
916.595	6395
916.708	6441
916.82	6433
916.932	6376
917.044	6433
917.156	6346
917.268	6338
917.38	6304
917.491	6285
917.603	6327
917.715	6380
917.826	6467
917.938	6292
918.049	6251
918.161	6338
918.272	6414
918.384	6388
918.495	6346
918.606	6254
918.717	6205
918.828	6285
918.939	6277
919.05	6220
919.161	6281
919.272	6095
919.383	6144
919.494	6292
919.604	6369
919.715	6262
919.826	6201
919.936	6258
920.047	6426
920.157	6270
920.267	6467
920.378	6289
920.488	6334
920.598	6429
920.708	6547
920.818	6506
920.928	6483
921.038	6582
921.148	6555
921.258	6311
921.368	6266
921.477	6201
921.587	6163
921.697	6098
921.806	6178
921.916	6144
922.025	5954
922.134	5908
922.244	5889
922.353	5961
922.462	5859
922.571	5817
922.68	5729
922.789	5642
922.898	5745
923.007	5668
923.116	5676
923.224	5649
923.333	5657
923.442	5653
923.55	5596
923.659	5608
923.767	5672
923.876	5570
923.984	5623
924.092	5501
924.201	5589
924.309	5558
924.417	5558
924.525	5440
924.633	5509
924.741	6304
924.849	5349
924.956	5478
925.064	5353
925.172	5360
925.279	5315
925.387	5383
925.494	5307
925.602	5436
925.709	5417
925.816	5311
925.924	5345
926.031	5387
926.138	5311
926.245	5341
926.352	5242
926.459	5299
926.566	5326
926.673	5174
926.779	5136
926.886	5143
926.993	4968
927.099	5003
927.206	4995
927.312	5022
927.419	5045
927.525	4987
927.631	4946
927.737	4923
927.843	4885
927.95	4778
928.056	4850
928.162	4816
928.267	4873
928.373	5387
928.479	4889
928.585	4675
928.69	4843
928.796	4771
928.901	4694
929.007	4596
929.112	4733
929.218	4649
929.323	4618
929.428	4580
929.533	4656
929.638	4535
929.743	4554
929.848	4592
929.953	4462
930.058	4443
930.163	4333
930.267	4348
930.372	4443
930.477	4306
930.581	4481
930.685	4356
930.79	4276
930.894	4303
930.998	4310
931.103	4413
931.207	4116
931.311	4090
931.415	4101
931.519	3964
931.623	3953
