Data from glass_V78500241_2471.txt Node
Date: Wed Sep 01 19:31:37 CST 2021
User: usil
Spectrometer: V785-0024
Trigger mode: 0
Integration Time (sec): 4.000000E-1
Scans to average: 1
Nonlinearity correction enabled: false
Boxcar width: 0
Storing dark spectrum: false
XAxis mode: Wavelengths
Number of Pixels in Spectrum: 1024
>>>>>Begin Spectral Data<<<<<
801.071	3705
801.214	3732
801.356	3701
801.499	3705
801.641	3705
801.783	3759
801.926	3873
802.068	3827
802.211	3842
802.353	3911
802.496	3781
802.638	3876
802.78	3846
802.923	3941
803.065	3865
803.208	3838
803.35	3880
803.492	3922
803.635	3918
803.777	3797
803.919	3896
804.061	4086
804.204	3956
804.346	3922
804.488	3896
804.63	4044
804.773	3975
804.915	4010
805.057	4090
805.199	4010
805.341	4071
805.483	4116
805.626	4090
805.768	4101
805.91	4204
806.052	4238
806.194	4207
806.336	4344
806.478	4162
806.62	4196
806.762	4173
806.904	4249
807.046	4310
807.188	4223
807.33	4158
807.472	4219
807.614	4204
807.756	4246
807.898	4188
808.04	4223
808.182	4299
808.324	4325
808.465	4371
808.607	4383
808.749	4413
808.891	4459
809.033	4546
809.174	4409
809.316	4253
809.458	4261
809.6	4173
809.741	4185
809.883	4139
810.025	4116
810.166	4238
810.308	4230
810.45	4223
810.591	4211
810.733	4253
810.875	4485
811.016	4763
811.158	5170
811.299	5292
811.441	5337
811.582	5071
811.724	4694
811.865	4451
812.007	4432
812.148	4440
812.29	4447
812.431	4417
812.573	4383
812.714	4394
812.855	4440
812.997	4394
813.138	4485
813.279	4398
813.421	4344
813.562	4390
813.703	4329
813.845	4322
813.986	4227
814.127	4219
814.268	4265
814.41	4253
814.551	4299
814.692	4341
814.833	4249
814.974	4276
815.115	4329
815.256	4238
815.397	4223
815.539	4249
815.68	4196
815.821	4219
815.962	4303
816.103	4257
816.244	4280
816.385	4230
816.526	4253
816.666	4223
816.807	4082
816.948	4150
817.089	4173
817.23	4109
817.371	4006
817.512	4051
817.653	4086
817.793	4025
817.934	4025
818.075	4086
818.216	4101
818.356	4086
818.497	4006
818.638	3892
818.778	3899
818.919	3884
819.06	3873
819.2	3899
819.341	3865
819.481	3842
819.622	3880
819.762	3956
819.903	3934
820.043	3838
820.184	3774
820.324	3793
820.465	3880
820.605	3823
820.746	3842
820.886	3797
821.026	3880
821.167	3896
821.307	3922
821.447	3960
821.588	3907
821.728	3915
821.868	3911
822.008	3896
822.149	3850
822.289	3899
822.429	3819
822.569	3732
822.709	3800
822.849	3682
822.99	3709
823.13	3740
823.27	3751
823.41	3713
823.55	3701
823.69	3728
823.83	3736
823.97	3675
824.11	3584
824.25	3591
824.389	3656
824.529	3641
824.669	3564
824.809	3713
824.949	3736
825.089	3751
825.228	3701
825.368	3584
825.508	3557
825.648	3572
825.787	3591
825.927	3644
826.067	3606
826.206	3633
826.346	3797
826.485	3816
826.625	3842
826.765	3930
826.904	3789
827.044	3610
827.183	3542
827.323	3374
827.462	3443
827.601	3450
827.741	3462
827.88	3450
828.02	3340
828.159	3378
828.298	3431
828.437	3507
828.577	3458
828.716	3561
828.855	3477
828.994	3412
829.134	3378
829.273	3363
829.412	3389
829.551	3325
829.69	3355
829.829	3382
829.968	3580
830.107	3412
830.246	3412
830.385	3397
830.524	3340
830.663	3268
830.802	3233
830.941	3207
831.08	3222
831.219	3253
831.357	3260
831.496	3405
831.635	3241
831.774	3199
831.913	3192
832.051	3150
832.19	3138
832.329	3211
832.467	3104
832.606	3100
832.744	3161
832.883	3150
833.022	3165
833.16	3249
833.299	3283
833.437	3340
833.576	3310
833.714	3405
833.852	3393
833.991	3443
834.129	3458
834.267	3439
834.406	3397
834.544	3428
834.682	3359
834.821	3397
834.959	3595
835.097	3405
835.235	3488
835.373	3492
835.511	3500
835.65	3469
835.788	3496
835.926	3370
836.064	3359
836.202	3401
836.34	3530
836.478	3618
836.615	3542
836.753	3568
836.891	3675
837.029	3641
837.167	3603
837.305	3549
837.443	3523
837.58	3485
837.718	3561
837.856	3530
837.993	3561
838.131	3568
838.269	3606
838.406	3568
838.544	3561
838.681	3466
838.819	3416
838.956	3378
839.094	3378
839.231	3431
839.369	3526
839.506	3766
839.643	3625
839.781	3523
839.918	3477
840.055	3519
840.193	3523
840.33	3530
840.467	3534
840.604	3549
840.742	3804
840.879	3534
841.016	3507
841.153	3603
841.29	3740
841.427	3663
841.564	3709
841.701	3759
841.838	3713
841.975	3686
842.112	3705
842.249	3629
842.385	3599
842.522	3827
842.659	3660
842.796	3629
842.933	3728
843.069	3686
843.206	3728
843.343	3842
843.479	3747
843.616	3766
843.752	3679
843.889	3667
844.025	3869
844.162	3709
844.298	3861
844.435	3812
844.571	3774
844.708	3876
844.844	3941
844.98	4051
845.117	4021
845.253	3953
845.389	3888
845.525	3972
845.661	3953
845.798	3892
845.934	3983
846.07	3930
846.206	4048
846.342	4078
846.478	4090
846.614	3991
846.75	3953
846.886	3930
847.022	3998
847.158	3941
847.294	3975
847.429	3991
847.565	3994
847.701	4196
847.837	3850
847.972	3819
848.108	3987
848.244	3979
848.379	3850
848.515	3789
848.65	3781
848.786	3804
848.921	3861
849.057	3869
849.192	3918
849.328	3926
849.463	3888
849.598	3876
849.734	3873
849.869	3819
850.004	3789
850.14	3827
850.275	3797
850.41	3743
850.545	3770
850.68	3762
850.815	3728
850.95	3766
851.085	3968
851.22	3857
851.355	3873
851.49	3732
851.625	3808
851.76	3797
851.895	3720
852.03	3717
852.165	3797
852.299	3854
852.434	3880
852.569	3907
852.703	3831
852.838	3930
852.973	4025
853.107	3975
853.242	3922
853.376	3854
853.511	3713
853.645	3857
853.78	4010
853.914	3926
854.048	3888
854.183	3930
854.317	3930
854.451	4025
854.585	3975
854.72	3930
854.854	4078
854.988	3918
855.122	3987
855.256	3903
855.39	4074
855.524	4124
855.658	4090
855.792	4093
855.926	4101
856.06	4112
856.194	4207
856.327	4112
856.461	4109
856.595	4086
856.729	4196
856.862	4295
856.996	4272
857.13	4318
857.263	4341
857.397	4344
857.53	4284
857.664	4341
857.797	4394
857.931	4409
858.064	4413
858.197	4440
858.331	4329
858.464	4383
858.597	4348
858.731	4402
858.864	4413
858.997	4436
859.13	4466
859.263	4508
859.396	4607
859.529	4470
859.662	4527
859.795	4466
859.928	4599
860.061	4698
860.194	4694
860.327	4607
860.46	4626
860.592	4778
860.725	4729
860.858	4809
860.99	4687
861.123	4645
861.256	4675
861.388	4793
861.521	5512
861.653	4694
861.786	4649
861.918	4691
862.05	4809
862.183	4801
862.315	4892
862.447	4915
862.58	4873
862.712	4774
862.844	4752
862.976	4862
863.108	4877
863.24	5170
863.372	4809
863.504	4934
863.636	4889
863.768	4949
863.9	4934
864.032	4908
864.164	4923
864.296	5018
864.428	5094
864.559	5159
864.691	5090
864.823	5086
864.954	5102
865.086	5060
865.217	5105
865.349	5113
865.48	5143
865.612	5189
865.743	5239
865.875	5223
866.006	5208
866.137	5181
866.269	5201
866.4	5227
866.531	5189
866.662	5216
866.793	5246
866.924	5322
867.055	5334
867.186	5284
867.317	5284
867.448	5269
867.579	5345
867.71	5341
867.841	5368
867.972	5425
868.103	5444
868.233	5512
868.364	5482
868.495	5547
868.625	5661
868.756	5722
868.886	5646
869.017	5695
869.147	5844
869.278	5824
869.408	5786
869.539	5817
869.669	5897
869.799	5954
869.929	5954
870.06	6003
870.19	6213
870.32	6159
870.45	6235
870.58	6327
870.71	6414
870.84	6418
870.97	6414
871.1	6403
871.23	6608
871.36	6669
871.489	6650
871.619	6665
871.749	6818
871.879	6840
872.008	7012
872.138	6954
872.267	7046
872.397	7015
872.526	6993
872.656	7129
872.785	7175
872.915	7343
873.044	7510
873.173	7529
873.303	7613
873.432	7795
873.561	7879
873.69	7898
873.819	7967
873.948	8157
874.077	8313
874.206	8290
874.335	8438
874.464	8659
874.593	8830
874.722	8941
874.851	9119
874.979	9226
875.108	9336
875.237	9443
875.365	9500
875.494	9633
875.623	9800
875.751	9819
875.88	10017
876.008	10074
876.136	10238
876.265	10561
876.393	10649
876.521	10733
876.65	10801
876.778	10812
876.906	10835
877.034	10930
877.162	11029
877.29	11113
877.418	11360
877.546	11284
877.674	11497
877.802	11421
877.93	11486
878.058	11497
878.185	11570
878.313	11676
878.441	11688
878.568	11551
878.696	11786
878.824	11870
878.951	11901
879.079	12007
879.206	12064
879.333	12064
879.461	12003
879.588	12106
879.715	12072
879.842	12197
879.97	12125
880.097	11882
880.224	11855
880.351	11824
880.478	11897
880.605	11840
880.732	11821
880.859	12045
880.986	11866
881.112	11863
881.239	11646
881.366	11695
881.493	11623
881.619	11566
881.746	11604
881.872	11532
881.999	11425
882.125	11455
882.252	11558
882.378	11467
882.505	11543
882.631	11353
882.757	11299
882.883	11372
883.01	11258
883.136	11242
883.262	11136
883.388	11064
883.514	11105
883.64	11239
883.766	11155
883.892	10980
884.018	10946
884.143	11037
884.269	11128
884.395	10843
884.52	10755
884.646	10771
884.772	10740
884.897	10717
885.023	10653
885.148	10778
885.274	10771
885.399	10691
885.524	10542
885.65	10615
885.775	10519
885.9	10656
886.025	10618
886.15	10615
886.275	10455
886.4	10363
886.525	10398
886.65	10322
886.775	10337
886.9	10481
887.025	10497
887.149	10261
887.274	10211
887.399	10109
887.523	10211
887.648	10150
887.773	10093
887.897	10257
888.021	10166
888.146	10090
888.27	10257
888.395	10192
888.519	10185
888.643	10166
888.767	10215
888.891	10059
889.015	10032
889.139	10010
889.263	9998
889.387	10063
889.511	10063
889.635	10048
889.759	9918
889.883	9983
890.006	10025
890.13	10124
890.254	9979
890.377	9975
890.501	9797
890.624	9895
890.748	9964
890.871	9846
890.995	9793
891.118	9713
891.241	9736
891.364	9736
891.488	9873
891.611	9709
891.734	9747
891.857	9728
891.98	9736
892.103	9850
892.226	9709
892.349	9641
892.471	9568
892.594	9610
892.717	9595
892.839	9584
892.962	9587
893.085	9682
893.207	9580
893.33	9500
893.452	9469
893.575	9576
893.697	9496
893.819	9667
893.941	9656
894.064	9564
894.186	9416
894.308	9405
894.43	9523
894.552	9564
894.674	9488
894.796	9332
894.918	9420
895.04	9310
895.161	9386
895.283	9359
895.405	9230
895.526	9211
895.648	9279
895.769	9249
895.891	9268
896.012	9253
896.134	9184
896.255	9131
896.376	9123
896.498	9081
896.619	9123
896.74	9001
896.861	9119
896.982	9272
897.103	9226
897.224	9138
897.345	9009
897.466	8948
897.587	9032
897.708	9100
897.828	9013
897.949	8921
898.07	8868
898.19	8906
898.311	9058
898.431	8895
898.552	8986
898.672	8960
898.792	8887
898.913	8845
899.033	8845
899.153	8716
899.273	8621
899.393	8705
899.513	8746
899.633	8644
899.753	8678
899.873	8724
899.993	8727
900.113	8724
900.232	8788
900.352	8674
900.472	8598
900.591	8518
900.711	8598
900.83	8526
900.95	8731
901.069	8678
901.189	8541
901.308	8408
901.427	8358
901.546	8358
901.665	8503
901.784	8495
901.904	8393
902.023	8309
902.141	8263
902.26	8240
902.379	8256
902.498	8218
902.617	8180
902.735	8240
902.854	8259
902.973	8233
903.091	8130
903.21	8142
903.328	8153
903.446	8100
903.565	8031
903.683	8084
903.801	8111
903.919	8084
904.038	8164
904.156	8008
904.274	8012
904.392	8039
904.51	8016
904.627	8024
904.745	8050
904.863	8069
904.981	7944
905.098	7860
905.216	7902
905.334	7894
905.451	7856
905.569	7830
905.686	7887
905.803	7913
905.921	7772
906.038	7902
906.155	7811
906.272	7776
906.389	7731
906.506	7590
906.623	7563
906.74	7597
906.857	7556
906.974	7552
907.091	7677
907.208	7708
907.324	7575
907.441	7518
907.557	7419
907.674	7445
907.79	7403
907.907	7415
908.023	7449
908.139	7472
908.256	7400
908.372	7369
908.488	7346
908.604	7190
908.72	7228
908.836	7198
908.952	7221
909.068	7221
909.184	7305
909.3	7274
909.415	7331
909.531	7305
909.647	7183
909.762	7046
909.878	7122
909.993	7171
910.108	7057
910.224	7114
910.339	7023
910.454	7034
910.57	7023
910.685	6989
910.8	7133
910.915	7053
911.03	7042
911.145	6920
911.259	6844
911.374	6859
911.489	6802
911.604	6795
911.718	6722
911.833	6768
911.947	6692
912.062	6608
912.176	6700
912.291	6730
912.405	6688
912.519	6825
912.633	6844
912.748	6768
912.862	6696
912.976	6601
913.09	6582
913.204	6601
913.318	6547
913.431	6631
913.545	6608
913.659	6730
913.772	6639
913.886	6566
914	6528
914.113	6582
914.226	6627
914.34	6608
914.453	6437
914.566	6570
914.68	6486
914.793	6513
914.906	6380
915.019	6410
915.132	6395
915.245	6456
915.358	6384
915.47	6376
915.583	6452
915.696	6460
915.809	6544
915.921	6498
916.034	6410
916.146	6388
916.259	6372
916.371	6452
916.483	6422
916.595	6429
916.708	6399
916.82	6369
916.932	6361
917.044	6388
917.156	6296
917.268	6258
917.38	6315
917.491	6315
917.603	6338
917.715	6391
917.826	6407
917.938	6296
918.049	6258
918.161	6346
918.272	6391
918.384	6357
918.495	6304
918.606	6258
918.717	6159
918.828	6262
918.939	6285
919.05	6247
919.161	6232
919.272	6068
919.383	6144
919.494	6258
919.604	6376
919.715	6285
919.826	6262
919.936	6243
920.047	6323
920.157	6285
920.267	6429
920.378	6346
920.488	6311
920.598	6418
920.708	6578
920.818	6448
920.928	6490
921.038	6589
921.148	6566
921.258	6357
921.368	6315
921.477	6243
921.587	6247
921.697	6068
921.806	6129
921.916	6072
922.025	5988
922.134	5866
922.244	5893
922.353	5851
922.462	5824
922.571	5752
922.68	5668
922.789	5710
922.898	5707
923.007	5638
923.116	5688
923.224	5707
923.333	5672
923.442	5604
923.55	5589
923.659	5581
923.767	5672
923.876	5585
923.984	5604
924.092	5512
924.201	5547
924.309	5535
924.417	5497
924.525	5433
924.633	5474
924.741	6148
924.849	5364
924.956	5463
925.064	5341
925.172	5288
925.279	5311
925.387	5353
925.494	5349
925.602	5421
925.709	5421
925.816	5223
925.924	5307
926.031	5349
926.138	5376
926.245	5357
926.352	5174
926.459	5292
926.566	5284
926.673	5212
926.779	5121
926.886	5140
926.993	5045
927.099	4934
927.206	4892
927.312	4965
927.419	4972
927.525	4949
927.631	4938
927.737	4927
927.843	4889
927.95	4767
928.056	4786
928.162	4812
928.267	4854
928.373	5216
928.479	4862
928.585	4672
928.69	4774
928.796	4752
928.901	4740
929.007	4592
929.112	4660
929.218	4641
929.323	4622
929.428	4569
929.533	4702
929.638	4478
929.743	4508
929.848	4516
929.953	4535
930.058	4402
930.163	4310
930.267	4352
930.372	4402
930.477	4318
930.581	4455
930.685	4379
930.79	4249
930.894	4272
930.998	4215
931.103	4421
931.207	4112
931.311	4071
931.415	4059
931.519	3926
931.623	3918
