Data from glass_V78500241_1697.txt Node
Date: Wed Sep 01 19:26:15 CST 2021
User: usil
Spectrometer: V785-0024
Trigger mode: 0
Integration Time (sec): 4.000000E-1
Scans to average: 1
Nonlinearity correction enabled: false
Boxcar width: 0
Storing dark spectrum: false
XAxis mode: Wavelengths
Number of Pixels in Spectrum: 1024
>>>>>Begin Spectral Data<<<<<
801.071	3732
801.214	3728
801.356	3717
801.499	3732
801.641	3751
801.783	3774
801.926	3892
802.068	3816
802.211	3854
802.353	3876
802.496	3861
802.638	3861
802.78	3911
802.923	3964
803.065	3915
803.208	3865
803.35	3884
803.492	3918
803.635	3880
803.777	3819
803.919	3892
804.061	4207
804.204	3979
804.346	3941
804.488	3911
804.63	4017
804.773	3953
804.915	3987
805.057	4185
805.199	4059
805.341	4101
805.483	4131
805.626	4131
805.768	4120
805.91	4242
806.052	4284
806.194	4227
806.336	4318
806.478	4200
806.62	4147
806.762	4242
806.904	4284
807.046	4360
807.188	4196
807.33	4207
807.472	4257
807.614	4177
807.756	4257
807.898	4223
808.04	4257
808.182	4265
808.324	4322
808.465	4409
808.607	4489
808.749	4489
808.891	4466
809.033	4542
809.174	4443
809.316	4242
809.458	4234
809.6	4173
809.741	4131
809.883	4086
810.025	4188
810.166	4196
810.308	4249
810.45	4200
810.591	4238
810.733	4257
810.875	4569
811.016	4835
811.158	5124
811.299	5223
811.441	5227
811.582	5102
811.724	4679
811.865	4481
812.007	4512
812.148	4462
812.29	4398
812.431	4394
812.573	4379
812.714	4356
812.855	4390
812.997	4394
813.138	4504
813.279	4440
813.421	4394
813.562	4383
813.703	4344
813.845	4322
813.986	4234
814.127	4253
814.268	4257
814.41	4272
814.551	4268
814.692	4325
814.833	4265
814.974	4284
815.115	4325
815.256	4272
815.397	4211
815.539	4219
815.68	4204
815.821	4246
815.962	4310
816.103	4268
816.244	4242
816.385	4227
816.526	4276
816.666	4181
816.807	4067
816.948	4154
817.089	4204
817.23	4120
817.371	4048
817.512	4029
817.653	4067
817.793	4032
817.934	4013
818.075	4112
818.216	4067
818.356	4090
818.497	3975
818.638	3865
818.778	3956
818.919	3869
819.06	3838
819.2	3926
819.341	3865
819.481	3838
819.622	3888
819.762	3983
819.903	3960
820.043	3899
820.184	3892
820.324	3812
820.465	3865
820.605	3888
820.746	3857
820.886	3774
821.026	3937
821.167	3911
821.307	3960
821.447	3983
821.588	3915
821.728	3983
821.868	3903
822.008	3850
822.149	3934
822.289	3934
822.429	3816
822.569	3770
822.709	3827
822.849	3694
822.99	3713
823.13	3743
823.27	3793
823.41	3740
823.55	3705
823.69	3759
823.83	3720
823.97	3701
824.11	3629
824.25	3580
824.389	3641
824.529	3701
824.669	3587
824.809	3724
824.949	3728
825.089	3743
825.228	3694
825.368	3610
825.508	3538
825.648	3549
825.787	3610
825.927	3610
826.067	3637
826.206	3698
826.346	3808
826.485	3816
826.625	3831
826.765	3911
826.904	3873
827.044	3591
827.183	3549
827.323	3424
827.462	3466
827.601	3424
827.741	3405
827.88	3469
828.02	3401
828.159	3466
828.298	3496
828.437	3523
828.577	3458
828.716	3584
828.855	3485
828.994	3405
829.134	3405
829.273	3412
829.412	3351
829.551	3332
829.69	3405
829.829	3420
829.968	3515
830.107	3477
830.246	3443
830.385	3405
830.524	3374
830.663	3336
830.802	3226
830.941	3199
831.08	3211
831.219	3237
831.357	3264
831.496	3405
831.635	3260
831.774	3192
831.913	3203
832.051	3100
832.19	3180
832.329	3211
832.467	3169
832.606	3112
832.744	3188
832.883	3154
833.022	3165
833.16	3192
833.299	3287
833.437	3325
833.576	3359
833.714	3397
833.852	3439
833.991	3447
834.129	3450
834.267	3431
834.406	3454
834.544	3401
834.682	3405
834.821	3386
834.959	3557
835.097	3389
835.235	3568
835.373	3500
835.511	3523
835.65	3492
835.788	3473
835.926	3382
836.064	3389
836.202	3409
836.34	3572
836.478	3618
836.615	3534
836.753	3538
836.891	3641
837.029	3572
837.167	3618
837.305	3587
837.443	3564
837.58	3500
837.718	3618
837.856	3545
837.993	3568
838.131	3633
838.269	3591
838.406	3614
838.544	3587
838.681	3435
838.819	3420
838.956	3405
839.094	3416
839.231	3450
839.369	3500
839.506	3667
839.643	3629
839.781	3523
839.918	3477
840.055	3534
840.193	3553
840.33	3515
840.467	3534
840.604	3603
840.742	3789
840.879	3572
841.016	3542
841.153	3584
841.29	3755
841.427	3743
841.564	3728
841.701	3709
841.838	3694
841.975	3637
842.112	3679
842.249	3641
842.385	3663
842.522	3835
842.659	3682
842.796	3641
842.933	3709
843.069	3671
843.206	3728
843.343	3827
843.479	3808
843.616	3823
843.752	3660
843.889	3686
844.025	3838
844.162	3679
844.298	3857
844.435	3808
844.571	3770
844.708	3930
844.844	4010
844.98	4025
845.117	3987
845.253	3930
845.389	3869
845.525	3941
845.661	3953
845.798	3926
845.934	3975
846.07	4006
846.206	4010
846.342	4128
846.478	4082
846.614	3945
846.75	3949
846.886	3953
847.022	4010
847.158	3983
847.294	4013
847.429	4029
847.565	3994
847.701	4242
847.837	3922
847.972	3915
848.108	3983
848.244	3983
848.379	3846
848.515	3781
848.65	3823
848.786	3869
848.921	3880
849.057	3934
849.192	3934
849.328	3918
849.463	3915
849.598	3850
849.734	3819
849.869	3781
850.004	3770
850.14	3819
850.275	3793
850.41	3762
850.545	3759
850.68	3800
850.815	3766
850.95	3785
851.085	3998
851.22	3869
851.355	3857
851.49	3816
851.625	3800
851.76	3827
851.895	3736
852.03	3732
852.165	3778
852.299	3842
852.434	3934
852.569	3926
852.703	3918
852.838	3930
852.973	3979
853.107	4013
853.242	3915
853.376	3808
853.511	3724
853.645	3842
853.78	3953
853.914	3937
854.048	3880
854.183	3846
854.317	3937
854.451	4059
854.585	3945
854.72	3926
854.854	4048
854.988	3945
855.122	4006
855.256	3876
855.39	3983
855.524	4112
855.658	4097
855.792	4112
855.926	4131
856.06	4116
856.194	4211
856.327	4112
856.461	4162
856.595	4166
856.729	4173
856.862	4272
856.996	4257
857.13	4291
857.263	4322
857.397	4363
857.53	4299
857.664	4390
857.797	4390
857.931	4409
858.064	4379
858.197	4428
858.331	4405
858.464	4371
858.597	4306
858.731	4428
858.864	4481
858.997	4478
859.13	4516
859.263	4538
859.396	4622
859.529	4485
859.662	4527
859.795	4550
859.928	4611
860.061	4714
860.194	4710
860.327	4675
860.46	4664
860.592	4729
860.725	4774
860.858	4725
860.99	4702
861.123	4698
861.256	4721
861.388	4793
861.521	5444
861.653	4717
861.786	4702
861.918	4774
862.05	4839
862.183	4816
862.315	4911
862.447	4938
862.58	4911
862.712	4790
862.844	4744
862.976	4885
863.108	4900
863.24	5242
863.372	4847
863.504	4923
863.636	4911
863.768	4980
863.9	5003
864.032	4949
864.164	4965
864.296	5018
864.428	5086
864.559	5132
864.691	5098
864.823	5155
864.954	5098
865.086	5204
865.217	5094
865.349	5083
865.48	5166
865.612	5151
865.743	5292
865.875	5170
866.006	5178
866.137	5208
866.269	5242
866.4	5212
866.531	5235
866.662	5231
866.793	5273
866.924	5296
867.055	5357
867.186	5315
867.317	5318
867.448	5318
867.579	5368
867.71	5376
867.841	5402
867.972	5490
868.103	5455
868.233	5425
868.364	5528
868.495	5539
868.625	5649
868.756	5760
868.886	5672
869.017	5718
869.147	5863
869.278	5923
869.408	5828
869.539	5805
869.669	5901
869.799	5923
869.929	5980
870.06	5984
870.19	6163
870.32	6155
870.45	6254
870.58	6391
870.71	6483
870.84	6433
870.97	6403
871.1	6475
871.23	6631
871.36	6684
871.489	6627
871.619	6745
871.749	6760
871.879	6852
872.008	7004
872.138	7019
872.267	6973
872.397	6985
872.526	6989
872.656	7137
872.785	7263
872.915	7350
873.044	7521
873.173	7605
873.303	7651
873.432	7757
873.561	7856
873.69	7849
873.819	8024
873.948	8195
874.077	8248
874.206	8286
874.335	8473
874.464	8663
874.593	8876
874.722	8914
874.851	9127
874.979	9241
875.108	9389
875.237	9439
875.365	9401
875.494	9682
875.623	9797
875.751	9842
875.88	9922
876.008	10128
876.136	10265
876.265	10523
876.393	10691
876.521	10668
876.65	10831
876.778	10869
876.906	10915
877.034	10862
877.162	11201
877.29	11166
877.418	11277
877.546	11360
877.674	11429
877.802	11410
877.93	11501
878.058	11665
878.185	11608
878.313	11627
878.441	11824
878.568	11703
878.696	11813
878.824	11897
878.951	11866
879.079	11999
879.206	12110
879.333	12011
879.461	11973
879.588	11999
879.715	12041
879.842	12178
879.97	12121
880.097	11748
880.224	11889
880.351	11893
880.478	11961
880.605	11885
880.732	11885
880.859	11889
880.986	11824
881.112	11821
881.239	11653
881.366	11615
881.493	11634
881.619	11509
881.746	11600
881.872	11570
881.999	11448
882.125	11493
882.252	11615
882.378	11497
882.505	11524
882.631	11448
882.757	11246
882.883	11303
883.01	11201
883.136	11128
883.262	11098
883.388	11117
883.514	11170
883.64	11227
883.766	11124
883.892	11067
884.018	10980
884.143	10984
884.269	11166
884.395	10778
884.52	10755
884.646	10744
884.772	10717
884.897	10637
885.023	10687
885.148	10721
885.274	10717
885.399	10702
885.524	10618
885.65	10569
885.775	10603
885.9	10504
886.025	10599
886.15	10504
886.275	10538
886.4	10440
886.525	10394
886.65	10402
886.775	10284
886.9	10508
887.025	10535
887.149	10310
887.274	10265
887.399	10150
887.523	10181
887.648	10135
887.773	10139
887.897	10306
888.021	10234
888.146	10120
888.27	10238
888.395	10169
888.519	10265
888.643	10158
888.767	10128
888.891	10090
889.015	9945
889.139	10021
889.263	10002
889.387	10067
889.511	10135
889.635	10086
889.759	9945
889.883	9987
890.006	9949
890.13	10101
890.254	9922
890.377	9941
890.501	9819
890.624	9835
890.748	9937
890.871	9861
890.995	9770
891.118	9736
891.241	9835
891.364	9759
891.488	9838
891.611	9778
891.734	9736
891.857	9755
891.98	9766
892.103	9800
892.226	9682
892.349	9694
892.471	9507
892.594	9606
892.717	9648
892.839	9557
892.962	9663
893.085	9686
893.207	9576
893.33	9504
893.452	9526
893.575	9637
893.697	9473
893.819	9614
893.941	9652
894.064	9534
894.186	9435
894.308	9435
894.43	9515
894.552	9538
894.674	9564
894.796	9393
894.918	9363
895.04	9321
895.161	9382
895.283	9283
895.405	9283
895.526	9249
895.648	9230
895.769	9275
895.891	9260
896.012	9279
896.134	9203
896.255	9226
896.376	9070
896.498	9218
896.619	9131
896.74	9047
896.861	9100
896.982	9245
897.103	9291
897.224	9123
897.345	9047
897.466	9039
897.587	9013
897.708	9089
897.828	9047
897.949	8891
898.07	8880
898.19	8880
898.311	9051
898.431	8921
898.552	8925
898.672	8902
898.792	8925
898.913	8914
899.033	8819
899.153	8708
899.273	8648
899.393	8746
899.513	8781
899.633	8697
899.753	8705
899.873	8697
899.993	8788
900.113	8708
900.232	8731
900.352	8629
900.472	8571
900.591	8556
900.711	8621
900.83	8503
900.95	8632
901.069	8731
901.189	8575
901.308	8492
901.427	8374
901.546	8457
901.665	8442
901.784	8473
901.904	8408
902.023	8309
902.141	8237
902.26	8210
902.379	8240
902.498	8202
902.617	8206
902.735	8347
902.854	8282
902.973	8221
903.091	8153
903.21	8149
903.328	8130
903.446	8123
903.565	8084
903.683	8081
903.801	8016
903.919	8058
904.038	8149
904.156	7993
904.274	8088
904.392	8039
904.51	8069
904.627	7989
904.745	8088
904.863	8130
904.981	7864
905.098	7849
905.216	7951
905.334	7963
905.451	7925
905.569	7822
905.686	7890
905.803	7921
905.921	7811
906.038	7841
906.155	7788
906.272	7677
906.389	7753
906.506	7651
906.623	7662
906.74	7620
906.857	7518
906.974	7548
907.091	7677
907.208	7712
907.324	7601
907.441	7525
907.557	7457
907.674	7407
907.79	7457
907.907	7400
908.023	7464
908.139	7426
908.256	7441
908.372	7381
908.488	7320
908.604	7255
908.72	7255
908.836	7236
908.952	7209
909.068	7221
909.184	7312
909.3	7266
909.415	7308
909.531	7285
909.647	7038
909.762	7099
909.878	7095
909.993	7107
910.108	7122
910.224	7107
910.339	7091
910.454	7084
910.57	7031
910.685	6951
910.8	7160
910.915	7095
911.03	7057
911.145	6848
911.259	6882
911.374	6882
911.489	6840
911.604	6821
911.718	6669
911.833	6764
911.947	6684
912.062	6677
912.176	6684
912.291	6715
912.405	6681
912.519	6772
912.633	6837
912.748	6715
912.862	6730
912.976	6631
913.09	6536
913.204	6604
913.318	6604
913.431	6589
913.545	6650
913.659	6700
913.772	6673
913.886	6627
914	6578
914.113	6623
914.226	6623
914.34	6589
914.453	6475
914.566	6650
914.68	6490
914.793	6585
914.906	6422
915.019	6460
915.132	6357
915.245	6426
915.358	6490
915.47	6433
915.583	6414
915.696	6479
915.809	6471
915.921	6540
916.034	6399
916.146	6445
916.259	6380
916.371	6445
916.483	6502
916.595	6384
916.708	6448
916.82	6426
916.932	6372
917.044	6357
917.156	6376
917.268	6391
917.38	6399
917.491	6334
917.603	6391
917.715	6395
917.826	6441
917.938	6350
918.049	6216
918.161	6296
918.272	6391
918.384	6433
918.495	6327
918.606	6281
918.717	6232
918.828	6277
918.939	6281
919.05	6175
919.161	6232
919.272	6171
919.383	6194
919.494	6338
919.604	6399
919.715	6315
919.826	6205
919.936	6281
920.047	6296
920.157	6281
920.267	6460
920.378	6346
920.488	6270
920.598	6475
920.708	6601
920.818	6456
920.928	6467
921.038	6547
921.148	6578
921.258	6292
921.368	6285
921.477	6243
921.587	6197
921.697	6110
921.806	6175
921.916	6076
922.025	5958
922.134	5889
922.244	5931
922.353	5935
922.462	5775
922.571	5844
922.68	5714
922.789	5634
922.898	5707
923.007	5699
923.116	5745
923.224	5668
923.333	5695
923.442	5596
923.55	5573
923.659	5619
923.767	5611
923.876	5581
923.984	5604
924.092	5520
924.201	5551
924.309	5532
924.417	5558
924.525	5516
924.633	5501
924.741	6247
924.849	5368
924.956	5505
925.064	5376
925.172	5337
925.279	5296
925.387	5311
925.494	5330
925.602	5387
925.709	5353
925.816	5334
925.924	5288
926.031	5349
926.138	5307
926.245	5391
926.352	5242
926.459	5345
926.566	5296
926.673	5250
926.779	5121
926.886	5143
926.993	5048
927.099	5067
927.206	4987
927.312	4946
927.419	5018
927.525	4995
927.631	4961
927.737	4889
927.843	4862
927.95	4790
928.056	4870
928.162	4850
928.267	4866
928.373	5357
928.479	4877
928.585	4691
928.69	4793
928.796	4733
928.901	4687
929.007	4603
929.112	4672
929.218	4626
929.323	4542
929.428	4527
929.533	4645
929.638	4508
929.743	4569
929.848	4542
929.953	4527
930.058	4447
930.163	4284
930.267	4356
930.372	4443
930.477	4337
930.581	4508
930.685	4356
930.79	4200
930.894	4287
930.998	4253
931.103	4356
931.207	4162
931.311	4154
931.415	4048
931.519	3934
931.623	3930
