Data from glass_V78500241_1167.txt Node
Date: Wed Sep 01 19:22:35 CST 2021
User: usil
Spectrometer: V785-0024
Trigger mode: 0
Integration Time (sec): 4.000000E-1
Scans to average: 1
Nonlinearity correction enabled: false
Boxcar width: 0
Storing dark spectrum: false
XAxis mode: Wavelengths
Number of Pixels in Spectrum: 1024
>>>>>Begin Spectral Data<<<<<
801.071	3793
801.214	3766
801.356	3682
801.499	3770
801.641	3743
801.783	3808
801.926	3884
802.068	3831
802.211	3857
802.353	3892
802.496	3854
802.638	3857
802.78	3896
802.923	3915
803.065	3922
803.208	3903
803.35	3934
803.492	3896
803.635	3915
803.777	3827
803.919	3918
804.061	4162
804.204	3945
804.346	3964
804.488	3884
804.63	4032
804.773	3979
804.915	4063
805.057	4162
805.199	4044
805.341	4128
805.483	4124
805.626	4147
805.768	4162
805.91	4246
806.052	4249
806.194	4196
806.336	4325
806.478	4204
806.62	4185
806.762	4207
806.904	4299
807.046	4333
807.188	4265
807.33	4211
807.472	4249
807.614	4211
807.756	4246
807.898	4257
808.04	4219
808.182	4291
808.324	4348
808.465	4424
808.607	4447
808.749	4462
808.891	4440
809.033	4470
809.174	4398
809.316	4337
809.458	4253
809.6	4139
809.741	4139
809.883	4211
810.025	4219
810.166	4192
810.308	4249
810.45	4291
810.591	4230
810.733	4306
810.875	4546
811.016	4820
811.158	5090
811.299	5311
811.441	5258
811.582	5094
811.724	4694
811.865	4508
812.007	4447
812.148	4459
812.29	4386
812.431	4432
812.573	4432
812.714	4371
812.855	4436
812.997	4443
813.138	4512
813.279	4402
813.421	4363
813.562	4371
813.703	4371
813.845	4314
813.986	4284
814.127	4261
814.268	4261
814.41	4291
814.551	4261
814.692	4348
814.833	4253
814.974	4333
815.115	4386
815.256	4257
815.397	4268
815.539	4284
815.68	4242
815.821	4181
815.962	4329
816.103	4238
816.244	4246
816.385	4246
816.526	4219
816.666	4215
816.807	4116
816.948	4188
817.089	4188
817.23	4116
817.371	4074
817.512	4090
817.653	4071
817.793	4059
817.934	4032
818.075	4109
818.216	4082
818.356	4124
818.497	3975
818.638	3911
818.778	3884
818.919	3934
819.06	3899
819.2	3918
819.341	3850
819.481	3819
819.622	3903
819.762	4044
819.903	3960
820.043	3857
820.184	3850
820.324	3831
820.465	3922
820.605	3873
820.746	3884
820.886	3827
821.026	3907
821.167	3915
821.307	3994
821.447	3972
821.588	3907
821.728	3934
821.868	3953
822.008	3857
822.149	3896
822.289	3960
822.429	3789
822.569	3751
822.709	3781
822.849	3679
822.99	3736
823.13	3766
823.27	3778
823.41	3740
823.55	3705
823.69	3724
823.83	3759
823.97	3675
824.11	3618
824.25	3641
824.389	3644
824.529	3667
824.669	3622
824.809	3774
824.949	3743
825.089	3743
825.228	3698
825.368	3595
825.508	3564
825.648	3587
825.787	3610
825.927	3660
826.067	3663
826.206	3660
826.346	3781
826.485	3876
826.625	3823
826.765	3979
826.904	3861
827.044	3648
827.183	3553
827.323	3443
827.462	3515
827.601	3420
827.741	3435
827.88	3485
828.02	3397
828.159	3450
828.298	3519
828.437	3534
828.577	3485
828.716	3587
828.855	3485
828.994	3393
829.134	3344
829.273	3405
829.412	3378
829.551	3363
829.69	3393
829.829	3439
829.968	3549
830.107	3447
830.246	3469
830.385	3378
830.524	3359
830.663	3298
830.802	3264
830.941	3214
831.08	3230
831.219	3253
831.357	3241
831.496	3443
831.635	3237
831.774	3188
831.913	3218
832.051	3138
832.19	3150
832.329	3218
832.467	3119
832.606	3108
832.744	3165
832.883	3188
833.022	3214
833.16	3253
833.299	3302
833.437	3291
833.576	3378
833.714	3412
833.852	3443
833.991	3439
834.129	3515
834.267	3420
834.406	3469
834.544	3443
834.682	3416
834.821	3405
834.959	3534
835.097	3458
835.235	3526
835.373	3561
835.511	3485
835.65	3477
835.788	3477
835.926	3363
836.064	3386
836.202	3420
836.34	3580
836.478	3618
836.615	3561
836.753	3584
836.891	3660
837.029	3629
837.167	3603
837.305	3553
837.443	3595
837.58	3549
837.718	3595
837.856	3576
837.993	3530
838.131	3610
838.269	3591
838.406	3572
838.544	3595
838.681	3507
838.819	3477
838.956	3370
839.094	3431
839.231	3420
839.369	3557
839.506	3736
839.643	3660
839.781	3507
839.918	3515
840.055	3485
840.193	3553
840.33	3545
840.467	3534
840.604	3610
840.742	3808
840.879	3553
841.016	3564
841.153	3618
841.29	3766
841.427	3740
841.564	3751
841.701	3785
841.838	3724
841.975	3698
842.112	3747
842.249	3633
842.385	3637
842.522	3797
842.659	3709
842.796	3724
842.933	3762
843.069	3709
843.206	3690
843.343	3823
843.479	3751
843.616	3797
843.752	3675
843.889	3675
844.025	3873
844.162	3709
844.298	3850
844.435	3781
844.571	3755
844.708	3918
844.844	3991
844.98	4021
845.117	4021
845.253	3915
845.389	3873
845.525	3953
845.661	3968
845.798	3949
845.934	3991
846.07	3937
846.206	4071
846.342	4112
846.478	4158
846.614	3968
846.75	3953
846.886	3926
847.022	4029
847.158	3983
847.294	3998
847.429	4025
847.565	4017
847.701	4227
847.837	3899
847.972	3884
848.108	3994
848.244	3994
848.379	3835
848.515	3804
848.65	3838
848.786	3793
848.921	3915
849.057	3987
849.192	3964
849.328	3937
849.463	3956
849.598	3896
849.734	3899
849.869	3899
850.004	3800
850.14	3770
850.275	3793
850.41	3770
850.545	3804
850.68	3762
850.815	3762
850.95	3785
851.085	3991
851.22	3854
851.355	3846
851.49	3842
851.625	3774
851.76	3804
851.895	3740
852.03	3728
852.165	3816
852.299	3865
852.434	3926
852.569	3869
852.703	3930
852.838	3960
852.973	3994
853.107	4006
853.242	3922
853.376	3857
853.511	3816
853.645	3861
853.78	3941
853.914	3896
854.048	3915
854.183	3930
854.317	3983
854.451	4086
854.585	3915
854.72	3899
854.854	4025
854.988	3953
855.122	4036
855.256	3937
855.39	3991
855.524	4120
855.658	4124
855.792	4082
855.926	4143
856.06	4154
856.194	4215
856.327	4147
856.461	4112
856.595	4158
856.729	4188
856.862	4303
856.996	4249
857.13	4291
857.263	4352
857.397	4375
857.53	4265
857.664	4348
857.797	4383
857.931	4402
858.064	4360
858.197	4440
858.331	4443
858.464	4413
858.597	4367
858.731	4394
858.864	4398
858.997	4474
859.13	4500
859.263	4580
859.396	4592
859.529	4538
859.662	4527
859.795	4561
859.928	4592
860.061	4717
860.194	4740
860.327	4664
860.46	4645
860.592	4759
860.725	4828
860.858	4774
860.99	4645
861.123	4645
861.256	4702
861.388	4759
861.521	5383
861.653	4721
861.786	4660
861.918	4740
862.05	4824
862.183	4843
862.315	4904
862.447	4942
862.58	4881
862.712	4793
862.844	4774
862.976	4877
863.108	4839
863.24	5181
863.372	4854
863.504	4927
863.636	4930
863.768	4927
863.9	4987
864.032	4927
864.164	4923
864.296	5067
864.428	5052
864.559	5079
864.691	5128
864.823	5124
864.954	5159
865.086	5117
865.217	5159
865.349	5121
865.48	5113
865.612	5227
865.743	5280
865.875	5189
866.006	5166
866.137	5197
866.269	5231
866.4	5265
866.531	5212
866.662	5227
866.793	5280
866.924	5280
867.055	5387
867.186	5337
867.317	5379
867.448	5318
867.579	5368
867.71	5372
867.841	5364
867.972	5482
868.103	5512
868.233	5433
868.364	5486
868.495	5547
868.625	5710
868.756	5779
868.886	5630
869.017	5775
869.147	5836
869.278	5855
869.408	5821
869.539	5866
869.669	5946
869.799	5950
869.929	5992
870.06	6015
870.19	6228
870.32	6220
870.45	6247
870.58	6353
870.71	6429
870.84	6498
870.97	6418
871.1	6452
871.23	6650
871.36	6715
871.489	6646
871.619	6726
871.749	6764
871.879	6897
872.008	6951
872.138	7019
872.267	7027
872.397	7034
872.526	7034
872.656	7141
872.785	7217
872.915	7346
873.044	7518
873.173	7609
873.303	7658
873.432	7761
873.561	7909
873.69	7959
873.819	8016
873.948	8126
874.077	8252
874.206	8332
874.335	8389
874.464	8632
874.593	8910
874.722	8906
874.851	9184
874.979	9241
875.108	9405
875.237	9428
875.365	9496
875.494	9652
875.623	9808
875.751	9854
875.88	10013
876.008	10071
876.136	10249
876.265	10523
876.393	10687
876.521	10786
876.65	10820
876.778	10942
876.906	10873
877.034	10980
877.162	11155
877.29	11239
877.418	11284
877.546	11383
877.674	11440
877.802	11509
877.93	11524
878.058	11562
878.185	11573
878.313	11661
878.441	11737
878.568	11684
878.696	11832
878.824	11836
878.951	12041
879.079	12148
879.206	12163
879.333	11973
879.461	11996
879.588	12072
879.715	12068
879.842	12315
879.97	12015
880.097	11847
880.224	11790
880.351	11832
880.478	11885
880.605	11802
880.732	11863
880.859	12064
880.986	11790
881.112	11874
881.239	11798
881.366	11653
881.493	11684
881.619	11505
881.746	11581
881.872	11570
881.999	11535
882.125	11512
882.252	11600
882.378	11528
882.505	11608
882.631	11379
882.757	11345
882.883	11288
883.01	11231
883.136	11254
883.262	11223
883.388	11136
883.514	11201
883.64	11242
883.766	11227
883.892	10972
884.018	11029
884.143	10999
884.269	11220
884.395	10793
884.52	10683
884.646	10645
884.772	10771
884.897	10675
885.023	10717
885.148	10767
885.274	10752
885.399	10675
885.524	10637
885.65	10626
885.775	10622
885.9	10588
886.025	10637
886.15	10512
886.275	10542
886.4	10348
886.525	10462
886.65	10322
886.775	10371
886.9	10516
887.025	10550
887.149	10360
887.274	10276
887.399	10139
887.523	10242
887.648	10181
887.773	10173
887.897	10314
888.021	10158
888.146	10207
888.27	10253
888.395	10188
888.519	10158
888.643	10181
888.767	10246
888.891	10131
889.015	9991
889.139	10071
889.263	10002
889.387	10143
889.511	10040
889.635	10154
889.759	9972
889.883	9991
890.006	10025
890.13	10234
890.254	9949
890.377	9880
890.501	9888
890.624	9892
890.748	9915
890.871	9808
890.995	9766
891.118	9717
891.241	9755
891.364	9709
891.488	9774
891.611	9785
891.734	9759
891.857	9778
891.98	9709
892.103	9679
892.226	9724
892.349	9622
892.471	9557
892.594	9644
892.717	9614
892.839	9633
892.962	9576
893.085	9629
893.207	9591
893.33	9545
893.452	9564
893.575	9603
893.697	9488
893.819	9610
893.941	9652
894.064	9599
894.186	9477
894.308	9428
894.43	9534
894.552	9641
894.674	9557
894.796	9443
894.918	9344
895.04	9348
895.161	9416
895.283	9424
895.405	9233
895.526	9279
895.648	9310
895.769	9237
895.891	9203
896.012	9275
896.134	9256
896.255	9256
896.376	9123
896.498	9131
896.619	9142
896.74	9005
896.861	9154
896.982	9268
897.103	9336
897.224	9291
897.345	9036
897.466	9047
897.587	9009
897.708	9154
897.828	9051
897.949	8891
898.07	8857
898.19	8960
898.311	8982
898.431	8883
898.552	8979
898.672	8963
898.792	8975
898.913	8925
899.033	8781
899.153	8686
899.273	8659
899.393	8727
899.513	8781
899.633	8746
899.753	8754
899.873	8739
899.993	8800
900.113	8708
900.232	8708
900.352	8663
900.472	8621
900.591	8530
900.711	8636
900.83	8545
900.95	8648
901.069	8667
901.189	8579
901.308	8412
901.427	8419
901.546	8457
901.665	8457
901.784	8457
901.904	8438
902.023	8362
902.141	8206
902.26	8180
902.379	8294
902.498	8240
902.617	8240
902.735	8370
902.854	8294
902.973	8298
903.091	8180
903.21	8161
903.328	8214
903.446	8069
903.565	8100
903.683	8084
903.801	8065
903.919	8081
904.038	8149
904.156	8065
904.274	8153
904.392	7997
904.51	8081
904.627	8016
904.745	8088
904.863	8039
904.981	7978
905.098	7849
905.216	7890
905.334	7902
905.451	7898
905.569	7913
905.686	7936
905.803	7967
905.921	7784
906.038	7875
906.155	7822
906.272	7704
906.389	7769
906.506	7643
906.623	7609
906.74	7590
906.857	7506
906.974	7563
907.091	7750
907.208	7677
907.324	7597
907.441	7586
907.557	7441
907.674	7460
907.79	7392
907.907	7407
908.023	7453
908.139	7468
908.256	7411
908.372	7373
908.488	7365
908.604	7316
908.72	7255
908.836	7282
908.952	7263
909.068	7209
909.184	7388
909.3	7263
909.415	7240
909.531	7278
909.647	7099
909.762	7103
909.878	7103
909.993	7080
910.108	7103
910.224	7122
910.339	7107
910.454	7000
910.57	6973
910.685	6920
910.8	7206
910.915	7103
911.03	7042
911.145	6943
911.259	6859
911.374	6920
911.489	6886
911.604	6795
911.718	6715
911.833	6760
911.947	6593
912.062	6658
912.176	6726
912.291	6654
912.405	6722
912.519	6833
912.633	6863
912.748	6722
912.862	6719
912.976	6601
913.09	6566
913.204	6635
913.318	6616
913.431	6719
913.545	6696
913.659	6715
913.772	6673
913.886	6555
914	6608
914.113	6620
914.226	6601
914.34	6589
914.453	6528
914.566	6608
914.68	6566
914.793	6528
914.906	6372
915.019	6391
915.132	6365
915.245	6464
915.358	6445
915.47	6380
915.583	6498
915.696	6506
915.809	6578
915.921	6532
916.034	6414
916.146	6395
916.259	6331
916.371	6509
916.483	6448
916.595	6369
916.708	6433
916.82	6414
916.932	6384
917.044	6380
917.156	6441
917.268	6418
917.38	6334
917.491	6285
917.603	6384
917.715	6414
917.826	6437
917.938	6338
918.049	6266
918.161	6407
918.272	6426
918.384	6456
918.495	6281
918.606	6281
918.717	6213
918.828	6311
918.939	6251
919.05	6190
919.161	6247
919.272	6087
919.383	6144
919.494	6311
919.604	6422
919.715	6281
919.826	6247
919.936	6273
920.047	6376
920.157	6289
920.267	6464
920.378	6273
920.488	6296
920.598	6441
920.708	6578
920.818	6456
920.928	6509
921.038	6593
921.148	6585
921.258	6346
921.368	6273
921.477	6239
921.587	6159
921.697	6140
921.806	6205
921.916	6091
922.025	5969
922.134	5912
922.244	5939
922.353	5931
922.462	5828
922.571	5828
922.68	5691
922.789	5737
922.898	5688
923.007	5638
923.116	5707
923.224	5684
923.333	5707
923.442	5558
923.55	5592
923.659	5554
923.767	5646
923.876	5543
923.984	5657
924.092	5539
924.201	5558
924.309	5535
924.417	5524
924.525	5524
924.633	5509
924.741	6285
924.849	5440
924.956	5512
925.064	5364
925.172	5341
925.279	5345
925.387	5330
925.494	5311
925.602	5436
925.709	5406
925.816	5318
925.924	5296
926.031	5341
926.138	5307
926.245	5330
926.352	5201
926.459	5322
926.566	5376
926.673	5216
926.779	5094
926.886	5064
926.993	5014
927.099	5029
927.206	4968
927.312	4938
927.419	4995
927.525	4968
927.631	4987
927.737	4946
927.843	4866
927.95	4812
928.056	4858
928.162	4790
928.267	4797
928.373	5364
928.479	4828
928.585	4759
928.69	4774
928.796	4812
928.901	4679
929.007	4618
929.112	4691
929.218	4683
929.323	4634
929.428	4573
929.533	4679
929.638	4485
929.743	4542
929.848	4569
929.953	4558
930.058	4451
930.163	4375
930.267	4322
930.372	4489
930.477	4348
930.581	4523
930.685	4348
930.79	4242
930.894	4299
930.998	4230
931.103	4348
931.207	4158
931.311	4090
931.415	4063
931.519	3926
931.623	3937
