Data from glass_V78500241_2354.txt Node
Date: Wed Sep 01 19:30:49 CST 2021
User: usil
Spectrometer: V785-0024
Trigger mode: 0
Integration Time (sec): 4.000000E-1
Scans to average: 1
Nonlinearity correction enabled: false
Boxcar width: 0
Storing dark spectrum: false
XAxis mode: Wavelengths
Number of Pixels in Spectrum: 1024
>>>>>Begin Spectral Data<<<<<
801.071	3713
801.214	3751
801.356	3671
801.499	3732
801.641	3724
801.783	3781
801.926	3876
802.068	3808
802.211	3835
802.353	3865
802.496	3850
802.638	3937
802.78	3876
802.923	3915
803.065	3896
803.208	3838
803.35	3831
803.492	3896
803.635	3911
803.777	3808
803.919	3876
804.061	4078
804.204	3979
804.346	3937
804.488	3934
804.63	4059
804.773	3926
804.915	4021
805.057	4143
805.199	4040
805.341	4067
805.483	4169
805.626	4150
805.768	4097
805.91	4177
806.052	4223
806.194	4173
806.336	4314
806.478	4223
806.62	4177
806.762	4196
806.904	4272
807.046	4363
807.188	4200
807.33	4207
807.472	4223
807.614	4200
807.756	4230
807.898	4211
808.04	4207
808.182	4295
808.324	4318
808.465	4356
808.607	4466
808.749	4470
808.891	4440
809.033	4470
809.174	4386
809.316	4268
809.458	4192
809.6	4090
809.741	4128
809.883	4124
810.025	4177
810.166	4215
810.308	4227
810.45	4219
810.591	4192
810.733	4234
810.875	4531
811.016	4816
811.158	5109
811.299	5280
811.441	5326
811.582	5029
811.724	4698
811.865	4455
812.007	4459
812.148	4428
812.29	4379
812.431	4421
812.573	4367
812.714	4356
812.855	4409
812.997	4398
813.138	4508
813.279	4402
813.421	4409
813.562	4371
813.703	4287
813.845	4341
813.986	4268
814.127	4268
814.268	4246
814.41	4325
814.551	4242
814.692	4261
814.833	4265
814.974	4322
815.115	4341
815.256	4265
815.397	4207
815.539	4215
815.68	4207
815.821	4173
815.962	4322
816.103	4265
816.244	4246
816.385	4204
816.526	4253
816.666	4169
816.807	4097
816.948	4181
817.089	4192
817.23	4135
817.371	4040
817.512	4025
817.653	4067
817.793	4010
817.934	4059
818.075	4109
818.216	4051
818.356	4063
818.497	3998
818.638	3945
818.778	3911
818.919	3884
819.06	3861
819.2	3918
819.341	3861
819.481	3861
819.622	3911
819.762	3979
819.903	3949
820.043	3823
820.184	3800
820.324	3842
820.465	3899
820.605	3827
820.746	3854
820.886	3800
821.026	3903
821.167	3911
821.307	3991
821.447	3987
821.588	3964
821.728	3968
821.868	3968
822.008	3835
822.149	3903
822.289	3926
822.429	3740
822.569	3774
822.709	3808
822.849	3690
822.99	3667
823.13	3747
823.27	3789
823.41	3705
823.55	3698
823.69	3694
823.83	3755
823.97	3629
824.11	3603
824.25	3542
824.389	3625
824.529	3648
824.669	3622
824.809	3671
824.949	3789
825.089	3736
825.228	3713
825.368	3576
825.508	3564
825.648	3568
825.787	3618
825.927	3622
826.067	3641
826.206	3701
826.346	3732
826.485	3812
826.625	3823
826.765	3907
826.904	3857
827.044	3599
827.183	3496
827.323	3469
827.462	3485
827.601	3435
827.741	3382
827.88	3469
828.02	3367
828.159	3439
828.298	3477
828.437	3523
828.577	3492
828.716	3572
828.855	3469
828.994	3378
829.134	3348
829.273	3367
829.412	3355
829.551	3336
829.69	3336
829.829	3454
829.968	3485
830.107	3454
830.246	3431
830.385	3344
830.524	3348
830.663	3272
830.802	3264
830.941	3203
831.08	3176
831.219	3249
831.357	3272
831.496	3435
831.635	3249
831.774	3188
831.913	3226
832.051	3093
832.19	3150
832.329	3233
832.467	3146
832.606	3116
832.744	3131
832.883	3180
833.022	3214
833.16	3245
833.299	3332
833.437	3302
833.576	3367
833.714	3378
833.852	3488
833.991	3420
834.129	3431
834.267	3439
834.406	3409
834.544	3389
834.682	3424
834.821	3420
834.959	3568
835.097	3431
835.235	3507
835.373	3515
835.511	3504
835.65	3450
835.788	3500
835.926	3412
836.064	3386
836.202	3401
836.34	3542
836.478	3587
836.615	3534
836.753	3580
836.891	3660
837.029	3580
837.167	3561
837.305	3515
837.443	3515
837.58	3458
837.718	3572
837.856	3561
837.993	3534
838.131	3595
838.269	3564
838.406	3591
838.544	3587
838.681	3424
838.819	3412
838.956	3370
839.094	3382
839.231	3409
839.369	3496
839.506	3732
839.643	3633
839.781	3496
839.918	3424
840.055	3542
840.193	3511
840.33	3519
840.467	3591
840.604	3599
840.742	3766
840.879	3564
841.016	3553
841.153	3545
841.29	3759
841.427	3713
841.564	3690
841.701	3751
841.838	3671
841.975	3671
842.112	3671
842.249	3660
842.385	3580
842.522	3785
842.659	3671
842.796	3686
842.933	3724
843.069	3709
843.206	3660
843.343	3781
843.479	3743
843.616	3800
843.752	3652
843.889	3709
844.025	3892
844.162	3660
844.298	3873
844.435	3774
844.571	3785
844.708	3899
844.844	3972
844.98	4002
845.117	3975
845.253	3953
845.389	3918
845.525	3975
845.661	3964
845.798	3899
845.934	3964
846.07	3941
846.206	4048
846.342	4101
846.478	4044
846.614	3960
846.75	3949
846.886	3922
847.022	4025
847.158	3964
847.294	4002
847.429	4010
847.565	4029
847.701	4242
847.837	3915
847.972	3842
848.108	3964
848.244	3941
848.379	3857
848.515	3797
848.65	3797
848.786	3812
848.921	3876
849.057	3892
849.192	3926
849.328	3892
849.463	3918
849.598	3880
849.734	3865
849.869	3823
850.004	3816
850.14	3785
850.275	3781
850.41	3755
850.545	3717
850.68	3774
850.815	3774
850.95	3778
851.085	3945
851.22	3857
851.355	3827
851.49	3816
851.625	3808
851.76	3835
851.895	3751
852.03	3698
852.165	3793
852.299	3842
852.434	3907
852.569	3838
852.703	3903
852.838	3918
852.973	4010
853.107	3960
853.242	3850
853.376	3823
853.511	3755
853.645	3857
853.78	3956
853.914	3907
854.048	3884
854.183	3888
854.317	3926
854.451	4101
854.585	3975
854.72	3915
854.854	4071
854.988	3907
855.122	3964
855.256	3869
855.39	4029
855.524	4150
855.658	4051
855.792	4090
855.926	4135
856.06	4150
856.194	4169
856.327	4143
856.461	4105
856.595	4135
856.729	4177
856.862	4257
856.996	4253
857.13	4265
857.263	4344
857.397	4310
857.53	4276
857.664	4348
857.797	4356
857.931	4398
858.064	4352
858.197	4489
858.331	4348
858.464	4383
858.597	4325
858.731	4413
858.864	4440
858.997	4451
859.13	4508
859.263	4500
859.396	4569
859.529	4489
859.662	4554
859.795	4523
859.928	4573
860.061	4717
860.194	4725
860.327	4615
860.46	4675
860.592	4752
860.725	4717
860.858	4786
860.99	4725
861.123	4641
861.256	4660
861.388	4759
861.521	5261
861.653	4748
861.786	4733
861.918	4744
862.05	4767
862.183	4774
862.315	4847
862.447	4930
862.58	4843
862.712	4828
862.844	4759
862.976	4854
863.108	4896
863.24	5151
863.372	4774
863.504	4942
863.636	4885
863.768	4930
863.9	4934
864.032	4919
864.164	4942
864.296	4995
864.428	5029
864.559	5102
864.691	5094
864.823	5098
864.954	5166
865.086	5140
865.217	5113
865.349	5079
865.48	5151
865.612	5178
865.743	5261
865.875	5189
866.006	5235
866.137	5235
866.269	5227
866.4	5227
866.531	5223
866.662	5204
866.793	5277
866.924	5277
867.055	5349
867.186	5383
867.317	5337
867.448	5322
867.579	5368
867.71	5357
867.841	5417
867.972	5383
868.103	5429
868.233	5471
868.364	5570
868.495	5532
868.625	5649
868.756	5798
868.886	5672
869.017	5737
869.147	5832
869.278	5904
869.408	5859
869.539	5779
869.669	5866
869.799	5866
869.929	5885
870.06	5984
870.19	6190
870.32	6205
870.45	6239
870.58	6304
870.71	6395
870.84	6441
870.97	6380
871.1	6448
871.23	6608
871.36	6719
871.489	6662
871.619	6700
871.749	6802
871.879	6837
872.008	7015
872.138	6871
872.267	7019
872.397	6951
872.526	7088
872.656	7072
872.785	7198
872.915	7388
873.044	7533
873.173	7491
873.303	7662
873.432	7731
873.561	7830
873.69	7841
873.819	8008
873.948	8168
874.077	8279
874.206	8332
874.335	8469
874.464	8689
874.593	8811
874.722	8838
874.851	9074
874.979	9127
875.108	9363
875.237	9370
875.365	9500
875.494	9690
875.623	9850
875.751	9755
875.88	10044
876.008	10196
876.136	10249
876.265	10443
876.393	10672
876.521	10748
876.65	10774
876.778	10831
876.906	10854
877.034	10976
877.162	11105
877.29	11162
877.418	11303
877.546	11417
877.674	11429
877.802	11452
877.93	11547
878.058	11600
878.185	11509
878.313	11592
878.441	11726
878.568	11665
878.696	11832
878.824	11790
878.951	11950
879.079	12022
879.206	12110
879.333	12083
879.461	11999
879.588	12064
879.715	12019
879.842	12235
879.97	12053
880.097	11965
880.224	11878
880.351	11893
880.478	11889
880.605	11859
880.732	11790
880.859	11935
880.986	11851
881.112	11813
881.239	11809
881.366	11646
881.493	11585
881.619	11608
881.746	11589
881.872	11573
881.999	11436
882.125	11509
882.252	11532
882.378	11467
882.505	11490
882.631	11311
882.757	11296
882.883	11372
883.01	11315
883.136	11098
883.262	11079
883.388	11121
883.514	11208
883.64	11124
883.766	11102
883.892	11022
884.018	10976
884.143	11079
884.269	11113
884.395	10824
884.52	10744
884.646	10755
884.772	10790
884.897	10679
885.023	10683
885.148	10786
885.274	10805
885.399	10721
885.524	10622
885.65	10622
885.775	10584
885.9	10558
886.025	10634
886.15	10637
886.275	10455
886.4	10333
886.525	10440
886.65	10405
886.775	10344
886.9	10432
887.025	10516
887.149	10310
887.274	10230
887.399	10188
887.523	10150
887.648	10135
887.773	10032
887.897	10227
888.021	10177
888.146	10128
888.27	10253
888.395	10173
888.519	10249
888.643	10223
888.767	10158
888.891	10082
889.015	10006
889.139	10051
889.263	9983
889.387	10120
889.511	10040
889.635	9987
889.759	9915
889.883	10059
890.006	10002
890.13	10036
890.254	9907
890.377	9934
890.501	9911
890.624	9819
890.748	9926
890.871	9762
890.995	9823
891.118	9705
891.241	9747
891.364	9698
891.488	9823
891.611	9675
891.734	9641
891.857	9774
891.98	9644
892.103	9724
892.226	9705
892.349	9641
892.471	9568
892.594	9576
892.717	9599
892.839	9587
892.962	9622
893.085	9698
893.207	9561
893.33	9507
893.452	9523
893.575	9618
893.697	9519
893.819	9564
893.941	9641
894.064	9545
894.186	9466
894.308	9397
894.43	9553
894.552	9572
894.674	9526
894.796	9393
894.918	9351
895.04	9443
895.161	9382
895.283	9310
895.405	9272
895.526	9317
895.648	9298
895.769	9192
895.891	9287
896.012	9306
896.134	9237
896.255	9176
896.376	9123
896.498	9127
896.619	9123
896.74	9097
896.861	9070
896.982	9222
897.103	9230
897.224	9119
897.345	9051
897.466	9055
897.587	8982
897.708	9085
897.828	9020
897.949	8937
898.07	8876
898.19	8868
898.311	8990
898.431	8845
898.552	8872
898.672	8998
898.792	8914
898.913	8891
899.033	8735
899.153	8826
899.273	8651
899.393	8705
899.513	8796
899.633	8693
899.753	8708
899.873	8689
899.993	8686
900.113	8701
900.232	8678
900.352	8651
900.472	8571
900.591	8507
900.711	8575
900.83	8526
900.95	8674
901.069	8701
901.189	8579
901.308	8423
901.427	8351
901.546	8461
901.665	8488
901.784	8488
901.904	8393
902.023	8336
902.141	8199
902.26	8218
902.379	8233
902.498	8221
902.617	8214
902.735	8301
902.854	8317
902.973	8206
903.091	8062
903.21	8142
903.328	8180
903.446	8126
903.565	8069
903.683	8115
903.801	8012
903.919	8062
904.038	8187
904.156	7993
904.274	8081
904.392	8058
904.51	8024
904.627	8088
904.745	8062
904.863	8077
904.981	7887
905.098	7837
905.216	7833
905.334	7883
905.451	7898
905.569	7852
905.686	7879
905.803	7936
905.921	7814
906.038	7871
906.155	7841
906.272	7719
906.389	7723
906.506	7575
906.623	7628
906.74	7582
906.857	7556
906.974	7544
907.091	7738
907.208	7727
907.324	7620
907.441	7502
907.557	7445
907.674	7460
907.79	7331
907.907	7331
908.023	7468
908.139	7457
908.256	7358
908.372	7346
908.488	7422
908.604	7263
908.72	7228
908.836	7297
908.952	7217
909.068	7259
909.184	7327
909.3	7209
909.415	7312
909.531	7270
909.647	7065
909.762	7152
909.878	7069
909.993	7080
910.108	7076
910.224	7057
910.339	7114
910.454	7057
910.57	7057
910.685	6924
910.8	7183
910.915	7088
911.03	7038
911.145	6878
911.259	6928
911.374	6875
911.489	6837
911.604	6818
911.718	6700
911.833	6734
911.947	6673
912.062	6654
912.176	6654
912.291	6719
912.405	6631
912.519	6837
912.633	6798
912.748	6764
912.862	6722
912.976	6540
913.09	6536
913.204	6601
913.318	6547
913.431	6696
913.545	6650
913.659	6730
913.772	6654
913.886	6563
914	6494
914.113	6669
914.226	6585
914.34	6540
914.453	6471
914.566	6570
914.68	6460
914.793	6513
914.906	6486
915.019	6361
915.132	6315
915.245	6426
915.358	6456
915.47	6391
915.583	6521
915.696	6456
915.809	6563
915.921	6551
916.034	6403
916.146	6460
916.259	6346
916.371	6445
916.483	6426
916.595	6380
916.708	6399
916.82	6376
916.932	6372
917.044	6361
917.156	6426
917.268	6338
917.38	6369
917.491	6304
917.603	6388
917.715	6369
917.826	6399
917.938	6311
918.049	6243
918.161	6391
918.272	6422
918.384	6445
918.495	6395
918.606	6285
918.717	6213
918.828	6235
918.939	6239
919.05	6167
919.161	6228
919.272	6125
919.383	6167
919.494	6292
919.604	6380
919.715	6270
919.826	6251
919.936	6273
920.047	6338
920.157	6296
920.267	6422
920.378	6311
920.488	6277
920.598	6448
920.708	6589
920.818	6448
920.928	6407
921.038	6608
921.148	6532
921.258	6403
921.368	6251
921.477	6209
921.587	6159
921.697	6087
921.806	6171
921.916	6057
922.025	5935
922.134	5950
922.244	5821
922.353	5923
922.462	5847
922.571	5771
922.68	5718
922.789	5710
922.898	5649
923.007	5615
923.116	5577
923.224	5649
923.333	5653
923.442	5566
923.55	5532
923.659	5604
923.767	5638
923.876	5547
923.984	5619
924.092	5505
924.201	5589
924.309	5558
924.417	5566
924.525	5493
924.633	5467
924.741	6194
924.849	5417
924.956	5444
925.064	5345
925.172	5318
925.279	5299
925.387	5315
925.494	5315
925.602	5376
925.709	5318
925.816	5204
925.924	5311
926.031	5360
926.138	5265
926.245	5303
926.352	5181
926.459	5280
926.566	5292
926.673	5227
926.779	5079
926.886	5098
926.993	4987
927.099	5018
927.206	4965
927.312	4953
927.419	5029
927.525	5006
927.631	4968
927.737	4843
927.843	4843
927.95	4767
928.056	4816
928.162	4782
928.267	4839
928.373	5292
928.479	4866
928.585	4691
928.69	4733
928.796	4778
928.901	4664
929.007	4577
929.112	4622
929.218	4615
929.323	4596
929.428	4527
929.533	4683
929.638	4497
929.743	4554
929.848	4565
929.953	4478
930.058	4409
930.163	4299
930.267	4295
930.372	4405
930.477	4299
930.581	4440
930.685	4383
930.79	4253
930.894	4261
930.998	4272
931.103	4379
931.207	4124
931.311	4093
931.415	4006
931.519	3960
931.623	3922
