Data from glass_V78500241_135.txt Node
Date: Wed Sep 01 19:15:26 CST 2021
User: usil
Spectrometer: V785-0024
Trigger mode: 0
Integration Time (sec): 4.000000E-1
Scans to average: 1
Nonlinearity correction enabled: false
Boxcar width: 0
Storing dark spectrum: false
XAxis mode: Wavelengths
Number of Pixels in Spectrum: 1024
>>>>>Begin Spectral Data<<<<<
801.071	3781
801.214	3762
801.356	3728
801.499	3774
801.641	3747
801.783	3778
801.926	3926
802.068	3835
802.211	3876
802.353	3911
802.496	3880
802.638	3873
802.78	3930
802.923	3968
803.065	3918
803.208	3869
803.35	3857
803.492	3930
803.635	3934
803.777	3850
803.919	3907
804.061	4158
804.204	3994
804.346	3979
804.488	3918
804.63	4017
804.773	3979
804.915	4021
805.057	4139
805.199	4029
805.341	4093
805.483	4162
805.626	4143
805.768	4116
805.91	4272
806.052	4287
806.194	4192
806.336	4383
806.478	4257
806.62	4219
806.762	4223
806.904	4291
807.046	4379
807.188	4253
807.33	4185
807.472	4280
807.614	4219
807.756	4303
807.898	4219
808.04	4238
808.182	4280
808.324	4344
808.465	4363
808.607	4481
808.749	4440
808.891	4474
809.033	4527
809.174	4417
809.316	4215
809.458	4276
809.6	4166
809.741	4147
809.883	4162
810.025	4219
810.166	4249
810.308	4154
810.45	4272
810.591	4234
810.733	4295
810.875	4573
811.016	4854
811.158	5159
811.299	5292
811.441	5284
811.582	5060
811.724	4698
811.865	4504
812.007	4504
812.148	4413
812.29	4447
812.431	4424
812.573	4409
812.714	4367
812.855	4428
812.997	4417
813.138	4500
813.279	4379
813.421	4424
813.562	4383
813.703	4344
813.845	4306
813.986	4299
814.127	4207
814.268	4291
814.41	4280
814.551	4295
814.692	4356
814.833	4295
814.974	4322
815.115	4344
815.256	4246
815.397	4227
815.539	4265
815.68	4215
815.821	4215
815.962	4352
816.103	4295
816.244	4242
816.385	4227
816.526	4249
816.666	4238
816.807	4116
816.948	4196
817.089	4169
817.23	4135
817.371	4078
817.512	4067
817.653	4025
817.793	4032
817.934	4074
818.075	4173
818.216	4082
818.356	4090
818.497	4044
818.638	3945
818.778	3949
818.919	3903
819.06	3903
819.2	3899
819.341	3915
819.481	3884
819.622	3934
819.762	4013
819.903	3964
820.043	3876
820.184	3827
820.324	3846
820.465	3896
820.605	3892
820.746	3880
820.886	3797
821.026	3968
821.167	3945
821.307	4040
821.447	4002
821.588	3975
821.728	3949
821.868	3934
822.008	3876
822.149	3945
822.289	3968
822.429	3793
822.569	3793
822.709	3785
822.849	3698
822.99	3743
823.13	3766
823.27	3808
823.41	3759
823.55	3736
823.69	3713
823.83	3736
823.97	3694
824.11	3652
824.25	3618
824.389	3622
824.529	3728
824.669	3652
824.809	3736
824.949	3766
825.089	3747
825.228	3743
825.368	3591
825.508	3561
825.648	3584
825.787	3599
825.927	3652
826.067	3610
826.206	3633
826.346	3808
826.485	3861
826.625	3876
826.765	3964
826.904	3857
827.044	3656
827.183	3561
827.323	3450
827.462	3519
827.601	3447
827.741	3428
827.88	3454
828.02	3393
828.159	3485
828.298	3488
828.437	3519
828.577	3496
828.716	3644
828.855	3504
828.994	3363
829.134	3367
829.273	3431
829.412	3355
829.551	3363
829.69	3416
829.829	3412
829.968	3519
830.107	3462
830.246	3443
830.385	3367
830.524	3336
830.663	3313
830.802	3283
830.941	3207
831.08	3192
831.219	3294
831.357	3272
831.496	3401
831.635	3245
831.774	3214
831.913	3237
832.051	3154
832.19	3169
832.329	3214
832.467	3188
832.606	3138
832.744	3188
832.883	3169
833.022	3218
833.16	3264
833.299	3310
833.437	3348
833.576	3393
833.714	3409
833.852	3435
833.991	3439
834.129	3458
834.267	3462
834.406	3386
834.544	3416
834.682	3454
834.821	3447
834.959	3568
835.097	3409
835.235	3530
835.373	3500
835.511	3466
835.65	3477
835.788	3500
835.926	3416
836.064	3412
836.202	3435
836.34	3568
836.478	3641
836.615	3587
836.753	3595
836.891	3618
837.029	3648
837.167	3591
837.305	3538
837.443	3538
837.58	3519
837.718	3656
837.856	3572
837.993	3504
838.131	3587
838.269	3606
838.406	3584
838.544	3591
838.681	3462
838.819	3485
838.956	3389
839.094	3431
839.231	3443
839.369	3485
839.506	3766
839.643	3641
839.781	3549
839.918	3450
840.055	3523
840.193	3534
840.33	3534
840.467	3553
840.604	3637
840.742	3770
840.879	3523
841.016	3553
841.153	3599
841.29	3762
841.427	3724
841.564	3766
841.701	3705
841.838	3709
841.975	3663
842.112	3717
842.249	3656
842.385	3652
842.522	3854
842.659	3694
842.796	3701
842.933	3705
843.069	3701
843.206	3705
843.343	3827
843.479	3816
843.616	3831
843.752	3682
843.889	3682
844.025	3873
844.162	3720
844.298	3831
844.435	3835
844.571	3804
844.708	3930
844.844	3975
844.98	4067
845.117	4032
845.253	3972
845.389	3960
845.525	3949
845.661	3994
845.798	3975
845.934	4032
846.07	3918
846.206	4101
846.342	4112
846.478	4055
846.614	4006
846.75	3911
846.886	3896
847.022	4044
847.158	3991
847.294	4006
847.429	4055
847.565	3979
847.701	4257
847.837	3945
847.972	3896
848.108	4055
848.244	3987
848.379	3876
848.515	3831
848.65	3831
848.786	3899
848.921	3918
849.057	3873
849.192	3968
849.328	3907
849.463	3922
849.598	3873
849.734	3873
849.869	3850
850.004	3778
850.14	3827
850.275	3812
850.41	3720
850.545	3732
850.68	3800
850.815	3827
850.95	3819
851.085	3930
851.22	3876
851.355	3857
851.49	3842
851.625	3797
851.76	3827
851.895	3774
852.03	3736
852.165	3816
852.299	3857
852.434	3896
852.569	3884
852.703	3903
852.838	3972
852.973	4032
853.107	3972
853.242	3888
853.376	3869
853.511	3770
853.645	3838
853.78	4010
853.914	3896
854.048	3964
854.183	3934
854.317	3915
854.451	4036
854.585	3998
854.72	3975
854.854	4074
854.988	3956
855.122	4063
855.256	3922
855.39	4055
855.524	4101
855.658	4124
855.792	4093
855.926	4147
856.06	4200
856.194	4268
856.327	4154
856.461	4211
856.595	4162
856.729	4196
856.862	4291
856.996	4211
857.13	4287
857.263	4375
857.397	4398
857.53	4268
857.664	4367
857.797	4405
857.931	4493
858.064	4421
858.197	4497
858.331	4432
858.464	4371
858.597	4375
858.731	4455
858.864	4421
858.997	4500
859.13	4493
859.263	4542
859.396	4615
859.529	4588
859.662	4523
859.795	4504
859.928	4615
860.061	4755
860.194	4748
860.327	4645
860.46	4656
860.592	4774
860.725	4763
860.858	4759
860.99	4710
861.123	4702
861.256	4694
861.388	4759
861.521	5551
861.653	4778
861.786	4740
861.918	4767
862.05	4847
862.183	4870
862.315	4908
862.447	4987
862.58	4908
862.712	4786
862.844	4748
862.976	4847
863.108	4820
863.24	5280
863.372	4843
863.504	4923
863.636	4930
863.768	5006
863.9	4968
864.032	4919
864.164	4995
864.296	4999
864.428	5098
864.559	5121
864.691	5128
864.823	5109
864.954	5136
865.086	5162
865.217	5185
865.349	5151
865.48	5162
865.612	5204
865.743	5288
865.875	5204
866.006	5212
866.137	5220
866.269	5261
866.4	5277
866.531	5239
866.662	5254
866.793	5288
866.924	5326
867.055	5383
867.186	5330
867.317	5357
867.448	5311
867.579	5364
867.71	5379
867.841	5417
867.972	5478
868.103	5493
868.233	5474
868.364	5516
868.495	5558
868.625	5665
868.756	5794
868.886	5680
869.017	5729
869.147	5855
869.278	5844
869.408	5847
869.539	5904
869.669	5992
869.799	5931
869.929	6022
870.06	5984
870.19	6247
870.32	6220
870.45	6251
870.58	6384
870.71	6422
870.84	6479
870.97	6403
871.1	6452
871.23	6608
871.36	6711
871.489	6696
871.619	6722
871.749	6837
871.879	6878
872.008	6970
872.138	7000
872.267	7019
872.397	6977
872.526	7061
872.656	7126
872.785	7187
872.915	7377
873.044	7582
873.173	7556
873.303	7685
873.432	7757
873.561	7860
873.69	7925
873.819	8043
873.948	8142
874.077	8259
874.206	8294
874.335	8492
874.464	8697
874.593	8876
874.722	8918
874.851	9100
874.979	9272
875.108	9340
875.237	9416
875.365	9462
875.494	9667
875.623	9918
875.751	9922
875.88	10013
876.008	10135
876.136	10284
876.265	10455
876.393	10763
876.521	10660
876.65	10812
876.778	10881
876.906	10930
877.034	11064
877.162	11090
877.29	11178
877.418	11311
877.546	11330
877.674	11474
877.802	11524
877.93	11524
878.058	11554
878.185	11589
878.313	11649
878.441	11722
878.568	11676
878.696	11786
878.824	11802
878.951	11931
879.079	11984
879.206	12140
879.333	12083
879.461	12019
879.588	12026
879.715	12034
879.842	12182
879.97	11999
880.097	11859
880.224	11897
880.351	11847
880.478	11847
880.605	11843
880.732	11824
880.859	11977
880.986	11878
881.112	11783
881.239	11661
881.366	11729
881.493	11657
881.619	11478
881.746	11566
881.872	11501
881.999	11543
882.125	11505
882.252	11661
882.378	11452
882.505	11509
882.631	11391
882.757	11288
882.883	11334
883.01	11265
883.136	11147
883.262	11140
883.388	11056
883.514	11166
883.64	11208
883.766	11060
883.892	11056
884.018	11014
884.143	11033
884.269	11010
884.395	10862
884.52	10721
884.646	10790
884.772	10721
884.897	10630
885.023	10771
885.148	10725
885.274	10717
885.399	10725
885.524	10603
885.65	10672
885.775	10577
885.9	10481
886.025	10538
886.15	10500
886.275	10554
886.4	10382
886.525	10371
886.65	10379
886.775	10360
886.9	10512
887.025	10512
887.149	10360
887.274	10253
887.399	10223
887.523	10200
887.648	10154
887.773	10181
887.897	10223
888.021	10276
888.146	10090
888.27	10207
888.395	10185
888.519	10143
888.643	10158
888.767	10204
888.891	10162
889.015	10013
889.139	9998
889.263	9972
889.387	10090
889.511	10090
889.635	10063
889.759	9964
889.883	10013
890.006	10032
890.13	10025
890.254	10010
890.377	9979
890.501	9838
890.624	9880
890.748	9945
890.871	9732
890.995	9770
891.118	9751
891.241	9766
891.364	9774
891.488	9842
891.611	9740
891.734	9766
891.857	9789
891.98	9759
892.103	9766
892.226	9705
892.349	9663
892.471	9507
892.594	9656
892.717	9652
892.839	9675
892.962	9603
893.085	9663
893.207	9599
893.33	9523
893.452	9469
893.575	9599
893.697	9454
893.819	9667
893.941	9663
894.064	9667
894.186	9431
894.308	9405
894.43	9580
894.552	9599
894.674	9545
894.796	9344
894.918	9382
895.04	9412
895.161	9329
895.283	9310
895.405	9283
895.526	9188
895.648	9226
895.769	9306
895.891	9245
896.012	9344
896.134	9214
896.255	9264
896.376	9260
896.498	9116
896.619	9108
896.74	9089
896.861	9173
896.982	9310
897.103	9355
897.224	9123
897.345	9032
897.466	8960
897.587	8998
897.708	9097
897.828	9017
897.949	8963
898.07	8876
898.19	8910
898.311	9032
898.431	8914
898.552	8914
898.672	9097
898.792	8944
898.913	8986
899.033	8864
899.153	8739
899.273	8674
899.393	8762
899.513	8739
899.633	8800
899.753	8750
899.873	8766
899.993	8716
900.113	8689
900.232	8769
900.352	8625
900.472	8625
900.591	8587
900.711	8598
900.83	8526
900.95	8636
901.069	8731
901.189	8579
901.308	8507
901.427	8431
901.546	8415
901.665	8469
901.784	8454
901.904	8408
902.023	8355
902.141	8240
902.26	8172
902.379	8279
902.498	8248
902.617	8248
902.735	8347
902.854	8263
902.973	8317
903.091	8214
903.21	8168
903.328	8149
903.446	8145
903.565	8058
903.683	8073
903.801	8062
903.919	8161
904.038	8119
904.156	8050
904.274	8138
904.392	8001
904.51	8046
904.627	8069
904.745	8081
904.863	8058
904.981	7932
905.098	7864
905.216	7887
905.334	7913
905.451	7925
905.569	7864
905.686	7894
905.803	7940
905.921	7792
906.038	7856
906.155	7807
906.272	7734
906.389	7689
906.506	7658
906.623	7616
906.74	7616
906.857	7559
906.974	7605
907.091	7674
907.208	7784
907.324	7613
907.441	7601
907.557	7369
907.674	7514
907.79	7445
907.907	7407
908.023	7434
908.139	7460
908.256	7381
908.372	7346
908.488	7343
908.604	7274
908.72	7244
908.836	7270
908.952	7247
909.068	7225
909.184	7305
909.3	7228
909.415	7285
909.531	7324
909.647	7137
909.762	7164
909.878	7129
909.993	7114
910.108	7099
910.224	7061
910.339	7114
910.454	7114
910.57	7019
910.685	6981
910.8	7202
910.915	7107
911.03	7015
911.145	6886
911.259	6928
911.374	6939
911.489	6859
911.604	6825
911.718	6715
911.833	6768
911.947	6623
912.062	6635
912.176	6787
912.291	6707
912.405	6779
912.519	6798
912.633	6913
912.748	6703
912.862	6688
912.976	6616
913.09	6559
913.204	6593
913.318	6665
913.431	6722
913.545	6715
913.659	6719
913.772	6673
913.886	6597
914	6536
914.113	6719
914.226	6642
914.34	6620
914.453	6479
914.566	6582
914.68	6589
914.793	6525
914.906	6418
915.019	6437
915.132	6410
915.245	6460
915.358	6467
915.47	6467
915.583	6426
915.696	6456
915.809	6574
915.921	6547
916.034	6437
916.146	6429
916.259	6395
916.371	6555
916.483	6506
916.595	6376
916.708	6407
916.82	6414
916.932	6388
917.044	6403
917.156	6395
917.268	6289
917.38	6369
917.491	6296
917.603	6403
917.715	6414
917.826	6410
917.938	6334
918.049	6254
918.161	6304
918.272	6426
918.384	6467
918.495	6346
918.606	6277
918.717	6220
918.828	6311
918.939	6228
919.05	6262
919.161	6281
919.272	6175
919.383	6136
919.494	6342
919.604	6445
919.715	6304
919.826	6171
919.936	6277
920.047	6292
920.157	6338
920.267	6441
920.378	6353
920.488	6323
920.598	6506
920.708	6585
920.818	6486
920.928	6509
921.038	6627
921.148	6620
921.258	6365
921.368	6311
921.477	6209
921.587	6235
921.697	6068
921.806	6117
921.916	6038
922.025	5992
922.134	5916
922.244	5889
922.353	5973
922.462	5889
922.571	5809
922.68	5726
922.789	5691
922.898	5695
923.007	5653
923.116	5703
923.224	5699
923.333	5714
923.442	5585
923.55	5577
923.659	5615
923.767	5623
923.876	5554
923.984	5665
924.092	5474
924.201	5562
924.309	5589
924.417	5516
924.525	5532
924.633	5512
924.741	6178
924.849	5406
924.956	5482
925.064	5417
925.172	5322
925.279	5326
925.387	5341
925.494	5364
925.602	5455
925.709	5410
925.816	5299
925.924	5353
926.031	5341
926.138	5330
926.245	5341
926.352	5235
926.459	5364
926.566	5383
926.673	5208
926.779	5159
926.886	5136
926.993	5056
927.099	4984
927.206	4927
927.312	4953
927.419	5056
927.525	4999
927.631	5071
927.737	4896
927.843	4908
927.95	4831
928.056	4828
928.162	4839
928.267	4831
928.373	5398
928.479	4850
928.585	4710
928.69	4740
928.796	4725
928.901	4717
929.007	4615
929.112	4683
929.218	4660
929.323	4649
929.428	4634
929.533	4672
929.638	4550
929.743	4569
929.848	4592
929.953	4550
930.058	4443
930.163	4344
930.267	4383
930.372	4405
930.477	4303
930.581	4493
930.685	4352
930.79	4265
930.894	4287
930.998	4261
931.103	4386
931.207	4128
931.311	4101
931.415	4025
931.519	3884
931.623	3975
