Data from glass_V78500241_1228.txt Node
Date: Wed Sep 01 19:23:00 CST 2021
User: usil
Spectrometer: V785-0024
Trigger mode: 0
Integration Time (sec): 4.000000E-1
Scans to average: 1
Nonlinearity correction enabled: false
Boxcar width: 0
Storing dark spectrum: false
XAxis mode: Wavelengths
Number of Pixels in Spectrum: 1024
>>>>>Begin Spectral Data<<<<<
801.071	3732
801.214	3740
801.356	3728
801.499	3774
801.641	3762
801.783	3778
801.926	3861
802.068	3759
802.211	3865
802.353	3861
802.496	3838
802.638	3892
802.78	3911
802.923	3964
803.065	3869
803.208	3835
803.35	3873
803.492	3896
803.635	3930
803.777	3804
803.919	3869
804.061	4181
804.204	3945
804.346	3953
804.488	3896
804.63	4029
804.773	3991
804.915	4044
805.057	4185
805.199	4040
805.341	4090
805.483	4112
805.626	4166
805.768	4109
805.91	4219
806.052	4246
806.194	4223
806.336	4371
806.478	4185
806.62	4207
806.762	4215
806.904	4249
807.046	4303
807.188	4249
807.33	4173
807.472	4230
807.614	4181
807.756	4230
807.898	4200
808.04	4185
808.182	4310
808.324	4337
808.465	4394
808.607	4478
808.749	4432
808.891	4500
809.033	4554
809.174	4390
809.316	4287
809.458	4242
809.6	4211
809.741	4173
809.883	4154
810.025	4215
810.166	4238
810.308	4219
810.45	4272
810.591	4249
810.733	4318
810.875	4542
811.016	4797
811.158	5159
811.299	5242
811.441	5242
811.582	5064
811.724	4683
811.865	4478
812.007	4466
812.148	4455
812.29	4440
812.431	4386
812.573	4379
812.714	4390
812.855	4379
812.997	4405
813.138	4523
813.279	4398
813.421	4394
813.562	4379
813.703	4371
813.845	4341
813.986	4299
814.127	4238
814.268	4272
814.41	4257
814.551	4265
814.692	4360
814.833	4227
814.974	4363
815.115	4329
815.256	4230
815.397	4265
815.539	4265
815.68	4204
815.821	4200
815.962	4356
816.103	4272
816.244	4268
816.385	4253
816.526	4310
816.666	4223
816.807	4082
816.948	4154
817.089	4215
817.23	4139
817.371	4059
817.512	4029
817.653	4105
817.793	3994
817.934	4013
818.075	4074
818.216	4078
818.356	4071
818.497	4029
818.638	3945
818.778	3922
818.919	3884
819.06	3850
819.2	3922
819.341	3857
819.481	3876
819.622	3926
819.762	4051
819.903	3926
820.043	3873
820.184	3850
820.324	3804
820.465	3941
820.605	3884
820.746	3884
820.886	3793
821.026	3964
821.167	3945
821.307	3998
821.447	3991
821.588	3922
821.728	3949
821.868	3922
822.008	3873
822.149	3934
822.289	3915
822.429	3762
822.569	3774
822.709	3793
822.849	3705
822.99	3690
823.13	3747
823.27	3838
823.41	3751
823.55	3732
823.69	3736
823.83	3743
823.97	3686
824.11	3564
824.25	3610
824.389	3637
824.529	3679
824.669	3660
824.809	3717
824.949	3770
825.089	3728
825.228	3686
825.368	3656
825.508	3580
825.648	3595
825.787	3622
825.927	3656
826.067	3625
826.206	3648
826.346	3797
826.485	3842
826.625	3873
826.765	3915
826.904	3865
827.044	3576
827.183	3553
827.323	3435
827.462	3462
827.601	3443
827.741	3454
827.88	3477
828.02	3359
828.159	3454
828.298	3496
828.437	3568
828.577	3481
828.716	3606
828.855	3519
828.994	3405
829.134	3382
829.273	3420
829.412	3351
829.551	3344
829.69	3370
829.829	3431
829.968	3526
830.107	3420
830.246	3466
830.385	3382
830.524	3359
830.663	3321
830.802	3264
830.941	3222
831.08	3207
831.219	3233
831.357	3226
831.496	3409
831.635	3226
831.774	3192
831.913	3233
832.051	3135
832.19	3127
832.329	3230
832.467	3154
832.606	3104
832.744	3131
832.883	3154
833.022	3214
833.16	3272
833.299	3325
833.437	3389
833.576	3378
833.714	3409
833.852	3443
833.991	3481
834.129	3443
834.267	3439
834.406	3397
834.544	3389
834.682	3405
834.821	3450
834.959	3572
835.097	3431
835.235	3568
835.373	3458
835.511	3507
835.65	3454
835.788	3526
835.926	3393
836.064	3386
836.202	3431
836.34	3542
836.478	3625
836.615	3534
836.753	3614
836.891	3675
837.029	3671
837.167	3625
837.305	3587
837.443	3534
837.58	3492
837.718	3587
837.856	3580
837.993	3572
838.131	3595
838.269	3587
838.406	3584
838.544	3584
838.681	3454
838.819	3485
838.956	3378
839.094	3412
839.231	3435
839.369	3549
839.506	3774
839.643	3644
839.781	3485
839.918	3466
840.055	3530
840.193	3519
840.33	3530
840.467	3523
840.604	3618
840.742	3873
840.879	3568
841.016	3587
841.153	3618
841.29	3751
841.427	3732
841.564	3743
841.701	3781
841.838	3705
841.975	3717
842.112	3759
842.249	3663
842.385	3641
842.522	3819
842.659	3701
842.796	3698
842.933	3705
843.069	3717
843.206	3720
843.343	3835
843.479	3793
843.616	3819
843.752	3694
843.889	3713
844.025	3835
844.162	3751
844.298	3846
844.435	3850
844.571	3774
844.708	3899
844.844	4021
844.98	4010
845.117	4055
845.253	3918
845.389	3918
845.525	3945
845.661	3968
845.798	3934
845.934	4010
846.07	3956
846.206	4063
846.342	4135
846.478	4017
846.614	4010
846.75	3968
846.886	3907
847.022	4017
847.158	3983
847.294	4017
847.429	4040
847.565	4010
847.701	4261
847.837	3907
847.972	3884
848.108	3979
848.244	3960
848.379	3850
848.515	3827
848.65	3850
848.786	3876
848.921	3876
849.057	3918
849.192	3896
849.328	3899
849.463	3930
849.598	3907
849.734	3884
849.869	3808
850.004	3793
850.14	3819
850.275	3823
850.41	3762
850.545	3766
850.68	3804
850.815	3812
850.95	3816
851.085	3956
851.22	3865
851.355	3823
851.49	3812
851.625	3793
851.76	3789
851.895	3770
852.03	3698
852.165	3812
852.299	3827
852.434	3953
852.569	3873
852.703	3903
852.838	3956
852.973	4006
853.107	3960
853.242	3876
853.376	3838
853.511	3842
853.645	3846
853.78	3968
853.914	3911
854.048	3907
854.183	3907
854.317	3968
854.451	4093
854.585	3975
854.72	3949
854.854	4071
854.988	3937
855.122	3991
855.256	3865
855.39	4029
855.524	4120
855.658	4036
855.792	4128
855.926	4169
856.06	4139
856.194	4246
856.327	4192
856.461	4093
856.595	4158
856.729	4188
856.862	4253
856.996	4272
857.13	4287
857.263	4310
857.397	4363
857.53	4299
857.664	4360
857.797	4413
857.931	4428
858.064	4375
858.197	4466
858.331	4379
858.464	4398
858.597	4341
858.731	4409
858.864	4428
858.997	4466
859.13	4508
859.263	4531
859.396	4584
859.529	4558
859.662	4538
859.795	4493
859.928	4649
860.061	4729
860.194	4691
860.327	4634
860.46	4649
860.592	4740
860.725	4778
860.858	4778
860.99	4698
861.123	4717
861.256	4721
861.388	4820
861.521	5334
861.653	4729
861.786	4702
861.918	4752
862.05	4774
862.183	4877
862.315	4900
862.447	4919
862.58	4961
862.712	4767
862.844	4771
862.976	4892
863.108	4896
863.24	5151
863.372	4866
863.504	4915
863.636	4911
863.768	4980
863.9	4991
864.032	4949
864.164	4949
864.296	5029
864.428	5109
864.559	5094
864.691	5140
864.823	5140
864.954	5105
865.086	5151
865.217	5140
865.349	5121
865.48	5170
865.612	5193
865.743	5292
865.875	5201
866.006	5178
866.137	5258
866.269	5254
866.4	5250
866.531	5280
866.662	5250
866.793	5277
866.924	5315
867.055	5311
867.186	5334
867.317	5345
867.448	5326
867.579	5372
867.71	5414
867.841	5402
867.972	5459
868.103	5478
868.233	5524
868.364	5482
868.495	5547
868.625	5668
868.756	5756
868.886	5695
869.017	5699
869.147	5844
869.278	5840
869.408	5836
869.539	5817
869.669	5946
869.799	5908
869.929	5961
870.06	6064
870.19	6216
870.32	6220
870.45	6273
870.58	6315
870.71	6475
870.84	6540
870.97	6395
871.1	6429
871.23	6658
871.36	6726
871.489	6692
871.619	6726
871.749	6818
871.879	6894
872.008	6981
872.138	6977
872.267	7023
872.397	7012
872.526	7012
872.656	7072
872.785	7228
872.915	7384
873.044	7575
873.173	7590
873.303	7609
873.432	7769
873.561	7879
873.69	7928
873.819	8035
873.948	8142
874.077	8279
874.206	8309
874.335	8454
874.464	8674
874.593	8864
874.722	8921
874.851	9176
874.979	9287
875.108	9310
875.237	9443
875.365	9504
875.494	9648
875.623	9812
875.751	9812
875.88	9998
876.008	10158
876.136	10306
876.265	10508
876.393	10672
876.521	10771
876.65	10881
876.778	10919
876.906	10904
877.034	11003
877.162	11071
877.29	11178
877.418	11296
877.546	11284
877.674	11376
877.802	11474
877.93	11532
878.058	11600
878.185	11562
878.313	11623
878.441	11771
878.568	11672
878.696	11817
878.824	11889
878.951	11977
879.079	12030
879.206	12129
879.333	12030
879.461	11912
879.588	12083
879.715	12072
879.842	12243
879.97	12068
880.097	11916
880.224	11885
880.351	11843
880.478	11904
880.605	11866
880.732	11927
880.859	11980
880.986	11805
881.112	11927
881.239	11756
881.366	11726
881.493	11608
881.619	11512
881.746	11627
881.872	11535
881.999	11516
882.125	11410
882.252	11589
882.378	11558
882.505	11539
882.631	11379
882.757	11307
882.883	11322
883.01	11231
883.136	11212
883.262	11064
883.388	11098
883.514	11151
883.64	11189
883.766	11094
883.892	11006
884.018	10938
884.143	11056
884.269	11128
884.395	10889
884.52	10881
884.646	10839
884.772	10641
884.897	10714
885.023	10672
885.148	10767
885.274	10759
885.399	10706
885.524	10622
885.65	10512
885.775	10649
885.9	10542
886.025	10653
886.15	10599
886.275	10508
886.4	10367
886.525	10417
886.65	10371
886.775	10356
886.9	10459
887.025	10519
887.149	10268
887.274	10295
887.399	10154
887.523	10215
887.648	10192
887.773	10116
887.897	10257
888.021	10120
888.146	10207
888.27	10196
888.395	10223
888.519	10143
888.643	10215
888.767	10124
888.891	10135
889.015	10071
889.139	10029
889.263	10002
889.387	10059
889.511	10109
889.635	10105
889.759	10021
889.883	9945
890.006	10010
890.13	10120
890.254	10006
890.377	9960
890.501	9869
890.624	9888
890.748	9918
890.871	9793
890.995	9766
891.118	9759
891.241	9797
891.364	9762
891.488	9857
891.611	9774
891.734	9808
891.857	9808
891.98	9743
892.103	9823
892.226	9652
892.349	9671
892.471	9542
892.594	9679
892.717	9591
892.839	9633
892.962	9587
893.085	9641
893.207	9576
893.33	9568
893.452	9526
893.575	9553
893.697	9454
893.819	9564
893.941	9606
894.064	9629
894.186	9386
894.308	9386
894.43	9572
894.552	9557
894.674	9557
894.796	9424
894.918	9420
895.04	9351
895.161	9283
895.283	9317
895.405	9237
895.526	9294
895.648	9340
895.769	9233
895.891	9226
896.012	9253
896.134	9192
896.255	9070
896.376	9146
896.498	9154
896.619	9195
896.74	9066
896.861	9176
896.982	9253
897.103	9355
897.224	9230
897.345	9070
897.466	9047
897.587	8971
897.708	9161
897.828	9085
897.949	8967
898.07	8883
898.19	8914
898.311	9051
898.431	8887
898.552	8929
898.672	8948
898.792	8941
898.913	8956
899.033	8830
899.153	8769
899.273	8686
899.393	8708
899.513	8758
899.633	8701
899.753	8693
899.873	8720
899.993	8731
900.113	8693
900.232	8716
900.352	8651
900.472	8526
900.591	8552
900.711	8503
900.83	8518
900.95	8735
901.069	8758
901.189	8564
901.308	8419
901.427	8412
901.546	8476
901.665	8484
901.784	8568
901.904	8415
902.023	8301
902.141	8286
902.26	8142
902.379	8298
902.498	8214
902.617	8252
902.735	8317
902.854	8286
902.973	8328
903.091	8092
903.21	8214
903.328	8240
903.446	8100
903.565	8054
903.683	8081
903.801	8043
903.919	8176
904.038	8145
904.156	8043
904.274	8069
904.392	8073
904.51	8050
904.627	8084
904.745	8024
904.863	8050
904.981	7974
905.098	7902
905.216	7909
905.334	7902
905.451	7993
905.569	7875
905.686	7913
905.803	7944
905.921	7795
906.038	7849
906.155	7776
906.272	7719
906.389	7727
906.506	7655
906.623	7658
906.74	7590
906.857	7609
906.974	7571
907.091	7677
907.208	7750
907.324	7605
907.441	7521
907.557	7491
907.674	7468
907.79	7449
907.907	7483
908.023	7388
908.139	7434
908.256	7426
908.372	7358
908.488	7476
908.604	7278
908.72	7266
908.836	7274
908.952	7213
909.068	7278
909.184	7327
909.3	7266
909.415	7289
909.531	7301
909.647	7149
909.762	7095
909.878	7175
909.993	7209
910.108	7114
910.224	7027
910.339	7080
910.454	7004
910.57	7012
910.685	6973
910.8	7194
910.915	7107
911.03	7042
911.145	6871
911.259	6818
911.374	6829
911.489	6863
911.604	6814
911.718	6734
911.833	6783
911.947	6631
912.062	6639
912.176	6715
912.291	6768
912.405	6722
912.519	6829
912.633	6852
912.748	6700
912.862	6715
912.976	6642
913.09	6517
913.204	6620
913.318	6620
913.431	6662
913.545	6700
913.659	6692
913.772	6631
913.886	6620
914	6532
914.113	6616
914.226	6654
914.34	6635
914.453	6452
914.566	6635
914.68	6536
914.793	6540
914.906	6399
915.019	6380
915.132	6391
915.245	6448
915.358	6429
915.47	6441
915.583	6441
915.696	6494
915.809	6559
915.921	6536
916.034	6372
916.146	6395
916.259	6365
916.371	6448
916.483	6456
916.595	6395
916.708	6426
916.82	6395
916.932	6391
917.044	6376
917.156	6452
917.268	6319
917.38	6380
917.491	6308
917.603	6353
917.715	6422
917.826	6418
917.938	6323
918.049	6232
918.161	6308
918.272	6410
918.384	6452
918.495	6350
918.606	6270
918.717	6239
918.828	6308
918.939	6300
919.05	6201
919.161	6266
919.272	6136
919.383	6148
919.494	6331
919.604	6399
919.715	6262
919.826	6209
919.936	6258
920.047	6376
920.157	6323
920.267	6441
920.378	6300
920.488	6304
920.598	6433
920.708	6551
920.818	6460
920.928	6456
921.038	6608
921.148	6566
921.258	6285
921.368	6304
921.477	6247
921.587	6232
921.697	6106
921.806	6213
921.916	6087
922.025	5965
922.134	5965
922.244	5901
922.353	5961
922.462	5836
922.571	5832
922.68	5741
922.789	5688
922.898	5779
923.007	5577
923.116	5680
923.224	5680
923.333	5665
923.442	5558
923.55	5573
923.659	5627
923.767	5638
923.876	5516
923.984	5661
924.092	5474
924.201	5573
924.309	5532
924.417	5543
924.525	5452
924.633	5520
924.741	6239
924.849	5376
924.956	5452
925.064	5402
925.172	5315
925.279	5318
925.387	5376
925.494	5341
925.602	5402
925.709	5406
925.816	5250
925.924	5334
926.031	5353
926.138	5296
926.245	5341
926.352	5223
926.459	5292
926.566	5337
926.673	5212
926.779	5121
926.886	5113
926.993	5033
927.099	5048
927.206	4965
927.312	4911
927.419	5010
927.525	4987
927.631	4984
927.737	4911
927.843	4885
927.95	4828
928.056	4831
928.162	4828
928.267	4866
928.373	5307
928.479	4831
928.585	4725
928.69	4767
928.796	4767
928.901	4702
929.007	4592
929.112	4702
929.218	4603
929.323	4615
929.428	4573
929.533	4714
929.638	4542
929.743	4573
929.848	4573
929.953	4535
930.058	4489
930.163	4375
930.267	4295
930.372	4421
930.477	4276
930.581	4459
930.685	4363
930.79	4268
930.894	4344
930.998	4257
931.103	4398
931.207	4128
931.311	4086
931.415	4048
931.519	3884
931.623	3956
