Data from glass_V78500241_2551.txt Node
Date: Wed Sep 01 19:32:11 CST 2021
User: usil
Spectrometer: V785-0024
Trigger mode: 0
Integration Time (sec): 4.000000E-1
Scans to average: 1
Nonlinearity correction enabled: false
Boxcar width: 0
Storing dark spectrum: false
XAxis mode: Wavelengths
Number of Pixels in Spectrum: 1024
>>>>>Begin Spectral Data<<<<<
801.071	3724
801.214	3740
801.356	3717
801.499	3724
801.641	3724
801.783	3770
801.926	3838
802.068	3808
802.211	3850
802.353	3861
802.496	3800
802.638	3876
802.78	3941
802.923	3941
803.065	3842
803.208	3835
803.35	3823
803.492	3888
803.635	3873
803.777	3808
803.919	3876
804.061	4150
804.204	3903
804.346	3972
804.488	3899
804.63	4029
804.773	3975
804.915	4032
805.057	4120
805.199	4013
805.341	4105
805.483	4097
805.626	4097
805.768	4109
805.91	4169
806.052	4249
806.194	4192
806.336	4360
806.478	4169
806.62	4185
806.762	4188
806.904	4219
807.046	4268
807.188	4219
807.33	4143
807.472	4284
807.614	4196
807.756	4249
807.898	4185
808.04	4204
808.182	4306
808.324	4379
808.465	4371
808.607	4466
808.749	4497
808.891	4455
809.033	4481
809.174	4394
809.316	4227
809.458	4219
809.6	4116
809.741	4128
809.883	4173
810.025	4230
810.166	4169
810.308	4185
810.45	4238
810.591	4204
810.733	4272
810.875	4489
811.016	4809
811.158	5105
811.299	5277
811.441	5254
811.582	5083
811.724	4717
811.865	4459
812.007	4466
812.148	4398
812.29	4386
812.431	4424
812.573	4424
812.714	4394
812.855	4428
812.997	4394
813.138	4497
813.279	4455
813.421	4432
813.562	4383
813.703	4306
813.845	4341
813.986	4257
814.127	4211
814.268	4272
814.41	4280
814.551	4207
814.692	4322
814.833	4261
814.974	4310
815.115	4344
815.256	4211
815.397	4242
815.539	4287
815.68	4147
815.821	4196
815.962	4295
816.103	4246
816.244	4265
816.385	4230
816.526	4246
816.666	4207
816.807	4109
816.948	4188
817.089	4166
817.23	4105
817.371	4074
817.512	4017
817.653	4032
817.793	4063
817.934	4040
818.075	4116
818.216	4044
818.356	4093
818.497	3960
818.638	3930
818.778	3907
818.919	3911
819.06	3888
819.2	3926
819.341	3907
819.481	3827
819.622	3880
819.762	4006
819.903	3915
820.043	3880
820.184	3865
820.324	3800
820.465	3911
820.605	3873
820.746	3842
820.886	3724
821.026	3918
821.167	3903
821.307	3960
821.447	3960
821.588	3953
821.728	3960
821.868	3884
822.008	3846
822.149	3896
822.289	3907
822.429	3762
822.569	3781
822.709	3823
822.849	3652
822.99	3736
823.13	3762
823.27	3755
823.41	3698
823.55	3717
823.69	3740
823.83	3759
823.97	3675
824.11	3568
824.25	3561
824.389	3652
824.529	3625
824.669	3614
824.809	3709
824.949	3717
825.089	3747
825.228	3698
825.368	3572
825.508	3549
825.648	3545
825.787	3580
825.927	3656
826.067	3629
826.206	3660
826.346	3762
826.485	3789
826.625	3850
826.765	3934
826.904	3816
827.044	3591
827.183	3507
827.323	3389
827.462	3488
827.601	3424
827.741	3420
827.88	3397
828.02	3386
828.159	3405
828.298	3481
828.437	3557
828.577	3447
828.716	3622
828.855	3443
828.994	3382
829.134	3370
829.273	3386
829.412	3351
829.551	3351
829.69	3359
829.829	3443
829.968	3523
830.107	3386
830.246	3466
830.385	3378
830.524	3348
830.663	3279
830.802	3241
830.941	3199
831.08	3207
831.219	3256
831.357	3245
831.496	3409
831.635	3226
831.774	3169
831.913	3173
832.051	3142
832.19	3127
832.329	3207
832.467	3138
832.606	3093
832.744	3127
832.883	3180
833.022	3192
833.16	3241
833.299	3283
833.437	3321
833.576	3386
833.714	3412
833.852	3454
833.991	3450
834.129	3473
834.267	3431
834.406	3378
834.544	3378
834.682	3428
834.821	3363
834.959	3564
835.097	3355
835.235	3523
835.373	3466
835.511	3523
835.65	3435
835.788	3485
835.926	3363
836.064	3393
836.202	3397
836.34	3549
836.478	3625
836.615	3557
836.753	3587
836.891	3644
837.029	3629
837.167	3561
837.305	3568
837.443	3538
837.58	3481
837.718	3580
837.856	3534
837.993	3515
838.131	3557
838.269	3572
838.406	3587
838.544	3572
838.681	3496
838.819	3466
838.956	3397
839.094	3405
839.231	3405
839.369	3542
839.506	3679
839.643	3576
839.781	3504
839.918	3458
840.055	3564
840.193	3530
840.33	3500
840.467	3542
840.604	3572
840.742	3732
840.879	3496
841.016	3561
841.153	3610
841.29	3713
841.427	3686
841.564	3705
841.701	3755
841.838	3705
841.975	3625
842.112	3709
842.249	3629
842.385	3618
842.522	3888
842.659	3679
842.796	3660
842.933	3698
843.069	3705
843.206	3679
843.343	3793
843.479	3774
843.616	3842
843.752	3633
843.889	3705
844.025	3831
844.162	3743
844.298	3838
844.435	3797
844.571	3812
844.708	3907
844.844	3964
844.98	4021
845.117	3991
845.253	3911
845.389	3907
845.525	3998
845.661	3960
845.798	3899
845.934	4002
846.07	3953
846.206	4032
846.342	4109
846.478	4017
846.614	3953
846.75	3945
846.886	3907
847.022	4017
847.158	3979
847.294	3964
847.429	4044
847.565	4006
847.701	4230
847.837	3861
847.972	3876
848.108	3937
848.244	3960
848.379	3842
848.515	3774
848.65	3793
848.786	3869
848.921	3835
849.057	3918
849.192	3968
849.328	3903
849.463	3922
849.598	3880
849.734	3865
849.869	3876
850.004	3804
850.14	3854
850.275	3789
850.41	3713
850.545	3747
850.68	3793
850.815	3747
850.95	3759
851.085	3968
851.22	3842
851.355	3808
851.49	3797
851.625	3740
851.76	3789
851.895	3755
852.03	3774
852.165	3838
852.299	3827
852.434	3899
852.569	3865
852.703	3892
852.838	3926
852.973	3991
853.107	4017
853.242	3888
853.376	3857
853.511	3800
853.645	3827
853.78	3960
853.914	3896
854.048	3918
854.183	3915
854.317	3934
854.451	4044
854.585	3941
854.72	3911
854.854	4010
854.988	3899
855.122	4002
855.256	3903
855.39	4036
855.524	4036
855.658	4067
855.792	4139
855.926	4147
856.06	4139
856.194	4223
856.327	4158
856.461	4109
856.595	4124
856.729	4192
856.862	4303
856.996	4242
857.13	4261
857.263	4310
857.397	4367
857.53	4249
857.664	4341
857.797	4402
857.931	4409
858.064	4386
858.197	4466
858.331	4413
858.464	4356
858.597	4325
858.731	4417
858.864	4466
858.997	4432
859.13	4455
859.263	4561
859.396	4580
859.529	4561
859.662	4531
859.795	4577
859.928	4584
860.061	4683
860.194	4694
860.327	4637
860.46	4626
860.592	4679
860.725	4752
860.858	4809
860.99	4683
861.123	4656
861.256	4679
861.388	4752
861.521	5406
861.653	4717
861.786	4698
861.918	4740
862.05	4790
862.183	4835
862.315	4839
862.447	4892
862.58	4877
862.712	4774
862.844	4748
862.976	4850
863.108	4847
863.24	5113
863.372	4809
863.504	4881
863.636	4923
863.768	4919
863.9	4968
864.032	4919
864.164	4949
864.296	5060
864.428	5071
864.559	5052
864.691	5105
864.823	5132
864.954	5117
865.086	5136
865.217	5094
865.349	5083
865.48	5170
865.612	5216
865.743	5280
865.875	5235
866.006	5208
866.137	5231
866.269	5170
866.4	5261
866.531	5197
866.662	5242
866.793	5242
866.924	5277
867.055	5315
867.186	5326
867.317	5330
867.448	5322
867.579	5353
867.71	5353
867.841	5376
867.972	5433
868.103	5516
868.233	5433
868.364	5532
868.495	5585
868.625	5661
868.756	5775
868.886	5680
869.017	5707
869.147	5802
869.278	5859
869.408	5790
869.539	5844
869.669	5893
869.799	5950
869.929	5927
870.06	5992
870.19	6220
870.32	6159
870.45	6251
870.58	6369
870.71	6445
870.84	6483
870.97	6388
871.1	6456
871.23	6646
871.36	6677
871.489	6700
871.619	6726
871.749	6787
871.879	6856
872.008	6958
872.138	6943
872.267	7080
872.397	7012
872.526	6981
872.656	7019
872.785	7217
872.915	7278
873.044	7537
873.173	7578
873.303	7666
873.432	7731
873.561	7875
873.69	7970
873.819	8008
873.948	8149
874.077	8248
874.206	8309
874.335	8480
874.464	8564
874.593	8876
874.722	8918
874.851	9131
874.979	9203
875.108	9336
875.237	9355
875.365	9492
875.494	9660
875.623	9854
875.751	9808
875.88	10013
876.008	10143
876.136	10341
876.265	10535
876.393	10710
876.521	10721
876.65	10805
876.778	10877
876.906	10847
877.034	11014
877.162	11189
877.29	11220
877.418	11303
877.546	11360
877.674	11398
877.802	11436
877.93	11478
878.058	11520
878.185	11577
878.313	11691
878.441	11779
878.568	11680
878.696	11809
878.824	11840
878.951	11965
879.079	11969
879.206	12140
879.333	12007
879.461	11988
879.588	12133
879.715	12087
879.842	12220
879.97	12068
880.097	11908
880.224	11863
880.351	11878
880.478	11931
880.605	11882
880.732	11832
880.859	12045
880.986	11847
881.112	11798
881.239	11722
881.366	11596
881.493	11573
881.619	11520
881.746	11505
881.872	11509
881.999	11493
882.125	11421
882.252	11589
882.378	11573
882.505	11592
882.631	11417
882.757	11303
882.883	11269
883.01	11201
883.136	11216
883.262	11098
883.388	11079
883.514	11178
883.64	11201
883.766	11143
883.892	10961
884.018	10957
884.143	11090
884.269	11170
884.395	10831
884.52	10774
884.646	10759
884.772	10721
884.897	10656
885.023	10615
885.148	10672
885.274	10698
885.399	10752
885.524	10565
885.65	10637
885.775	10577
885.9	10607
886.025	10588
886.15	10466
886.275	10352
886.4	10325
886.525	10443
886.65	10325
886.775	10398
886.9	10451
887.025	10516
887.149	10455
887.274	10223
887.399	10200
887.523	10147
887.648	10128
887.773	10150
887.897	10196
888.021	10188
888.146	10090
888.27	10215
888.395	10223
888.519	10158
888.643	10192
888.767	10227
888.891	10128
889.015	9953
889.139	10040
889.263	10002
889.387	10116
889.511	10078
889.635	10105
889.759	10002
889.883	10006
890.006	9994
890.13	10169
890.254	10006
890.377	9972
890.501	9857
890.624	9918
890.748	9884
890.871	9747
890.995	9751
891.118	9728
891.241	9857
891.364	9705
891.488	9865
891.611	9793
891.734	9709
891.857	9705
891.98	9660
892.103	9766
892.226	9682
892.349	9705
892.471	9507
892.594	9614
892.717	9587
892.839	9557
892.962	9595
893.085	9713
893.207	9534
893.33	9420
893.452	9564
893.575	9595
893.697	9511
893.819	9580
893.941	9595
894.064	9542
894.186	9496
894.308	9496
894.43	9553
894.552	9557
894.674	9584
894.796	9405
894.918	9355
895.04	9306
895.161	9435
895.283	9344
895.405	9249
895.526	9370
895.648	9226
895.769	9226
895.891	9336
896.012	9245
896.134	9180
896.255	9199
896.376	9074
896.498	9165
896.619	9123
896.74	9119
896.861	9142
896.982	9245
897.103	9348
897.224	9176
897.345	9051
897.466	8971
897.587	9036
897.708	9085
897.828	9043
897.949	8948
898.07	8906
898.19	8857
898.311	8941
898.431	8857
898.552	8872
898.672	8933
898.792	8921
898.913	8902
899.033	8743
899.153	8731
899.273	8670
899.393	8701
899.513	8781
899.633	8739
899.753	8716
899.873	8651
899.993	8670
900.113	8773
900.232	8781
900.352	8674
900.472	8564
900.591	8545
900.711	8587
900.83	8594
900.95	8663
901.069	8655
901.189	8526
901.308	8393
901.427	8404
901.546	8374
901.665	8446
901.784	8438
901.904	8412
902.023	8313
902.141	8256
902.26	8195
902.379	8298
902.498	8210
902.617	8218
902.735	8358
902.854	8301
902.973	8279
903.091	8123
903.21	8157
903.328	8180
903.446	8031
903.565	8084
903.683	8073
903.801	8039
903.919	8126
904.038	8115
904.156	8062
904.274	8054
904.392	8035
904.51	8020
904.627	7997
904.745	8096
904.863	8069
904.981	7944
905.098	7883
905.216	7906
905.334	7894
905.451	7860
905.569	7818
905.686	7890
905.803	7947
905.921	7780
906.038	7875
906.155	7746
906.272	7693
906.389	7742
906.506	7639
906.623	7605
906.74	7571
906.857	7506
906.974	7613
907.091	7647
907.208	7738
907.324	7613
907.441	7521
907.557	7415
907.674	7464
907.79	7392
907.907	7468
908.023	7476
908.139	7411
908.256	7320
908.372	7358
908.488	7289
908.604	7221
908.72	7194
908.836	7278
908.952	7285
909.068	7259
909.184	7282
909.3	7225
909.415	7316
909.531	7312
909.647	7129
909.762	7179
909.878	7076
909.993	7114
910.108	7050
910.224	7103
910.339	7145
910.454	6993
910.57	7023
910.685	6970
910.8	7152
910.915	7095
911.03	6996
911.145	6806
911.259	6852
911.374	6916
911.489	6825
911.604	6760
911.718	6757
911.833	6715
911.947	6677
912.062	6623
912.176	6734
912.291	6684
912.405	6711
912.519	6791
912.633	6806
912.748	6707
912.862	6673
912.976	6555
913.09	6536
913.204	6574
913.318	6593
913.431	6608
913.545	6662
913.659	6696
913.772	6620
913.886	6574
914	6540
914.113	6654
914.226	6627
914.34	6547
914.453	6490
914.566	6597
914.68	6441
914.793	6525
914.906	6448
915.019	6369
915.132	6422
915.245	6422
915.358	6391
915.47	6471
915.583	6441
915.696	6475
915.809	6528
915.921	6532
916.034	6437
916.146	6407
916.259	6384
916.371	6429
916.483	6422
916.595	6433
916.708	6380
916.82	6384
916.932	6353
917.044	6410
917.156	6407
917.268	6292
917.38	6357
917.491	6331
917.603	6327
917.715	6467
917.826	6369
917.938	6334
918.049	6201
918.161	6323
918.272	6395
918.384	6410
918.495	6331
918.606	6281
918.717	6239
918.828	6285
918.939	6296
919.05	6171
919.161	6277
919.272	6038
919.383	6121
919.494	6334
919.604	6376
919.715	6304
919.826	6224
919.936	6277
920.047	6277
920.157	6311
920.267	6361
920.378	6319
920.488	6247
920.598	6407
920.708	6544
920.818	6410
920.928	6467
921.038	6574
921.148	6509
921.258	6319
921.368	6281
921.477	6186
921.587	6194
921.697	6022
921.806	6159
921.916	6091
922.025	5882
922.134	5935
922.244	5882
922.353	5874
922.462	5847
922.571	5764
922.68	5695
922.789	5695
922.898	5684
923.007	5627
923.116	5672
923.224	5668
923.333	5642
923.442	5611
923.55	5589
923.659	5608
923.767	5592
923.876	5532
923.984	5592
924.092	5391
924.201	5570
924.309	5570
924.417	5539
924.525	5497
924.633	5497
924.741	6304
924.849	5376
924.956	5459
925.064	5357
925.172	5318
925.279	5299
925.387	5341
925.494	5341
925.602	5433
925.709	5353
925.816	5288
925.924	5341
926.031	5357
926.138	5311
926.245	5280
926.352	5258
926.459	5280
926.566	5307
926.673	5185
926.779	5181
926.886	5083
926.993	5037
927.099	4953
927.206	4911
927.312	4942
927.419	4999
927.525	5003
927.631	5006
927.737	4850
927.843	4858
927.95	4744
928.056	4824
928.162	4793
928.267	4847
928.373	5246
928.479	4824
928.585	4672
928.69	4740
928.796	4828
928.901	4710
929.007	4622
929.112	4641
929.218	4653
929.323	4599
929.428	4569
929.533	4634
929.638	4523
929.743	4508
929.848	4535
929.953	4489
930.058	4424
930.163	4303
930.267	4322
930.372	4432
930.477	4299
930.581	4481
930.685	4344
930.79	4257
930.894	4299
930.998	4272
931.103	4379
931.207	4124
931.311	4074
931.415	4010
931.519	3937
931.623	3930
