Data from glass_V78500241_2092.txt Node
Date: Wed Sep 01 19:29:00 CST 2021
User: usil
Spectrometer: V785-0024
Trigger mode: 0
Integration Time (sec): 4.000000E-1
Scans to average: 1
Nonlinearity correction enabled: false
Boxcar width: 0
Storing dark spectrum: false
XAxis mode: Wavelengths
Number of Pixels in Spectrum: 1024
>>>>>Begin Spectral Data<<<<<
801.071	3728
801.214	3740
801.356	3686
801.499	3736
801.641	3713
801.783	3747
801.926	3869
802.068	3800
802.211	3861
802.353	3892
802.496	3873
802.638	3854
802.78	3884
802.923	3968
803.065	3934
803.208	3838
803.35	3854
803.492	3869
803.635	3930
803.777	3781
803.919	3876
804.061	4109
804.204	3983
804.346	3956
804.488	3922
804.63	4055
804.773	3979
804.915	4040
805.057	4093
805.199	4025
805.341	4078
805.483	4158
805.626	4093
805.768	4086
805.91	4196
806.052	4223
806.194	4173
806.336	4322
806.478	4234
806.62	4177
806.762	4188
806.904	4287
807.046	4295
807.188	4158
807.33	4185
807.472	4261
807.614	4219
807.756	4249
807.898	4181
808.04	4215
808.182	4318
808.324	4291
808.465	4394
808.607	4436
808.749	4474
808.891	4493
809.033	4459
809.174	4386
809.316	4272
809.458	4227
809.6	4177
809.741	4147
809.883	4116
810.025	4181
810.166	4230
810.308	4173
810.45	4204
810.591	4223
810.733	4325
810.875	4504
811.016	4801
811.158	5060
811.299	5261
811.441	5273
811.582	5075
811.724	4755
811.865	4481
812.007	4455
812.148	4436
812.29	4417
812.431	4424
812.573	4367
812.714	4371
812.855	4379
812.997	4417
813.138	4481
813.279	4390
813.421	4390
813.562	4306
813.703	4329
813.845	4333
813.986	4295
814.127	4188
814.268	4268
814.41	4295
814.551	4272
814.692	4356
814.833	4272
814.974	4310
815.115	4333
815.256	4219
815.397	4268
815.539	4223
815.68	4219
815.821	4177
815.962	4303
816.103	4299
816.244	4181
816.385	4246
816.526	4299
816.666	4215
816.807	4097
816.948	4177
817.089	4204
817.23	4086
817.371	4029
817.512	4063
817.653	4059
817.793	4025
817.934	4032
818.075	4074
818.216	4071
818.356	4090
818.497	3968
818.638	3880
818.778	3899
818.919	3892
819.06	3888
819.2	3915
819.341	3876
819.481	3831
819.622	3926
819.762	4032
819.903	3903
820.043	3873
820.184	3819
820.324	3854
820.465	3873
820.605	3873
820.746	3876
820.886	3808
821.026	3930
821.167	3888
821.307	3953
821.447	3937
821.588	3937
821.728	3930
821.868	3918
822.008	3854
822.149	3934
822.289	3896
822.429	3800
822.569	3789
822.709	3759
822.849	3644
822.99	3728
823.13	3740
823.27	3747
823.41	3728
823.55	3705
823.69	3705
823.83	3682
823.97	3667
824.11	3568
824.25	3576
824.389	3663
824.529	3667
824.669	3625
824.809	3682
824.949	3743
825.089	3724
825.228	3671
825.368	3606
825.508	3557
825.648	3553
825.787	3610
825.927	3629
826.067	3625
826.206	3644
826.346	3789
826.485	3846
826.625	3842
826.765	3953
826.904	3835
827.044	3610
827.183	3496
827.323	3409
827.462	3507
827.601	3412
827.741	3428
827.88	3435
828.02	3420
828.159	3431
828.298	3439
828.437	3485
828.577	3458
828.716	3545
828.855	3496
828.994	3340
829.134	3397
829.273	3401
829.412	3370
829.551	3306
829.69	3355
829.829	3393
829.968	3526
830.107	3447
830.246	3420
830.385	3382
830.524	3374
830.663	3344
830.802	3226
830.941	3188
831.08	3176
831.219	3249
831.357	3211
831.496	3370
831.635	3203
831.774	3173
831.913	3230
832.051	3157
832.19	3169
832.329	3184
832.467	3131
832.606	3070
832.744	3165
832.883	3188
833.022	3195
833.16	3272
833.299	3317
833.437	3363
833.576	3351
833.714	3393
833.852	3428
833.991	3450
834.129	3462
834.267	3431
834.406	3393
834.544	3393
834.682	3374
834.821	3397
834.959	3580
835.097	3420
835.235	3557
835.373	3496
835.511	3485
835.65	3450
835.788	3496
835.926	3393
836.064	3409
836.202	3355
836.34	3610
836.478	3595
836.615	3542
836.753	3591
836.891	3603
837.029	3587
837.167	3595
837.305	3530
837.443	3511
837.58	3488
837.718	3572
837.856	3500
837.993	3568
838.131	3614
838.269	3545
838.406	3568
838.544	3595
838.681	3477
838.819	3458
838.956	3386
839.094	3409
839.231	3473
839.369	3500
839.506	3709
839.643	3633
839.781	3504
839.918	3466
840.055	3530
840.193	3526
840.33	3553
840.467	3526
840.604	3606
840.742	3774
840.879	3557
841.016	3599
841.153	3603
841.29	3785
841.427	3709
841.564	3717
841.701	3797
841.838	3679
841.975	3679
842.112	3720
842.249	3682
842.385	3629
842.522	3823
842.659	3694
842.796	3644
842.933	3705
843.069	3679
843.206	3690
843.343	3789
843.479	3755
843.616	3823
843.752	3671
843.889	3698
844.025	3861
844.162	3740
844.298	3873
844.435	3797
844.571	3800
844.708	3911
844.844	3991
844.98	4021
845.117	3983
845.253	3918
845.389	3880
845.525	3964
845.661	4010
845.798	3918
845.934	3983
846.07	3979
846.206	4032
846.342	4093
846.478	4029
846.614	3968
846.75	3918
846.886	3884
847.022	4048
847.158	3968
847.294	4006
847.429	4006
847.565	3991
847.701	4272
847.837	3846
847.972	3816
848.108	3987
848.244	3968
848.379	3846
848.515	3797
848.65	3827
848.786	3816
848.921	3800
849.057	3903
849.192	3930
849.328	3911
849.463	3903
849.598	3846
849.734	3869
849.869	3861
850.004	3800
850.14	3835
850.275	3800
850.41	3728
850.545	3755
850.68	3785
850.815	3800
850.95	3819
851.085	3930
851.22	3857
851.355	3842
851.49	3785
851.625	3766
851.76	3781
851.895	3743
852.03	3701
852.165	3835
852.299	3785
852.434	3869
852.569	3850
852.703	3869
852.838	3934
852.973	3972
853.107	3968
853.242	3922
853.376	3846
853.511	3797
853.645	3781
853.78	3960
853.914	3911
854.048	3911
854.183	3907
854.317	3956
854.451	4090
854.585	3964
854.72	3979
854.854	4048
854.988	3922
855.122	3968
855.256	3915
855.39	4013
855.524	4078
855.658	4071
855.792	4101
855.926	4112
856.06	4162
856.194	4204
856.327	4162
856.461	4078
856.595	4124
856.729	4169
856.862	4272
856.996	4204
857.13	4219
857.263	4322
857.397	4333
857.53	4314
857.664	4318
857.797	4390
857.931	4440
858.064	4402
858.197	4493
858.331	4394
858.464	4394
858.597	4322
858.731	4421
858.864	4440
858.997	4432
859.13	4527
859.263	4504
859.396	4550
859.529	4538
859.662	4512
859.795	4493
859.928	4588
860.061	4706
860.194	4763
860.327	4706
860.46	4664
860.592	4736
860.725	4702
860.858	4740
860.99	4672
861.123	4679
861.256	4710
861.388	4729
861.521	5467
861.653	4656
861.786	4698
861.918	4797
862.05	4767
862.183	4820
862.315	4866
862.447	4870
862.58	4866
862.712	4797
862.844	4736
862.976	4839
863.108	4881
863.24	5162
863.372	4805
863.504	4915
863.636	4923
863.768	5010
863.9	4984
864.032	4980
864.164	4946
864.296	4984
864.428	5086
864.559	5140
864.691	5121
864.823	5102
864.954	5098
865.086	5102
865.217	5086
865.349	5117
865.48	5140
865.612	5189
865.743	5330
865.875	5227
866.006	5143
866.137	5258
866.269	5235
866.4	5246
866.531	5212
866.662	5239
866.793	5254
866.924	5303
867.055	5288
867.186	5326
867.317	5337
867.448	5303
867.579	5349
867.71	5372
867.841	5368
867.972	5486
868.103	5440
868.233	5478
868.364	5471
868.495	5554
868.625	5684
868.756	5771
868.886	5630
869.017	5729
869.147	5832
869.278	5893
869.408	5790
869.539	5828
869.669	5908
869.799	5889
869.929	6026
870.06	6007
870.19	6182
870.32	6247
870.45	6220
870.58	6285
870.71	6395
870.84	6464
870.97	6426
871.1	6467
871.23	6627
871.36	6711
871.489	6677
871.619	6734
871.749	6852
871.879	6890
872.008	7008
872.138	6962
872.267	6943
872.397	7004
872.526	7095
872.656	7107
872.785	7160
872.915	7438
873.044	7521
873.173	7575
873.303	7613
873.432	7780
873.561	7845
873.69	7906
873.819	7974
873.948	8164
874.077	8206
874.206	8294
874.335	8415
874.464	8640
874.593	8811
874.722	8895
874.851	9070
874.979	9264
875.108	9313
875.237	9466
875.365	9523
875.494	9614
875.623	9880
875.751	9770
875.88	10002
876.008	10181
876.136	10253
876.265	10599
876.393	10702
876.521	10733
876.65	10843
876.778	10850
876.906	10835
877.034	11014
877.162	11113
877.29	11029
877.418	11261
877.546	11356
877.674	11372
877.802	11501
877.93	11543
878.058	11585
878.185	11551
878.313	11699
878.441	11676
878.568	11657
878.696	11805
878.824	11847
878.951	11920
879.079	11984
879.206	12064
879.333	12072
879.461	12045
879.588	12098
879.715	12114
879.842	12285
879.97	11950
880.097	11901
880.224	11802
880.351	11847
880.478	11942
880.605	11817
880.732	11912
880.859	11927
880.986	11798
881.112	11878
881.239	11775
881.366	11649
881.493	11691
881.619	11528
881.746	11535
881.872	11589
881.999	11509
882.125	11440
882.252	11554
882.378	11455
882.505	11611
882.631	11410
882.757	11261
882.883	11303
883.01	11334
883.136	11181
883.262	11071
883.388	11029
883.514	11121
883.64	11094
883.766	11098
883.892	10980
884.018	11029
884.143	11094
884.269	11067
884.395	10835
884.52	10786
884.646	10752
884.772	10702
884.897	10630
885.023	10637
885.148	10714
885.274	10797
885.399	10660
885.524	10649
885.65	10626
885.775	10538
885.9	10573
886.025	10550
886.15	10497
886.275	10481
886.4	10402
886.525	10489
886.65	10436
886.775	10295
886.9	10497
887.025	10504
887.149	10382
887.274	10223
887.399	10169
887.523	10188
887.648	10169
887.773	10158
887.897	10162
888.021	10227
888.146	10131
888.27	10238
888.395	10227
888.519	10128
888.643	10181
888.767	10131
888.891	10128
889.015	10036
889.139	10109
889.263	9987
889.387	10036
889.511	10158
889.635	10078
889.759	9869
889.883	9998
890.006	10010
890.13	10090
890.254	10006
890.377	9945
890.501	9827
890.624	9903
890.748	9937
890.871	9823
890.995	9819
891.118	9800
891.241	9804
891.364	9766
891.488	9766
891.611	9713
891.734	9797
891.857	9778
891.98	9720
892.103	9800
892.226	9644
892.349	9713
892.471	9542
892.594	9633
892.717	9644
892.839	9603
892.962	9644
893.085	9679
893.207	9644
893.33	9534
893.452	9435
893.575	9557
893.697	9485
893.819	9576
893.941	9599
894.064	9599
894.186	9473
894.308	9393
894.43	9587
894.552	9587
894.674	9561
894.796	9393
894.918	9336
895.04	9370
895.161	9408
895.283	9344
895.405	9203
895.526	9279
895.648	9283
895.769	9260
895.891	9173
896.012	9321
896.134	9211
896.255	9245
896.376	9161
896.498	9180
896.619	9093
896.74	9077
896.861	9070
896.982	9222
897.103	9359
897.224	9157
897.345	9039
897.466	9032
897.587	9055
897.708	9127
897.828	9020
897.949	8963
898.07	8864
898.19	8883
898.311	9024
898.431	8937
898.552	8853
898.672	8982
898.792	8902
898.913	8868
899.033	8720
899.153	8746
899.273	8625
899.393	8674
899.513	8712
899.633	8731
899.753	8758
899.873	8705
899.993	8731
900.113	8705
900.232	8651
900.352	8640
900.472	8651
900.591	8526
900.711	8568
900.83	8518
900.95	8648
901.069	8617
901.189	8549
901.308	8446
901.427	8347
901.546	8412
901.665	8549
901.784	8511
901.904	8358
902.023	8332
902.141	8206
902.26	8176
902.379	8263
902.498	8259
902.617	8248
902.735	8279
902.854	8279
902.973	8298
903.091	8183
903.21	8202
903.328	8119
903.446	8107
903.565	8043
903.683	8092
903.801	8046
903.919	8039
904.038	8123
904.156	7970
904.274	8084
904.392	7959
904.51	8031
904.627	7986
904.745	8043
904.863	8020
904.981	7913
905.098	7883
905.216	7898
905.334	7868
905.451	7890
905.569	7868
905.686	7906
905.803	7883
905.921	7799
906.038	7864
906.155	7746
906.272	7719
906.389	7712
906.506	7605
906.623	7586
906.74	7620
906.857	7483
906.974	7643
907.091	7643
907.208	7708
907.324	7681
907.441	7597
907.557	7468
907.674	7400
907.79	7415
907.907	7388
908.023	7373
908.139	7339
908.256	7396
908.372	7327
908.488	7244
908.604	7282
908.72	7217
908.836	7209
908.952	7187
909.068	7251
909.184	7339
909.3	7247
909.415	7301
909.531	7297
909.647	7160
909.762	7095
909.878	7076
909.993	7107
910.108	7114
910.224	7057
910.339	7107
910.454	7031
910.57	7015
910.685	6951
910.8	7160
910.915	7129
911.03	7027
911.145	6985
911.259	6852
911.374	6882
911.489	6840
911.604	6772
911.718	6681
911.833	6673
911.947	6673
912.062	6608
912.176	6669
912.291	6707
912.405	6749
912.519	6764
912.633	6814
912.748	6779
912.862	6726
912.976	6631
913.09	6570
913.204	6585
913.318	6612
913.431	6650
913.545	6715
913.659	6681
913.772	6722
913.886	6597
914	6566
914.113	6593
914.226	6593
914.34	6547
914.453	6513
914.566	6639
914.68	6544
914.793	6528
914.906	6376
915.019	6388
915.132	6395
915.245	6467
915.358	6445
915.47	6391
915.583	6467
915.696	6479
915.809	6513
915.921	6513
916.034	6422
916.146	6456
916.259	6403
916.371	6471
916.483	6479
916.595	6422
916.708	6399
916.82	6365
916.932	6410
917.044	6399
917.156	6388
917.268	6304
917.38	6350
917.491	6323
917.603	6327
917.715	6369
917.826	6369
917.938	6277
918.049	6239
918.161	6334
918.272	6365
918.384	6407
918.495	6331
918.606	6258
918.717	6197
918.828	6235
918.939	6315
919.05	6178
919.161	6228
919.272	6129
919.383	6152
919.494	6292
919.604	6422
919.715	6296
919.826	6171
919.936	6228
920.047	6266
920.157	6247
920.267	6391
920.378	6289
920.488	6254
920.598	6441
920.708	6555
920.818	6467
920.928	6426
921.038	6525
921.148	6563
921.258	6304
921.368	6300
921.477	6197
921.587	6167
921.697	6083
921.806	6159
921.916	6034
922.025	5942
922.134	5901
922.244	5874
922.353	5984
922.462	5855
922.571	5767
922.68	5764
922.789	5638
922.898	5661
923.007	5596
923.116	5726
923.224	5676
923.333	5714
923.442	5604
923.55	5573
923.659	5516
923.767	5627
923.876	5615
923.984	5608
924.092	5455
924.201	5524
924.309	5532
924.417	5520
924.525	5455
924.633	5516
924.741	6251
924.849	5326
924.956	5444
925.064	5349
925.172	5280
925.279	5296
925.387	5307
925.494	5330
925.602	5436
925.709	5387
925.816	5250
925.924	5334
926.031	5387
926.138	5280
926.245	5307
926.352	5204
926.459	5307
926.566	5330
926.673	5193
926.779	5128
926.886	5075
926.993	5033
927.099	5018
927.206	4930
927.312	4961
927.419	5025
927.525	4984
927.631	5010
927.737	4889
927.843	4915
927.95	4748
928.056	4793
928.162	4786
928.267	4870
928.373	5322
928.479	4847
928.585	4618
928.69	4831
928.796	4809
928.901	4702
929.007	4584
929.112	4641
929.218	4641
929.323	4607
929.428	4550
929.533	4691
929.638	4516
929.743	4554
929.848	4558
929.953	4493
930.058	4478
930.163	4318
930.267	4348
930.372	4363
930.477	4322
930.581	4451
930.685	4360
930.79	4276
930.894	4306
930.998	4257
931.103	4352
931.207	4181
931.311	4071
931.415	4040
931.519	3922
931.623	3968
