Data from glass_V78500241_79.txt Node
Date: Wed Sep 01 19:15:02 CST 2021
User: usil
Spectrometer: V785-0024
Trigger mode: 0
Integration Time (sec): 4.000000E-1
Scans to average: 1
Nonlinearity correction enabled: false
Boxcar width: 0
Storing dark spectrum: false
XAxis mode: Wavelengths
Number of Pixels in Spectrum: 1024
>>>>>Begin Spectral Data<<<<<
801.071	3762
801.214	3740
801.356	3728
801.499	3774
801.641	3770
801.783	3808
801.926	3911
802.068	3854
802.211	3857
802.353	3846
802.496	3850
802.638	3926
802.78	3918
802.923	3991
803.065	3915
803.208	3884
803.35	3903
803.492	3945
803.635	3922
803.777	3861
803.919	3922
804.061	4215
804.204	3987
804.346	3937
804.488	3884
804.63	4059
804.773	4025
804.915	4032
805.057	4169
805.199	4051
805.341	4044
805.483	4128
805.626	4192
805.768	4128
805.91	4234
806.052	4268
806.194	4211
806.336	4367
806.478	4219
806.62	4188
806.762	4234
806.904	4295
807.046	4314
807.188	4249
807.33	4215
807.472	4268
807.614	4204
807.756	4303
807.898	4253
808.04	4246
808.182	4291
808.324	4322
808.465	4417
808.607	4489
808.749	4481
808.891	4451
809.033	4523
809.174	4371
809.316	4276
809.458	4261
809.6	4185
809.741	4185
809.883	4131
810.025	4230
810.166	4242
810.308	4192
810.45	4303
810.591	4230
810.733	4310
810.875	4527
811.016	4877
811.158	5113
811.299	5231
811.441	5372
811.582	5079
811.724	4729
811.865	4459
812.007	4474
812.148	4421
812.29	4443
812.431	4409
812.573	4443
812.714	4383
812.855	4447
812.997	4489
813.138	4527
813.279	4440
813.421	4379
813.562	4413
813.703	4310
813.845	4344
813.986	4276
814.127	4223
814.268	4299
814.41	4306
814.551	4299
814.692	4333
814.833	4268
814.974	4265
815.115	4405
815.256	4234
815.397	4276
815.539	4238
815.68	4173
815.821	4185
815.962	4299
816.103	4314
816.244	4238
816.385	4249
816.526	4287
816.666	4211
816.807	4143
816.948	4196
817.089	4177
817.23	4120
817.371	4071
817.512	4063
817.653	4082
817.793	4055
817.934	4059
818.075	4147
818.216	4109
818.356	4097
818.497	3991
818.638	3964
818.778	3915
818.919	3915
819.06	3861
819.2	3953
819.341	3857
819.481	3907
819.622	3972
819.762	3991
819.903	3987
820.043	3876
820.184	3842
820.324	3873
820.465	3861
820.605	3876
820.746	3926
820.886	3827
821.026	3964
821.167	3934
821.307	4010
821.447	4013
821.588	3953
821.728	3994
821.868	3983
822.008	3869
822.149	3888
822.289	3888
822.429	3766
822.569	3774
822.709	3835
822.849	3705
822.99	3705
823.13	3842
823.27	3789
823.41	3759
823.55	3732
823.69	3720
823.83	3724
823.97	3690
824.11	3629
824.25	3625
824.389	3641
824.529	3679
824.669	3671
824.809	3728
824.949	3804
825.089	3728
825.228	3694
825.368	3656
825.508	3584
825.648	3561
825.787	3622
825.927	3663
826.067	3679
826.206	3713
826.346	3831
826.485	3865
826.625	3892
826.765	3941
826.904	3842
827.044	3595
827.183	3538
827.323	3435
827.462	3477
827.601	3458
827.741	3447
827.88	3454
828.02	3420
828.159	3466
828.298	3485
828.437	3549
828.577	3496
828.716	3656
828.855	3515
828.994	3409
829.134	3409
829.273	3420
829.412	3348
829.551	3348
829.69	3351
829.829	3454
829.968	3542
830.107	3492
830.246	3439
830.385	3382
830.524	3389
830.663	3321
830.802	3256
830.941	3222
831.08	3226
831.219	3256
831.357	3249
831.496	3393
831.635	3211
831.774	3226
831.913	3233
832.051	3150
832.19	3192
832.329	3165
832.467	3188
832.606	3112
832.744	3188
832.883	3192
833.022	3207
833.16	3287
833.299	3310
833.437	3348
833.576	3359
833.714	3428
833.852	3443
833.991	3450
834.129	3469
834.267	3462
834.406	3416
834.544	3443
834.682	3424
834.821	3428
834.959	3576
835.097	3454
835.235	3519
835.373	3504
835.511	3538
835.65	3496
835.788	3496
835.926	3439
836.064	3431
836.202	3454
836.34	3576
836.478	3656
836.615	3564
836.753	3652
836.891	3671
837.029	3633
837.167	3610
837.305	3584
837.443	3606
837.58	3500
837.718	3652
837.856	3591
837.993	3549
838.131	3637
838.269	3545
838.406	3591
838.544	3561
838.681	3488
838.819	3443
838.956	3389
839.094	3367
839.231	3466
839.369	3557
839.506	3789
839.643	3686
839.781	3530
839.918	3488
840.055	3534
840.193	3545
840.33	3523
840.467	3576
840.604	3637
840.742	3861
840.879	3595
841.016	3576
841.153	3580
841.29	3812
841.427	3736
841.564	3728
841.701	3759
841.838	3724
841.975	3717
842.112	3751
842.249	3686
842.385	3641
842.522	3827
842.659	3709
842.796	3698
842.933	3740
843.069	3724
843.206	3724
843.343	3812
843.479	3800
843.616	3842
843.752	3690
843.889	3690
844.025	3899
844.162	3747
844.298	3857
844.435	3861
844.571	3816
844.708	3880
844.844	3983
844.98	4021
845.117	3983
845.253	3941
845.389	3953
845.525	3968
845.661	3987
845.798	3953
845.934	4048
846.07	3972
846.206	4086
846.342	4154
846.478	4116
846.614	3998
846.75	3937
846.886	3922
847.022	4093
847.158	3994
847.294	4029
847.429	4010
847.565	4025
847.701	4276
847.837	3922
847.972	3888
848.108	3975
848.244	3987
848.379	3896
848.515	3835
848.65	3812
848.786	3865
848.921	3873
849.057	3953
849.192	3949
849.328	3918
849.463	3972
849.598	3907
849.734	3876
849.869	3838
850.004	3778
850.14	3812
850.275	3797
850.41	3762
850.545	3785
850.68	3827
850.815	3838
850.95	3808
851.085	4021
851.22	3880
851.355	3808
851.49	3800
851.625	3793
851.76	3831
851.895	3743
852.03	3781
852.165	3857
852.299	3854
852.434	3941
852.569	3873
852.703	3907
852.838	3934
852.973	3991
853.107	3998
853.242	3918
853.376	3846
853.511	3804
853.645	3869
853.78	4029
853.914	3896
854.048	3934
854.183	3918
854.317	3968
854.451	4040
854.585	3994
854.72	3960
854.854	4036
854.988	3960
855.122	4025
855.256	3949
855.39	4036
855.524	4128
855.658	4135
855.792	4101
855.926	4162
856.06	4181
856.194	4207
856.327	4188
856.461	4150
856.595	4169
856.729	4192
856.862	4325
856.996	4257
857.13	4352
857.263	4337
857.397	4390
857.53	4276
857.664	4379
857.797	4398
857.931	4462
858.064	4428
858.197	4459
858.331	4405
858.464	4386
858.597	4333
858.731	4436
858.864	4443
858.997	4493
859.13	4516
859.263	4542
859.396	4554
859.529	4573
859.662	4596
859.795	4489
859.928	4611
860.061	4679
860.194	4793
860.327	4672
860.46	4653
860.592	4714
860.725	4790
860.858	4816
860.99	4698
861.123	4694
861.256	4694
861.388	4748
861.521	5421
861.653	4694
861.786	4744
861.918	4771
862.05	4797
862.183	4873
862.315	4885
862.447	4991
862.58	4900
862.712	4824
862.844	4793
862.976	4896
863.108	4908
863.24	5265
863.372	4793
863.504	4946
863.636	4904
863.768	4938
863.9	5010
864.032	4915
864.164	4972
864.296	5003
864.428	5105
864.559	5121
864.691	5090
864.823	5113
864.954	5136
865.086	5197
865.217	5143
865.349	5121
865.48	5159
865.612	5181
865.743	5284
865.875	5208
866.006	5185
866.137	5223
866.269	5269
866.4	5239
866.531	5269
866.662	5246
866.793	5280
866.924	5277
867.055	5353
867.186	5372
867.317	5311
867.448	5360
867.579	5379
867.71	5406
867.841	5398
867.972	5505
868.103	5459
868.233	5509
868.364	5490
868.495	5509
868.625	5672
868.756	5760
868.886	5722
869.017	5718
869.147	5874
869.278	5847
869.408	5786
869.539	5844
869.669	5942
869.799	5977
869.929	6034
870.06	5954
870.19	6243
870.32	6148
870.45	6292
870.58	6380
870.71	6483
870.84	6460
870.97	6407
871.1	6464
871.23	6620
871.36	6700
871.489	6673
871.619	6760
871.749	6814
871.879	6875
872.008	7042
872.138	6981
872.267	6981
872.397	7088
872.526	7034
872.656	7095
872.785	7183
872.915	7358
873.044	7537
873.173	7529
873.303	7681
873.432	7727
873.561	7917
873.69	7906
873.819	8027
873.948	8176
874.077	8320
874.206	8389
874.335	8419
874.464	8693
874.593	8853
874.722	8921
874.851	9146
874.979	9253
875.108	9393
875.237	9439
875.365	9507
875.494	9682
875.623	9800
875.751	9873
875.88	10036
876.008	10192
876.136	10268
876.265	10558
876.393	10729
876.521	10721
876.65	10847
876.778	10953
876.906	10927
877.034	11018
877.162	11132
877.29	11140
877.418	11258
877.546	11376
877.674	11539
877.802	11520
877.93	11444
878.058	11615
878.185	11585
878.313	11688
878.441	11771
878.568	11737
878.696	11718
878.824	11828
878.951	12011
879.079	12003
879.206	12163
879.333	12053
879.461	12106
879.588	12019
879.715	12098
879.842	12277
879.97	12003
880.097	11901
880.224	11832
880.351	11908
880.478	11961
880.605	11908
880.732	11847
880.859	11988
880.986	11885
881.112	11802
881.239	11748
881.366	11665
881.493	11611
881.619	11558
881.746	11505
881.872	11490
881.999	11497
882.125	11535
882.252	11459
882.378	11520
882.505	11551
882.631	11376
882.757	11353
882.883	11326
883.01	11235
883.136	11162
883.262	11109
883.388	11197
883.514	11193
883.64	11124
883.766	11064
883.892	11041
884.018	11010
884.143	11083
884.269	11064
884.395	10869
884.52	10687
884.646	10752
884.772	10843
884.897	10637
885.023	10702
885.148	10721
885.274	10767
885.399	10744
885.524	10599
885.65	10596
885.775	10611
885.9	10573
886.025	10580
886.15	10527
886.275	10497
886.4	10348
886.525	10421
886.65	10428
886.775	10382
886.9	10443
887.025	10637
887.149	10421
887.274	10242
887.399	10234
887.523	10204
887.648	10188
887.773	10124
887.897	10268
888.021	10234
888.146	10143
888.27	10249
888.395	10276
888.519	10227
888.643	10200
888.767	10207
888.891	10139
889.015	9968
889.139	10078
889.263	9983
889.387	10128
889.511	10093
889.635	10071
889.759	9907
889.883	10017
890.006	10002
890.13	10139
890.254	9972
890.377	9930
890.501	9823
890.624	9956
890.748	9903
890.871	9823
890.995	9690
891.118	9751
891.241	9766
891.364	9759
891.488	9888
891.611	9724
891.734	9781
891.857	9698
891.98	9770
892.103	9789
892.226	9686
892.349	9679
892.471	9572
892.594	9564
892.717	9709
892.839	9618
892.962	9584
893.085	9656
893.207	9610
893.33	9523
893.452	9530
893.575	9656
893.697	9500
893.819	9610
893.941	9652
894.064	9599
894.186	9485
894.308	9458
894.43	9557
894.552	9572
894.674	9553
894.796	9431
894.918	9382
895.04	9351
895.161	9420
895.283	9336
895.405	9306
895.526	9245
895.648	9264
895.769	9249
895.891	9260
896.012	9351
896.134	9195
896.255	9176
896.376	9142
896.498	9184
896.619	9123
896.74	9127
896.861	9116
896.982	9249
897.103	9348
897.224	9169
897.345	9203
897.466	8956
897.587	9051
897.708	9089
897.828	9024
897.949	8960
898.07	8921
898.19	8937
898.311	9024
898.431	8895
898.552	8982
898.672	8998
898.792	8960
898.913	8914
899.033	8838
899.153	8758
899.273	8727
899.393	8727
899.513	8796
899.633	8724
899.753	8769
899.873	8716
899.993	8720
900.113	8686
900.232	8739
900.352	8610
900.472	8682
900.591	8552
900.711	8606
900.83	8518
900.95	8697
901.069	8693
901.189	8598
901.308	8404
901.427	8381
901.546	8469
901.665	8480
901.784	8499
901.904	8396
902.023	8370
902.141	8343
902.26	8237
902.379	8279
902.498	8328
902.617	8233
902.735	8271
902.854	8244
902.973	8336
903.091	8180
903.21	8142
903.328	8240
903.446	8123
903.565	8054
903.683	8111
903.801	8130
903.919	8084
904.038	8134
904.156	8027
904.274	8157
904.392	8008
904.51	8062
904.627	7997
904.745	8084
904.863	8111
904.981	7928
905.098	7887
905.216	7928
905.334	7932
905.451	7917
905.569	7963
905.686	7944
905.803	7928
905.921	7750
906.038	7879
906.155	7792
906.272	7757
906.389	7734
906.506	7712
906.623	7666
906.74	7670
906.857	7559
906.974	7655
907.091	7639
907.208	7738
907.324	7616
907.441	7628
907.557	7422
907.674	7502
907.79	7445
907.907	7411
908.023	7468
908.139	7434
908.256	7426
908.372	7430
908.488	7354
908.604	7270
908.72	7263
908.836	7320
908.952	7278
909.068	7266
909.184	7308
909.3	7225
909.415	7312
909.531	7217
909.647	7171
909.762	7133
909.878	7084
909.993	7149
910.108	7088
910.224	7080
910.339	7038
910.454	7065
910.57	7038
910.685	6928
910.8	7175
910.915	7122
911.03	7012
911.145	6897
911.259	6852
911.374	6928
911.489	6882
911.604	6814
911.718	6749
911.833	6745
911.947	6684
912.062	6593
912.176	6669
912.291	6688
912.405	6730
912.519	6772
912.633	6848
912.748	6673
912.862	6730
912.976	6589
913.09	6525
913.204	6650
913.318	6669
913.431	6730
913.545	6642
913.659	6753
913.772	6662
913.886	6582
914	6612
914.113	6673
914.226	6623
914.34	6642
914.453	6452
914.566	6608
914.68	6559
914.793	6521
914.906	6445
915.019	6433
915.132	6346
915.245	6403
915.358	6471
915.47	6490
915.583	6471
915.696	6467
915.809	6559
915.921	6544
916.034	6445
916.146	6437
916.259	6327
916.371	6422
916.483	6490
916.595	6422
916.708	6445
916.82	6418
916.932	6388
917.044	6437
917.156	6399
917.268	6342
917.38	6342
917.491	6308
917.603	6327
917.715	6369
917.826	6403
917.938	6353
918.049	6338
918.161	6369
918.272	6399
918.384	6509
918.495	6395
918.606	6258
918.717	6232
918.828	6285
918.939	6277
919.05	6205
919.161	6205
919.272	6144
919.383	6163
919.494	6331
919.604	6525
919.715	6289
919.826	6194
919.936	6254
920.047	6365
920.157	6319
920.267	6448
920.378	6357
920.488	6300
920.598	6479
920.708	6582
920.818	6452
920.928	6460
921.038	6612
921.148	6604
921.258	6334
921.368	6327
921.477	6235
921.587	6216
921.697	6091
921.806	6194
921.916	6136
922.025	6026
922.134	5946
922.244	5904
922.353	5939
922.462	5844
922.571	5809
922.68	5688
922.789	5718
922.898	5672
923.007	5695
923.116	5729
923.224	5653
923.333	5699
923.442	5600
923.55	5634
923.659	5642
923.767	5665
923.876	5512
923.984	5634
924.092	5535
924.201	5547
924.309	5558
924.417	5547
924.525	5455
924.633	5490
924.741	6342
924.849	5334
924.956	5486
925.064	5345
925.172	5322
925.279	5334
925.387	5379
925.494	5345
925.602	5463
925.709	5406
925.816	5326
925.924	5296
926.031	5372
926.138	5337
926.245	5360
926.352	5284
926.459	5337
926.566	5372
926.673	5227
926.779	5178
926.886	5136
926.993	5090
927.099	5003
927.206	4984
927.312	4957
927.419	5037
927.525	5003
927.631	4980
927.737	4927
927.843	4843
927.95	4740
928.056	4854
928.162	4873
928.267	4881
928.373	5357
928.479	4900
928.585	4687
928.69	4835
928.796	4774
928.901	4694
929.007	4558
929.112	4668
929.218	4672
929.323	4577
929.428	4618
929.533	4664
929.638	4535
929.743	4573
929.848	4519
929.953	4455
930.058	4451
930.163	4341
930.267	4341
930.372	4462
930.477	4325
930.581	4493
930.685	4379
930.79	4303
930.894	4344
930.998	4272
931.103	4363
931.207	4120
931.311	4116
931.415	4078
931.519	3926
931.623	3949
