Data from glass_V78500241_1394.txt Node
Date: Wed Sep 01 19:24:09 CST 2021
User: usil
Spectrometer: V785-0024
Trigger mode: 0
Integration Time (sec): 4.000000E-1
Scans to average: 1
Nonlinearity correction enabled: false
Boxcar width: 0
Storing dark spectrum: false
XAxis mode: Wavelengths
Number of Pixels in Spectrum: 1024
>>>>>Begin Spectral Data<<<<<
801.071	3717
801.214	3762
801.356	3724
801.499	3770
801.641	3747
801.783	3804
801.926	3911
802.068	3846
802.211	3808
802.353	3854
802.496	3854
802.638	3861
802.78	3922
802.923	3953
803.065	3899
803.208	3812
803.35	3835
803.492	3873
803.635	3899
803.777	3823
803.919	3903
804.061	4192
804.204	3994
804.346	3915
804.488	3949
804.63	4074
804.773	3934
804.915	4010
805.057	4116
805.199	4051
805.341	4086
805.483	4166
805.626	4188
805.768	4109
805.91	4230
806.052	4242
806.194	4268
806.336	4356
806.478	4200
806.62	4188
806.762	4169
806.904	4253
807.046	4360
807.188	4242
807.33	4162
807.472	4234
807.614	4181
807.756	4265
807.898	4257
808.04	4192
808.182	4261
808.324	4287
808.465	4363
808.607	4428
808.749	4432
808.891	4504
809.033	4493
809.174	4386
809.316	4291
809.458	4268
809.6	4147
809.741	4188
809.883	4120
810.025	4196
810.166	4196
810.308	4261
810.45	4227
810.591	4242
810.733	4284
810.875	4535
811.016	4866
811.158	5113
811.299	5265
811.441	5284
811.582	5029
811.724	4714
811.865	4443
812.007	4462
812.148	4447
812.29	4474
812.431	4402
812.573	4409
812.714	4398
812.855	4440
812.997	4436
813.138	4489
813.279	4447
813.421	4421
813.562	4405
813.703	4348
813.845	4325
813.986	4257
814.127	4261
814.268	4276
814.41	4257
814.551	4268
814.692	4333
814.833	4291
814.974	4287
815.115	4375
815.256	4261
815.397	4230
815.539	4246
815.68	4154
815.821	4219
815.962	4280
816.103	4303
816.244	4223
816.385	4234
816.526	4268
816.666	4188
816.807	4044
816.948	4147
817.089	4196
817.23	4150
817.371	4093
817.512	4071
817.653	4067
817.793	4006
817.934	4067
818.075	4067
818.216	4063
818.356	4040
818.497	3998
818.638	3922
818.778	3949
818.919	3880
819.06	3846
819.2	3937
819.341	3854
819.481	3831
819.622	3903
819.762	4029
819.903	3991
820.043	3884
820.184	3842
820.324	3831
820.465	3865
820.605	3892
820.746	3838
820.886	3781
821.026	3960
821.167	3903
821.307	3972
821.447	3991
821.588	3994
821.728	3975
821.868	3975
822.008	3888
822.149	3941
822.289	3945
822.429	3797
822.569	3789
822.709	3789
822.849	3709
822.99	3713
823.13	3774
823.27	3800
823.41	3701
823.55	3766
823.69	3732
823.83	3766
823.97	3690
824.11	3618
824.25	3553
824.389	3637
824.529	3660
824.669	3644
824.809	3698
824.949	3751
825.089	3694
825.228	3660
825.368	3576
825.508	3519
825.648	3545
825.787	3633
825.927	3644
826.067	3629
826.206	3690
826.346	3781
826.485	3816
826.625	3854
826.765	3926
826.904	3857
827.044	3618
827.183	3511
827.323	3431
827.462	3500
827.601	3401
827.741	3454
827.88	3454
828.02	3370
828.159	3450
828.298	3523
828.437	3534
828.577	3458
828.716	3587
828.855	3485
828.994	3409
829.134	3378
829.273	3386
829.412	3389
829.551	3348
829.69	3351
829.829	3405
829.968	3511
830.107	3473
830.246	3428
830.385	3329
830.524	3367
830.663	3306
830.802	3245
830.941	3188
831.08	3245
831.219	3230
831.357	3268
831.496	3428
831.635	3230
831.774	3184
831.913	3199
832.051	3150
832.19	3135
832.329	3192
832.467	3135
832.606	3127
832.744	3150
832.883	3184
833.022	3207
833.16	3268
833.299	3302
833.437	3348
833.576	3416
833.714	3424
833.852	3454
833.991	3416
834.129	3458
834.267	3458
834.406	3386
834.544	3431
834.682	3454
834.821	3397
834.959	3587
835.097	3431
835.235	3572
835.373	3450
835.511	3511
835.65	3450
835.788	3466
835.926	3382
836.064	3393
836.202	3397
836.34	3576
836.478	3587
836.615	3580
836.753	3606
836.891	3622
837.029	3629
837.167	3606
837.305	3511
837.443	3553
837.58	3492
837.718	3625
837.856	3542
837.993	3534
838.131	3564
838.269	3568
838.406	3584
838.544	3591
838.681	3485
838.819	3450
838.956	3370
839.094	3378
839.231	3481
839.369	3496
839.506	3747
839.643	3656
839.781	3462
839.918	3477
840.055	3519
840.193	3576
840.33	3523
840.467	3561
840.604	3625
840.742	3781
840.879	3591
841.016	3591
841.153	3633
841.29	3747
841.427	3762
841.564	3732
841.701	3686
841.838	3682
841.975	3720
842.112	3747
842.249	3625
842.385	3656
842.522	3827
842.659	3694
842.796	3667
842.933	3743
843.069	3728
843.206	3701
843.343	3808
843.479	3838
843.616	3808
843.752	3667
843.889	3690
844.025	3842
844.162	3698
844.298	3816
844.435	3827
844.571	3755
844.708	3915
844.844	4017
844.98	4032
845.117	4040
845.253	3911
845.389	3937
845.525	3979
845.661	3968
845.798	3915
845.934	3979
846.07	3949
846.206	4051
846.342	4162
846.478	4093
846.614	3937
846.75	3956
846.886	3857
847.022	4059
847.158	3983
847.294	4017
847.429	4036
847.565	3949
847.701	4265
847.837	3892
847.972	3842
848.108	3987
848.244	4017
848.379	3884
848.515	3835
848.65	3797
848.786	3823
848.921	3842
849.057	3945
849.192	3937
849.328	3915
849.463	3907
849.598	3857
849.734	3873
849.869	3838
850.004	3800
850.14	3819
850.275	3762
850.41	3705
850.545	3747
850.68	3816
850.815	3831
850.95	3793
851.085	3975
851.22	3907
851.355	3804
851.49	3831
851.625	3785
851.76	3831
851.895	3759
852.03	3774
852.165	3816
852.299	3823
852.434	3922
852.569	3892
852.703	3880
852.838	3930
852.973	4021
853.107	3956
853.242	3907
853.376	3880
853.511	3785
853.645	3861
853.78	3941
853.914	3915
854.048	3861
854.183	3876
854.317	3983
854.451	4090
854.585	3983
854.72	3937
854.854	4036
854.988	3968
855.122	3983
855.256	3903
855.39	4017
855.524	4097
855.658	4078
855.792	4120
855.926	4116
856.06	4166
856.194	4246
856.327	4128
856.461	4143
856.595	4177
856.729	4139
856.862	4265
856.996	4253
857.13	4303
857.263	4363
857.397	4375
857.53	4284
857.664	4348
857.797	4371
857.931	4394
858.064	4398
858.197	4462
858.331	4424
858.464	4421
858.597	4341
858.731	4424
858.864	4466
858.997	4466
859.13	4508
859.263	4542
859.396	4592
859.529	4523
859.662	4519
859.795	4493
859.928	4622
860.061	4725
860.194	4748
860.327	4675
860.46	4649
860.592	4759
860.725	4748
860.858	4805
860.99	4725
861.123	4691
861.256	4714
861.388	4793
861.521	5326
861.653	4740
861.786	4744
861.918	4710
862.05	4816
862.183	4850
862.315	4870
862.447	4930
862.58	4870
862.712	4835
862.844	4805
862.976	4847
863.108	4866
863.24	5151
863.372	4843
863.504	4900
863.636	4892
863.768	5014
863.9	4995
864.032	4965
864.164	4968
864.296	5052
864.428	5094
864.559	5102
864.691	5071
864.823	5162
864.954	5109
865.086	5166
865.217	5143
865.349	5113
865.48	5193
865.612	5159
865.743	5345
865.875	5162
866.006	5178
866.137	5201
866.269	5246
866.4	5318
866.531	5212
866.662	5299
866.793	5265
866.924	5299
867.055	5303
867.186	5357
867.317	5337
867.448	5299
867.579	5410
867.71	5345
867.841	5406
867.972	5387
868.103	5478
868.233	5467
868.364	5486
868.495	5528
868.625	5676
868.756	5726
868.886	5676
869.017	5714
869.147	5851
869.278	5908
869.408	5794
869.539	5836
869.669	5942
869.799	5901
869.929	6003
870.06	6030
870.19	6159
870.32	6251
870.45	6273
870.58	6334
870.71	6448
870.84	6452
870.97	6384
871.1	6437
871.23	6688
871.36	6654
871.489	6658
871.619	6741
871.749	6852
871.879	6871
872.008	7008
872.138	7008
872.267	7031
872.397	6985
872.526	7057
872.656	7061
872.785	7209
872.915	7419
873.044	7521
873.173	7533
873.303	7647
873.432	7715
873.561	7883
873.69	7898
873.819	7963
873.948	8191
874.077	8221
874.206	8290
874.335	8454
874.464	8663
874.593	8845
874.722	8956
874.851	9127
874.979	9291
875.108	9420
875.237	9443
875.365	9477
875.494	9641
875.623	9819
875.751	9778
875.88	10051
876.008	10158
876.136	10230
876.265	10459
876.393	10626
876.521	10793
876.65	10786
876.778	10854
876.906	10892
877.034	10999
877.162	11132
877.29	11105
877.418	11303
877.546	11299
877.674	11349
877.802	11493
877.93	11459
878.058	11543
878.185	11577
878.313	11642
878.441	11771
878.568	11748
878.696	11748
878.824	11866
878.951	11908
879.079	12026
879.206	12121
879.333	12091
879.461	11965
879.588	11980
879.715	12106
879.842	12186
879.97	12136
880.097	11958
880.224	11843
880.351	11977
880.478	11916
880.605	11821
880.732	11809
880.859	11958
880.986	11904
881.112	11832
881.239	11809
881.366	11672
881.493	11577
881.619	11482
881.746	11566
881.872	11535
881.999	11524
882.125	11486
882.252	11551
882.378	11493
882.505	11558
882.631	11318
882.757	11334
882.883	11379
883.01	11227
883.136	11197
883.262	11170
883.388	11083
883.514	11189
883.64	11208
883.766	11124
883.892	10991
884.018	10961
884.143	11029
884.269	11121
884.395	10831
884.52	10793
884.646	10725
884.772	10733
884.897	10615
885.023	10679
885.148	10672
885.274	10744
885.399	10618
885.524	10531
885.65	10546
885.775	10573
885.9	10664
886.025	10615
886.15	10561
886.275	10489
886.4	10386
886.525	10447
886.65	10325
886.775	10325
886.9	10455
887.025	10546
887.149	10333
887.274	10234
887.399	10242
887.523	10154
887.648	10166
887.773	10147
887.897	10219
888.021	10207
888.146	10150
888.27	10276
888.395	10188
888.519	10147
888.643	10227
888.767	10169
888.891	10055
889.015	10017
889.139	10067
889.263	9998
889.387	10086
889.511	10040
889.635	10112
889.759	9998
889.883	9922
890.006	10002
890.13	10150
890.254	9998
890.377	9949
890.501	9842
890.624	9884
890.748	9876
890.871	9835
890.995	9743
891.118	9679
891.241	9808
891.364	9709
891.488	9865
891.611	9785
891.734	9747
891.857	9774
891.98	9732
892.103	9781
892.226	9755
892.349	9652
892.471	9545
892.594	9656
892.717	9652
892.839	9614
892.962	9599
893.085	9667
893.207	9625
893.33	9485
893.452	9561
893.575	9625
893.697	9545
893.819	9545
893.941	9576
894.064	9576
894.186	9454
894.308	9431
894.43	9576
894.552	9595
894.674	9496
894.796	9374
894.918	9450
895.04	9344
895.161	9389
895.283	9348
895.405	9226
895.526	9233
895.648	9195
895.769	9222
895.891	9306
896.012	9256
896.134	9150
896.255	9207
896.376	9169
896.498	9180
896.619	9180
896.74	9093
896.861	9051
896.982	9268
897.103	9298
897.224	9173
897.345	9100
897.466	9013
897.587	9013
897.708	9077
897.828	9013
897.949	8960
898.07	8849
898.19	8891
898.311	9047
898.431	8941
898.552	8944
898.672	8952
898.792	8914
898.913	8868
899.033	8849
899.153	8750
899.273	8689
899.393	8727
899.513	8777
899.633	8720
899.753	8769
899.873	8769
899.993	8682
900.113	8629
900.232	8701
900.352	8670
900.472	8651
900.591	8587
900.711	8670
900.83	8564
900.95	8651
901.069	8697
901.189	8568
901.308	8434
901.427	8351
901.546	8454
901.665	8476
901.784	8602
901.904	8400
902.023	8393
902.141	8244
902.26	8183
902.379	8301
902.498	8279
902.617	8275
902.735	8332
902.854	8286
902.973	8210
903.091	8157
903.21	8191
903.328	8176
903.446	8161
903.565	8031
903.683	8142
903.801	8123
903.919	8157
904.038	8172
904.156	7955
904.274	8092
904.392	7993
904.51	8039
904.627	8096
904.745	8054
904.863	8111
904.981	7936
905.098	7845
905.216	7909
905.334	7864
905.451	7913
905.569	7974
905.686	7879
905.803	7898
905.921	7719
906.038	7906
906.155	7769
906.272	7708
906.389	7696
906.506	7655
906.623	7586
906.74	7582
906.857	7518
906.974	7563
907.091	7693
907.208	7772
907.324	7628
907.441	7548
907.557	7529
907.674	7430
907.79	7445
907.907	7422
908.023	7491
908.139	7381
908.256	7377
908.372	7449
908.488	7384
908.604	7244
908.72	7232
908.836	7247
908.952	7209
909.068	7255
909.184	7320
909.3	7270
909.415	7263
909.531	7251
909.647	7114
909.762	7107
909.878	7129
909.993	7084
910.108	7133
910.224	7080
910.339	7122
910.454	7050
910.57	6981
910.685	6989
910.8	7164
910.915	7088
911.03	7015
911.145	6924
911.259	6863
911.374	6844
911.489	6779
911.604	6818
911.718	6719
911.833	6726
911.947	6688
912.062	6563
912.176	6745
912.291	6688
912.405	6715
912.519	6814
912.633	6776
912.748	6764
912.862	6700
912.976	6642
913.09	6555
913.204	6547
913.318	6662
913.431	6707
913.545	6665
913.659	6726
913.772	6631
913.886	6589
914	6578
914.113	6578
914.226	6646
914.34	6582
914.453	6471
914.566	6650
914.68	6540
914.793	6563
914.906	6365
915.019	6414
915.132	6384
915.245	6422
915.358	6460
915.47	6433
915.583	6486
915.696	6471
915.809	6559
915.921	6513
916.034	6395
916.146	6395
916.259	6399
916.371	6452
916.483	6452
916.595	6403
916.708	6437
916.82	6372
916.932	6410
917.044	6380
917.156	6418
917.268	6346
917.38	6334
917.491	6327
917.603	6384
917.715	6380
917.826	6433
917.938	6353
918.049	6239
918.161	6369
918.272	6437
918.384	6418
918.495	6403
918.606	6289
918.717	6182
918.828	6266
918.939	6239
919.05	6224
919.161	6243
919.272	6045
919.383	6148
919.494	6311
919.604	6433
919.715	6308
919.826	6239
919.936	6235
920.047	6369
920.157	6197
920.267	6460
920.378	6300
920.488	6342
920.598	6437
920.708	6578
920.818	6486
920.928	6452
921.038	6608
921.148	6604
921.258	6353
921.368	6338
921.477	6247
921.587	6186
921.697	6030
921.806	6194
921.916	6091
922.025	6045
922.134	5954
922.244	5942
922.353	5935
922.462	5844
922.571	5844
922.68	5699
922.789	5695
922.898	5672
923.007	5619
923.116	5748
923.224	5630
923.333	5691
923.442	5649
923.55	5573
923.659	5596
923.767	5604
923.876	5558
923.984	5630
924.092	5539
924.201	5501
924.309	5547
924.417	5573
924.525	5493
924.633	5501
924.741	6296
924.849	5326
924.956	5497
925.064	5345
925.172	5284
925.279	5311
925.387	5360
925.494	5349
925.602	5376
925.709	5391
925.816	5235
925.924	5341
926.031	5349
926.138	5303
926.245	5334
926.352	5242
926.459	5307
926.566	5330
926.673	5189
926.779	5117
926.886	5174
926.993	5014
927.099	4980
927.206	4946
927.312	4995
927.419	5003
927.525	4984
927.631	5003
927.737	4942
927.843	4877
927.95	4736
928.056	4824
928.162	4831
928.267	4877
928.373	5231
928.479	4870
928.585	4683
928.69	4759
928.796	4793
928.901	4668
929.007	4599
929.112	4668
929.218	4675
929.323	4615
929.428	4599
929.533	4656
929.638	4500
929.743	4565
929.848	4550
929.953	4538
930.058	4447
930.163	4287
930.267	4352
930.372	4455
930.477	4325
930.581	4443
930.685	4367
930.79	4257
930.894	4272
930.998	4246
931.103	4402
931.207	4128
931.311	4135
931.415	4013
931.519	3915
931.623	3960
