Data from glass_V78500241_241.txt Node
Date: Wed Sep 01 19:16:10 CST 2021
User: usil
Spectrometer: V785-0024
Trigger mode: 0
Integration Time (sec): 4.000000E-1
Scans to average: 1
Nonlinearity correction enabled: false
Boxcar width: 0
Storing dark spectrum: false
XAxis mode: Wavelengths
Number of Pixels in Spectrum: 1024
>>>>>Begin Spectral Data<<<<<
801.071	3728
801.214	3766
801.356	3709
801.499	3720
801.641	3759
801.783	3759
801.926	3854
802.068	3876
802.211	3861
802.353	3930
802.496	3869
802.638	3903
802.78	3934
802.923	3956
803.065	3911
803.208	3880
803.35	3888
803.492	3915
803.635	3934
803.777	3797
803.919	3892
804.061	4158
804.204	3972
804.346	3941
804.488	4002
804.63	4071
804.773	3998
804.915	4040
805.057	4162
805.199	4010
805.341	4097
805.483	4166
805.626	4131
805.768	4154
805.91	4272
806.052	4211
806.194	4227
806.336	4367
806.478	4207
806.62	4211
806.762	4219
806.904	4227
807.046	4356
807.188	4242
807.33	4181
807.472	4261
807.614	4211
807.756	4299
807.898	4238
808.04	4249
808.182	4322
808.324	4314
808.465	4432
808.607	4508
808.749	4516
808.891	4485
809.033	4523
809.174	4424
809.316	4268
809.458	4276
809.6	4162
809.741	4147
809.883	4150
810.025	4249
810.166	4246
810.308	4234
810.45	4257
810.591	4215
810.733	4333
810.875	4519
811.016	4847
811.158	5162
811.299	5326
811.441	5254
811.582	5098
811.724	4694
811.865	4519
812.007	4531
812.148	4443
812.29	4440
812.431	4386
812.573	4440
812.714	4386
812.855	4421
812.997	4394
813.138	4531
813.279	4428
813.421	4440
813.562	4424
813.703	4337
813.845	4314
813.986	4291
814.127	4215
814.268	4242
814.41	4314
814.551	4246
814.692	4367
814.833	4295
814.974	4329
815.115	4314
815.256	4261
815.397	4242
815.539	4265
815.68	4207
815.821	4242
815.962	4314
816.103	4291
816.244	4219
816.385	4249
816.526	4325
816.666	4246
816.807	4124
816.948	4200
817.089	4200
817.23	4154
817.371	4063
817.512	4048
817.653	4097
817.793	4017
817.934	4078
818.075	4101
818.216	4093
818.356	4055
818.497	4017
818.638	3937
818.778	3945
818.919	3915
819.06	3869
819.2	3903
819.341	3899
819.481	3850
819.622	3934
819.762	4051
819.903	4021
820.043	3865
820.184	3827
820.324	3850
820.465	3842
820.605	3880
820.746	3876
820.886	3797
821.026	3934
821.167	3918
821.307	3941
821.447	4021
821.588	3991
821.728	3979
821.868	3911
822.008	3884
822.149	3903
822.289	3937
822.429	3804
822.569	3766
822.709	3808
822.849	3743
822.99	3732
823.13	3759
823.27	3789
823.41	3762
823.55	3713
823.69	3743
823.83	3797
823.97	3705
824.11	3633
824.25	3618
824.389	3637
824.529	3720
824.669	3698
824.809	3740
824.949	3762
825.089	3770
825.228	3732
825.368	3580
825.508	3572
825.648	3633
825.787	3599
825.927	3610
826.067	3682
826.206	3671
826.346	3827
826.485	3831
826.625	3892
826.765	3930
826.904	3846
827.044	3633
827.183	3523
827.323	3488
827.462	3511
827.601	3454
827.741	3443
827.88	3504
828.02	3382
828.159	3458
828.298	3496
828.437	3564
828.577	3523
828.716	3603
828.855	3488
828.994	3420
829.134	3359
829.273	3416
829.412	3359
829.551	3355
829.69	3378
829.829	3428
829.968	3580
830.107	3458
830.246	3431
830.385	3435
830.524	3348
830.663	3313
830.802	3291
830.941	3169
831.08	3188
831.219	3321
831.357	3283
831.496	3435
831.635	3214
831.774	3173
831.913	3203
832.051	3135
832.19	3184
832.329	3214
832.467	3127
832.606	3100
832.744	3169
832.883	3195
833.022	3161
833.16	3291
833.299	3279
833.437	3374
833.576	3416
833.714	3435
833.852	3454
833.991	3443
834.129	3485
834.267	3469
834.406	3447
834.544	3435
834.682	3462
834.821	3424
834.959	3553
835.097	3431
835.235	3519
835.373	3477
835.511	3519
835.65	3458
835.788	3504
835.926	3428
836.064	3401
836.202	3393
836.34	3606
836.478	3641
836.615	3530
836.753	3614
836.891	3679
837.029	3606
837.167	3614
837.305	3553
837.443	3549
837.58	3500
837.718	3603
837.856	3580
837.993	3580
838.131	3610
838.269	3660
838.406	3584
838.544	3610
838.681	3420
838.819	3466
838.956	3397
839.094	3420
839.231	3435
839.369	3526
839.506	3774
839.643	3614
839.781	3492
839.918	3504
840.055	3580
840.193	3519
840.33	3568
840.467	3587
840.604	3652
840.742	3793
840.879	3576
841.016	3591
841.153	3633
841.29	3759
841.427	3724
841.564	3755
841.701	3747
841.838	3679
841.975	3694
842.112	3732
842.249	3709
842.385	3656
842.522	3835
842.659	3709
842.796	3682
842.933	3701
843.069	3728
843.206	3671
843.343	3816
843.479	3816
843.616	3831
843.752	3709
843.889	3660
844.025	3854
844.162	3724
844.298	3831
844.435	3816
844.571	3793
844.708	3899
844.844	3998
844.98	4055
845.117	3960
845.253	3975
845.389	3934
845.525	3998
845.661	3972
845.798	3926
845.934	4044
846.07	3964
846.206	4029
846.342	4120
846.478	4086
846.614	3975
846.75	3903
846.886	3918
847.022	4025
847.158	3975
847.294	4006
847.429	4010
847.565	4017
847.701	4280
847.837	3876
847.972	3888
848.108	4021
848.244	3953
848.379	3857
848.515	3838
848.65	3823
848.786	3846
848.921	3880
849.057	3911
849.192	3926
849.328	3930
849.463	3956
849.598	3888
849.734	3842
849.869	3838
850.004	3808
850.14	3797
850.275	3819
850.41	3766
850.545	3789
850.68	3808
850.815	3819
850.95	3823
851.085	3953
851.22	3918
851.355	3835
851.49	3812
851.625	3797
851.76	3816
851.895	3705
852.03	3759
852.165	3816
852.299	3899
852.434	3945
852.569	3861
852.703	3907
852.838	3949
852.973	4017
853.107	4021
853.242	3918
853.376	3865
853.511	3808
853.645	3850
853.78	3949
853.914	3907
854.048	3915
854.183	3892
854.317	3972
854.451	4101
854.585	3934
854.72	3956
854.854	4090
854.988	3983
855.122	4067
855.256	3934
855.39	4067
855.524	4124
855.658	4112
855.792	4090
855.926	4173
856.06	4185
856.194	4223
856.327	4158
856.461	4154
856.595	4143
856.729	4166
856.862	4272
856.996	4234
857.13	4341
857.263	4360
857.397	4356
857.53	4295
857.664	4356
857.797	4409
857.931	4428
858.064	4440
858.197	4508
858.331	4386
858.464	4409
858.597	4390
858.731	4462
858.864	4428
858.997	4390
859.13	4577
859.263	4569
859.396	4577
859.529	4561
859.662	4592
859.795	4500
859.928	4641
860.061	4721
860.194	4740
860.327	4675
860.46	4649
860.592	4790
860.725	4797
860.858	4805
860.99	4748
861.123	4725
861.256	4729
861.388	4820
861.521	5376
861.653	4771
861.786	4778
861.918	4752
862.05	4793
862.183	4847
862.315	4904
862.447	4915
862.58	4915
862.712	4805
862.844	4790
862.976	4900
863.108	4911
863.24	5208
863.372	4858
863.504	4934
863.636	4904
863.768	5014
863.9	4957
864.032	4965
864.164	4999
864.296	5025
864.428	5121
864.559	5151
864.691	5124
864.823	5140
864.954	5162
865.086	5136
865.217	5124
865.349	5159
865.48	5162
865.612	5181
865.743	5307
865.875	5181
866.006	5181
866.137	5250
866.269	5242
866.4	5216
866.531	5231
866.662	5246
866.793	5292
866.924	5277
867.055	5311
867.186	5376
867.317	5303
867.448	5330
867.579	5330
867.71	5372
867.841	5402
867.972	5486
868.103	5452
868.233	5520
868.364	5539
868.495	5566
868.625	5729
868.756	5805
868.886	5672
869.017	5764
869.147	5859
869.278	5847
869.408	5840
869.539	5836
869.669	5980
869.799	5939
869.929	6007
870.06	5977
870.19	6239
870.32	6247
870.45	6235
870.58	6380
870.71	6433
870.84	6456
870.97	6395
871.1	6479
871.23	6703
871.36	6681
871.489	6703
871.619	6764
871.749	6833
871.879	6867
872.008	7038
872.138	7019
872.267	7046
872.397	7015
872.526	7057
872.656	7129
872.785	7251
872.915	7419
873.044	7518
873.173	7590
873.303	7658
873.432	7750
873.561	7868
873.69	7928
873.819	8016
873.948	8168
874.077	8221
874.206	8271
874.335	8450
874.464	8644
874.593	8857
874.722	8975
874.851	9157
874.979	9199
875.108	9351
875.237	9435
875.365	9443
875.494	9648
875.623	9793
875.751	9903
875.88	10010
876.008	10166
876.136	10204
876.265	10546
876.393	10675
876.521	10771
876.65	10820
876.778	10896
876.906	10892
877.034	10976
877.162	11083
877.29	11201
877.418	11277
877.546	11372
877.674	11452
877.802	11516
877.93	11589
878.058	11596
878.185	11573
878.313	11646
878.441	11771
878.568	11710
878.696	11775
878.824	11832
878.951	11973
879.079	12003
879.206	12194
879.333	12072
879.461	11977
879.588	12095
879.715	12091
879.842	12194
879.97	12060
880.097	11912
880.224	11893
880.351	11832
880.478	11908
880.605	11889
880.732	11832
880.859	11954
880.986	11790
881.112	11805
881.239	11714
881.366	11611
881.493	11566
881.619	11551
881.746	11551
881.872	11554
881.999	11543
882.125	11448
882.252	11554
882.378	11497
882.505	11558
882.631	11429
882.757	11212
882.883	11364
883.01	11250
883.136	11197
883.262	11117
883.388	11041
883.514	11143
883.64	11155
883.766	11170
883.892	11014
884.018	11037
884.143	11048
884.269	11132
884.395	10854
884.52	10828
884.646	10771
884.772	10649
884.897	10679
885.023	10641
885.148	10767
885.274	10736
885.399	10763
885.524	10626
885.65	10634
885.775	10641
885.9	10478
886.025	10611
886.15	10599
886.275	10519
886.4	10432
886.525	10417
886.65	10367
886.775	10291
886.9	10523
887.025	10462
887.149	10363
887.274	10276
887.399	10242
887.523	10166
887.648	10196
887.773	10173
887.897	10284
888.021	10284
888.146	10078
888.27	10280
888.395	10219
888.519	10246
888.643	10268
888.767	10196
888.891	10017
889.015	10002
889.139	10086
889.263	9987
889.387	10090
889.511	10120
889.635	10055
889.759	10040
889.883	9945
890.006	10021
890.13	10131
890.254	9964
890.377	9945
890.501	9888
890.624	9903
890.748	9884
890.871	9770
890.995	9690
891.118	9709
891.241	9751
891.364	9819
891.488	9823
891.611	9667
891.734	9709
891.857	9819
891.98	9778
892.103	9793
892.226	9812
892.349	9736
892.471	9534
892.594	9576
892.717	9663
892.839	9614
892.962	9686
893.085	9629
893.207	9637
893.33	9568
893.452	9450
893.575	9591
893.697	9530
893.819	9584
893.941	9633
894.064	9526
894.186	9469
894.308	9408
894.43	9576
894.552	9534
894.674	9568
894.796	9348
894.918	9302
895.04	9340
895.161	9370
895.283	9351
895.405	9233
895.526	9237
895.648	9241
895.769	9279
895.891	9272
896.012	9310
896.134	9241
896.255	9154
896.376	9165
896.498	9214
896.619	9138
896.74	9047
896.861	9100
896.982	9332
897.103	9359
897.224	9233
897.345	9127
897.466	9024
897.587	9043
897.708	9142
897.828	9051
897.949	8933
898.07	8887
898.19	8960
898.311	9047
898.431	8906
898.552	8910
898.672	8956
898.792	8921
898.913	8918
899.033	8769
899.153	8762
899.273	8712
899.393	8708
899.513	8830
899.633	8743
899.753	8708
899.873	8701
899.993	8746
900.113	8735
900.232	8766
900.352	8689
900.472	8659
900.591	8575
900.711	8636
900.83	8545
900.95	8659
901.069	8739
901.189	8670
901.308	8469
901.427	8370
901.546	8393
901.665	8454
901.784	8526
901.904	8431
902.023	8427
902.141	8279
902.26	8199
902.379	8271
902.498	8267
902.617	8240
902.735	8279
902.854	8305
902.973	8328
903.091	8126
903.21	8172
903.328	8172
903.446	8164
903.565	8096
903.683	8073
903.801	8130
903.919	8168
904.038	8088
904.156	8031
904.274	8119
904.392	8092
904.51	8035
904.627	8092
904.745	8103
904.863	8149
904.981	7967
905.098	7921
905.216	7940
905.334	7921
905.451	7921
905.569	7837
905.686	7970
905.803	7963
905.921	7784
906.038	7879
906.155	7814
906.272	7761
906.389	7696
906.506	7643
906.623	7605
906.74	7616
906.857	7628
906.974	7582
907.091	7620
907.208	7776
907.324	7651
907.441	7533
907.557	7430
907.674	7457
907.79	7354
907.907	7403
908.023	7480
908.139	7460
908.256	7392
908.372	7369
908.488	7320
908.604	7282
908.72	7259
908.836	7316
908.952	7278
909.068	7274
909.184	7320
909.3	7255
909.415	7362
909.531	7282
909.647	7103
909.762	7122
909.878	7152
909.993	7129
910.108	7065
910.224	7031
910.339	7095
910.454	7050
910.57	6993
910.685	6951
910.8	7160
910.915	7168
911.03	7038
911.145	6916
911.259	6901
911.374	6932
911.489	6806
911.604	6795
911.718	6757
911.833	6700
911.947	6715
912.062	6635
912.176	6738
912.291	6681
912.405	6711
912.519	6825
912.633	6821
912.748	6696
912.862	6642
912.976	6627
913.09	6513
913.204	6650
913.318	6589
913.431	6669
913.545	6662
913.659	6726
913.772	6673
913.886	6574
914	6540
914.113	6669
914.226	6692
914.34	6658
914.453	6528
914.566	6612
914.68	6597
914.793	6502
914.906	6418
915.019	6418
915.132	6441
915.245	6433
915.358	6498
915.47	6418
915.583	6509
915.696	6460
915.809	6551
915.921	6566
916.034	6452
916.146	6376
916.259	6391
916.371	6525
916.483	6441
916.595	6372
916.708	6456
916.82	6395
916.932	6399
917.044	6426
917.156	6410
917.268	6292
917.38	6353
917.491	6361
917.603	6323
917.715	6452
917.826	6395
917.938	6300
918.049	6197
918.161	6323
918.272	6429
918.384	6445
918.495	6410
918.606	6331
918.717	6300
918.828	6308
918.939	6323
919.05	6182
919.161	6254
919.272	6133
919.383	6213
919.494	6285
919.604	6410
919.715	6281
919.826	6239
919.936	6262
920.047	6365
920.157	6273
920.267	6513
920.378	6346
920.488	6258
920.598	6498
920.708	6532
920.818	6452
920.928	6517
921.038	6646
921.148	6623
921.258	6384
921.368	6315
921.477	6182
921.587	6197
921.697	6121
921.806	6186
921.916	6110
922.025	5942
922.134	5935
922.244	5912
922.353	6011
922.462	5840
922.571	5836
922.68	5707
922.789	5710
922.898	5767
923.007	5726
923.116	5718
923.224	5649
923.333	5718
923.442	5611
923.55	5570
923.659	5566
923.767	5684
923.876	5539
923.984	5642
924.092	5589
924.201	5539
924.309	5528
924.417	5558
924.525	5524
924.633	5554
924.741	6270
924.849	5376
924.956	5516
925.064	5353
925.172	5311
925.279	5303
925.387	5379
925.494	5337
925.602	5421
925.709	5417
925.816	5315
925.924	5322
926.031	5364
926.138	5326
926.245	5357
926.352	5201
926.459	5337
926.566	5337
926.673	5208
926.779	5086
926.886	5174
926.993	5025
927.099	4957
927.206	4980
927.312	5006
927.419	5022
927.525	5029
927.631	5029
927.737	4942
927.843	4816
927.95	4771
928.056	4847
928.162	4858
928.267	4873
928.373	5269
928.479	4839
928.585	4706
928.69	4824
928.796	4816
928.901	4679
929.007	4618
929.112	4717
929.218	4607
929.323	4611
929.428	4542
929.533	4664
929.638	4478
929.743	4546
929.848	4580
929.953	4538
930.058	4417
930.163	4322
930.267	4322
930.372	4459
930.477	4318
930.581	4485
930.685	4375
930.79	4253
930.894	4272
930.998	4272
931.103	4459
931.207	4150
931.311	4067
931.415	4055
931.519	3941
931.623	3987
