Data from glass_V78500241_571.txt Node
Date: Wed Sep 01 19:18:27 CST 2021
User: usil
Spectrometer: V785-0024
Trigger mode: 0
Integration Time (sec): 4.000000E-1
Scans to average: 1
Nonlinearity correction enabled: false
Boxcar width: 0
Storing dark spectrum: false
XAxis mode: Wavelengths
Number of Pixels in Spectrum: 1024
>>>>>Begin Spectral Data<<<<<
801.071	3736
801.214	3774
801.356	3740
801.499	3751
801.641	3720
801.783	3740
801.926	3873
802.068	3827
802.211	3899
802.353	3903
802.496	3869
802.638	3896
802.78	3907
802.923	3934
803.065	3888
803.208	3857
803.35	3896
803.492	3964
803.635	3896
803.777	3831
803.919	3880
804.061	4154
804.204	3987
804.346	3964
804.488	3975
804.63	4025
804.773	3987
804.915	4093
805.057	4135
805.199	4082
805.341	4074
805.483	4131
805.626	4124
805.768	4120
805.91	4211
806.052	4276
806.194	4173
806.336	4363
806.478	4268
806.62	4177
806.762	4219
806.904	4246
807.046	4363
807.188	4211
807.33	4192
807.472	4253
807.614	4200
807.756	4238
807.898	4215
808.04	4265
808.182	4299
808.324	4367
808.465	4421
808.607	4462
808.749	4466
808.891	4462
809.033	4504
809.174	4424
809.316	4280
809.458	4272
809.6	4181
809.741	4124
809.883	4181
810.025	4261
810.166	4242
810.308	4246
810.45	4219
810.591	4276
810.733	4284
810.875	4535
811.016	4805
811.158	5109
811.299	5288
811.441	5265
811.582	5060
811.724	4710
811.865	4493
812.007	4485
812.148	4466
812.29	4424
812.431	4436
812.573	4436
812.714	4379
812.855	4386
812.997	4470
813.138	4500
813.279	4413
813.421	4402
813.562	4402
813.703	4329
813.845	4299
813.986	4261
814.127	4196
814.268	4299
814.41	4333
814.551	4291
814.692	4325
814.833	4303
814.974	4261
815.115	4363
815.256	4253
815.397	4280
815.539	4242
815.68	4204
815.821	4230
815.962	4337
816.103	4284
816.244	4268
816.385	4284
816.526	4344
816.666	4238
816.807	4131
816.948	4169
817.089	4196
817.23	4162
817.371	4067
817.512	4032
817.653	4116
817.793	4013
817.934	4120
818.075	4082
818.216	4139
818.356	4071
818.497	3991
818.638	3934
818.778	3922
818.919	3857
819.06	3857
819.2	3949
819.341	3865
819.481	3896
819.622	3941
819.762	4006
819.903	3953
820.043	3896
820.184	3827
820.324	3827
820.465	3922
820.605	3873
820.746	3873
820.886	3808
821.026	3945
821.167	3899
821.307	3983
821.447	4013
821.588	3972
821.728	3956
821.868	3956
822.008	3880
822.149	3918
822.289	3956
822.429	3816
822.569	3781
822.709	3816
822.849	3686
822.99	3747
823.13	3774
823.27	3800
823.41	3690
823.55	3720
823.69	3743
823.83	3762
823.97	3686
824.11	3652
824.25	3625
824.389	3690
824.529	3686
824.669	3648
824.809	3690
824.949	3774
825.089	3743
825.228	3720
825.368	3557
825.508	3591
825.648	3603
825.787	3625
825.927	3690
826.067	3637
826.206	3679
826.346	3793
826.485	3838
826.625	3846
826.765	3930
826.904	3850
827.044	3652
827.183	3557
827.323	3447
827.462	3500
827.601	3473
827.741	3382
827.88	3454
828.02	3420
828.159	3424
828.298	3519
828.437	3542
828.577	3458
828.716	3625
828.855	3481
828.994	3416
829.134	3447
829.273	3374
829.412	3348
829.551	3332
829.69	3386
829.829	3443
829.968	3561
830.107	3454
830.246	3428
830.385	3374
830.524	3378
830.663	3291
830.802	3275
830.941	3192
831.08	3184
831.219	3306
831.357	3268
831.496	3393
831.635	3233
831.774	3211
831.913	3203
832.051	3119
832.19	3135
832.329	3184
832.467	3157
832.606	3077
832.744	3199
832.883	3165
833.022	3211
833.16	3237
833.299	3336
833.437	3359
833.576	3378
833.714	3409
833.852	3412
833.991	3458
834.129	3485
834.267	3485
834.406	3409
834.544	3447
834.682	3435
834.821	3405
834.959	3553
835.097	3454
835.235	3572
835.373	3542
835.511	3526
835.65	3458
835.788	3443
835.926	3409
836.064	3370
836.202	3412
836.34	3587
836.478	3564
836.615	3542
836.753	3614
836.891	3682
837.029	3629
837.167	3603
837.305	3542
837.443	3557
837.58	3504
837.718	3675
837.856	3587
837.993	3549
838.131	3637
838.269	3591
838.406	3587
838.544	3549
838.681	3504
838.819	3481
838.956	3409
839.094	3412
839.231	3481
839.369	3572
839.506	3720
839.643	3679
839.781	3477
839.918	3488
840.055	3530
840.193	3564
840.33	3530
840.467	3561
840.604	3663
840.742	3800
840.879	3545
841.016	3591
841.153	3618
841.29	3751
841.427	3713
841.564	3740
841.701	3728
841.838	3740
841.975	3709
842.112	3755
842.249	3652
842.385	3663
842.522	3850
842.659	3724
842.796	3652
842.933	3781
843.069	3705
843.206	3694
843.343	3793
843.479	3743
843.616	3816
843.752	3698
843.889	3701
844.025	3873
844.162	3717
844.298	3865
844.435	3816
844.571	3789
844.708	3880
844.844	4013
844.98	4029
845.117	3987
845.253	3949
845.389	3922
845.525	3983
845.661	3949
845.798	3949
845.934	3991
846.07	3964
846.206	4044
846.342	4124
846.478	4078
846.614	3998
846.75	3956
846.886	3956
847.022	4021
847.158	4002
847.294	4032
847.429	4040
847.565	3994
847.701	4219
847.837	3911
847.972	3876
848.108	3983
848.244	3998
848.379	3854
848.515	3800
848.65	3831
848.786	3873
848.921	3846
849.057	4006
849.192	3968
849.328	3930
849.463	3953
849.598	3926
849.734	3876
849.869	3819
850.004	3819
850.14	3827
850.275	3762
850.41	3751
850.545	3800
850.68	3774
850.815	3823
850.95	3835
851.085	3964
851.22	3884
851.355	3842
851.49	3816
851.625	3804
851.76	3785
851.895	3747
852.03	3736
852.165	3785
852.299	3865
852.434	3896
852.569	3869
852.703	3907
852.838	3941
852.973	4029
853.107	4044
853.242	3884
853.376	3835
853.511	3759
853.645	3842
853.78	3945
853.914	3888
854.048	3918
854.183	3884
854.317	4025
854.451	4086
854.585	3964
854.72	3956
854.854	4051
854.988	3903
855.122	4032
855.256	3960
855.39	4010
855.524	4105
855.658	4105
855.792	4139
855.926	4131
856.06	4181
856.194	4207
856.327	4158
856.461	4147
856.595	4200
856.729	4192
856.862	4322
856.996	4257
857.13	4329
857.263	4371
857.397	4356
857.53	4310
857.664	4363
857.797	4432
857.931	4440
858.064	4405
858.197	4440
858.331	4352
858.464	4383
858.597	4322
858.731	4405
858.864	4466
858.997	4519
859.13	4546
859.263	4565
859.396	4637
859.529	4603
859.662	4527
859.795	4538
859.928	4626
860.061	4702
860.194	4793
860.327	4668
860.46	4656
860.592	4702
860.725	4740
860.858	4752
860.99	4710
861.123	4694
861.256	4698
861.388	4771
861.521	5364
861.653	4721
861.786	4706
861.918	4736
862.05	4809
862.183	4873
862.315	4877
862.447	4949
862.58	4923
862.712	4862
862.844	4759
862.976	4866
863.108	4889
863.24	5136
863.372	4820
863.504	4949
863.636	4927
863.768	4953
863.9	5003
864.032	4946
864.164	4930
864.296	5052
864.428	5113
864.559	5113
864.691	5124
864.823	5181
864.954	5117
865.086	5121
865.217	5140
865.349	5052
865.48	5189
865.612	5201
865.743	5284
865.875	5189
866.006	5189
866.137	5246
866.269	5220
866.4	5258
866.531	5246
866.662	5185
866.793	5326
866.924	5292
867.055	5368
867.186	5345
867.317	5349
867.448	5402
867.579	5379
867.71	5372
867.841	5368
867.972	5497
868.103	5509
868.233	5452
868.364	5547
868.495	5592
868.625	5722
868.756	5813
868.886	5634
869.017	5665
869.147	5844
869.278	5885
869.408	5805
869.539	5824
869.669	5927
869.799	5931
869.929	6007
870.06	6038
870.19	6148
870.32	6205
870.45	6292
870.58	6380
870.71	6445
870.84	6475
870.97	6414
871.1	6479
871.23	6662
871.36	6669
871.489	6711
871.619	6738
871.749	6821
871.879	6852
872.008	7019
872.138	6954
872.267	7038
872.397	7004
872.526	7004
872.656	7053
872.785	7244
872.915	7373
873.044	7525
873.173	7586
873.303	7601
873.432	7750
873.561	7925
873.69	7925
873.819	8005
873.948	8202
874.077	8237
874.206	8381
874.335	8488
874.464	8686
874.593	8864
874.722	8948
874.851	9157
874.979	9233
875.108	9355
875.237	9450
875.365	9458
875.494	9663
875.623	9857
875.751	9873
875.88	10044
876.008	10169
876.136	10291
876.265	10573
876.393	10748
876.521	10702
876.65	10831
876.778	10919
876.906	10972
877.034	11041
877.162	11132
877.29	11147
877.418	11311
877.546	11395
877.674	11497
877.802	11471
877.93	11577
878.058	11581
878.185	11490
878.313	11665
878.441	11707
878.568	11737
878.696	11798
878.824	11897
878.951	11969
879.079	12015
879.206	12136
879.333	12057
879.461	12060
879.588	12019
879.715	12038
879.842	12133
879.97	11992
880.097	11904
880.224	11836
880.351	11874
880.478	11878
880.605	11828
880.732	11832
880.859	11954
880.986	11775
881.112	11878
881.239	11707
881.366	11649
881.493	11665
881.619	11562
881.746	11539
881.872	11627
881.999	11459
882.125	11493
882.252	11490
882.378	11509
882.505	11520
882.631	11459
882.757	11440
882.883	11307
883.01	11303
883.136	11261
883.262	11189
883.388	11079
883.514	11326
883.64	11162
883.766	11117
883.892	10949
884.018	11102
884.143	11029
884.269	11075
884.395	10843
884.52	10809
884.646	10854
884.772	10729
884.897	10721
885.023	10660
885.148	10786
885.274	10793
885.399	10668
885.524	10611
885.65	10592
885.775	10504
885.9	10584
886.025	10656
886.15	10489
886.275	10394
886.4	10360
886.525	10398
886.65	10379
886.775	10333
886.9	10584
887.025	10577
887.149	10352
887.274	10196
887.399	10196
887.523	10215
887.648	10242
887.773	10196
887.897	10207
888.021	10238
888.146	10105
888.27	10272
888.395	10188
888.519	10211
888.643	10143
888.767	10242
888.891	10158
889.015	10032
889.139	10112
889.263	10055
889.387	10131
889.511	10051
889.635	10071
889.759	10013
889.883	9979
890.006	10044
890.13	10040
890.254	9953
890.377	9991
890.501	9915
890.624	9892
890.748	9953
890.871	9804
890.995	9797
891.118	9785
891.241	9728
891.364	9717
891.488	9823
891.611	9736
891.734	9762
891.857	9819
891.98	9717
892.103	9751
892.226	9732
892.349	9629
892.471	9454
892.594	9584
892.717	9603
892.839	9610
892.962	9599
893.085	9667
893.207	9618
893.33	9557
893.452	9561
893.575	9580
893.697	9473
893.819	9652
893.941	9660
894.064	9561
894.186	9496
894.308	9386
894.43	9530
894.552	9652
894.674	9564
894.796	9408
894.918	9317
895.04	9447
895.161	9393
895.283	9340
895.405	9211
895.526	9397
895.648	9272
895.769	9188
895.891	9222
896.012	9298
896.134	9260
896.255	9192
896.376	9169
896.498	9211
896.619	9131
896.74	9081
896.861	9142
896.982	9275
897.103	9374
897.224	9199
897.345	9085
897.466	8998
897.587	9028
897.708	9173
897.828	9039
897.949	8960
898.07	8864
898.19	8849
898.311	9077
898.431	8941
898.552	8952
898.672	8975
898.792	9009
898.913	8899
899.033	8834
899.153	8750
899.273	8613
899.393	8724
899.513	8785
899.633	8750
899.753	8758
899.873	8739
899.993	8773
900.113	8701
900.232	8746
900.352	8708
900.472	8522
900.591	8556
900.711	8587
900.83	8568
900.95	8667
901.069	8735
901.189	8568
901.308	8530
901.427	8461
901.546	8427
901.665	8465
901.784	8590
901.904	8438
902.023	8343
902.141	8275
902.26	8214
902.379	8206
902.498	8199
902.617	8244
902.735	8294
902.854	8351
902.973	8305
903.091	8237
903.21	8180
903.328	8229
903.446	8096
903.565	8081
903.683	8096
903.801	8062
903.919	8100
904.038	8096
904.156	8073
904.274	8069
904.392	8024
904.51	8024
904.627	8115
904.745	8077
904.863	8088
904.981	7913
905.098	7921
905.216	7898
905.334	7845
905.451	7879
905.569	7807
905.686	7978
905.803	7871
905.921	7860
906.038	7932
906.155	7822
906.272	7689
906.389	7693
906.506	7681
906.623	7655
906.74	7639
906.857	7533
906.974	7639
907.091	7685
907.208	7750
907.324	7578
907.441	7636
907.557	7529
907.674	7502
907.79	7388
907.907	7392
908.023	7464
908.139	7339
908.256	7434
908.372	7384
908.488	7301
908.604	7312
908.72	7282
908.836	7320
908.952	7213
909.068	7316
909.184	7312
909.3	7251
909.415	7305
909.531	7297
909.647	7080
909.762	7065
909.878	7137
909.993	7232
910.108	7152
910.224	7038
910.339	7118
910.454	7053
910.57	6985
910.685	7012
910.8	7194
910.915	7110
911.03	7095
911.145	6939
911.259	6886
911.374	6932
911.489	6833
911.604	6810
911.718	6745
911.833	6711
911.947	6688
912.062	6650
912.176	6654
912.291	6715
912.405	6711
912.519	6837
912.633	6818
912.748	6700
912.862	6696
912.976	6692
913.09	6513
913.204	6601
913.318	6616
913.431	6681
913.545	6722
913.659	6772
913.772	6593
913.886	6574
914	6593
914.113	6589
914.226	6646
914.34	6623
914.453	6540
914.566	6582
914.68	6570
914.793	6578
914.906	6418
915.019	6403
915.132	6422
915.245	6410
915.358	6456
915.47	6460
915.583	6445
915.696	6513
915.809	6559
915.921	6509
916.034	6467
916.146	6437
916.259	6418
916.371	6502
916.483	6433
916.595	6422
916.708	6441
916.82	6407
916.932	6414
917.044	6403
917.156	6403
917.268	6304
917.38	6342
917.491	6331
917.603	6365
917.715	6426
917.826	6433
917.938	6304
918.049	6285
918.161	6319
918.272	6380
918.384	6418
918.495	6391
918.606	6277
918.717	6266
918.828	6334
918.939	6300
919.05	6159
919.161	6277
919.272	6144
919.383	6148
919.494	6384
919.604	6456
919.715	6277
919.826	6296
919.936	6304
920.047	6346
920.157	6254
920.267	6464
920.378	6369
920.488	6235
920.598	6502
920.708	6597
920.818	6467
920.928	6388
921.038	6582
921.148	6601
921.258	6395
921.368	6353
921.477	6251
921.587	6209
921.697	6114
921.806	6209
921.916	6117
922.025	6007
922.134	5920
922.244	5942
922.353	5942
922.462	5859
922.571	5813
922.68	5684
922.789	5691
922.898	5668
923.007	5665
923.116	5703
923.224	5710
923.333	5688
923.442	5630
923.55	5604
923.659	5528
923.767	5630
923.876	5539
923.984	5577
924.092	5539
924.201	5566
924.309	5577
924.417	5600
924.525	5528
924.633	5516
924.741	6308
924.849	5444
924.956	5440
925.064	5349
925.172	5303
925.279	5280
925.387	5376
925.494	5353
925.602	5459
925.709	5364
925.816	5235
925.924	5303
926.031	5376
926.138	5341
926.245	5353
926.352	5223
926.459	5341
926.566	5349
926.673	5242
926.779	5140
926.886	5143
926.993	5056
927.099	5025
927.206	4991
927.312	4968
927.419	5056
927.525	5003
927.631	5010
927.737	4938
927.843	4877
927.95	4809
928.056	4847
928.162	4843
928.267	4881
928.373	5326
928.479	4873
928.585	4698
928.69	4759
928.796	4774
928.901	4630
929.007	4599
929.112	4725
929.218	4626
929.323	4626
929.428	4607
929.533	4656
929.638	4538
929.743	4546
929.848	4615
929.953	4523
930.058	4443
930.163	4306
930.267	4383
930.372	4459
930.477	4310
930.581	4474
930.685	4356
930.79	4291
930.894	4306
930.998	4268
931.103	4421
931.207	4162
931.311	4059
931.415	4032
931.519	3907
931.623	3987
