Data from glass_V78500241_791.txt Node
Date: Wed Sep 01 19:19:58 CST 2021
User: usil
Spectrometer: V785-0024
Trigger mode: 0
Integration Time (sec): 4.000000E-1
Scans to average: 1
Nonlinearity correction enabled: false
Boxcar width: 0
Storing dark spectrum: false
XAxis mode: Wavelengths
Number of Pixels in Spectrum: 1024
>>>>>Begin Spectral Data<<<<<
801.071	3717
801.214	3728
801.356	3709
801.499	3774
801.641	3743
801.783	3800
801.926	3876
802.068	3819
802.211	3884
802.353	3888
802.496	3869
802.638	3918
802.78	3911
802.923	3911
803.065	3918
803.208	3857
803.35	3880
803.492	3918
803.635	3972
803.777	3789
803.919	3903
804.061	4143
804.204	3991
804.346	3987
804.488	3956
804.63	4082
804.773	3956
804.915	4040
805.057	4128
805.199	4055
805.341	4078
805.483	4158
805.626	4116
805.768	4158
805.91	4268
806.052	4227
806.194	4185
806.336	4383
806.478	4200
806.62	4162
806.762	4215
806.904	4287
807.046	4371
807.188	4223
807.33	4166
807.472	4246
807.614	4227
807.756	4322
807.898	4238
808.04	4177
808.182	4314
808.324	4333
808.465	4383
808.607	4470
808.749	4470
808.891	4508
809.033	4508
809.174	4375
809.316	4253
809.458	4253
809.6	4158
809.741	4143
809.883	4128
810.025	4196
810.166	4257
810.308	4177
810.45	4238
810.591	4204
810.733	4303
810.875	4516
811.016	4858
811.158	5128
811.299	5288
811.441	5307
811.582	5094
811.724	4694
811.865	4451
812.007	4474
812.148	4432
812.29	4436
812.431	4440
812.573	4390
812.714	4398
812.855	4371
812.997	4417
813.138	4481
813.279	4428
813.421	4405
813.562	4386
813.703	4325
813.845	4303
813.986	4249
814.127	4204
814.268	4227
814.41	4306
814.551	4284
814.692	4367
814.833	4287
814.974	4322
815.115	4379
815.256	4276
815.397	4253
815.539	4242
815.68	4200
815.821	4204
815.962	4325
816.103	4272
816.244	4230
816.385	4249
816.526	4261
816.666	4204
816.807	4097
816.948	4154
817.089	4223
817.23	4086
817.371	4051
817.512	4074
817.653	4071
817.793	4044
817.934	4017
818.075	4109
818.216	4120
818.356	4116
818.497	3956
818.638	3915
818.778	3911
818.919	3922
819.06	3873
819.2	3926
819.341	3884
819.481	3835
819.622	3960
819.762	4044
819.903	3960
820.043	3915
820.184	3842
820.324	3800
820.465	3873
820.605	3846
820.746	3880
820.886	3808
821.026	3918
821.167	3937
821.307	4010
821.447	3956
821.588	3983
821.728	3983
821.868	3934
822.008	3880
822.149	3892
822.289	3934
822.429	3770
822.569	3770
822.709	3800
822.849	3679
822.99	3781
823.13	3789
823.27	3793
823.41	3728
823.55	3770
823.69	3698
823.83	3724
823.97	3698
824.11	3656
824.25	3618
824.389	3663
824.529	3663
824.669	3633
824.809	3732
824.949	3751
825.089	3781
825.228	3709
825.368	3591
825.508	3599
825.648	3584
825.787	3606
825.927	3671
826.067	3625
826.206	3698
826.346	3781
826.485	3876
826.625	3880
826.765	3968
826.904	3865
827.044	3584
827.183	3504
827.323	3431
827.462	3496
827.601	3447
827.741	3409
827.88	3473
828.02	3401
828.159	3435
828.298	3485
828.437	3538
828.577	3496
828.716	3599
828.855	3496
828.994	3363
829.134	3386
829.273	3370
829.412	3344
829.551	3321
829.69	3382
829.829	3397
829.968	3530
830.107	3447
830.246	3435
830.385	3454
830.524	3389
830.663	3310
830.802	3291
830.941	3226
831.08	3188
831.219	3272
831.357	3272
831.496	3428
831.635	3268
831.774	3207
831.913	3207
832.051	3142
832.19	3119
832.329	3241
832.467	3157
832.606	3093
832.744	3161
832.883	3195
833.022	3245
833.16	3272
833.299	3294
833.437	3351
833.576	3351
833.714	3382
833.852	3435
833.991	3424
834.129	3481
834.267	3439
834.406	3405
834.544	3405
834.682	3416
834.821	3405
834.959	3599
835.097	3443
835.235	3526
835.373	3500
835.511	3507
835.65	3450
835.788	3492
835.926	3424
836.064	3351
836.202	3412
836.34	3542
836.478	3633
836.615	3538
836.753	3572
836.891	3679
837.029	3622
837.167	3595
837.305	3561
837.443	3557
837.58	3553
837.718	3667
837.856	3584
837.993	3545
838.131	3599
838.269	3618
838.406	3568
838.544	3595
838.681	3473
838.819	3447
838.956	3401
839.094	3405
839.231	3412
839.369	3553
839.506	3698
839.643	3663
839.781	3542
839.918	3485
840.055	3538
840.193	3545
840.33	3507
840.467	3576
840.604	3667
840.742	3869
840.879	3595
841.016	3591
841.153	3614
841.29	3804
841.427	3713
841.564	3740
841.701	3755
841.838	3747
841.975	3698
842.112	3701
842.249	3625
842.385	3625
842.522	3842
842.659	3717
842.796	3679
842.933	3686
843.069	3740
843.206	3728
843.343	3800
843.479	3808
843.616	3854
843.752	3663
843.889	3717
844.025	3869
844.162	3732
844.298	3865
844.435	3797
844.571	3827
844.708	3915
844.844	3964
844.98	4010
845.117	4013
845.253	3941
845.389	3884
845.525	3994
845.661	3945
845.798	3934
845.934	3949
846.07	3956
846.206	4032
846.342	4147
846.478	4090
846.614	4025
846.75	3960
846.886	3907
847.022	4109
847.158	3987
847.294	3975
847.429	4017
847.565	4051
847.701	4287
847.837	3930
847.972	3876
848.108	4021
848.244	3987
848.379	3869
848.515	3850
848.65	3812
848.786	3838
848.921	3884
849.057	3968
849.192	3953
849.328	3941
849.463	3915
849.598	3903
849.734	3835
849.869	3835
850.004	3766
850.14	3785
850.275	3804
850.41	3732
850.545	3781
850.68	3778
850.815	3842
850.95	3797
851.085	3968
851.22	3876
851.355	3835
851.49	3774
851.625	3831
851.76	3819
851.895	3762
852.03	3736
852.165	3774
852.299	3884
852.434	3911
852.569	3842
852.703	3937
852.838	3968
852.973	3994
853.107	4002
853.242	3888
853.376	3850
853.511	3819
853.645	3808
853.78	3956
853.914	3915
854.048	3876
854.183	3911
854.317	3934
854.451	4086
854.585	3956
854.72	4006
854.854	4048
854.988	3979
855.122	4013
855.256	3907
855.39	4040
855.524	4109
855.658	4109
855.792	4105
855.926	4101
856.06	4147
856.194	4238
856.327	4131
856.461	4158
856.595	4150
856.729	4204
856.862	4280
856.996	4261
857.13	4333
857.263	4344
857.397	4341
857.53	4295
857.664	4371
857.797	4363
857.931	4443
858.064	4386
858.197	4462
858.331	4432
858.464	4356
858.597	4360
858.731	4421
858.864	4459
858.997	4500
859.13	4538
859.263	4577
859.396	4626
859.529	4546
859.662	4561
859.795	4577
859.928	4603
860.061	4702
860.194	4771
860.327	4634
860.46	4649
860.592	4759
860.725	4721
860.858	4714
860.99	4729
861.123	4687
861.256	4721
861.388	4771
861.521	5448
861.653	4706
861.786	4714
861.918	4702
862.05	4831
862.183	4934
862.315	4873
862.447	4942
862.58	4889
862.712	4824
862.844	4740
862.976	4850
863.108	4866
863.24	5273
863.372	4858
863.504	4900
863.636	4896
863.768	5045
863.9	4972
864.032	4923
864.164	5003
864.296	4972
864.428	5113
864.559	5098
864.691	5105
864.823	5136
864.954	5109
865.086	5155
865.217	5064
865.349	5151
865.48	5159
865.612	5227
865.743	5307
865.875	5204
866.006	5170
866.137	5231
866.269	5250
866.4	5288
866.531	5208
866.662	5220
866.793	5288
866.924	5288
867.055	5368
867.186	5383
867.317	5326
867.448	5337
867.579	5376
867.71	5421
867.841	5395
867.972	5425
868.103	5478
868.233	5516
868.364	5490
868.495	5535
868.625	5714
868.756	5844
868.886	5707
869.017	5760
869.147	5882
869.278	5817
869.408	5832
869.539	5893
869.669	5923
869.799	5870
869.929	5935
870.06	6003
870.19	6190
870.32	6186
870.45	6205
870.58	6361
870.71	6452
870.84	6475
870.97	6445
871.1	6452
871.23	6608
871.36	6711
871.489	6700
871.619	6745
871.749	6825
871.879	6882
872.008	6958
872.138	7000
872.267	7008
872.397	6989
872.526	7061
872.656	7053
872.785	7240
872.915	7381
873.044	7514
873.173	7544
873.303	7727
873.432	7761
873.561	7955
873.69	7944
873.819	8050
873.948	8244
874.077	8275
874.206	8301
874.335	8393
874.464	8720
874.593	8857
874.722	8883
874.851	9173
874.979	9226
875.108	9412
875.237	9439
875.365	9523
875.494	9637
875.623	9812
875.751	9854
875.88	9956
876.008	10128
876.136	10268
876.265	10466
876.393	10691
876.521	10710
876.65	10820
876.778	10892
876.906	10915
877.034	10961
877.162	11117
877.29	11090
877.418	11326
877.546	11391
877.674	11444
877.802	11551
877.93	11467
878.058	11596
878.185	11570
878.313	11653
878.441	11665
878.568	11661
878.696	11836
878.824	11851
878.951	11897
879.079	11961
879.206	12140
879.333	12098
879.461	11999
879.588	12041
879.715	11992
879.842	12361
879.97	12083
880.097	11828
880.224	11901
880.351	11798
880.478	11996
880.605	11809
880.732	11889
880.859	11996
880.986	11843
881.112	11878
881.239	11729
881.366	11688
881.493	11619
881.619	11532
881.746	11581
881.872	11455
881.999	11436
882.125	11493
882.252	11604
882.378	11493
882.505	11638
882.631	11379
882.757	11223
882.883	11360
883.01	11231
883.136	11181
883.262	11140
883.388	11086
883.514	11155
883.64	11227
883.766	11140
883.892	11010
884.018	11041
884.143	10968
884.269	11140
884.395	10881
884.52	10805
884.646	10850
884.772	10653
884.897	10672
885.023	10656
885.148	10774
885.274	10835
885.399	10706
885.524	10592
885.65	10637
885.775	10577
885.9	10508
886.025	10645
886.15	10607
886.275	10417
886.4	10371
886.525	10421
886.65	10447
886.775	10344
886.9	10558
887.025	10569
887.149	10337
887.274	10196
887.399	10188
887.523	10120
887.648	10128
887.773	10071
887.897	10234
888.021	10196
888.146	10150
888.27	10162
888.395	10177
888.519	10223
888.643	10139
888.767	10295
888.891	10124
889.015	10040
889.139	10021
889.263	9994
889.387	10109
889.511	10154
889.635	10055
889.759	9983
889.883	9991
890.006	9983
890.13	10116
890.254	9945
890.377	9983
890.501	9861
890.624	9876
890.748	9903
890.871	9804
890.995	9743
891.118	9644
891.241	9793
891.364	9701
891.488	9793
891.611	9736
891.734	9774
891.857	9827
891.98	9736
892.103	9800
892.226	9675
892.349	9671
892.471	9481
892.594	9599
892.717	9572
892.839	9595
892.962	9606
893.085	9622
893.207	9584
893.33	9549
893.452	9542
893.575	9633
893.697	9481
893.819	9580
893.941	9705
894.064	9663
894.186	9447
894.308	9477
894.43	9511
894.552	9542
894.674	9564
894.796	9439
894.918	9363
895.04	9401
895.161	9405
895.283	9336
895.405	9192
895.526	9336
895.648	9226
895.769	9291
895.891	9260
896.012	9256
896.134	9195
896.255	9150
896.376	9161
896.498	9207
896.619	9169
896.74	9074
896.861	9108
896.982	9279
897.103	9329
897.224	9256
897.345	9108
897.466	9028
897.587	9058
897.708	9112
897.828	9100
897.949	9047
898.07	8895
898.19	8902
898.311	9024
898.431	8864
898.552	8941
898.672	9032
898.792	8910
898.913	8906
899.033	8823
899.153	8746
899.273	8720
899.393	8705
899.513	8727
899.633	8705
899.753	8754
899.873	8682
899.993	8800
900.113	8716
900.232	8731
900.352	8659
900.472	8663
900.591	8499
900.711	8556
900.83	8568
900.95	8708
901.069	8636
901.189	8514
901.308	8419
901.427	8419
901.546	8419
901.665	8488
901.784	8514
901.904	8415
902.023	8366
902.141	8218
902.26	8172
902.379	8256
902.498	8282
902.617	8210
902.735	8267
902.854	8282
902.973	8218
903.091	8199
903.21	8134
903.328	8225
903.446	8123
903.565	8050
903.683	8157
903.801	8111
903.919	8081
904.038	8103
904.156	8012
904.274	8065
904.392	8065
904.51	8054
904.627	8107
904.745	8012
904.863	8035
904.981	7925
905.098	7902
905.216	7822
905.334	7898
905.451	7868
905.569	7814
905.686	7875
905.803	7898
905.921	7776
906.038	7883
906.155	7803
906.272	7693
906.389	7757
906.506	7658
906.623	7616
906.74	7647
906.857	7540
906.974	7575
907.091	7693
907.208	7727
907.324	7651
907.441	7563
907.557	7487
907.674	7388
907.79	7384
907.907	7358
908.023	7468
908.139	7422
908.256	7365
908.372	7369
908.488	7346
908.604	7331
908.72	7270
908.836	7259
908.952	7274
909.068	7289
909.184	7354
909.3	7384
909.415	7381
909.531	7259
909.647	7088
909.762	7088
909.878	7103
909.993	7194
910.108	7072
910.224	7114
910.339	7145
910.454	7088
910.57	7057
910.685	6981
910.8	7164
910.915	7145
911.03	7046
911.145	6928
911.259	6894
911.374	6886
911.489	6814
911.604	6818
911.718	6662
911.833	6802
911.947	6669
912.062	6623
912.176	6730
912.291	6749
912.405	6677
912.519	6821
912.633	6837
912.748	6741
912.862	6722
912.976	6593
913.09	6597
913.204	6585
913.318	6673
913.431	6681
913.545	6745
913.659	6760
913.772	6711
913.886	6639
914	6570
914.113	6604
914.226	6707
914.34	6620
914.453	6540
914.566	6669
914.68	6536
914.793	6544
914.906	6407
915.019	6391
915.132	6388
915.245	6384
915.358	6494
915.47	6407
915.583	6437
915.696	6509
915.809	6578
915.921	6525
916.034	6433
916.146	6407
916.259	6452
916.371	6525
916.483	6456
916.595	6452
916.708	6490
916.82	6384
916.932	6372
917.044	6391
917.156	6441
917.268	6289
917.38	6388
917.491	6311
917.603	6338
917.715	6338
917.826	6407
917.938	6380
918.049	6247
918.161	6391
918.272	6467
918.384	6441
918.495	6414
918.606	6232
918.717	6296
918.828	6270
918.939	6277
919.05	6220
919.161	6175
919.272	6167
919.383	6152
919.494	6273
919.604	6414
919.715	6311
919.826	6224
919.936	6262
920.047	6346
920.157	6258
920.267	6429
920.378	6327
920.488	6254
920.598	6490
920.708	6544
920.818	6460
920.928	6422
921.038	6623
921.148	6582
921.258	6384
921.368	6353
921.477	6171
921.587	6136
921.697	6152
921.806	6232
921.916	6091
922.025	5950
922.134	5904
922.244	5904
922.353	5939
922.462	5828
922.571	5794
922.68	5695
922.789	5703
922.898	5707
923.007	5684
923.116	5760
923.224	5684
923.333	5646
923.442	5619
923.55	5600
923.659	5554
923.767	5642
923.876	5619
923.984	5600
924.092	5547
924.201	5581
924.309	5581
924.417	5512
924.525	5520
924.633	5486
924.741	6110
924.849	5391
924.956	5467
925.064	5379
925.172	5341
925.279	5376
925.387	5364
925.494	5311
925.602	5452
925.709	5455
925.816	5292
925.924	5315
926.031	5330
926.138	5307
926.245	5326
926.352	5216
926.459	5345
926.566	5292
926.673	5204
926.779	5178
926.886	5140
926.993	4995
927.099	4987
927.206	4961
927.312	4991
927.419	5003
927.525	4942
927.631	4995
927.737	4908
927.843	4877
927.95	4843
928.056	4858
928.162	4858
928.267	4877
928.373	5395
928.479	4892
928.585	4721
928.69	4809
928.796	4805
928.901	4672
929.007	4618
929.112	4714
929.218	4664
929.323	4603
929.428	4550
929.533	4672
929.638	4538
929.743	4558
929.848	4577
929.953	4538
930.058	4455
930.163	4322
930.267	4352
930.372	4478
930.477	4341
930.581	4424
930.685	4356
930.79	4261
930.894	4344
930.998	4242
931.103	4371
931.207	4128
931.311	4082
931.415	4059
931.519	3964
931.623	3983
