Data from glass_V78500241_2635.txt Node
Date: Wed Sep 01 19:32:46 CST 2021
User: usil
Spectrometer: V785-0024
Trigger mode: 0
Integration Time (sec): 4.000000E-1
Scans to average: 1
Nonlinearity correction enabled: false
Boxcar width: 0
Storing dark spectrum: false
XAxis mode: Wavelengths
Number of Pixels in Spectrum: 1024
>>>>>Begin Spectral Data<<<<<
801.071	3728
801.214	3762
801.356	3656
801.499	3701
801.641	3724
801.783	3785
801.926	3838
802.068	3797
802.211	3823
802.353	3903
802.496	3808
802.638	3918
802.78	3854
802.923	3896
803.065	3888
803.208	3846
803.35	3880
803.492	3926
803.635	3888
803.777	3846
803.919	3911
804.061	4154
804.204	3934
804.346	3964
804.488	3922
804.63	4051
804.773	3956
804.915	3987
805.057	4116
805.199	4048
805.341	4093
805.483	4120
805.626	4097
805.768	4097
805.91	4219
806.052	4268
806.194	4207
806.336	4341
806.478	4177
806.62	4188
806.762	4196
806.904	4223
807.046	4344
807.188	4181
807.33	4147
807.472	4234
807.614	4147
807.756	4280
807.898	4200
808.04	4200
808.182	4257
808.324	4291
808.465	4310
808.607	4428
808.749	4424
808.891	4466
809.033	4531
809.174	4421
809.316	4249
809.458	4215
809.6	4143
809.741	4128
809.883	4131
810.025	4204
810.166	4173
810.308	4200
810.45	4227
810.591	4181
810.733	4257
810.875	4523
811.016	4816
811.158	5128
811.299	5246
811.441	5254
811.582	5056
811.724	4694
811.865	4443
812.007	4466
812.148	4390
812.29	4409
812.431	4417
812.573	4390
812.714	4329
812.855	4371
812.997	4413
813.138	4485
813.279	4383
813.421	4318
813.562	4398
813.703	4325
813.845	4318
813.986	4299
814.127	4207
814.268	4272
814.41	4249
814.551	4223
814.692	4287
814.833	4249
814.974	4303
815.115	4333
815.256	4261
815.397	4196
815.539	4238
815.68	4173
815.821	4181
815.962	4287
816.103	4265
816.244	4238
816.385	4158
816.526	4246
816.666	4204
816.807	4112
816.948	4169
817.089	4154
817.23	4105
817.371	4055
817.512	3987
817.653	4105
817.793	4021
817.934	4017
818.075	4101
818.216	4051
818.356	4029
818.497	4017
818.638	3865
818.778	3949
818.919	3869
819.06	3865
819.2	3892
819.341	3869
819.481	3816
819.622	3861
819.762	3983
819.903	3922
820.043	3808
820.184	3789
820.324	3808
820.465	3842
820.605	3892
820.746	3873
820.886	3823
821.026	3945
821.167	3880
821.307	3964
821.447	3972
821.588	3884
821.728	3865
821.868	3945
822.008	3850
822.149	3907
822.289	3892
822.429	3766
822.569	3720
822.709	3831
822.849	3740
822.99	3743
823.13	3747
823.27	3728
823.41	3717
823.55	3717
823.69	3694
823.83	3747
823.97	3667
824.11	3606
824.25	3561
824.389	3656
824.529	3679
824.669	3622
824.809	3656
824.949	3747
825.089	3701
825.228	3675
825.368	3584
825.508	3515
825.648	3549
825.787	3625
825.927	3614
826.067	3644
826.206	3682
826.346	3778
826.485	3774
826.625	3835
826.765	3876
826.904	3846
827.044	3656
827.183	3519
827.323	3469
827.462	3507
827.601	3450
827.741	3428
827.88	3447
828.02	3374
828.159	3439
828.298	3485
828.437	3500
828.577	3458
828.716	3564
828.855	3485
828.994	3412
829.134	3355
829.273	3431
829.412	3329
829.551	3359
829.69	3355
829.829	3412
829.968	3496
830.107	3378
830.246	3454
830.385	3348
830.524	3306
830.663	3294
830.802	3256
830.941	3180
831.08	3211
831.219	3233
831.357	3272
831.496	3424
831.635	3161
831.774	3173
831.913	3180
832.051	3138
832.19	3127
832.329	3192
832.467	3116
832.606	3123
832.744	3157
832.883	3184
833.022	3203
833.16	3256
833.299	3298
833.437	3340
833.576	3321
833.714	3386
833.852	3439
833.991	3428
834.129	3431
834.267	3458
834.406	3359
834.544	3409
834.682	3420
834.821	3409
834.959	3523
835.097	3363
835.235	3557
835.373	3473
835.511	3454
835.65	3488
835.788	3481
835.926	3386
836.064	3401
836.202	3416
836.34	3504
836.478	3576
836.615	3515
836.753	3595
836.891	3644
837.029	3587
837.167	3614
837.305	3542
837.443	3492
837.58	3454
837.718	3584
837.856	3534
837.993	3523
838.131	3599
838.269	3557
838.406	3591
838.544	3549
838.681	3485
838.819	3477
838.956	3340
839.094	3386
839.231	3439
839.369	3530
839.506	3717
839.643	3599
839.781	3477
839.918	3428
840.055	3519
840.193	3545
840.33	3511
840.467	3542
840.604	3584
840.742	3808
840.879	3542
841.016	3507
841.153	3568
841.29	3682
841.427	3686
841.564	3705
841.701	3751
841.838	3679
841.975	3648
842.112	3690
842.249	3633
842.385	3629
842.522	3831
842.659	3724
842.796	3667
842.933	3740
843.069	3694
843.206	3690
843.343	3793
843.479	3770
843.616	3816
843.752	3663
843.889	3675
844.025	3842
844.162	3701
844.298	3873
844.435	3770
844.571	3789
844.708	3888
844.844	3972
844.98	4002
845.117	4010
845.253	3930
845.389	3831
845.525	3934
845.661	3930
845.798	3915
845.934	4013
846.07	3972
846.206	4078
846.342	4131
846.478	4051
846.614	3960
846.75	3960
846.886	3926
847.022	4017
847.158	4010
847.294	3960
847.429	4010
847.565	3949
847.701	4223
847.837	3884
847.972	3850
848.108	3979
848.244	3926
848.379	3842
848.515	3804
848.65	3774
848.786	3835
848.921	3857
849.057	3918
849.192	3915
849.328	3937
849.463	3926
849.598	3876
849.734	3835
849.869	3800
850.004	3740
850.14	3812
850.275	3804
850.41	3751
850.545	3743
850.68	3755
850.815	3747
850.95	3789
851.085	3922
851.22	3835
851.355	3797
851.49	3755
851.625	3785
851.76	3759
851.895	3705
852.03	3720
852.165	3804
852.299	3838
852.434	3865
852.569	3865
852.703	3873
852.838	3888
852.973	3975
853.107	3998
853.242	3876
853.376	3835
853.511	3819
853.645	3857
853.78	3937
853.914	3861
854.048	3899
854.183	3888
854.317	3911
854.451	4055
854.585	3918
854.72	3949
854.854	3983
854.988	3930
855.122	4017
855.256	3907
855.39	3987
855.524	4090
855.658	4078
855.792	4112
855.926	4158
856.06	4147
856.194	4177
856.327	4131
856.461	4139
856.595	4150
856.729	4173
856.862	4246
856.996	4261
857.13	4268
857.263	4329
857.397	4348
857.53	4276
857.664	4333
857.797	4360
857.931	4424
858.064	4314
858.197	4409
858.331	4455
858.464	4386
858.597	4325
858.731	4462
858.864	4447
858.997	4489
859.13	4500
859.263	4531
859.396	4550
859.529	4523
859.662	4485
859.795	4527
859.928	4569
860.061	4694
860.194	4721
860.327	4599
860.46	4634
860.592	4683
860.725	4721
860.858	4755
860.99	4714
861.123	4694
861.256	4656
861.388	4793
861.521	5307
861.653	4714
861.786	4698
861.918	4740
862.05	4752
862.183	4835
862.315	4877
862.447	4896
862.58	4831
862.712	4752
862.844	4790
862.976	4862
863.108	4877
863.24	5223
863.372	4812
863.504	4881
863.636	4877
863.768	4957
863.9	4972
864.032	4919
864.164	4930
864.296	5045
864.428	5079
864.559	5086
864.691	5155
864.823	5132
864.954	5071
865.086	5136
865.217	5124
865.349	5174
865.48	5178
865.612	5143
865.743	5288
865.875	5162
866.006	5128
866.137	5231
866.269	5189
866.4	5239
866.531	5181
866.662	5216
866.793	5277
866.924	5292
867.055	5372
867.186	5353
867.317	5273
867.448	5258
867.579	5307
867.71	5406
867.841	5364
867.972	5486
868.103	5505
868.233	5417
868.364	5444
868.495	5524
868.625	5676
868.756	5695
868.886	5630
869.017	5707
869.147	5851
869.278	5824
869.408	5817
869.539	5836
869.669	5916
869.799	5931
869.929	5977
870.06	5946
870.19	6178
870.32	6232
870.45	6273
870.58	6239
870.71	6353
870.84	6464
870.97	6388
871.1	6445
871.23	6665
871.36	6703
871.489	6578
871.619	6707
871.749	6859
871.879	6909
872.008	6947
872.138	6985
872.267	6970
872.397	7012
872.526	7053
872.656	7099
872.785	7206
872.915	7381
873.044	7491
873.173	7578
873.303	7620
873.432	7677
873.561	7837
873.69	7928
873.819	8001
873.948	8130
874.077	8221
874.206	8267
874.335	8438
874.464	8689
874.593	8876
874.722	8948
874.851	9169
874.979	9325
875.108	9310
875.237	9420
875.365	9492
875.494	9603
875.623	9804
875.751	9895
875.88	9983
876.008	10120
876.136	10310
876.265	10550
876.393	10702
876.521	10748
876.65	10755
876.778	10820
876.906	10885
877.034	10919
877.162	11113
877.29	11147
877.418	11273
877.546	11280
877.674	11455
877.802	11463
877.93	11455
878.058	11547
878.185	11608
878.313	11585
878.441	11737
878.568	11668
878.696	11783
878.824	11923
878.951	11916
879.079	11931
879.206	12159
879.333	12064
879.461	11988
879.588	12022
879.715	12117
879.842	12144
879.97	12068
880.097	11950
880.224	11824
880.351	11855
880.478	11908
880.605	11821
880.732	11817
880.859	12011
880.986	11836
881.112	11817
881.239	11752
881.366	11627
881.493	11611
881.619	11558
881.746	11623
881.872	11539
881.999	11501
882.125	11543
882.252	11554
882.378	11543
882.505	11558
882.631	11322
882.757	11318
882.883	11356
883.01	11227
883.136	11170
883.262	11086
883.388	11079
883.514	11056
883.64	11212
883.766	11132
883.892	10957
884.018	10892
884.143	11029
884.269	11162
884.395	10831
884.52	10668
884.646	10801
884.772	10797
884.897	10660
885.023	10664
885.148	10641
885.274	10847
885.399	10679
885.524	10622
885.65	10592
885.775	10527
885.9	10558
886.025	10584
886.15	10508
886.275	10440
886.4	10318
886.525	10398
886.65	10424
886.775	10417
886.9	10478
887.025	10558
887.149	10382
887.274	10253
887.399	10234
887.523	10166
887.648	10067
887.773	10139
887.897	10268
888.021	10211
888.146	10116
888.27	10276
888.395	10234
888.519	10112
888.643	10112
888.767	10200
888.891	10116
889.015	10025
889.139	10112
889.263	9960
889.387	10010
889.511	10082
889.635	10055
889.759	9934
889.883	9903
890.006	9964
890.13	10097
890.254	9972
890.377	9922
890.501	9880
890.624	9880
890.748	9880
890.871	9770
890.995	9728
891.118	9720
891.241	9743
891.364	9766
891.488	9701
891.611	9690
891.734	9713
891.857	9755
891.98	9713
892.103	9778
892.226	9793
892.349	9694
892.471	9504
892.594	9580
892.717	9561
892.839	9595
892.962	9690
893.085	9679
893.207	9515
893.33	9542
893.452	9557
893.575	9595
893.697	9507
893.819	9572
893.941	9652
894.064	9538
894.186	9405
894.308	9378
894.43	9557
894.552	9481
894.674	9450
894.796	9374
894.918	9321
895.04	9302
895.161	9393
895.283	9291
895.405	9249
895.526	9294
895.648	9245
895.769	9233
895.891	9283
896.012	9249
896.134	9260
896.255	9150
896.376	9157
896.498	9108
896.619	9085
896.74	9055
896.861	9081
896.982	9249
897.103	9332
897.224	9161
897.345	9024
897.466	8925
897.587	8971
897.708	9089
897.828	9028
897.949	8986
898.07	8895
898.19	8914
898.311	9089
898.431	8868
898.552	8986
898.672	8933
898.792	8895
898.913	8891
899.033	8823
899.153	8705
899.273	8663
899.393	8716
899.513	8750
899.633	8743
899.753	8720
899.873	8807
899.993	8758
900.113	8716
900.232	8693
900.352	8644
900.472	8590
900.591	8507
900.711	8590
900.83	8579
900.95	8682
901.069	8651
901.189	8602
901.308	8473
901.427	8423
901.546	8450
901.665	8480
901.784	8431
901.904	8362
902.023	8336
902.141	8237
902.26	8225
902.379	8290
902.498	8210
902.617	8210
902.735	8301
902.854	8267
902.973	8256
903.091	8123
903.21	8145
903.328	8187
903.446	8088
903.565	8043
903.683	8065
903.801	8062
903.919	8218
904.038	8145
904.156	8081
904.274	7986
904.392	8001
904.51	8081
904.627	8008
904.745	8081
904.863	8035
904.981	7932
905.098	7879
905.216	7921
905.334	7875
905.451	7879
905.569	7917
905.686	7898
905.803	7944
905.921	7750
906.038	7807
906.155	7788
906.272	7719
906.389	7723
906.506	7559
906.623	7620
906.74	7597
906.857	7567
906.974	7548
907.091	7746
907.208	7708
907.324	7620
907.441	7556
907.557	7438
907.674	7441
907.79	7339
907.907	7422
908.023	7419
908.139	7403
908.256	7426
908.372	7422
908.488	7339
908.604	7255
908.72	7175
908.836	7263
908.952	7217
909.068	7247
909.184	7297
909.3	7232
909.415	7320
909.531	7270
909.647	7145
909.762	7118
909.878	7114
909.993	7095
910.108	7110
910.224	7091
910.339	7107
910.454	7076
910.57	7015
910.685	6943
910.8	7149
910.915	7126
911.03	7034
911.145	6890
911.259	6867
911.374	6890
911.489	6859
911.604	6795
911.718	6734
911.833	6749
911.947	6669
912.062	6566
912.176	6722
912.291	6692
912.405	6646
912.519	6833
912.633	6886
912.748	6677
912.862	6665
912.976	6681
913.09	6509
913.204	6593
913.318	6574
913.431	6673
913.545	6673
913.659	6719
913.772	6635
913.886	6623
914	6555
914.113	6582
914.226	6639
914.34	6597
914.453	6536
914.566	6593
914.68	6544
914.793	6528
914.906	6422
915.019	6357
915.132	6372
915.245	6388
915.358	6391
915.47	6460
915.583	6483
915.696	6464
915.809	6547
915.921	6551
916.034	6410
916.146	6441
916.259	6376
916.371	6464
916.483	6429
916.595	6353
916.708	6410
916.82	6407
916.932	6346
917.044	6331
917.156	6376
917.268	6319
917.38	6304
917.491	6353
917.603	6331
917.715	6369
917.826	6384
917.938	6251
918.049	6220
918.161	6331
918.272	6422
918.384	6426
918.495	6350
918.606	6247
918.717	6220
918.828	6308
918.939	6262
919.05	6152
919.161	6232
919.272	6205
919.383	6148
919.494	6228
919.604	6445
919.715	6266
919.826	6220
919.936	6296
920.047	6353
920.157	6311
920.267	6467
920.378	6292
920.488	6262
920.598	6418
920.708	6563
920.818	6403
920.928	6445
921.038	6597
921.148	6555
921.258	6338
921.368	6319
921.477	6228
921.587	6194
921.697	6076
921.806	6194
921.916	6019
922.025	5927
922.134	5885
922.244	5878
922.353	5889
922.462	5824
922.571	5798
922.68	5729
922.789	5646
922.898	5729
923.007	5604
923.116	5676
923.224	5668
923.333	5657
923.442	5608
923.55	5596
923.659	5573
923.767	5649
923.876	5509
923.984	5577
924.092	5532
924.201	5558
924.309	5554
924.417	5535
924.525	5539
924.633	5505
924.741	6235
924.849	5433
924.956	5448
925.064	5391
925.172	5254
925.279	5303
925.387	5330
925.494	5307
925.602	5433
925.709	5364
925.816	5284
925.924	5318
926.031	5383
926.138	5280
926.245	5307
926.352	5201
926.459	5273
926.566	5258
926.673	5178
926.779	5128
926.886	5105
926.993	4984
927.099	5029
927.206	4942
927.312	4987
927.419	5022
927.525	4987
927.631	5010
927.737	4927
927.843	4831
927.95	4740
928.056	4790
928.162	4744
928.267	4831
928.373	5368
928.479	4873
928.585	4679
928.69	4786
928.796	4790
928.901	4691
929.007	4603
929.112	4653
929.218	4611
929.323	4565
929.428	4550
929.533	4611
929.638	4527
929.743	4535
929.848	4580
929.953	4474
930.058	4447
930.163	4314
930.267	4360
930.372	4413
930.477	4268
930.581	4462
930.685	4375
930.79	4188
930.894	4272
930.998	4265
931.103	4333
931.207	4135
931.311	4074
931.415	4048
931.519	3903
931.623	3956
