Data from glass_V78500241_264.txt Node
Date: Wed Sep 01 19:16:19 CST 2021
User: usil
Spectrometer: V785-0024
Trigger mode: 0
Integration Time (sec): 4.000000E-1
Scans to average: 1
Nonlinearity correction enabled: false
Boxcar width: 0
Storing dark spectrum: false
XAxis mode: Wavelengths
Number of Pixels in Spectrum: 1024
>>>>>Begin Spectral Data<<<<<
801.071	3762
801.214	3785
801.356	3701
801.499	3743
801.641	3732
801.783	3789
801.926	3861
802.068	3819
802.211	3884
802.353	3896
802.496	3838
802.638	3869
802.78	3865
802.923	3968
803.065	3922
803.208	3850
803.35	3892
803.492	3930
803.635	3930
803.777	3808
803.919	3869
804.061	4147
804.204	3979
804.346	3975
804.488	3934
804.63	4029
804.773	3983
804.915	4078
805.057	4211
805.199	4059
805.341	4105
805.483	4139
805.626	4109
805.768	4124
805.91	4238
806.052	4238
806.194	4219
806.336	4344
806.478	4215
806.62	4230
806.762	4169
806.904	4253
807.046	4341
807.188	4234
807.33	4173
807.472	4211
807.614	4211
807.756	4276
807.898	4253
808.04	4238
808.182	4306
808.324	4363
808.465	4325
808.607	4481
808.749	4462
808.891	4489
809.033	4558
809.174	4413
809.316	4284
809.458	4276
809.6	4139
809.741	4188
809.883	4162
810.025	4272
810.166	4246
810.308	4242
810.45	4257
810.591	4192
810.733	4287
810.875	4535
811.016	4828
811.158	5140
811.299	5261
811.441	5284
811.582	5048
811.724	4725
811.865	4489
812.007	4470
812.148	4443
812.29	4489
812.431	4421
812.573	4413
812.714	4390
812.855	4432
812.997	4367
813.138	4538
813.279	4428
813.421	4383
813.562	4432
813.703	4314
813.845	4341
813.986	4249
814.127	4280
814.268	4284
814.41	4272
814.551	4299
814.692	4375
814.833	4257
814.974	4295
815.115	4363
815.256	4295
815.397	4211
815.539	4272
815.68	4200
815.821	4230
815.962	4306
816.103	4318
816.244	4246
816.385	4211
816.526	4322
816.666	4242
816.807	4101
816.948	4200
817.089	4188
817.23	4200
817.371	4059
817.512	4040
817.653	4105
817.793	4021
817.934	4082
818.075	4124
818.216	4105
818.356	4112
818.497	3998
818.638	3953
818.778	3941
818.919	3857
819.06	3884
819.2	3949
819.341	3892
819.481	3823
819.622	3926
819.762	4029
819.903	3968
820.043	3857
820.184	3831
820.324	3896
820.465	3888
820.605	3892
820.746	3903
820.886	3781
821.026	3922
821.167	3953
821.307	4010
821.447	3998
821.588	3956
821.728	3964
821.868	3960
822.008	3888
822.149	3945
822.289	3911
822.429	3838
822.569	3762
822.709	3823
822.849	3747
822.99	3720
823.13	3770
823.27	3774
823.41	3759
823.55	3751
823.69	3766
823.83	3804
823.97	3732
824.11	3599
824.25	3633
824.389	3675
824.529	3675
824.669	3648
824.809	3743
824.949	3781
825.089	3755
825.228	3751
825.368	3606
825.508	3568
825.648	3568
825.787	3595
825.927	3660
826.067	3656
826.206	3675
826.346	3797
826.485	3869
826.625	3876
826.765	3975
826.904	3804
827.044	3644
827.183	3515
827.323	3447
827.462	3466
827.601	3469
827.741	3469
827.88	3473
828.02	3409
828.159	3428
828.298	3504
828.437	3542
828.577	3424
828.716	3648
828.855	3477
828.994	3370
829.134	3370
829.273	3348
829.412	3378
829.551	3325
829.69	3382
829.829	3416
829.968	3496
830.107	3511
830.246	3492
830.385	3409
830.524	3386
830.663	3260
830.802	3249
830.941	3199
831.08	3226
831.219	3291
831.357	3283
831.496	3420
831.635	3237
831.774	3188
831.913	3203
832.051	3119
832.19	3142
832.329	3176
832.467	3127
832.606	3116
832.744	3184
832.883	3173
833.022	3222
833.16	3291
833.299	3351
833.437	3317
833.576	3370
833.714	3412
833.852	3439
833.991	3481
834.129	3504
834.267	3450
834.406	3393
834.544	3466
834.682	3447
834.821	3409
834.959	3580
835.097	3450
835.235	3568
835.373	3473
835.511	3462
835.65	3450
835.788	3500
835.926	3401
836.064	3428
836.202	3435
836.34	3595
836.478	3618
836.615	3538
836.753	3606
836.891	3633
837.029	3633
837.167	3622
837.305	3584
837.443	3542
837.58	3477
837.718	3622
837.856	3580
837.993	3553
838.131	3599
838.269	3561
838.406	3614
838.544	3580
838.681	3507
838.819	3454
838.956	3382
839.094	3389
839.231	3443
839.369	3519
839.506	3743
839.643	3675
839.781	3557
839.918	3481
840.055	3530
840.193	3519
840.33	3561
840.467	3576
840.604	3614
840.742	3838
840.879	3564
841.016	3580
841.153	3599
841.29	3789
841.427	3762
841.564	3728
841.701	3713
841.838	3759
841.975	3686
842.112	3743
842.249	3580
842.385	3610
842.522	3800
842.659	3694
842.796	3648
842.933	3682
843.069	3751
843.206	3736
843.343	3838
843.479	3831
843.616	3819
843.752	3671
843.889	3705
844.025	3903
844.162	3774
844.298	3865
844.435	3816
844.571	3781
844.708	3892
844.844	3979
844.98	4025
845.117	4013
845.253	3953
845.389	3911
845.525	3949
845.661	4017
845.798	3934
845.934	4025
846.07	4013
846.206	4143
846.342	4139
846.478	4078
846.614	3983
846.75	3975
846.886	3949
847.022	4029
847.158	3972
847.294	4032
847.429	4010
847.565	4021
847.701	4238
847.837	3865
847.972	3911
848.108	3964
848.244	3987
848.379	3899
848.515	3812
848.65	3865
848.786	3842
848.921	3907
849.057	3953
849.192	4017
849.328	3926
849.463	3960
849.598	3911
849.734	3876
849.869	3831
850.004	3850
850.14	3850
850.275	3800
850.41	3740
850.545	3728
850.68	3789
850.815	3831
850.95	3793
851.085	3991
851.22	3896
851.355	3857
851.49	3823
851.625	3770
851.76	3800
851.895	3743
852.03	3766
852.165	3770
852.299	3869
852.434	3934
852.569	3876
852.703	3876
852.838	3926
852.973	4059
853.107	3968
853.242	3903
853.376	3842
853.511	3808
853.645	3835
853.78	3979
853.914	3892
854.048	3903
854.183	3892
854.317	3960
854.451	4040
854.585	3922
854.72	3956
854.854	4051
854.988	3968
855.122	3998
855.256	3930
855.39	4044
855.524	4143
855.658	4105
855.792	4150
855.926	4139
856.06	4177
856.194	4242
856.327	4124
856.461	4173
856.595	4185
856.729	4196
856.862	4234
856.996	4306
857.13	4284
857.263	4405
857.397	4390
857.53	4322
857.664	4356
857.797	4447
857.931	4421
858.064	4443
858.197	4424
858.331	4367
858.464	4402
858.597	4341
858.731	4485
858.864	4466
858.997	4459
859.13	4523
859.263	4607
859.396	4558
859.529	4550
859.662	4542
859.795	4558
859.928	4607
860.061	4736
860.194	4755
860.327	4630
860.46	4653
860.592	4710
860.725	4778
860.858	4755
860.99	4721
861.123	4733
861.256	4725
861.388	4797
861.521	5273
861.653	4778
861.786	4725
861.918	4767
862.05	4820
862.183	4877
862.315	4866
862.447	4980
862.58	4915
862.712	4816
862.844	4801
862.976	4904
863.108	4877
863.24	5250
863.372	4820
863.504	4858
863.636	4961
863.768	5010
863.9	4965
864.032	4915
864.164	4957
864.296	5056
864.428	5060
864.559	5109
864.691	5136
864.823	5064
864.954	5155
865.086	5136
865.217	5147
865.349	5143
865.48	5201
865.612	5227
865.743	5326
865.875	5231
866.006	5185
866.137	5250
866.269	5231
866.4	5296
866.531	5239
866.662	5239
866.793	5220
866.924	5288
867.055	5383
867.186	5345
867.317	5330
867.448	5341
867.579	5402
867.71	5406
867.841	5379
867.972	5452
868.103	5478
868.233	5520
868.364	5486
868.495	5558
868.625	5657
868.756	5813
868.886	5661
869.017	5710
869.147	5855
869.278	5874
869.408	5798
869.539	5870
869.669	5935
869.799	5931
869.929	5999
870.06	6007
870.19	6258
870.32	6175
870.45	6247
870.58	6388
870.71	6483
870.84	6498
870.97	6410
871.1	6456
871.23	6658
871.36	6787
871.489	6642
871.619	6768
871.749	6875
871.879	6859
872.008	7057
872.138	6962
872.267	7012
872.397	6985
872.526	7031
872.656	7110
872.785	7244
872.915	7384
873.044	7563
873.173	7552
873.303	7601
873.432	7685
873.561	7879
873.69	7940
873.819	8077
873.948	8199
874.077	8233
874.206	8339
874.335	8454
874.464	8716
874.593	8883
874.722	8952
874.851	9104
874.979	9192
875.108	9408
875.237	9462
875.365	9526
875.494	9656
875.623	9876
875.751	9892
875.88	10013
876.008	10055
876.136	10284
876.265	10577
876.393	10721
876.521	10767
876.65	10790
876.778	10949
876.906	10965
877.034	10946
877.162	11124
877.29	11265
877.418	11292
877.546	11337
877.674	11532
877.802	11478
877.93	11501
878.058	11638
878.185	11551
878.313	11817
878.441	11760
878.568	11680
878.696	11840
878.824	11843
878.951	11912
879.079	12019
879.206	12136
879.333	12026
879.461	12049
879.588	12049
879.715	12098
879.842	12213
879.97	12117
880.097	11931
880.224	11931
880.351	11847
880.478	11969
880.605	11931
880.732	11901
880.859	12011
880.986	11821
881.112	11798
881.239	11630
881.366	11775
881.493	11722
881.619	11490
881.746	11634
881.872	11551
881.999	11627
882.125	11402
882.252	11486
882.378	11509
882.505	11532
882.631	11425
882.757	11265
882.883	11288
883.01	11246
883.136	11181
883.262	11113
883.388	11143
883.514	11189
883.64	11254
883.766	11083
883.892	10965
884.018	10991
884.143	11143
884.269	11083
884.395	10919
884.52	10733
884.646	10736
884.772	10687
884.897	10603
885.023	10691
885.148	10755
885.274	10812
885.399	10763
885.524	10618
885.65	10611
885.775	10592
885.9	10580
886.025	10607
886.15	10542
886.275	10447
886.4	10413
886.525	10462
886.65	10344
886.775	10325
886.9	10462
887.025	10565
887.149	10382
887.274	10272
887.399	10261
887.523	10177
887.648	10143
887.773	10063
887.897	10261
888.021	10154
888.146	10177
888.27	10188
888.395	10272
888.519	10131
888.643	10192
888.767	10238
888.891	10124
889.015	10006
889.139	10048
889.263	10036
889.387	10067
889.511	10173
889.635	10071
889.759	10013
889.883	10002
890.006	10067
890.13	10207
890.254	10010
890.377	10002
890.501	9781
890.624	9850
890.748	9964
890.871	9766
890.995	9766
891.118	9743
891.241	9816
891.364	9751
891.488	9797
891.611	9747
891.734	9781
891.857	9800
891.98	9736
892.103	9743
892.226	9804
892.349	9671
892.471	9584
892.594	9694
892.717	9591
892.839	9599
892.962	9694
893.085	9686
893.207	9599
893.33	9526
893.452	9591
893.575	9553
893.697	9492
893.819	9614
893.941	9644
894.064	9629
894.186	9519
894.308	9408
894.43	9485
894.552	9587
894.674	9568
894.796	9329
894.918	9412
895.04	9325
895.161	9447
895.283	9428
895.405	9336
895.526	9321
895.648	9260
895.769	9294
895.891	9306
896.012	9344
896.134	9195
896.255	9138
896.376	9138
896.498	9165
896.619	9146
896.74	9112
896.861	9127
896.982	9275
897.103	9241
897.224	9135
897.345	9104
897.466	9047
897.587	9051
897.708	9085
897.828	8998
897.949	8990
898.07	8864
898.19	8914
898.311	9020
898.431	8899
898.552	8952
898.672	9032
898.792	8990
898.913	8887
899.033	8880
899.153	8731
899.273	8651
899.393	8724
899.513	8743
899.633	8758
899.753	8796
899.873	8800
899.993	8746
900.113	8712
900.232	8720
900.352	8640
900.472	8556
900.591	8556
900.711	8629
900.83	8514
900.95	8708
901.069	8712
901.189	8556
901.308	8526
901.427	8385
901.546	8408
901.665	8465
901.784	8526
901.904	8457
902.023	8309
902.141	8256
902.26	8248
902.379	8214
902.498	8199
902.617	8252
902.735	8305
902.854	8271
902.973	8244
903.091	8065
903.21	8161
903.328	8221
903.446	8187
903.565	8115
903.683	8111
903.801	8077
903.919	8065
904.038	8206
904.156	8054
904.274	8088
904.392	8035
904.51	8092
904.627	8088
904.745	8123
904.863	8161
904.981	7951
905.098	7932
905.216	7928
905.334	7909
905.451	7940
905.569	7860
905.686	7944
905.803	7944
905.921	7871
906.038	7849
906.155	7868
906.272	7689
906.389	7765
906.506	7666
906.623	7586
906.74	7658
906.857	7563
906.974	7616
907.091	7628
907.208	7719
907.324	7613
907.441	7563
907.557	7499
907.674	7411
907.79	7426
907.907	7460
908.023	7438
908.139	7464
908.256	7419
908.372	7369
908.488	7388
908.604	7266
908.72	7217
908.836	7297
908.952	7164
909.068	7266
909.184	7327
909.3	7213
909.415	7244
909.531	7327
909.647	7099
909.762	7126
909.878	7053
909.993	7084
910.108	7091
910.224	7076
910.339	7149
910.454	7099
910.57	6989
910.685	6935
910.8	7194
910.915	7110
911.03	7004
911.145	6966
911.259	6905
911.374	6962
911.489	6818
911.604	6833
911.718	6707
911.833	6753
911.947	6642
912.062	6650
912.176	6707
912.291	6749
912.405	6738
912.519	6810
912.633	6867
912.748	6810
912.862	6711
912.976	6566
913.09	6582
913.204	6555
913.318	6593
913.431	6662
913.545	6639
913.659	6738
913.772	6585
913.886	6593
914	6597
914.113	6635
914.226	6688
914.34	6631
914.453	6544
914.566	6601
914.68	6540
914.793	6540
914.906	6445
915.019	6426
915.132	6391
915.245	6456
915.358	6448
915.47	6528
915.583	6509
915.696	6452
915.809	6540
915.921	6502
916.034	6418
916.146	6429
916.259	6403
916.371	6429
916.483	6464
916.595	6414
916.708	6475
916.82	6418
916.932	6353
917.044	6407
917.156	6384
917.268	6361
917.38	6369
917.491	6407
917.603	6403
917.715	6418
917.826	6403
917.938	6342
918.049	6292
918.161	6399
918.272	6445
918.384	6479
918.495	6361
918.606	6266
918.717	6190
918.828	6289
918.939	6281
919.05	6220
919.161	6277
919.272	6148
919.383	6171
919.494	6292
919.604	6445
919.715	6311
919.826	6232
919.936	6311
920.047	6361
920.157	6262
920.267	6418
920.378	6334
920.488	6338
920.598	6471
920.708	6608
920.818	6471
920.928	6429
921.038	6597
921.148	6578
921.258	6334
921.368	6247
921.477	6194
921.587	6190
921.697	6110
921.806	6194
921.916	6095
922.025	6003
922.134	5920
922.244	5874
922.353	5988
922.462	5893
922.571	5828
922.68	5714
922.789	5726
922.898	5710
923.007	5684
923.116	5676
923.224	5707
923.333	5642
923.442	5634
923.55	5539
923.659	5573
923.767	5649
923.876	5619
923.984	5600
924.092	5512
924.201	5570
924.309	5543
924.417	5573
924.525	5482
924.633	5505
924.741	6308
924.849	5414
924.956	5471
925.064	5368
925.172	5254
925.279	5337
925.387	5357
925.494	5322
925.602	5402
925.709	5398
925.816	5261
925.924	5357
926.031	5368
926.138	5337
926.245	5364
926.352	5231
926.459	5284
926.566	5349
926.673	5277
926.779	5159
926.886	5124
926.993	5033
927.099	5067
927.206	4999
927.312	4965
927.419	5033
927.525	4961
927.631	4968
927.737	4927
927.843	4892
927.95	4790
928.056	4877
928.162	4866
928.267	4900
928.373	5269
928.479	4881
928.585	4691
928.69	4801
928.796	4790
928.901	4687
929.007	4649
929.112	4694
929.218	4626
929.323	4618
929.428	4630
929.533	4649
929.638	4535
929.743	4561
929.848	4615
929.953	4538
930.058	4481
930.163	4325
930.267	4390
930.372	4447
930.477	4306
930.581	4470
930.685	4417
930.79	4276
930.894	4291
930.998	4322
931.103	4443
931.207	4120
931.311	4093
931.415	4029
931.519	3983
931.623	3979
