Data from glass_V78500241_559.txt Node
Date: Wed Sep 01 19:18:22 CST 2021
User: usil
Spectrometer: V785-0024
Trigger mode: 0
Integration Time (sec): 4.000000E-1
Scans to average: 1
Nonlinearity correction enabled: false
Boxcar width: 0
Storing dark spectrum: false
XAxis mode: Wavelengths
Number of Pixels in Spectrum: 1024
>>>>>Begin Spectral Data<<<<<
801.071	3759
801.214	3751
801.356	3713
801.499	3759
801.641	3819
801.783	3793
801.926	3884
802.068	3827
802.211	3873
802.353	3876
802.496	3808
802.638	3903
802.78	3888
802.923	3918
803.065	3876
803.208	3869
803.35	3896
803.492	3918
803.635	3922
803.777	3835
803.919	3915
804.061	4124
804.204	3968
804.346	3941
804.488	3949
804.63	4048
804.773	3975
804.915	4055
805.057	4150
805.199	4067
805.341	4105
805.483	4158
805.626	4181
805.768	4154
805.91	4215
806.052	4253
806.194	4215
806.336	4360
806.478	4188
806.62	4188
806.762	4162
806.904	4268
807.046	4360
807.188	4188
807.33	4230
807.472	4272
807.614	4173
807.756	4261
807.898	4230
808.04	4204
808.182	4306
808.324	4322
808.465	4379
808.607	4451
808.749	4481
808.891	4451
809.033	4478
809.174	4390
809.316	4303
809.458	4249
809.6	4166
809.741	4143
809.883	4139
810.025	4204
810.166	4177
810.308	4215
810.45	4261
810.591	4268
810.733	4306
810.875	4573
811.016	4805
811.158	5124
811.299	5280
811.441	5307
811.582	5014
811.724	4706
811.865	4516
812.007	4519
812.148	4432
812.29	4447
812.431	4459
812.573	4424
812.714	4402
812.855	4447
812.997	4447
813.138	4478
813.279	4432
813.421	4394
813.562	4379
813.703	4291
813.845	4344
813.986	4287
814.127	4227
814.268	4265
814.41	4284
814.551	4272
814.692	4318
814.833	4242
814.974	4325
815.115	4333
815.256	4253
815.397	4204
815.539	4287
815.68	4173
815.821	4177
815.962	4348
816.103	4344
816.244	4253
816.385	4196
816.526	4287
816.666	4188
816.807	4112
816.948	4188
817.089	4192
817.23	4067
817.371	4048
817.512	4040
817.653	4093
817.793	4032
817.934	4086
818.075	4071
818.216	4093
818.356	4116
818.497	3979
818.638	3956
818.778	3975
818.919	3937
819.06	3888
819.2	3937
819.341	3884
819.481	3800
819.622	3937
819.762	4032
819.903	3941
820.043	3892
820.184	3880
820.324	3850
820.465	3896
820.605	3873
820.746	3854
820.886	3785
821.026	3915
821.167	3926
821.307	4013
821.447	4036
821.588	4025
821.728	3979
821.868	3975
822.008	3888
822.149	3941
822.289	3979
822.429	3778
822.569	3781
822.709	3827
822.849	3732
822.99	3751
823.13	3770
823.27	3793
823.41	3709
823.55	3732
823.69	3732
823.83	3740
823.97	3663
824.11	3618
824.25	3618
824.389	3679
824.529	3629
824.669	3637
824.809	3759
824.949	3804
825.089	3740
825.228	3724
825.368	3584
825.508	3553
825.648	3561
825.787	3606
825.927	3614
826.067	3622
826.206	3663
826.346	3816
826.485	3827
826.625	3880
826.765	3926
826.904	3876
827.044	3610
827.183	3530
827.323	3439
827.462	3507
827.601	3450
827.741	3454
827.88	3507
828.02	3401
828.159	3473
828.298	3462
828.437	3603
828.577	3485
828.716	3595
828.855	3504
828.994	3367
829.134	3393
829.273	3401
829.412	3370
829.551	3355
829.69	3401
829.829	3382
829.968	3545
830.107	3500
830.246	3496
830.385	3344
830.524	3363
830.663	3317
830.802	3268
830.941	3180
831.08	3207
831.219	3275
831.357	3294
831.496	3420
831.635	3241
831.774	3214
831.913	3211
832.051	3169
832.19	3112
832.329	3184
832.467	3135
832.606	3085
832.744	3169
832.883	3180
833.022	3226
833.16	3287
833.299	3287
833.437	3397
833.576	3370
833.714	3450
833.852	3447
833.991	3439
834.129	3496
834.267	3481
834.406	3420
834.544	3458
834.682	3443
834.821	3439
834.959	3568
835.097	3447
835.235	3515
835.373	3466
835.511	3511
835.65	3443
835.788	3481
835.926	3393
836.064	3378
836.202	3416
836.34	3568
836.478	3622
836.615	3504
836.753	3622
836.891	3633
837.029	3644
837.167	3603
837.305	3599
837.443	3504
837.58	3530
837.718	3622
837.856	3568
837.993	3561
838.131	3633
838.269	3599
838.406	3576
838.544	3580
838.681	3511
838.819	3435
838.956	3420
839.094	3389
839.231	3462
839.369	3545
839.506	3770
839.643	3686
839.781	3530
839.918	3519
840.055	3606
840.193	3515
840.33	3519
840.467	3603
840.604	3599
840.742	3827
840.879	3545
841.016	3538
841.153	3584
841.29	3808
841.427	3709
841.564	3755
841.701	3778
841.838	3667
841.975	3656
842.112	3717
842.249	3671
842.385	3667
842.522	3846
842.659	3686
842.796	3690
842.933	3724
843.069	3694
843.206	3686
843.343	3819
843.479	3812
843.616	3846
843.752	3675
843.889	3717
844.025	3846
844.162	3724
844.298	3842
844.435	3789
844.571	3785
844.708	3945
844.844	3991
844.98	4044
845.117	4017
845.253	3892
845.389	3907
845.525	4006
845.661	4013
845.798	3930
845.934	4002
846.07	3979
846.206	4002
846.342	4173
846.478	4055
846.614	4006
846.75	3956
846.886	3918
847.022	4074
847.158	4025
847.294	3983
847.429	4017
847.565	3998
847.701	4246
847.837	3911
847.972	3869
848.108	4006
848.244	3987
848.379	3850
848.515	3827
848.65	3827
848.786	3861
848.921	3892
849.057	3880
849.192	3953
849.328	3876
849.463	3987
849.598	3892
849.734	3896
849.869	3838
850.004	3816
850.14	3831
850.275	3740
850.41	3774
850.545	3789
850.68	3785
850.815	3804
850.95	3755
851.085	3930
851.22	3880
851.355	3800
851.49	3800
851.625	3812
851.76	3797
851.895	3747
852.03	3720
852.165	3800
852.299	3854
852.434	3892
852.569	3869
852.703	3899
852.838	3941
852.973	4044
853.107	3994
853.242	3934
853.376	3865
853.511	3759
853.645	3846
853.78	4029
853.914	3888
854.048	3934
854.183	3907
854.317	4002
854.451	4040
854.585	3949
854.72	3956
854.854	4051
854.988	3987
855.122	4055
855.256	3949
855.39	4017
855.524	4097
855.658	4109
855.792	4143
855.926	4173
856.06	4188
856.194	4177
856.327	4177
856.461	4169
856.595	4135
856.729	4242
856.862	4291
856.996	4261
857.13	4306
857.263	4352
857.397	4325
857.53	4337
857.664	4356
857.797	4432
857.931	4462
858.064	4432
858.197	4493
858.331	4390
858.464	4447
858.597	4356
858.731	4447
858.864	4462
858.997	4462
859.13	4538
859.263	4542
859.396	4596
859.529	4542
859.662	4565
859.795	4558
859.928	4622
860.061	4702
860.194	4744
860.327	4668
860.46	4687
860.592	4782
860.725	4812
860.858	4774
860.99	4687
861.123	4710
861.256	4698
861.388	4767
861.521	5493
861.653	4748
861.786	4706
861.918	4755
862.05	4797
862.183	4850
862.315	4854
862.447	4987
862.58	4873
862.712	4854
862.844	4797
862.976	4866
863.108	4877
863.24	5201
863.372	4873
863.504	4908
863.636	4984
863.768	4995
863.9	4972
864.032	4980
864.164	4934
864.296	5037
864.428	5109
864.559	5143
864.691	5121
864.823	5170
864.954	5102
865.086	5185
865.217	5155
865.349	5075
865.48	5098
865.612	5159
865.743	5296
865.875	5170
866.006	5189
866.137	5296
866.269	5265
866.4	5250
866.531	5261
866.662	5258
866.793	5269
866.924	5246
867.055	5364
867.186	5337
867.317	5337
867.448	5288
867.579	5364
867.71	5425
867.841	5376
867.972	5497
868.103	5512
868.233	5520
868.364	5482
868.495	5619
868.625	5627
868.756	5817
868.886	5699
869.017	5707
869.147	5828
869.278	5942
869.408	5798
869.539	5817
869.669	5908
869.799	5935
869.929	6003
870.06	6034
870.19	6254
870.32	6232
870.45	6232
870.58	6361
870.71	6433
870.84	6399
870.97	6433
871.1	6464
871.23	6654
871.36	6715
871.489	6711
871.619	6738
871.749	6783
871.879	6863
872.008	7019
872.138	7004
872.267	7023
872.397	6970
872.526	7015
872.656	7107
872.785	7213
872.915	7354
873.044	7548
873.173	7613
873.303	7655
873.432	7715
873.561	7868
873.69	7894
873.819	8039
873.948	8168
874.077	8233
874.206	8324
874.335	8427
874.464	8644
874.593	8842
874.722	8982
874.851	9097
874.979	9184
875.108	9351
875.237	9462
875.365	9511
875.494	9648
875.623	9823
875.751	9819
875.88	10048
876.008	10097
876.136	10227
876.265	10527
876.393	10736
876.521	10687
876.65	10824
876.778	10881
876.906	10900
877.034	10930
877.162	11075
877.29	11189
877.418	11292
877.546	11391
877.674	11547
877.802	11471
877.93	11577
878.058	11589
878.185	11551
878.313	11661
878.441	11714
878.568	11729
878.696	11805
878.824	11809
878.951	11961
879.079	12076
879.206	12114
879.333	12057
879.461	11946
879.588	12098
879.715	12098
879.842	12228
879.97	12064
880.097	11874
880.224	11920
880.351	11882
880.478	11904
880.605	11802
880.732	11851
880.859	12053
880.986	11889
881.112	11817
881.239	11779
881.366	11661
881.493	11623
881.619	11532
881.746	11493
881.872	11573
881.999	11543
882.125	11554
882.252	11562
882.378	11520
882.505	11608
882.631	11330
882.757	11250
882.883	11398
883.01	11254
883.136	11242
883.262	11067
883.388	11151
883.514	11201
883.64	11185
883.766	11132
883.892	11124
884.018	10949
884.143	11102
884.269	11121
884.395	10919
884.52	10809
884.646	10793
884.772	10733
884.897	10653
885.023	10694
885.148	10706
885.274	10694
885.399	10714
885.524	10660
885.65	10672
885.775	10603
885.9	10611
886.025	10649
886.15	10500
886.275	10485
886.4	10485
886.525	10440
886.65	10371
886.775	10367
886.9	10474
887.025	10489
887.149	10432
887.274	10337
887.399	10158
887.523	10154
887.648	10158
887.773	10181
887.897	10238
888.021	10185
888.146	10131
888.27	10230
888.395	10265
888.519	10207
888.643	10253
888.767	10204
888.891	10169
889.015	10071
889.139	9987
889.263	9972
889.387	10086
889.511	10078
889.635	10067
889.759	9979
889.883	9998
890.006	10063
890.13	10059
890.254	9941
890.377	10040
890.501	9850
890.624	9895
890.748	9911
890.871	9800
890.995	9755
891.118	9709
891.241	9720
891.364	9724
891.488	9911
891.611	9759
891.734	9759
891.857	9774
891.98	9698
892.103	9850
892.226	9755
892.349	9682
892.471	9511
892.594	9644
892.717	9652
892.839	9580
892.962	9671
893.085	9629
893.207	9576
893.33	9564
893.452	9492
893.575	9580
893.697	9447
893.819	9625
893.941	9580
894.064	9618
894.186	9431
894.308	9462
894.43	9435
894.552	9595
894.674	9519
894.796	9389
894.918	9412
895.04	9382
895.161	9344
895.283	9306
895.405	9230
895.526	9329
895.648	9176
895.769	9279
895.891	9272
896.012	9336
896.134	9207
896.255	9241
896.376	9165
896.498	9195
896.619	9108
896.74	9055
896.861	9058
896.982	9321
897.103	9386
897.224	9165
897.345	9081
897.466	9032
897.587	9058
897.708	9119
897.828	9032
897.949	8963
898.07	8910
898.19	8937
898.311	8986
898.431	8956
898.552	8963
898.672	8998
898.792	8925
898.913	8883
899.033	8864
899.153	8708
899.273	8682
899.393	8720
899.513	8777
899.633	8735
899.753	8773
899.873	8739
899.993	8819
900.113	8758
900.232	8785
900.352	8651
900.472	8663
900.591	8526
900.711	8530
900.83	8564
900.95	8686
901.069	8708
901.189	8552
901.308	8389
901.427	8404
901.546	8415
901.665	8480
901.784	8507
901.904	8370
902.023	8377
902.141	8206
902.26	8210
902.379	8309
902.498	8252
902.617	8180
902.735	8256
902.854	8305
902.973	8332
903.091	8180
903.21	8176
903.328	8157
903.446	8168
903.565	8069
903.683	8142
903.801	8081
903.919	8119
904.038	8107
904.156	8054
904.274	8092
904.392	8012
904.51	8077
904.627	8145
904.745	8202
904.863	8134
904.981	7898
905.098	7860
905.216	7887
905.334	7925
905.451	7944
905.569	7890
905.686	7921
905.803	7982
905.921	7750
906.038	7879
906.155	7814
906.272	7738
906.389	7738
906.506	7685
906.623	7601
906.74	7582
906.857	7556
906.974	7571
907.091	7693
907.208	7700
907.324	7666
907.441	7529
907.557	7457
907.674	7468
907.79	7415
907.907	7434
908.023	7457
908.139	7464
908.256	7335
908.372	7457
908.488	7297
908.604	7324
908.72	7270
908.836	7289
908.952	7282
909.068	7305
909.184	7422
909.3	7255
909.415	7346
909.531	7362
909.647	7141
909.762	7156
909.878	7057
909.993	7118
910.108	7129
910.224	7038
910.339	7114
910.454	7095
910.57	6932
910.685	6966
910.8	7175
910.915	7065
911.03	7050
911.145	6947
911.259	6905
911.374	6897
911.489	6783
911.604	6798
911.718	6738
911.833	6688
911.947	6650
912.062	6555
912.176	6719
912.291	6711
912.405	6711
912.519	6802
912.633	6806
912.748	6772
912.862	6711
912.976	6631
913.09	6494
913.204	6582
913.318	6612
913.431	6669
913.545	6696
913.659	6760
913.772	6642
913.886	6597
914	6544
914.113	6627
914.226	6639
914.34	6585
914.453	6559
914.566	6650
914.68	6521
914.793	6517
914.906	6414
915.019	6418
915.132	6391
915.245	6441
915.358	6456
915.47	6460
915.583	6429
915.696	6502
915.809	6601
915.921	6490
916.034	6464
916.146	6475
916.259	6407
916.371	6502
916.483	6475
916.595	6388
916.708	6407
916.82	6403
916.932	6365
917.044	6426
917.156	6353
917.268	6285
917.38	6323
917.491	6323
917.603	6437
917.715	6452
917.826	6448
917.938	6319
918.049	6281
918.161	6365
918.272	6429
918.384	6429
918.495	6380
918.606	6266
918.717	6194
918.828	6270
918.939	6323
919.05	6190
919.161	6311
919.272	6155
919.383	6148
919.494	6220
919.604	6479
919.715	6334
919.826	6224
919.936	6270
920.047	6315
920.157	6285
920.267	6426
920.378	6346
920.488	6273
920.598	6506
920.708	6604
920.818	6448
920.928	6494
921.038	6589
921.148	6532
921.258	6350
921.368	6357
921.477	6224
921.587	6178
921.697	6144
921.806	6152
921.916	6095
922.025	5908
922.134	5942
922.244	5912
922.353	5946
922.462	5882
922.571	5790
922.68	5733
922.789	5672
922.898	5748
923.007	5611
923.116	5695
923.224	5684
923.333	5680
923.442	5570
923.55	5615
923.659	5619
923.767	5634
923.876	5520
923.984	5589
924.092	5478
924.201	5573
924.309	5581
924.417	5554
924.525	5486
924.633	5524
924.741	6266
924.849	5326
924.956	5516
925.064	5395
925.172	5261
925.279	5265
925.387	5326
925.494	5337
925.602	5421
925.709	5379
925.816	5341
925.924	5311
926.031	5337
926.138	5292
926.245	5330
926.352	5223
926.459	5326
926.566	5288
926.673	5235
926.779	5204
926.886	5124
926.993	5018
927.099	5060
927.206	5025
927.312	4972
927.419	5022
927.525	4961
927.631	5006
927.737	4892
927.843	4858
927.95	4828
928.056	4767
928.162	4843
928.267	4812
928.373	5284
928.479	4828
928.585	4736
928.69	4774
928.796	4790
928.901	4672
929.007	4603
929.112	4691
929.218	4675
929.323	4645
929.428	4558
929.533	4679
929.638	4558
929.743	4558
929.848	4611
929.953	4531
930.058	4451
930.163	4360
930.267	4360
930.372	4470
930.477	4348
930.581	4504
930.685	4360
930.79	4272
930.894	4253
930.998	4280
931.103	4371
931.207	4082
931.311	4093
931.415	4048
931.519	3964
931.623	3983
