Data from glass_V78500241_32.txt Node
Date: Wed Sep 01 19:14:43 CST 2021
User: usil
Spectrometer: V785-0024
Trigger mode: 0
Integration Time (sec): 4.000000E-1
Scans to average: 1
Nonlinearity correction enabled: false
Boxcar width: 0
Storing dark spectrum: false
XAxis mode: Wavelengths
Number of Pixels in Spectrum: 1024
>>>>>Begin Spectral Data<<<<<
801.071	3724
801.214	3740
801.356	3720
801.499	3755
801.641	3709
801.783	3846
801.926	3842
802.068	3854
802.211	3861
802.353	3896
802.496	3884
802.638	3892
802.78	3896
802.923	3941
803.065	3899
803.208	3869
803.35	3857
803.492	3918
803.635	3956
803.777	3838
803.919	3956
804.061	4173
804.204	3987
804.346	4006
804.488	3918
804.63	4078
804.773	4010
804.915	4090
805.057	4131
805.199	4082
805.341	4101
805.483	4124
805.626	4154
805.768	4109
805.91	4257
806.052	4287
806.194	4242
806.336	4352
806.478	4265
806.62	4211
806.762	4230
806.904	4257
807.046	4314
807.188	4234
807.33	4185
807.472	4246
807.614	4185
807.756	4306
807.898	4272
808.04	4215
808.182	4287
808.324	4341
808.465	4394
808.607	4512
808.749	4432
808.891	4474
809.033	4523
809.174	4394
809.316	4314
809.458	4242
809.6	4204
809.741	4135
809.883	4131
810.025	4261
810.166	4200
810.308	4192
810.45	4242
810.591	4261
810.733	4348
810.875	4535
811.016	4820
811.158	5147
811.299	5258
811.441	5326
811.582	5083
811.724	4729
811.865	4462
812.007	4459
812.148	4413
812.29	4432
812.431	4432
812.573	4424
812.714	4402
812.855	4432
812.997	4466
813.138	4462
813.279	4481
813.421	4421
813.562	4466
813.703	4333
813.845	4322
813.986	4272
814.127	4204
814.268	4257
814.41	4314
814.551	4337
814.692	4390
814.833	4272
814.974	4310
815.115	4329
815.256	4268
815.397	4257
815.539	4272
815.68	4219
815.821	4238
815.962	4367
816.103	4276
816.244	4238
816.385	4204
816.526	4341
816.666	4215
816.807	4055
816.948	4173
817.089	4215
817.23	4124
817.371	4055
817.512	4051
817.653	4116
817.793	4067
817.934	4048
818.075	4086
818.216	4116
818.356	4120
818.497	3979
818.638	3915
818.778	3968
818.919	3899
819.06	3850
819.2	3926
819.341	3876
819.481	3861
819.622	3934
819.762	3994
819.903	3998
820.043	3838
820.184	3827
820.324	3857
820.465	3899
820.605	3850
820.746	3884
820.886	3850
821.026	3945
821.167	3972
821.307	3987
821.447	4067
821.588	3953
821.728	3945
821.868	3941
822.008	3888
822.149	3926
822.289	3934
822.429	3800
822.569	3823
822.709	3819
822.849	3747
822.99	3717
823.13	3789
823.27	3804
823.41	3747
823.55	3747
823.69	3743
823.83	3778
823.97	3709
824.11	3618
824.25	3629
824.389	3618
824.529	3660
824.669	3652
824.809	3762
824.949	3732
825.089	3793
825.228	3740
825.368	3599
825.508	3587
825.648	3572
825.787	3648
825.927	3694
826.067	3641
826.206	3686
826.346	3827
826.485	3838
826.625	3835
826.765	3945
826.904	3800
827.044	3641
827.183	3542
827.323	3466
827.462	3492
827.601	3458
827.741	3397
827.88	3466
828.02	3389
828.159	3454
828.298	3481
828.437	3545
828.577	3473
828.716	3644
828.855	3511
828.994	3397
829.134	3409
829.273	3428
829.412	3389
829.551	3355
829.69	3370
829.829	3462
829.968	3492
830.107	3450
830.246	3416
830.385	3416
830.524	3370
830.663	3306
830.802	3237
830.941	3237
831.08	3226
831.219	3233
831.357	3302
831.496	3431
831.635	3256
831.774	3211
831.913	3211
832.051	3165
832.19	3173
832.329	3253
832.467	3165
832.606	3123
832.744	3150
832.883	3222
833.022	3188
833.16	3306
833.299	3332
833.437	3348
833.576	3382
833.714	3428
833.852	3462
833.991	3469
834.129	3507
834.267	3435
834.406	3435
834.544	3454
834.682	3386
834.821	3416
834.959	3564
835.097	3428
835.235	3557
835.373	3496
835.511	3519
835.65	3469
835.788	3530
835.926	3447
836.064	3374
836.202	3424
836.34	3561
836.478	3652
836.615	3530
836.753	3591
836.891	3656
837.029	3599
837.167	3603
837.305	3549
837.443	3553
837.58	3523
837.718	3618
837.856	3595
837.993	3557
838.131	3641
838.269	3603
838.406	3599
838.544	3633
838.681	3473
838.819	3477
838.956	3367
839.094	3378
839.231	3420
839.369	3534
839.506	3713
839.643	3629
839.781	3496
839.918	3511
840.055	3580
840.193	3580
840.33	3587
840.467	3603
840.604	3656
840.742	3812
840.879	3530
841.016	3561
841.153	3614
841.29	3774
841.427	3736
841.564	3736
841.701	3774
841.838	3751
841.975	3671
842.112	3740
842.249	3629
842.385	3622
842.522	3850
842.659	3705
842.796	3740
842.933	3732
843.069	3705
843.206	3698
843.343	3823
843.479	3812
843.616	3854
843.752	3656
843.889	3660
844.025	3854
844.162	3740
844.298	3876
844.435	3835
844.571	3800
844.708	3915
844.844	3991
844.98	4055
845.117	4002
845.253	3934
845.389	3934
845.525	3975
845.661	3975
845.798	3941
845.934	4032
846.07	3975
846.206	4063
846.342	4139
846.478	4086
846.614	4010
846.75	3937
846.886	3930
847.022	4036
847.158	4013
847.294	4029
847.429	4051
847.565	3968
847.701	4325
847.837	3899
847.972	3873
848.108	3983
848.244	3987
848.379	3861
848.515	3827
848.65	3842
848.786	3857
848.921	3937
849.057	3937
849.192	3972
849.328	3937
849.463	3930
849.598	3850
849.734	3876
849.869	3827
850.004	3823
850.14	3842
850.275	3857
850.41	3759
850.545	3755
850.68	3835
850.815	3838
850.95	3808
851.085	3918
851.22	3899
851.355	3869
851.49	3785
851.625	3800
851.76	3816
851.895	3774
852.03	3785
852.165	3831
852.299	3842
852.434	3884
852.569	3911
852.703	3903
852.838	3941
852.973	4021
853.107	4055
853.242	3876
853.376	3857
853.511	3819
853.645	3857
853.78	3972
853.914	3975
854.048	3884
854.183	3907
854.317	3975
854.451	4090
854.585	3983
854.72	3903
854.854	4093
854.988	3915
855.122	4021
855.256	3918
855.39	4021
855.524	4078
855.658	4097
855.792	4097
855.926	4128
856.06	4211
856.194	4188
856.327	4200
856.461	4116
856.595	4192
856.729	4181
856.862	4329
856.996	4280
857.13	4329
857.263	4371
857.397	4405
857.53	4318
857.664	4443
857.797	4443
857.931	4428
858.064	4421
858.197	4440
858.331	4459
858.464	4413
858.597	4390
858.731	4417
858.864	4489
858.997	4470
859.13	4462
859.263	4497
859.396	4588
859.529	4580
859.662	4592
859.795	4554
859.928	4649
860.061	4702
860.194	4782
860.327	4653
860.46	4683
860.592	4790
860.725	4774
860.858	4778
860.99	4736
861.123	4729
861.256	4733
861.388	4771
861.521	5410
861.653	4710
861.786	4755
861.918	4809
862.05	4809
862.183	4847
862.315	4885
862.447	4984
862.58	4881
862.712	4831
862.844	4831
862.976	4896
863.108	4854
863.24	5307
863.372	4850
863.504	4881
863.636	4927
863.768	5052
863.9	4984
864.032	4972
864.164	4934
864.296	5079
864.428	5086
864.559	5151
864.691	5124
864.823	5155
864.954	5143
865.086	5185
865.217	5170
865.349	5143
865.48	5166
865.612	5269
865.743	5307
865.875	5246
866.006	5140
866.137	5239
866.269	5235
866.4	5258
866.531	5258
866.662	5265
866.793	5246
866.924	5322
867.055	5376
867.186	5349
867.317	5280
867.448	5337
867.579	5383
867.71	5379
867.841	5360
867.972	5467
868.103	5448
868.233	5463
868.364	5402
868.495	5512
868.625	5615
868.756	5752
868.886	5699
869.017	5783
869.147	5874
869.278	5882
869.408	5794
869.539	5908
869.669	5939
869.799	5931
869.929	6030
870.06	6022
870.19	6159
870.32	6163
870.45	6262
870.58	6285
870.71	6407
870.84	6467
870.97	6509
871.1	6426
871.23	6677
871.36	6703
871.489	6673
871.619	6772
871.749	6886
871.879	6882
872.008	7057
872.138	7031
872.267	7076
872.397	6970
872.526	7137
872.656	7091
872.785	7225
872.915	7354
873.044	7544
873.173	7567
873.303	7670
873.432	7776
873.561	7887
873.69	7894
873.819	8012
873.948	8191
874.077	8259
874.206	8313
874.335	8476
874.464	8708
874.593	8941
874.722	8952
874.851	9146
874.979	9275
875.108	9401
875.237	9431
875.365	9553
875.494	9618
875.623	9934
875.751	9793
875.88	10040
876.008	10173
876.136	10261
876.265	10512
876.393	10805
876.521	10771
876.65	10782
876.778	10866
876.906	10866
877.034	10995
877.162	11041
877.29	11185
877.418	11311
877.546	11356
877.674	11402
877.802	11486
877.93	11554
878.058	11585
878.185	11539
878.313	11688
878.441	11779
878.568	11718
878.696	11821
878.824	11878
878.951	11980
879.079	12053
879.206	12155
879.333	12019
879.461	12038
879.588	12060
879.715	12136
879.842	12289
879.97	12038
880.097	11893
880.224	11973
880.351	11889
880.478	11946
880.605	11897
880.732	11832
880.859	11961
880.986	11847
881.112	11882
881.239	11798
881.366	11611
881.493	11554
881.619	11551
881.746	11554
881.872	11573
881.999	11558
882.125	11509
882.252	11543
882.378	11421
882.505	11505
882.631	11421
882.757	11261
882.883	11307
883.01	11212
883.136	11345
883.262	11067
883.388	11102
883.514	11197
883.64	11185
883.766	11197
883.892	11018
884.018	11064
884.143	11098
884.269	11185
884.395	10873
884.52	10824
884.646	10744
884.772	10729
884.897	10634
885.023	10653
885.148	10733
885.274	10812
885.399	10733
885.524	10664
885.65	10592
885.775	10611
885.9	10580
886.025	10649
886.15	10546
886.275	10497
886.4	10455
886.525	10409
886.65	10421
886.775	10348
886.9	10436
887.025	10634
887.149	10356
887.274	10253
887.399	10276
887.523	10200
887.648	10154
887.773	10131
887.897	10249
888.021	10207
888.146	10166
888.27	10253
888.395	10230
888.519	10181
888.643	10219
888.767	10295
888.891	10158
889.015	10013
889.139	10101
889.263	10071
889.387	10017
889.511	10135
889.635	10074
889.759	9895
889.883	10032
890.006	10013
890.13	10109
890.254	9960
890.377	9975
890.501	9903
890.624	9835
890.748	9827
890.871	9865
890.995	9808
891.118	9736
891.241	9732
891.364	9781
891.488	9842
891.611	9766
891.734	9747
891.857	9740
891.98	9690
892.103	9827
892.226	9785
892.349	9732
892.471	9526
892.594	9606
892.717	9603
892.839	9587
892.962	9660
893.085	9720
893.207	9652
893.33	9538
893.452	9557
893.575	9603
893.697	9568
893.819	9625
893.941	9652
894.064	9675
894.186	9481
894.308	9447
894.43	9507
894.552	9648
894.674	9504
894.796	9401
894.918	9378
895.04	9401
895.161	9389
895.283	9378
895.405	9222
895.526	9298
895.648	9310
895.769	9260
895.891	9230
896.012	9230
896.134	9184
896.255	9233
896.376	9169
896.498	9268
896.619	9142
896.74	9100
896.861	9070
896.982	9249
897.103	9382
897.224	9176
897.345	9116
897.466	8990
897.587	9051
897.708	9123
897.828	9074
897.949	9020
898.07	8918
898.19	8868
898.311	9024
898.431	8872
898.552	8971
898.672	9020
898.792	8979
898.913	8891
899.033	8853
899.153	8720
899.273	8708
899.393	8788
899.513	8781
899.633	8686
899.753	8758
899.873	8819
899.993	8735
900.113	8758
900.232	8712
900.352	8731
900.472	8629
900.591	8526
900.711	8613
900.83	8606
900.95	8705
901.069	8708
901.189	8545
901.308	8434
901.427	8381
901.546	8461
901.665	8469
901.784	8495
901.904	8438
902.023	8286
902.141	8263
902.26	8221
902.379	8298
902.498	8237
902.617	8210
902.735	8282
902.854	8320
902.973	8237
903.091	8111
903.21	8161
903.328	8145
903.446	8145
903.565	8073
903.683	8073
903.801	8096
903.919	8176
904.038	8073
904.156	8138
904.274	8077
904.392	8062
904.51	8084
904.627	8050
904.745	8145
904.863	8100
904.981	7921
905.098	7864
905.216	7955
905.334	7890
905.451	7913
905.569	7871
905.686	7967
905.803	7906
905.921	7765
906.038	7917
906.155	7788
906.272	7704
906.389	7807
906.506	7643
906.623	7605
906.74	7609
906.857	7548
906.974	7597
907.091	7658
907.208	7715
907.324	7609
907.441	7605
907.557	7499
907.674	7468
907.79	7362
907.907	7419
908.023	7476
908.139	7426
908.256	7388
908.372	7339
908.488	7384
908.604	7350
908.72	7251
908.836	7263
908.952	7236
909.068	7301
909.184	7327
909.3	7308
909.415	7285
909.531	7270
909.647	7133
909.762	7129
909.878	7099
909.993	7156
910.108	7137
910.224	7103
910.339	7110
910.454	7031
910.57	7023
910.685	6890
910.8	7183
910.915	7141
911.03	7084
911.145	6947
911.259	6882
911.374	6901
911.489	6821
911.604	6818
911.718	6707
911.833	6738
911.947	6642
912.062	6593
912.176	6745
912.291	6749
912.405	6722
912.519	6776
912.633	6878
912.748	6810
912.862	6715
912.976	6700
913.09	6551
913.204	6692
913.318	6604
913.431	6802
913.545	6639
913.659	6757
913.772	6711
913.886	6616
914	6551
914.113	6650
914.226	6627
914.34	6627
914.453	6494
914.566	6696
914.68	6566
914.793	6532
914.906	6437
915.019	6407
915.132	6380
915.245	6426
915.358	6445
915.47	6441
915.583	6479
915.696	6486
915.809	6551
915.921	6585
916.034	6399
916.146	6418
916.259	6452
916.371	6490
916.483	6433
916.595	6342
916.708	6437
916.82	6452
916.932	6388
917.044	6384
917.156	6399
917.268	6304
917.38	6342
917.491	6266
917.603	6300
917.715	6334
917.826	6464
917.938	6331
918.049	6235
918.161	6380
918.272	6460
918.384	6452
918.495	6403
918.606	6197
918.717	6232
918.828	6296
918.939	6296
919.05	6258
919.161	6232
919.272	6121
919.383	6167
919.494	6285
919.604	6437
919.715	6323
919.826	6239
919.936	6300
920.047	6395
920.157	6292
920.267	6486
920.378	6372
920.488	6334
920.598	6426
920.708	6574
920.818	6494
920.928	6475
921.038	6601
921.148	6631
921.258	6395
921.368	6334
921.477	6213
921.587	6163
921.697	6110
921.806	6220
921.916	6060
922.025	5954
922.134	5908
922.244	5878
922.353	5923
922.462	5840
922.571	5802
922.68	5733
922.789	5634
922.898	5680
923.007	5703
923.116	5703
923.224	5764
923.333	5657
923.442	5547
923.55	5661
923.659	5581
923.767	5646
923.876	5604
923.984	5600
924.092	5520
924.201	5566
924.309	5547
924.417	5554
924.525	5512
924.633	5535
924.741	6224
924.849	5391
924.956	5459
925.064	5417
925.172	5341
925.279	5345
925.387	5398
925.494	5372
925.602	5463
925.709	5376
925.816	5254
925.924	5341
926.031	5379
926.138	5345
926.245	5364
926.352	5261
926.459	5322
926.566	5322
926.673	5265
926.779	5185
926.886	5113
926.993	5048
927.099	4991
927.206	5022
927.312	4972
927.419	5033
927.525	4972
927.631	5029
927.737	4858
927.843	4850
927.95	4767
928.056	4816
928.162	4778
928.267	4881
928.373	5383
928.479	4858
928.585	4710
928.69	4812
928.796	4809
928.901	4683
929.007	4584
929.112	4687
929.218	4645
929.323	4630
929.428	4577
929.533	4656
929.638	4535
929.743	4611
929.848	4542
929.953	4550
930.058	4424
930.163	4363
930.267	4341
930.372	4443
930.477	4352
930.581	4485
930.685	4409
930.79	4284
930.894	4329
930.998	4265
931.103	4413
931.207	4131
931.311	4131
931.415	4067
931.519	3953
931.623	3979
