Data from glass_V78500241_2560.txt Node
Date: Wed Sep 01 19:32:14 CST 2021
User: usil
Spectrometer: V785-0024
Trigger mode: 0
Integration Time (sec): 4.000000E-1
Scans to average: 1
Nonlinearity correction enabled: false
Boxcar width: 0
Storing dark spectrum: false
XAxis mode: Wavelengths
Number of Pixels in Spectrum: 1024
>>>>>Begin Spectral Data<<<<<
801.071	3717
801.214	3682
801.356	3724
801.499	3728
801.641	3705
801.783	3785
801.926	3865
802.068	3846
802.211	3842
802.353	3880
802.496	3835
802.638	3842
802.78	3903
802.923	3903
803.065	3888
803.208	3808
803.35	3896
803.492	3896
803.635	3888
803.777	3816
803.919	3857
804.061	4097
804.204	3956
804.346	3960
804.488	3930
804.63	3979
804.773	3934
804.915	4021
805.057	4131
805.199	4040
805.341	4074
805.483	4082
805.626	4131
805.768	4055
805.91	4173
806.052	4227
806.194	4223
806.336	4322
806.478	4200
806.62	4158
806.762	4162
806.904	4223
807.046	4341
807.188	4246
807.33	4162
807.472	4207
807.614	4162
807.756	4246
807.898	4188
808.04	4234
808.182	4306
808.324	4337
808.465	4386
808.607	4413
808.749	4459
808.891	4519
809.033	4504
809.174	4375
809.316	4234
809.458	4207
809.6	4120
809.741	4158
809.883	4120
810.025	4215
810.166	4238
810.308	4219
810.45	4227
810.591	4249
810.733	4230
810.875	4512
811.016	4809
811.158	5098
811.299	5273
811.441	5246
811.582	5056
811.724	4714
811.865	4519
812.007	4421
812.148	4421
812.29	4405
812.431	4443
812.573	4436
812.714	4344
812.855	4390
812.997	4413
813.138	4440
813.279	4417
813.421	4405
813.562	4363
813.703	4318
813.845	4352
813.986	4219
814.127	4223
814.268	4276
814.41	4284
814.551	4253
814.692	4329
814.833	4261
814.974	4337
815.115	4363
815.256	4253
815.397	4280
815.539	4253
815.68	4169
815.821	4192
815.962	4337
816.103	4295
816.244	4207
816.385	4227
816.526	4272
816.666	4185
816.807	4067
816.948	4169
817.089	4181
817.23	4078
817.371	4032
817.512	4017
817.653	4063
817.793	4032
817.934	4021
818.075	4147
818.216	4063
818.356	4063
818.497	3960
818.638	3899
818.778	3918
818.919	3892
819.06	3854
819.2	3896
819.341	3865
819.481	3827
819.622	3873
819.762	3987
819.903	3972
820.043	3861
820.184	3816
820.324	3819
820.465	3823
820.605	3854
820.746	3838
820.886	3793
821.026	3918
821.167	3937
821.307	3949
821.447	3949
821.588	3941
821.728	3953
821.868	3899
822.008	3854
822.149	3869
822.289	3888
822.429	3778
822.569	3751
822.709	3774
822.849	3660
822.99	3743
823.13	3747
823.27	3751
823.41	3709
823.55	3686
823.69	3698
823.83	3728
823.97	3701
824.11	3603
824.25	3584
824.389	3618
824.529	3644
824.669	3599
824.809	3701
824.949	3736
825.089	3686
825.228	3705
825.368	3606
825.508	3549
825.648	3587
825.787	3599
825.927	3679
826.067	3625
826.206	3720
826.346	3732
826.485	3774
826.625	3880
826.765	3922
826.904	3789
827.044	3587
827.183	3538
827.323	3409
827.462	3454
827.601	3420
827.741	3435
827.88	3454
828.02	3336
828.159	3409
828.298	3473
828.437	3526
828.577	3454
828.716	3572
828.855	3530
828.994	3367
829.134	3355
829.273	3363
829.412	3310
829.551	3359
829.69	3340
829.829	3409
829.968	3530
830.107	3412
830.246	3481
830.385	3363
830.524	3317
830.663	3279
830.802	3253
830.941	3233
831.08	3195
831.219	3241
831.357	3253
831.496	3412
831.635	3230
831.774	3184
831.913	3184
832.051	3173
832.19	3146
832.329	3222
832.467	3165
832.606	3089
832.744	3165
832.883	3207
833.022	3169
833.16	3253
833.299	3332
833.437	3332
833.576	3378
833.714	3382
833.852	3412
833.991	3439
834.129	3462
834.267	3420
834.406	3370
834.544	3431
834.682	3431
834.821	3424
834.959	3572
835.097	3382
835.235	3519
835.373	3485
835.511	3519
835.65	3420
835.788	3466
835.926	3367
836.064	3370
836.202	3363
836.34	3542
836.478	3580
836.615	3485
836.753	3610
836.891	3641
837.029	3652
837.167	3530
837.305	3545
837.443	3584
837.58	3458
837.718	3542
837.856	3572
837.993	3488
838.131	3568
838.269	3618
838.406	3568
838.544	3530
838.681	3500
838.819	3519
838.956	3370
839.094	3340
839.231	3416
839.369	3504
839.506	3690
839.643	3584
839.781	3515
839.918	3485
840.055	3534
840.193	3511
840.33	3545
840.467	3576
840.604	3599
840.742	3789
840.879	3526
841.016	3564
841.153	3595
841.29	3755
841.427	3705
841.564	3701
841.701	3701
841.838	3679
841.975	3675
842.112	3717
842.249	3595
842.385	3622
842.522	3755
842.659	3686
842.796	3698
842.933	3682
843.069	3701
843.206	3690
843.343	3774
843.479	3762
843.616	3724
843.752	3652
843.889	3671
844.025	3823
844.162	3713
844.298	3842
844.435	3778
844.571	3755
844.708	3922
844.844	3975
844.98	3994
845.117	3953
845.253	3953
845.389	3926
845.525	3930
845.661	3941
845.798	3922
845.934	3998
846.07	3926
846.206	4017
846.342	4128
846.478	4063
846.614	3934
846.75	3907
846.886	3911
847.022	3987
847.158	3930
847.294	3994
847.429	4021
847.565	3941
847.701	4238
847.837	3861
847.972	3857
848.108	3998
848.244	4002
848.379	3869
848.515	3812
848.65	3808
848.786	3838
848.921	3850
849.057	3903
849.192	3911
849.328	3899
849.463	3907
849.598	3918
849.734	3846
849.869	3884
850.004	3793
850.14	3797
850.275	3774
850.41	3736
850.545	3743
850.68	3797
850.815	3789
850.95	3766
851.085	3926
851.22	3896
851.355	3838
851.49	3781
851.625	3838
851.76	3812
851.895	3743
852.03	3682
852.165	3774
852.299	3842
852.434	3861
852.569	3812
852.703	3846
852.838	3907
852.973	3949
853.107	3956
853.242	3831
853.376	3865
853.511	3759
853.645	3854
853.78	4002
853.914	3896
854.048	3869
854.183	3884
854.317	3880
854.451	4044
854.585	3956
854.72	3918
854.854	4025
854.988	3926
855.122	3994
855.256	3892
855.39	3983
855.524	4074
855.658	4093
855.792	4093
855.926	4131
856.06	4177
856.194	4265
856.327	4143
856.461	4093
856.595	4131
856.729	4150
856.862	4246
856.996	4272
857.13	4287
857.263	4306
857.397	4371
857.53	4291
857.664	4348
857.797	4356
857.931	4413
858.064	4405
858.197	4455
858.331	4390
858.464	4310
858.597	4303
858.731	4409
858.864	4462
858.997	4455
859.13	4497
859.263	4531
859.396	4550
859.529	4561
859.662	4550
859.795	4546
859.928	4569
860.061	4645
860.194	4710
860.327	4672
860.46	4622
860.592	4763
860.725	4710
860.858	4790
860.99	4736
861.123	4698
861.256	4717
861.388	4797
861.521	5417
861.653	4691
861.786	4748
861.918	4736
862.05	4752
862.183	4835
862.315	4812
862.447	4942
862.58	4900
862.712	4786
862.844	4782
862.976	4824
863.108	4885
863.24	5170
863.372	4774
863.504	4870
863.636	4850
863.768	4980
863.9	4934
864.032	4904
864.164	4972
864.296	5006
864.428	5060
864.559	5113
864.691	5124
864.823	5140
864.954	5098
865.086	5155
865.217	5136
865.349	5094
865.48	5166
865.612	5166
865.743	5280
865.875	5216
866.006	5193
866.137	5250
866.269	5208
866.4	5261
866.531	5292
866.662	5208
866.793	5254
866.924	5269
867.055	5334
867.186	5315
867.317	5368
867.448	5299
867.579	5410
867.71	5337
867.841	5417
867.972	5433
868.103	5440
868.233	5516
868.364	5497
868.495	5493
868.625	5649
868.756	5783
868.886	5688
869.017	5726
869.147	5813
869.278	5866
869.408	5824
869.539	5809
869.669	5916
869.799	5859
869.929	6007
870.06	6007
870.19	6114
870.32	6194
870.45	6243
870.58	6342
870.71	6399
870.84	6479
870.97	6410
871.1	6433
871.23	6646
871.36	6654
871.489	6665
871.619	6681
871.749	6795
871.879	6901
872.008	6913
872.138	6916
872.267	6966
872.397	6985
872.526	7053
872.656	7107
872.785	7240
872.915	7400
873.044	7514
873.173	7552
873.303	7620
873.432	7753
873.561	7917
873.69	7871
873.819	7989
873.948	8153
874.077	8237
874.206	8377
874.335	8492
874.464	8682
874.593	8830
874.722	8876
874.851	9055
874.979	9279
875.108	9401
875.237	9469
875.365	9477
875.494	9690
875.623	9827
875.751	9827
875.88	10010
876.008	10139
876.136	10265
876.265	10508
876.393	10637
876.521	10675
876.65	10782
876.778	10862
876.906	10889
877.034	11006
877.162	11083
877.29	11105
877.418	11322
877.546	11425
877.674	11364
877.802	11482
877.93	11509
878.058	11497
878.185	11516
878.313	11661
878.441	11718
878.568	11634
878.696	11767
878.824	11920
878.951	11984
879.079	11996
879.206	12079
879.333	12102
879.461	11965
879.588	12117
879.715	12068
879.842	12235
879.97	12114
880.097	11840
880.224	11965
880.351	11893
880.478	11942
880.605	11832
880.732	11832
880.859	11942
880.986	11851
881.112	11916
881.239	11722
881.366	11661
881.493	11600
881.619	11539
881.746	11558
881.872	11520
881.999	11478
882.125	11524
882.252	11539
882.378	11501
882.505	11680
882.631	11315
882.757	11334
882.883	11345
883.01	11189
883.136	11147
883.262	11102
883.388	11151
883.514	11162
883.64	11239
883.766	11102
883.892	10961
884.018	10934
884.143	11029
884.269	11136
884.395	10942
884.52	10725
884.646	10801
884.772	10767
884.897	10618
885.023	10607
885.148	10786
885.274	10733
885.399	10748
885.524	10596
885.65	10634
885.775	10527
885.9	10538
886.025	10584
886.15	10546
886.275	10413
886.4	10417
886.525	10333
886.65	10386
886.775	10306
886.9	10500
887.025	10531
887.149	10333
887.274	10299
887.399	10211
887.523	10166
887.648	10128
887.773	10086
887.897	10249
888.021	10188
888.146	10048
888.27	10375
888.395	10196
888.519	10207
888.643	10192
888.767	10169
888.891	10021
889.015	10006
889.139	10059
889.263	10010
889.387	10006
889.511	10116
889.635	10002
889.759	9937
889.883	9953
890.006	9888
890.13	10082
890.254	9907
890.377	9994
890.501	9972
890.624	9846
890.748	9884
890.871	9732
890.995	9728
891.118	9709
891.241	9755
891.364	9755
891.488	9774
891.611	9759
891.734	9705
891.857	9713
891.98	9709
892.103	9797
892.226	9709
892.349	9686
892.471	9504
892.594	9595
892.717	9610
892.839	9591
892.962	9633
893.085	9644
893.207	9553
893.33	9526
893.452	9526
893.575	9549
893.697	9504
893.819	9561
893.941	9553
894.064	9584
894.186	9439
894.308	9420
894.43	9492
894.552	9545
894.674	9534
894.796	9408
894.918	9367
895.04	9443
895.161	9405
895.283	9329
895.405	9233
895.526	9268
895.648	9192
895.769	9253
895.891	9264
896.012	9245
896.134	9260
896.255	9199
896.376	9199
896.498	9157
896.619	9100
896.74	9043
896.861	9123
896.982	9260
897.103	9367
897.224	9112
897.345	9051
897.466	8990
897.587	9005
897.708	9077
897.828	9051
897.949	8906
898.07	8853
898.19	8895
898.311	9024
898.431	8956
898.552	8944
898.672	8952
898.792	8933
898.913	8876
899.033	8758
899.153	8769
899.273	8651
899.393	8727
899.513	8766
899.633	8739
899.753	8762
899.873	8689
899.993	8773
900.113	8693
900.232	8712
900.352	8659
900.472	8640
900.591	8530
900.711	8587
900.83	8530
900.95	8629
901.069	8686
901.189	8575
901.308	8461
901.427	8393
901.546	8393
901.665	8461
901.784	8488
901.904	8412
902.023	8328
902.141	8240
902.26	8240
902.379	8324
902.498	8180
902.617	8317
902.735	8328
902.854	8267
902.973	8237
903.091	8119
903.21	8111
903.328	8164
903.446	8100
903.565	8100
903.683	8134
903.801	8031
903.919	8092
904.038	8180
904.156	8012
904.274	8103
904.392	8027
904.51	8031
904.627	8103
904.745	8103
904.863	8081
904.981	7928
905.098	7826
905.216	7959
905.334	7917
905.451	7860
905.569	7845
905.686	7963
905.803	7906
905.921	7803
906.038	7845
906.155	7757
906.272	7708
906.389	7750
906.506	7601
906.623	7666
906.74	7559
906.857	7495
906.974	7529
907.091	7639
907.208	7693
907.324	7620
907.441	7556
907.557	7434
907.674	7464
907.79	7381
907.907	7384
908.023	7502
908.139	7464
908.256	7396
908.372	7369
908.488	7350
908.604	7285
908.72	7152
908.836	7240
908.952	7221
909.068	7156
909.184	7255
909.3	7244
909.415	7266
909.531	7327
909.647	7084
909.762	7103
909.878	7076
909.993	7076
910.108	7080
910.224	7015
910.339	7133
910.454	6993
910.57	6943
910.685	6954
910.8	7114
910.915	7050
911.03	6966
911.145	6901
911.259	6844
911.374	6920
911.489	6825
911.604	6757
911.718	6711
911.833	6703
911.947	6597
912.062	6582
912.176	6684
912.291	6700
912.405	6692
912.519	6829
912.633	6776
912.748	6741
912.862	6654
912.976	6631
913.09	6452
913.204	6593
913.318	6650
913.431	6616
913.545	6719
913.659	6715
913.772	6654
913.886	6544
914	6536
914.113	6578
914.226	6612
914.34	6563
914.453	6483
914.566	6551
914.68	6479
914.793	6578
914.906	6445
915.019	6399
915.132	6372
915.245	6395
915.358	6422
915.47	6399
915.583	6441
915.696	6475
915.809	6536
915.921	6563
916.034	6395
916.146	6426
916.259	6369
916.371	6418
916.483	6490
916.595	6422
916.708	6384
916.82	6365
916.932	6380
917.044	6369
917.156	6365
917.268	6311
917.38	6327
917.491	6292
917.603	6369
917.715	6365
917.826	6384
917.938	6342
918.049	6258
918.161	6311
918.272	6395
918.384	6410
918.495	6357
918.606	6247
918.717	6220
918.828	6235
918.939	6239
919.05	6167
919.161	6277
919.272	6106
919.383	6117
919.494	6311
919.604	6403
919.715	6224
919.826	6220
919.936	6277
920.047	6285
920.157	6251
920.267	6445
920.378	6338
920.488	6308
920.598	6433
920.708	6570
920.818	6532
920.928	6467
921.038	6544
921.148	6597
921.258	6311
921.368	6243
921.477	6201
921.587	6098
921.697	6011
921.806	6144
921.916	6053
922.025	5954
922.134	5935
922.244	5885
922.353	5969
922.462	5790
922.571	5821
922.68	5657
922.789	5665
922.898	5710
923.007	5646
923.116	5699
923.224	5710
923.333	5623
923.442	5649
923.55	5596
923.659	5589
923.767	5566
923.876	5535
923.984	5611
924.092	5501
924.201	5577
924.309	5589
924.417	5535
924.525	5482
924.633	5486
924.741	6266
924.849	5368
924.956	5455
925.064	5303
925.172	5322
925.279	5349
925.387	5296
925.494	5318
925.602	5406
925.709	5395
925.816	5231
925.924	5307
926.031	5360
926.138	5326
926.245	5303
926.352	5212
926.459	5288
926.566	5337
926.673	5220
926.779	5105
926.886	5151
926.993	4991
927.099	5037
927.206	4965
927.312	4942
927.419	5003
927.525	4953
927.631	4968
927.737	4930
927.843	4854
927.95	4752
928.056	4782
928.162	4801
928.267	4809
928.373	5223
928.479	4877
928.585	4740
928.69	4801
928.796	4748
928.901	4645
929.007	4599
929.112	4637
929.218	4653
929.323	4599
929.428	4573
929.533	4634
929.638	4527
929.743	4554
929.848	4535
929.953	4485
930.058	4409
930.163	4325
930.267	4341
930.372	4417
930.477	4287
930.581	4474
930.685	4367
930.79	4234
930.894	4287
930.998	4242
931.103	4341
931.207	4128
931.311	4090
931.415	4036
931.519	3892
931.623	3945
