Data from glass_V78500241_2147.txt Node
Date: Wed Sep 01 19:29:23 CST 2021
User: usil
Spectrometer: V785-0024
Trigger mode: 0
Integration Time (sec): 4.000000E-1
Scans to average: 1
Nonlinearity correction enabled: false
Boxcar width: 0
Storing dark spectrum: false
XAxis mode: Wavelengths
Number of Pixels in Spectrum: 1024
>>>>>Begin Spectral Data<<<<<
801.071	3747
801.214	3751
801.356	3713
801.499	3709
801.641	3709
801.783	3835
801.926	3838
802.068	3804
802.211	3892
802.353	3835
802.496	3797
802.638	3876
802.78	3884
802.923	3918
803.065	3937
803.208	3857
803.35	3804
803.492	3873
803.635	3892
803.777	3797
803.919	3873
804.061	4109
804.204	3983
804.346	3911
804.488	3911
804.63	3975
804.773	3953
804.915	4025
805.057	4143
805.199	4010
805.341	4071
805.483	4154
805.626	4101
805.768	4112
805.91	4185
806.052	4234
806.194	4162
806.336	4314
806.478	4249
806.62	4154
806.762	4143
806.904	4242
807.046	4341
807.188	4219
807.33	4162
807.472	4246
807.614	4227
807.756	4268
807.898	4215
808.04	4246
808.182	4314
808.324	4299
808.465	4379
808.607	4462
808.749	4421
808.891	4459
809.033	4421
809.174	4405
809.316	4284
809.458	4280
809.6	4105
809.741	4158
809.883	4116
810.025	4188
810.166	4150
810.308	4234
810.45	4223
810.591	4268
810.733	4303
810.875	4535
811.016	4816
811.158	5113
811.299	5273
811.441	5273
811.582	5090
811.724	4668
811.865	4466
812.007	4474
812.148	4466
812.29	4421
812.431	4352
812.573	4428
812.714	4329
812.855	4390
812.997	4383
813.138	4436
813.279	4405
813.421	4348
813.562	4367
813.703	4284
813.845	4325
813.986	4234
814.127	4200
814.268	4280
814.41	4246
814.551	4265
814.692	4352
814.833	4272
814.974	4280
815.115	4318
815.256	4268
815.397	4238
815.539	4268
815.68	4158
815.821	4204
815.962	4272
816.103	4280
816.244	4249
816.385	4188
816.526	4303
816.666	4173
816.807	4082
816.948	4200
817.089	4158
817.23	4135
817.371	4040
817.512	4036
817.653	4059
817.793	4074
817.934	4074
818.075	4131
818.216	4116
818.356	4032
818.497	3964
818.638	3918
818.778	3968
818.919	3934
819.06	3861
819.2	3903
819.341	3865
819.481	3816
819.622	3892
819.762	3991
819.903	3998
820.043	3861
820.184	3854
820.324	3816
820.465	3854
820.605	3876
820.746	3888
820.886	3823
821.026	3888
821.167	3922
821.307	3994
821.447	3991
821.588	3915
821.728	3968
821.868	3934
822.008	3850
822.149	3896
822.289	3922
822.429	3789
822.569	3751
822.709	3808
822.849	3660
822.99	3736
823.13	3747
823.27	3770
823.41	3705
823.55	3705
823.69	3686
823.83	3724
823.97	3667
824.11	3614
824.25	3595
824.389	3663
824.529	3667
824.669	3633
824.809	3728
824.949	3740
825.089	3694
825.228	3663
825.368	3534
825.508	3564
825.648	3584
825.787	3595
825.927	3603
826.067	3591
826.206	3663
826.346	3770
826.485	3831
826.625	3850
826.765	3956
826.904	3857
827.044	3641
827.183	3542
827.323	3405
827.462	3447
827.601	3382
827.741	3424
827.88	3443
828.02	3344
828.159	3443
828.298	3454
828.437	3507
828.577	3469
828.716	3564
828.855	3481
828.994	3359
829.134	3374
829.273	3424
829.412	3348
829.551	3348
829.69	3393
829.829	3420
829.968	3488
830.107	3397
830.246	3420
830.385	3363
830.524	3336
830.663	3294
830.802	3226
830.941	3195
831.08	3188
831.219	3264
831.357	3249
831.496	3416
831.635	3226
831.774	3184
831.913	3195
832.051	3100
832.19	3150
832.329	3230
832.467	3100
832.606	3135
832.744	3161
832.883	3195
833.022	3173
833.16	3207
833.299	3253
833.437	3306
833.576	3367
833.714	3428
833.852	3428
833.991	3454
834.129	3435
834.267	3428
834.406	3397
834.544	3405
834.682	3447
834.821	3393
834.959	3538
835.097	3424
835.235	3523
835.373	3511
835.511	3507
835.65	3477
835.788	3458
835.926	3393
836.064	3348
836.202	3389
836.34	3584
836.478	3530
836.615	3523
836.753	3603
836.891	3633
837.029	3633
837.167	3591
837.305	3534
837.443	3496
837.58	3526
837.718	3595
837.856	3557
837.993	3500
838.131	3595
838.269	3584
838.406	3622
838.544	3564
838.681	3473
838.819	3488
838.956	3397
839.094	3397
839.231	3431
839.369	3458
839.506	3728
839.643	3618
839.781	3462
839.918	3462
840.055	3496
840.193	3523
840.33	3542
840.467	3545
840.604	3606
840.742	3785
840.879	3530
841.016	3511
841.153	3580
841.29	3747
841.427	3709
841.564	3728
841.701	3770
841.838	3652
841.975	3660
842.112	3732
842.249	3648
842.385	3648
842.522	3831
842.659	3701
842.796	3660
842.933	3720
843.069	3637
843.206	3709
843.343	3835
843.479	3762
843.616	3781
843.752	3694
843.889	3686
844.025	3857
844.162	3717
844.298	3842
844.435	3785
844.571	3762
844.708	3850
844.844	3983
844.98	4025
845.117	3983
845.253	3937
845.389	3903
845.525	3964
845.661	3972
845.798	3907
845.934	3968
846.07	3968
846.206	4025
846.342	4093
846.478	4048
846.614	3930
846.75	3937
846.886	3884
847.022	4025
847.158	4017
847.294	3987
847.429	3972
847.565	3979
847.701	4261
847.837	3888
847.972	3816
848.108	3926
848.244	3975
848.379	3819
848.515	3823
848.65	3819
848.786	3797
848.921	3857
849.057	3915
849.192	3922
849.328	3934
849.463	3903
849.598	3903
849.734	3869
849.869	3816
850.004	3800
850.14	3846
850.275	3812
850.41	3732
850.545	3720
850.68	3781
850.815	3759
850.95	3766
851.085	3903
851.22	3842
851.355	3804
851.49	3732
851.625	3736
851.76	3785
851.895	3759
852.03	3736
852.165	3793
852.299	3831
852.434	3884
852.569	3835
852.703	3907
852.838	3857
852.973	4006
853.107	3964
853.242	3896
853.376	3819
853.511	3762
853.645	3804
853.78	3956
853.914	3926
854.048	3892
854.183	3869
854.317	3937
854.451	4105
854.585	3953
854.72	3934
854.854	4021
854.988	3915
855.122	4002
855.256	3926
855.39	3991
855.524	4116
855.658	4044
855.792	4124
855.926	4154
856.06	4181
856.194	4204
856.327	4128
856.461	4143
856.595	4196
856.729	4131
856.862	4268
856.996	4223
857.13	4303
857.263	4325
857.397	4360
857.53	4280
857.664	4280
857.797	4402
857.931	4417
858.064	4379
858.197	4451
858.331	4394
858.464	4390
858.597	4333
858.731	4409
858.864	4455
858.997	4409
859.13	4497
859.263	4542
859.396	4577
859.529	4519
859.662	4523
859.795	4493
859.928	4561
860.061	4679
860.194	4755
860.327	4691
860.46	4618
860.592	4725
860.725	4748
860.858	4801
860.99	4653
861.123	4706
861.256	4687
861.388	4793
861.521	5444
861.653	4714
861.786	4710
861.918	4733
862.05	4801
862.183	4862
862.315	4896
862.447	4942
862.58	4870
862.712	4793
862.844	4778
862.976	4889
863.108	4839
863.24	5155
863.372	4782
863.504	4881
863.636	4915
863.768	4949
863.9	4946
864.032	4930
864.164	4930
864.296	5052
864.428	5071
864.559	5086
864.691	5098
864.823	5113
864.954	5075
865.086	5189
865.217	5128
865.349	5048
865.48	5151
865.612	5189
865.743	5349
865.875	5124
866.006	5201
866.137	5242
866.269	5227
866.4	5269
866.531	5261
866.662	5189
866.793	5273
866.924	5258
867.055	5334
867.186	5341
867.317	5307
867.448	5303
867.579	5364
867.71	5341
867.841	5387
867.972	5440
868.103	5425
868.233	5524
868.364	5509
868.495	5509
868.625	5653
868.756	5786
868.886	5608
869.017	5703
869.147	5844
869.278	5836
869.408	5844
869.539	5802
869.669	5950
869.799	5897
869.929	5999
870.06	6003
870.19	6167
870.32	6155
870.45	6201
870.58	6311
870.71	6456
870.84	6407
870.97	6422
871.1	6414
871.23	6570
871.36	6745
871.489	6639
871.619	6696
871.749	6772
871.879	6878
872.008	6920
872.138	6935
872.267	7015
872.397	6951
872.526	7069
872.656	7091
872.785	7247
872.915	7403
873.044	7487
873.173	7605
873.303	7700
873.432	7803
873.561	7833
873.69	7887
873.819	8039
873.948	8164
874.077	8301
874.206	8339
874.335	8404
874.464	8674
874.593	8899
874.722	8929
874.851	9116
874.979	9253
875.108	9386
875.237	9389
875.365	9458
875.494	9648
875.623	9778
875.751	9850
875.88	9994
876.008	10143
876.136	10287
876.265	10500
876.393	10714
876.521	10687
876.65	10778
876.778	10877
876.906	10809
877.034	10972
877.162	11140
877.29	11102
877.418	11307
877.546	11372
877.674	11497
877.802	11539
877.93	11535
878.058	11528
878.185	11596
878.313	11623
878.441	11779
878.568	11691
878.696	11817
878.824	11802
878.951	11878
879.079	12011
879.206	12175
879.333	11973
879.461	11969
879.588	12068
879.715	12083
879.842	12167
879.97	12102
880.097	11878
880.224	11836
880.351	11870
880.478	11828
880.605	11821
880.732	11847
880.859	12015
880.986	11893
881.112	11802
881.239	11745
881.366	11623
881.493	11623
881.619	11512
881.746	11535
881.872	11577
881.999	11493
882.125	11482
882.252	11467
882.378	11478
882.505	11665
882.631	11429
882.757	11280
882.883	11242
883.01	11284
883.136	11162
883.262	11151
883.388	11086
883.514	11147
883.64	11223
883.766	11056
883.892	10961
884.018	10934
884.143	10991
884.269	11178
884.395	10869
884.52	10736
884.646	10736
884.772	10714
884.897	10588
885.023	10683
885.148	10694
885.274	10790
885.399	10637
885.524	10596
885.65	10645
885.775	10599
885.9	10500
886.025	10550
886.15	10512
886.275	10436
886.4	10394
886.525	10382
886.65	10356
886.775	10314
886.9	10485
887.025	10550
887.149	10287
887.274	10234
887.399	10268
887.523	10223
887.648	10116
887.773	10150
887.897	10227
888.021	10265
888.146	10124
888.27	10185
888.395	10147
888.519	10154
888.643	10169
888.767	10169
888.891	10101
889.015	9926
889.139	10051
889.263	10029
889.387	10036
889.511	10071
889.635	10063
889.759	9975
889.883	10002
890.006	9991
890.13	10086
890.254	9918
890.377	9983
890.501	9793
890.624	9861
890.748	9850
890.871	9743
890.995	9789
891.118	9686
891.241	9819
891.364	9736
891.488	9781
891.611	9713
891.734	9671
891.857	9797
891.98	9740
892.103	9705
892.226	9686
892.349	9637
892.471	9431
892.594	9603
892.717	9595
892.839	9568
892.962	9663
893.085	9701
893.207	9564
893.33	9568
893.452	9500
893.575	9618
893.697	9481
893.819	9587
893.941	9545
894.064	9580
894.186	9397
894.308	9382
894.43	9511
894.552	9618
894.674	9454
894.796	9393
894.918	9435
895.04	9329
895.161	9401
895.283	9264
895.405	9249
895.526	9195
895.648	9275
895.769	9260
895.891	9211
896.012	9355
896.134	9211
896.255	9176
896.376	9123
896.498	9176
896.619	9150
896.74	9077
896.861	9081
896.982	9241
897.103	9264
897.224	9184
897.345	9017
897.466	8986
897.587	9013
897.708	9066
897.828	9005
897.949	8967
898.07	8868
898.19	8902
898.311	9074
898.431	8956
898.552	8868
898.672	9028
898.792	8929
898.913	8944
899.033	8811
899.153	8811
899.273	8682
899.393	8689
899.513	8758
899.633	8659
899.753	8727
899.873	8712
899.993	8781
900.113	8724
900.232	8667
900.352	8750
900.472	8488
900.591	8571
900.711	8659
900.83	8579
900.95	8701
901.069	8689
901.189	8541
901.308	8393
901.427	8415
901.546	8427
901.665	8438
901.784	8480
901.904	8355
902.023	8332
902.141	8233
902.26	8271
902.379	8271
902.498	8206
902.617	8202
902.735	8324
902.854	8233
902.973	8214
903.091	8096
903.21	8157
903.328	8187
903.446	8107
903.565	8008
903.683	8149
903.801	8039
903.919	8138
904.038	8096
904.156	8046
904.274	8035
904.392	7989
904.51	7982
904.627	8084
904.745	8092
904.863	8138
904.981	7906
905.098	7913
905.216	7826
905.334	7932
905.451	7913
905.569	7883
905.686	7978
905.803	7894
905.921	7788
906.038	7871
906.155	7887
906.272	7746
906.389	7727
906.506	7651
906.623	7616
906.74	7662
906.857	7495
906.974	7571
907.091	7639
907.208	7712
907.324	7636
907.441	7544
907.557	7476
907.674	7411
907.79	7354
907.907	7422
908.023	7403
908.139	7422
908.256	7388
908.372	7316
908.488	7358
908.604	7247
908.72	7209
908.836	7251
908.952	7266
909.068	7247
909.184	7320
909.3	7274
909.415	7259
909.531	7263
909.647	7110
909.762	7088
909.878	7065
909.993	7057
910.108	7057
910.224	7076
910.339	7088
910.454	6985
910.57	6985
910.685	6954
910.8	7099
910.915	7065
911.03	7027
911.145	6821
911.259	6848
911.374	6852
911.489	6833
911.604	6783
911.718	6642
911.833	6722
911.947	6658
912.062	6601
912.176	6620
912.291	6741
912.405	6677
912.519	6818
912.633	6791
912.748	6757
912.862	6669
912.976	6631
913.09	6536
913.204	6563
913.318	6642
913.431	6662
913.545	6665
913.659	6749
913.772	6604
913.886	6563
914	6582
914.113	6642
914.226	6631
914.34	6589
914.453	6490
914.566	6612
914.68	6536
914.793	6540
914.906	6445
915.019	6426
915.132	6429
915.245	6410
915.358	6403
915.47	6426
915.583	6410
915.696	6509
915.809	6486
915.921	6536
916.034	6418
916.146	6418
916.259	6334
916.371	6422
916.483	6414
916.595	6410
916.708	6391
916.82	6376
916.932	6369
917.044	6410
917.156	6384
917.268	6350
917.38	6311
917.491	6292
917.603	6361
917.715	6342
917.826	6448
917.938	6365
918.049	6163
918.161	6353
918.272	6338
918.384	6452
918.495	6372
918.606	6277
918.717	6201
918.828	6254
918.939	6300
919.05	6213
919.161	6239
919.272	6102
919.383	6194
919.494	6258
919.604	6388
919.715	6338
919.826	6167
919.936	6292
920.047	6331
920.157	6292
920.267	6376
920.378	6334
920.488	6258
920.598	6467
920.708	6498
920.818	6467
920.928	6441
921.038	6608
921.148	6509
921.258	6350
921.368	6304
921.477	6194
921.587	6133
921.697	6060
921.806	6129
921.916	6026
922.025	5874
922.134	5931
922.244	5859
922.353	5908
922.462	5836
922.571	5764
922.68	5707
922.789	5638
922.898	5699
923.007	5630
923.116	5691
923.224	5668
923.333	5649
923.442	5600
923.55	5627
923.659	5577
923.767	5634
923.876	5551
923.984	5577
924.092	5543
924.201	5619
924.309	5558
924.417	5551
924.525	5554
924.633	5482
924.741	6243
924.849	5345
924.956	5463
925.064	5334
925.172	5318
925.279	5265
925.387	5334
925.494	5280
925.602	5379
925.709	5349
925.816	5265
925.924	5288
926.031	5349
926.138	5292
926.245	5318
926.352	5189
926.459	5357
926.566	5353
926.673	5223
926.779	5151
926.886	5064
926.993	4968
927.099	5006
927.206	4961
927.312	4965
927.419	4999
927.525	4995
927.631	4984
927.737	4911
927.843	4850
927.95	4725
928.056	4831
928.162	4774
928.267	4839
928.373	5334
928.479	4801
928.585	4660
928.69	4740
928.796	4763
928.901	4637
929.007	4607
929.112	4675
929.218	4592
929.323	4607
929.428	4561
929.533	4634
929.638	4508
929.743	4535
929.848	4542
929.953	4470
930.058	4394
930.163	4314
930.267	4360
930.372	4447
930.477	4268
930.581	4466
930.685	4386
930.79	4196
930.894	4227
930.998	4200
931.103	4375
931.207	4120
931.311	4048
931.415	4006
931.519	3922
931.623	3949
