Data from glass_V78500241_792.txt Node
Date: Wed Sep 01 19:19:59 CST 2021
User: usil
Spectrometer: V785-0024
Trigger mode: 0
Integration Time (sec): 4.000000E-1
Scans to average: 1
Nonlinearity correction enabled: false
Boxcar width: 0
Storing dark spectrum: false
XAxis mode: Wavelengths
Number of Pixels in Spectrum: 1024
>>>>>Begin Spectral Data<<<<<
801.071	3762
801.214	3766
801.356	3682
801.499	3751
801.641	3686
801.783	3747
801.926	3876
802.068	3861
802.211	3869
802.353	3918
802.496	3865
802.638	3915
802.78	3945
802.923	3937
803.065	3892
803.208	3857
803.35	3915
803.492	3907
803.635	3941
803.777	3812
803.919	3911
804.061	4131
804.204	3934
804.346	3934
804.488	3953
804.63	4048
804.773	4044
804.915	4044
805.057	4166
805.199	4051
805.341	4116
805.483	4158
805.626	4131
805.768	4105
805.91	4207
806.052	4265
806.194	4204
806.336	4310
806.478	4223
806.62	4143
806.762	4192
806.904	4284
807.046	4402
807.188	4204
807.33	4147
807.472	4196
807.614	4223
807.756	4268
807.898	4246
808.04	4242
808.182	4310
808.324	4333
808.465	4394
808.607	4459
808.749	4394
808.891	4466
809.033	4497
809.174	4405
809.316	4238
809.458	4219
809.6	4177
809.741	4196
809.883	4196
810.025	4204
810.166	4192
810.308	4227
810.45	4257
810.591	4234
810.733	4268
810.875	4508
811.016	4847
811.158	5113
811.299	5299
811.441	5296
811.582	5045
811.724	4694
811.865	4474
812.007	4489
812.148	4455
812.29	4398
812.431	4428
812.573	4394
812.714	4386
812.855	4394
812.997	4421
813.138	4489
813.279	4413
813.421	4409
813.562	4462
813.703	4344
813.845	4356
813.986	4238
814.127	4188
814.268	4299
814.41	4299
814.551	4249
814.692	4325
814.833	4322
814.974	4363
815.115	4390
815.256	4268
815.397	4249
815.539	4234
815.68	4242
815.821	4211
815.962	4287
816.103	4287
816.244	4276
816.385	4234
816.526	4265
816.666	4215
816.807	4135
816.948	4188
817.089	4211
817.23	4101
817.371	4067
817.512	4044
817.653	4090
817.793	4036
817.934	4002
818.075	4105
818.216	4097
818.356	4078
818.497	4006
818.638	3918
818.778	3934
818.919	3896
819.06	3888
819.2	3915
819.341	3861
819.481	3842
819.622	3949
819.762	4025
819.903	3968
820.043	3865
820.184	3823
820.324	3842
820.465	3892
820.605	3838
820.746	3903
820.886	3816
821.026	3964
821.167	3930
821.307	3972
821.447	3994
821.588	3956
821.728	4010
821.868	3945
822.008	3903
822.149	3934
822.289	3934
822.429	3831
822.569	3785
822.709	3785
822.849	3694
822.99	3747
823.13	3724
823.27	3804
823.41	3709
823.55	3717
823.69	3713
823.83	3743
823.97	3675
824.11	3637
824.25	3652
824.389	3637
824.529	3667
824.669	3663
824.809	3690
824.949	3785
825.089	3774
825.228	3740
825.368	3561
825.508	3595
825.648	3614
825.787	3610
825.927	3663
826.067	3633
826.206	3671
826.346	3800
826.485	3857
826.625	3903
826.765	3953
826.904	3861
827.044	3599
827.183	3530
827.323	3447
827.462	3481
827.601	3420
827.741	3431
827.88	3458
828.02	3374
828.159	3466
828.298	3515
828.437	3519
828.577	3485
828.716	3644
828.855	3523
828.994	3401
829.134	3370
829.273	3374
829.412	3370
829.551	3325
829.69	3389
829.829	3439
829.968	3511
830.107	3481
830.246	3416
830.385	3412
830.524	3340
830.663	3310
830.802	3249
830.941	3180
831.08	3199
831.219	3264
831.357	3283
831.496	3389
831.635	3264
831.774	3218
831.913	3199
832.051	3146
832.19	3146
832.329	3211
832.467	3146
832.606	3089
832.744	3211
832.883	3184
833.022	3195
833.16	3233
833.299	3317
833.437	3355
833.576	3389
833.714	3416
833.852	3492
833.991	3462
834.129	3523
834.267	3458
834.406	3412
834.544	3454
834.682	3466
834.821	3416
834.959	3557
835.097	3428
835.235	3504
835.373	3519
835.511	3523
835.65	3466
835.788	3492
835.926	3386
836.064	3401
836.202	3416
836.34	3576
836.478	3618
836.615	3526
836.753	3595
836.891	3641
837.029	3595
837.167	3584
837.305	3595
837.443	3568
837.58	3530
837.718	3587
837.856	3595
837.993	3530
838.131	3599
838.269	3641
838.406	3622
838.544	3599
838.681	3500
838.819	3469
838.956	3431
839.094	3374
839.231	3447
839.369	3523
839.506	3778
839.643	3622
839.781	3485
839.918	3477
840.055	3485
840.193	3523
840.33	3545
840.467	3542
840.604	3637
840.742	3812
840.879	3545
841.016	3591
841.153	3614
841.29	3747
841.427	3736
841.564	3720
841.701	3740
841.838	3720
841.975	3648
842.112	3724
842.249	3629
842.385	3641
842.522	3854
842.659	3682
842.796	3701
842.933	3698
843.069	3682
843.206	3740
843.343	3774
843.479	3816
843.616	3838
843.752	3675
843.889	3713
844.025	3888
844.162	3690
844.298	3869
844.435	3793
844.571	3816
844.708	3892
844.844	3930
844.98	3994
845.117	4032
845.253	3964
845.389	3888
845.525	3991
845.661	3968
845.798	3964
845.934	4017
846.07	4002
846.206	4055
846.342	4112
846.478	4051
846.614	3991
846.75	3983
846.886	3930
847.022	4025
847.158	3960
847.294	4032
847.429	4055
847.565	4013
847.701	4272
847.837	3888
847.972	3888
848.108	3945
848.244	3953
848.379	3873
848.515	3797
848.65	3804
848.786	3880
848.921	3861
849.057	3941
849.192	3937
849.328	3911
849.463	3949
849.598	3915
849.734	3918
849.869	3831
850.004	3797
850.14	3876
850.275	3797
850.41	3778
850.545	3797
850.68	3793
850.815	3800
850.95	3823
851.085	3937
851.22	3869
851.355	3854
851.49	3816
851.625	3793
851.76	3812
851.895	3755
852.03	3671
852.165	3812
852.299	3915
852.434	3911
852.569	3857
852.703	3876
852.838	3964
852.973	3994
853.107	4051
853.242	3949
853.376	3876
853.511	3774
853.645	3869
853.78	3972
853.914	3937
854.048	3892
854.183	3892
854.317	3918
854.451	4055
854.585	3918
854.72	3968
854.854	4093
854.988	3911
855.122	4021
855.256	3926
855.39	4048
855.524	4116
855.658	4112
855.792	4101
855.926	4154
856.06	4196
856.194	4207
856.327	4112
856.461	4120
856.595	4158
856.729	4116
856.862	4268
856.996	4261
857.13	4295
857.263	4333
857.397	4413
857.53	4314
857.664	4333
857.797	4398
857.931	4383
858.064	4428
858.197	4447
858.331	4386
858.464	4428
858.597	4352
858.731	4470
858.864	4508
858.997	4443
859.13	4546
859.263	4481
859.396	4645
859.529	4500
859.662	4542
859.795	4546
859.928	4634
860.061	4733
860.194	4744
860.327	4675
860.46	4641
860.592	4744
860.725	4740
860.858	4782
860.99	4721
861.123	4706
861.256	4736
861.388	4797
861.521	5421
861.653	4736
861.786	4744
861.918	4748
862.05	4797
862.183	4843
862.315	4923
862.447	4961
862.58	4885
862.712	4816
862.844	4778
862.976	4854
863.108	4850
863.24	5250
863.372	4771
863.504	4923
863.636	4896
863.768	5003
863.9	4991
864.032	4927
864.164	4984
864.296	5029
864.428	5098
864.559	5083
864.691	5128
864.823	5086
864.954	5136
865.086	5170
865.217	5136
865.349	5113
865.48	5170
865.612	5151
865.743	5288
865.875	5178
866.006	5220
866.137	5242
866.269	5216
866.4	5280
866.531	5242
866.662	5227
866.793	5303
866.924	5269
867.055	5360
867.186	5387
867.317	5296
867.448	5372
867.579	5395
867.71	5395
867.841	5379
867.972	5463
868.103	5497
868.233	5448
868.364	5528
868.495	5547
868.625	5684
868.756	5809
868.886	5634
869.017	5771
869.147	5828
869.278	5893
869.408	5817
869.539	5847
869.669	5863
869.799	5946
869.929	5973
870.06	6057
870.19	6281
870.32	6228
870.45	6319
870.58	6429
870.71	6460
870.84	6456
870.97	6426
871.1	6479
871.23	6665
871.36	6715
871.489	6635
871.619	6703
871.749	6806
871.879	6890
872.008	6966
872.138	6954
872.267	6993
872.397	7012
872.526	7019
872.656	7122
872.785	7228
872.915	7384
873.044	7578
873.173	7578
873.303	7616
873.432	7723
873.561	7849
873.69	7921
873.819	8024
873.948	8206
874.077	8237
874.206	8423
874.335	8454
874.464	8659
874.593	8891
874.722	8967
874.851	9127
874.979	9226
875.108	9420
875.237	9431
875.365	9504
875.494	9629
875.623	9838
875.751	9873
875.88	9983
876.008	10147
876.136	10234
876.265	10535
876.393	10736
876.521	10714
876.65	10793
876.778	10820
876.906	10896
877.034	10953
877.162	11041
877.29	11094
877.418	11360
877.546	11356
877.674	11421
877.802	11414
877.93	11528
878.058	11493
878.185	11539
878.313	11646
878.441	11775
878.568	11653
878.696	11836
878.824	11904
878.951	11931
879.079	11992
879.206	12152
879.333	11889
879.461	12011
879.588	12083
879.715	12045
879.842	12190
879.97	12117
880.097	11889
880.224	11840
880.351	11855
880.478	11950
880.605	11908
880.732	11824
880.859	12038
880.986	11802
881.112	11866
881.239	11767
881.366	11729
881.493	11672
881.619	11543
881.746	11558
881.872	11535
881.999	11516
882.125	11444
882.252	11554
882.378	11501
882.505	11570
882.631	11315
882.757	11341
882.883	11280
883.01	11269
883.136	11155
883.262	11075
883.388	11143
883.514	11254
883.64	11098
883.766	11193
883.892	10961
884.018	11006
884.143	11052
884.269	11098
884.395	10854
884.52	10797
884.646	10820
884.772	10771
884.897	10683
885.023	10721
885.148	10748
885.274	10793
885.399	10740
885.524	10706
885.65	10607
885.775	10584
885.9	10596
886.025	10527
886.15	10497
886.275	10535
886.4	10424
886.525	10424
886.65	10318
886.775	10371
886.9	10409
887.025	10527
887.149	10318
887.274	10318
887.399	10188
887.523	10223
887.648	10166
887.773	10139
887.897	10215
888.021	10219
888.146	10135
888.27	10257
888.395	10200
888.519	10192
888.643	10109
888.767	10154
888.891	10071
889.015	10002
889.139	10124
889.263	9998
889.387	10055
889.511	10097
889.635	10067
889.759	9945
889.883	10071
890.006	9960
890.13	10074
890.254	9979
890.377	9998
890.501	9876
890.624	9842
890.748	9953
890.871	9755
890.995	9724
891.118	9690
891.241	9804
891.364	9846
891.488	9895
891.611	9720
891.734	9759
891.857	9759
891.98	9751
892.103	9808
892.226	9759
892.349	9618
892.471	9519
892.594	9584
892.717	9599
892.839	9603
892.962	9633
893.085	9736
893.207	9599
893.33	9481
893.452	9515
893.575	9542
893.697	9519
893.819	9629
893.941	9603
894.064	9625
894.186	9439
894.308	9363
894.43	9481
894.552	9671
894.674	9557
894.796	9454
894.918	9325
895.04	9351
895.161	9374
895.283	9359
895.405	9226
895.526	9275
895.648	9264
895.769	9268
895.891	9256
896.012	9241
896.134	9176
896.255	9218
896.376	9097
896.498	9093
896.619	9188
896.74	9146
896.861	9093
896.982	9268
897.103	9367
897.224	9169
897.345	9097
897.466	8971
897.587	9013
897.708	9123
897.828	9097
897.949	8910
898.07	8868
898.19	8830
898.311	9013
898.431	8906
898.552	8910
898.672	9043
898.792	8960
898.913	8925
899.033	8796
899.153	8727
899.273	8689
899.393	8716
899.513	8807
899.633	8762
899.753	8766
899.873	8632
899.993	8796
900.113	8697
900.232	8720
900.352	8705
900.472	8568
900.591	8613
900.711	8575
900.83	8552
900.95	8651
901.069	8655
901.189	8610
901.308	8476
901.427	8427
901.546	8336
901.665	8438
901.784	8419
901.904	8393
902.023	8324
902.141	8202
902.26	8195
902.379	8248
902.498	8142
902.617	8240
902.735	8248
902.854	8343
902.973	8290
903.091	8180
903.21	8172
903.328	8191
903.446	8149
903.565	8225
903.683	8050
903.801	8035
903.919	8103
904.038	8088
904.156	8058
904.274	8096
904.392	8012
904.51	8046
904.627	8073
904.745	8142
904.863	8088
904.981	7963
905.098	7811
905.216	7898
905.334	7883
905.451	7906
905.569	7890
905.686	7970
905.803	7967
905.921	7772
906.038	7906
906.155	7822
906.272	7753
906.389	7723
906.506	7658
906.623	7719
906.74	7586
906.857	7533
906.974	7590
907.091	7670
907.208	7757
907.324	7693
907.441	7506
907.557	7502
907.674	7460
907.79	7430
907.907	7468
908.023	7411
908.139	7563
908.256	7354
908.372	7327
908.488	7301
908.604	7240
908.72	7274
908.836	7289
908.952	7213
909.068	7236
909.184	7301
909.3	7266
909.415	7316
909.531	7308
909.647	7133
909.762	7152
909.878	7133
909.993	7122
910.108	7091
910.224	7118
910.339	7084
910.454	7000
910.57	6993
910.685	6970
910.8	7129
910.915	7126
911.03	7069
911.145	6920
911.259	6890
911.374	6924
911.489	6833
911.604	6798
911.718	6684
911.833	6783
911.947	6688
912.062	6589
912.176	6700
912.291	6734
912.405	6711
912.519	6821
912.633	6863
912.748	6726
912.862	6669
912.976	6642
913.09	6555
913.204	6585
913.318	6700
913.431	6741
913.545	6688
913.659	6703
913.772	6662
913.886	6612
914	6517
914.113	6658
914.226	6604
914.34	6593
914.453	6506
914.566	6631
914.68	6483
914.793	6528
914.906	6479
915.019	6384
915.132	6391
915.245	6467
915.358	6445
915.47	6429
915.583	6456
915.696	6460
915.809	6521
915.921	6521
916.034	6467
916.146	6456
916.259	6384
916.371	6532
916.483	6528
916.595	6410
916.708	6464
916.82	6437
916.932	6395
917.044	6407
917.156	6426
917.268	6327
917.38	6380
917.491	6338
917.603	6395
917.715	6403
917.826	6426
917.938	6388
918.049	6304
918.161	6361
918.272	6407
918.384	6433
918.495	6338
918.606	6281
918.717	6273
918.828	6273
918.939	6285
919.05	6232
919.161	6266
919.272	6171
919.383	6133
919.494	6350
919.604	6407
919.715	6361
919.826	6178
919.936	6209
920.047	6334
920.157	6277
920.267	6544
920.378	6289
920.488	6308
920.598	6437
920.708	6544
920.818	6490
920.928	6456
921.038	6601
921.148	6601
921.258	6391
921.368	6315
921.477	6216
921.587	6144
921.697	6201
921.806	6205
921.916	6060
922.025	6011
922.134	5885
922.244	5897
922.353	5961
922.462	5916
922.571	5821
922.68	5680
922.789	5684
922.898	5786
923.007	5653
923.116	5714
923.224	5714
923.333	5699
923.442	5539
923.55	5532
923.659	5585
923.767	5653
923.876	5524
923.984	5562
924.092	5520
924.201	5551
924.309	5539
924.417	5562
924.525	5467
924.633	5493
924.741	6129
924.849	5376
924.956	5497
925.064	5387
925.172	5349
925.279	5311
925.387	5376
925.494	5322
925.602	5410
925.709	5360
925.816	5280
925.924	5292
926.031	5417
926.138	5376
926.245	5349
926.352	5220
926.459	5307
926.566	5330
926.673	5212
926.779	5170
926.886	5140
926.993	5025
927.099	4999
927.206	5010
927.312	4953
927.419	5022
927.525	4976
927.631	5025
927.737	4900
927.843	4870
927.95	4835
928.056	4828
928.162	4850
928.267	4828
928.373	5387
928.479	4862
928.585	4714
928.69	4820
928.796	4767
928.901	4714
929.007	4637
929.112	4668
929.218	4653
929.323	4577
929.428	4588
929.533	4714
929.638	4508
929.743	4523
929.848	4561
929.953	4523
930.058	4440
930.163	4344
930.267	4314
930.372	4436
930.477	4268
930.581	4424
930.685	4394
930.79	4325
930.894	4314
930.998	4276
931.103	4405
931.207	4158
931.311	4067
931.415	4090
931.519	3884
931.623	3960
