Data from glass_V78500241_906.txt Node
Date: Wed Sep 01 19:20:46 CST 2021
User: usil
Spectrometer: V785-0024
Trigger mode: 0
Integration Time (sec): 4.000000E-1
Scans to average: 1
Nonlinearity correction enabled: false
Boxcar width: 0
Storing dark spectrum: false
XAxis mode: Wavelengths
Number of Pixels in Spectrum: 1024
>>>>>Begin Spectral Data<<<<<
801.071	3682
801.214	3724
801.356	3736
801.499	3728
801.641	3808
801.783	3789
801.926	3888
802.068	3812
802.211	3842
802.353	3911
802.496	3842
802.638	3888
802.78	3899
802.923	3918
803.065	3850
803.208	3838
803.35	3918
803.492	3918
803.635	3892
803.777	3808
803.919	3899
804.061	4139
804.204	3991
804.346	4006
804.488	3926
804.63	3975
804.773	3953
804.915	4048
805.057	4181
805.199	4051
805.341	4147
805.483	4185
805.626	4139
805.768	4124
805.91	4215
806.052	4196
806.194	4234
806.336	4348
806.478	4238
806.62	4211
806.762	4200
806.904	4280
807.046	4341
807.188	4257
807.33	4162
807.472	4265
807.614	4223
807.756	4291
807.898	4249
808.04	4242
808.182	4314
808.324	4306
808.465	4375
808.607	4421
808.749	4489
808.891	4531
809.033	4516
809.174	4390
809.316	4268
809.458	4253
809.6	4188
809.741	4139
809.883	4131
810.025	4166
810.166	4227
810.308	4242
810.45	4306
810.591	4284
810.733	4284
810.875	4523
811.016	4858
811.158	5162
811.299	5299
811.441	5254
811.582	5048
811.724	4725
811.865	4519
812.007	4466
812.148	4440
812.29	4428
812.431	4383
812.573	4402
812.714	4428
812.855	4440
812.997	4447
813.138	4466
813.279	4409
813.421	4390
813.562	4379
813.703	4295
813.845	4325
813.986	4303
814.127	4196
814.268	4268
814.41	4322
814.551	4280
814.692	4344
814.833	4265
814.974	4287
815.115	4314
815.256	4261
815.397	4249
815.539	4291
815.68	4211
815.821	4219
815.962	4356
816.103	4299
816.244	4204
816.385	4265
816.526	4280
816.666	4234
816.807	4166
816.948	4188
817.089	4196
817.23	4120
817.371	4063
817.512	4032
817.653	4101
817.793	4067
817.934	4059
818.075	4112
818.216	4074
818.356	4101
818.497	4013
818.638	3930
818.778	3956
818.919	3880
819.06	3842
819.2	3945
819.341	3888
819.481	3873
819.622	3953
819.762	4013
819.903	4002
820.043	3865
820.184	3838
820.324	3838
820.465	3903
820.605	3865
820.746	3854
820.886	3789
821.026	3911
821.167	3930
821.307	3972
821.447	4025
821.588	3956
821.728	3915
821.868	3983
822.008	3911
822.149	3945
822.289	3934
822.429	3804
822.569	3797
822.709	3819
822.849	3720
822.99	3720
823.13	3778
823.27	3781
823.41	3709
823.55	3724
823.69	3701
823.83	3755
823.97	3713
824.11	3622
824.25	3637
824.389	3652
824.529	3671
824.669	3606
824.809	3705
824.949	3762
825.089	3747
825.228	3743
825.368	3614
825.508	3587
825.648	3557
825.787	3625
825.927	3652
826.067	3629
826.206	3667
826.346	3789
826.485	3857
826.625	3861
826.765	3911
826.904	3842
827.044	3641
827.183	3530
827.323	3401
827.462	3481
827.601	3466
827.741	3424
827.88	3473
828.02	3378
828.159	3431
828.298	3507
828.437	3538
828.577	3466
828.716	3629
828.855	3534
828.994	3370
829.134	3393
829.273	3378
829.412	3378
829.551	3355
829.69	3370
829.829	3473
829.968	3534
830.107	3431
830.246	3439
830.385	3370
830.524	3389
830.663	3298
830.802	3245
830.941	3226
831.08	3184
831.219	3325
831.357	3302
831.496	3412
831.635	3237
831.774	3192
831.913	3211
832.051	3123
832.19	3161
832.329	3199
832.467	3169
832.606	3131
832.744	3207
832.883	3192
833.022	3237
833.16	3260
833.299	3321
833.437	3359
833.576	3378
833.714	3439
833.852	3458
833.991	3435
834.129	3519
834.267	3420
834.406	3393
834.544	3416
834.682	3443
834.821	3454
834.959	3603
835.097	3378
835.235	3595
835.373	3504
835.511	3526
835.65	3496
835.788	3511
835.926	3401
836.064	3386
836.202	3428
836.34	3587
836.478	3606
836.615	3561
836.753	3595
836.891	3663
837.029	3614
837.167	3618
837.305	3576
837.443	3519
837.58	3504
837.718	3568
837.856	3625
837.993	3545
838.131	3564
838.269	3549
838.406	3595
838.544	3584
838.681	3500
838.819	3439
838.956	3355
839.094	3386
839.231	3462
839.369	3469
839.506	3762
839.643	3648
839.781	3477
839.918	3492
840.055	3545
840.193	3545
840.33	3523
840.467	3603
840.604	3618
840.742	3846
840.879	3549
841.016	3595
841.153	3599
841.29	3740
841.427	3747
841.564	3713
841.701	3713
841.838	3724
841.975	3686
842.112	3698
842.249	3629
842.385	3644
842.522	3823
842.659	3682
842.796	3682
842.933	3724
843.069	3701
843.206	3747
843.343	3823
843.479	3747
843.616	3800
843.752	3679
843.889	3720
844.025	3835
844.162	3709
844.298	3835
844.435	3816
844.571	3747
844.708	3930
844.844	3956
844.98	4017
845.117	4055
845.253	3884
845.389	3934
845.525	3941
845.661	3956
845.798	3953
845.934	4013
846.07	3956
846.206	4059
846.342	4112
846.478	4051
846.614	3964
846.75	3972
846.886	3926
847.022	4029
847.158	3953
847.294	4029
847.429	4017
847.565	4036
847.701	4246
847.837	3892
847.972	3896
848.108	4067
848.244	3964
848.379	3892
848.515	3816
848.65	3827
848.786	3816
848.921	3861
849.057	3937
849.192	3934
849.328	3960
849.463	3972
849.598	3892
849.734	3892
849.869	3861
850.004	3808
850.14	3778
850.275	3800
850.41	3732
850.545	3778
850.68	3785
850.815	3823
850.95	3804
851.085	3922
851.22	3865
851.355	3884
851.49	3804
851.625	3823
851.76	3766
851.895	3728
852.03	3762
852.165	3800
852.299	3880
852.434	3949
852.569	3869
852.703	3918
852.838	3949
852.973	4036
853.107	3998
853.242	3899
853.376	3911
853.511	3770
853.645	3850
853.78	3994
853.914	3941
854.048	3926
854.183	3918
854.317	3964
854.451	4082
854.585	4002
854.72	3949
854.854	4063
854.988	3983
855.122	4006
855.256	3945
855.39	4067
855.524	4116
855.658	4067
855.792	4112
855.926	4154
856.06	4181
856.194	4234
856.327	4196
856.461	4120
856.595	4192
856.729	4131
856.862	4299
856.996	4303
857.13	4325
857.263	4337
857.397	4356
857.53	4299
857.664	4348
857.797	4432
857.931	4424
858.064	4360
858.197	4485
858.331	4405
858.464	4390
858.597	4379
858.731	4443
858.864	4443
858.997	4489
859.13	4561
859.263	4550
859.396	4580
859.529	4565
859.662	4497
859.795	4527
859.928	4577
860.061	4736
860.194	4729
860.327	4660
860.46	4675
860.592	4744
860.725	4767
860.858	4744
860.99	4698
861.123	4687
861.256	4706
861.388	4740
861.521	5547
861.653	4706
861.786	4664
861.918	4691
862.05	4812
862.183	4885
862.315	4938
862.447	4980
862.58	4896
862.712	4812
862.844	4790
862.976	4896
863.108	4885
863.24	5140
863.372	4767
863.504	4904
863.636	4923
863.768	4961
863.9	4927
864.032	4968
864.164	5006
864.296	5025
864.428	5064
864.559	5128
864.691	5113
864.823	5121
864.954	5086
865.086	5132
865.217	5079
865.349	5094
865.48	5181
865.612	5189
865.743	5250
865.875	5235
866.006	5170
866.137	5273
866.269	5223
866.4	5292
866.531	5288
866.662	5246
866.793	5277
866.924	5322
867.055	5372
867.186	5360
867.317	5345
867.448	5391
867.579	5421
867.71	5357
867.841	5383
867.972	5490
868.103	5505
868.233	5452
868.364	5493
868.495	5543
868.625	5684
868.756	5798
868.886	5695
869.017	5809
869.147	5866
869.278	5859
869.408	5798
869.539	5859
869.669	5969
869.799	5870
869.929	5996
870.06	6034
870.19	6224
870.32	6175
870.45	6235
870.58	6353
870.71	6486
870.84	6490
870.97	6388
871.1	6418
871.23	6631
871.36	6715
871.489	6570
871.619	6745
871.749	6798
871.879	6928
872.008	7008
872.138	7000
872.267	7038
872.397	6951
872.526	7088
872.656	7061
872.785	7228
872.915	7392
873.044	7578
873.173	7594
873.303	7651
873.432	7689
873.561	7947
873.69	7883
873.819	8039
873.948	8161
874.077	8271
874.206	8351
874.335	8480
874.464	8697
874.593	8823
874.722	8956
874.851	9176
874.979	9348
875.108	9401
875.237	9416
875.365	9485
875.494	9675
875.623	9816
875.751	9759
875.88	10002
876.008	10143
876.136	10280
876.265	10561
876.393	10599
876.521	10729
876.65	10858
876.778	10812
876.906	10919
877.034	11006
877.162	11143
877.29	11174
877.418	11258
877.546	11353
877.674	11551
877.802	11539
877.93	11589
878.058	11539
878.185	11627
878.313	11516
878.441	11748
878.568	11653
878.696	11866
878.824	11771
878.951	11958
879.079	12007
879.206	12091
879.333	12060
879.461	12022
879.588	12060
879.715	12091
879.842	12243
879.97	12041
880.097	11999
880.224	11901
880.351	11851
880.478	11855
880.605	11821
880.732	11870
880.859	11999
880.986	11851
881.112	11866
881.239	11646
881.366	11676
881.493	11596
881.619	11570
881.746	11532
881.872	11577
881.999	11467
882.125	11474
882.252	11604
882.378	11497
882.505	11528
882.631	11231
882.757	11299
882.883	11318
883.01	11242
883.136	11212
883.262	11025
883.388	11075
883.514	11254
883.64	11231
883.766	11098
883.892	11037
884.018	11003
884.143	10984
884.269	11083
884.395	10869
884.52	10763
884.646	10771
884.772	10710
884.897	10721
885.023	10698
885.148	10725
885.274	10812
885.399	10679
885.524	10607
885.65	10519
885.775	10485
885.9	10500
886.025	10603
886.15	10554
886.275	10474
886.4	10390
886.525	10440
886.65	10352
886.775	10333
886.9	10508
887.025	10531
887.149	10348
887.274	10268
887.399	10196
887.523	10223
887.648	10055
887.773	10120
887.897	10242
888.021	10284
888.146	10169
888.27	10261
888.395	10280
888.519	10173
888.643	10211
888.767	10276
888.891	10101
889.015	9998
889.139	10090
889.263	10090
889.387	10048
889.511	10112
889.635	10029
889.759	9899
889.883	10025
890.006	9937
890.13	10101
890.254	9991
890.377	9975
890.501	9880
890.624	9888
890.748	9861
890.871	9793
890.995	9694
891.118	9747
891.241	9705
891.364	9804
891.488	9793
891.611	9736
891.734	9797
891.857	9785
891.98	9720
892.103	9759
892.226	9724
892.349	9667
892.471	9534
892.594	9622
892.717	9629
892.839	9603
892.962	9652
893.085	9618
893.207	9606
893.33	9557
893.452	9511
893.575	9599
893.697	9485
893.819	9591
893.941	9542
894.064	9610
894.186	9439
894.308	9416
894.43	9515
894.552	9591
894.674	9553
894.796	9454
894.918	9443
895.04	9355
895.161	9401
895.283	9370
895.405	9226
895.526	9355
895.648	9237
895.769	9154
895.891	9287
896.012	9302
896.134	9188
896.255	9222
896.376	9184
896.498	9173
896.619	9112
896.74	9085
896.861	9180
896.982	9336
897.103	9355
897.224	9138
897.345	9085
897.466	8975
897.587	8982
897.708	9085
897.828	9032
897.949	8967
898.07	8811
898.19	8914
898.311	8990
898.431	9001
898.552	8979
898.672	9055
898.792	8956
898.913	8899
899.033	8830
899.153	8705
899.273	8629
899.393	8697
899.513	8746
899.633	8686
899.753	8762
899.873	8712
899.993	8651
900.113	8758
900.232	8716
900.352	8655
900.472	8636
900.591	8602
900.711	8632
900.83	8556
900.95	8701
901.069	8655
901.189	8590
901.308	8423
901.427	8434
901.546	8442
901.665	8488
901.784	8556
901.904	8355
902.023	8404
902.141	8244
902.26	8168
902.379	8301
902.498	8229
902.617	8172
902.735	8317
902.854	8271
902.973	8244
903.091	8077
903.21	8111
903.328	8134
903.446	8164
903.565	8100
903.683	8069
903.801	8046
903.919	8096
904.038	8153
904.156	8020
904.274	8115
904.392	8062
904.51	8142
904.627	8008
904.745	8081
904.863	8134
904.981	7860
905.098	7902
905.216	7921
905.334	7909
905.451	7856
905.569	7890
905.686	7967
905.803	7940
905.921	7799
906.038	7849
906.155	7830
906.272	7731
906.389	7719
906.506	7643
906.623	7651
906.74	7556
906.857	7594
906.974	7563
907.091	7696
907.208	7772
907.324	7677
907.441	7559
907.557	7506
907.674	7407
907.79	7362
907.907	7384
908.023	7430
908.139	7373
908.256	7419
908.372	7358
908.488	7327
908.604	7301
908.72	7278
908.836	7282
908.952	7278
909.068	7278
909.184	7373
909.3	7251
909.415	7255
909.531	7293
909.647	7171
909.762	7129
909.878	7103
909.993	7114
910.108	7160
910.224	7103
910.339	7145
910.454	7069
910.57	6973
910.685	6962
910.8	7171
910.915	7137
911.03	7091
911.145	6947
911.259	6932
911.374	6833
911.489	6871
911.604	6875
911.718	6700
911.833	6673
911.947	6665
912.062	6639
912.176	6776
912.291	6726
912.405	6711
912.519	6848
912.633	6867
912.748	6692
912.862	6688
912.976	6578
913.09	6547
913.204	6597
913.318	6616
913.431	6738
913.545	6665
913.659	6757
913.772	6650
913.886	6658
914	6502
914.113	6620
914.226	6639
914.34	6601
914.453	6502
914.566	6601
914.68	6582
914.793	6502
914.906	6452
915.019	6395
915.132	6384
915.245	6471
915.358	6456
915.47	6483
915.583	6498
915.696	6445
915.809	6570
915.921	6536
916.034	6445
916.146	6414
916.259	6395
916.371	6479
916.483	6448
916.595	6410
916.708	6407
916.82	6376
916.932	6399
917.044	6365
917.156	6376
917.268	6311
917.38	6353
917.491	6292
917.603	6327
917.715	6437
917.826	6448
917.938	6372
918.049	6289
918.161	6403
918.272	6369
918.384	6426
918.495	6388
918.606	6304
918.717	6258
918.828	6182
918.939	6292
919.05	6152
919.161	6289
919.272	6178
919.383	6175
919.494	6289
919.604	6460
919.715	6311
919.826	6186
919.936	6243
920.047	6342
920.157	6292
920.267	6426
920.378	6350
920.488	6285
920.598	6502
920.708	6597
920.818	6490
920.928	6456
921.038	6616
921.148	6612
921.258	6331
921.368	6292
921.477	6213
921.587	6186
921.697	6098
921.806	6163
921.916	6060
922.025	5988
922.134	5878
922.244	5923
922.353	5942
922.462	5874
922.571	5817
922.68	5695
922.789	5668
922.898	5707
923.007	5573
923.116	5733
923.224	5672
923.333	5661
923.442	5615
923.55	5627
923.659	5619
923.767	5646
923.876	5596
923.984	5615
924.092	5516
924.201	5554
924.309	5573
924.417	5516
924.525	5539
924.633	5532
924.741	6178
924.849	5459
924.956	5520
925.064	5349
925.172	5284
925.279	5349
925.387	5364
925.494	5299
925.602	5452
925.709	5341
925.816	5296
925.924	5337
926.031	5296
926.138	5330
926.245	5299
926.352	5235
926.459	5326
926.566	5345
926.673	5204
926.779	5178
926.886	5094
926.993	4991
927.099	5033
927.206	5010
927.312	4927
927.419	5064
927.525	4995
927.631	5029
927.737	4881
927.843	4885
927.95	4820
928.056	4812
928.162	4839
928.267	4889
928.373	5307
928.479	4900
928.585	4672
928.69	4767
928.796	4835
928.901	4736
929.007	4615
929.112	4672
929.218	4641
929.323	4645
929.428	4615
929.533	4698
929.638	4527
929.743	4554
929.848	4554
929.953	4538
930.058	4443
930.163	4363
930.267	4379
930.372	4459
930.477	4280
930.581	4466
930.685	4405
930.79	4276
930.894	4310
930.998	4257
931.103	4371
931.207	4139
931.311	4097
931.415	4006
931.519	3918
931.623	3911
