Data from glass_V78500241_2073.txt Node
Date: Wed Sep 01 19:28:52 CST 2021
User: usil
Spectrometer: V785-0024
Trigger mode: 0
Integration Time (sec): 4.000000E-1
Scans to average: 1
Nonlinearity correction enabled: false
Boxcar width: 0
Storing dark spectrum: false
XAxis mode: Wavelengths
Number of Pixels in Spectrum: 1024
>>>>>Begin Spectral Data<<<<<
801.071	3705
801.214	3736
801.356	3705
801.499	3766
801.641	3755
801.783	3751
801.926	3873
802.068	3823
802.211	3869
802.353	3899
802.496	3861
802.638	3854
802.78	3888
802.923	3915
803.065	3907
803.208	3838
803.35	3861
803.492	3903
803.635	3960
803.777	3816
803.919	3896
804.061	4139
804.204	3915
804.346	3949
804.488	3941
804.63	3991
804.773	3960
804.915	4013
805.057	4154
805.199	4063
805.341	4055
805.483	4112
805.626	4105
805.768	4078
805.91	4223
806.052	4238
806.194	4227
806.336	4333
806.478	4196
806.62	4147
806.762	4169
806.904	4268
807.046	4303
807.188	4211
807.33	4192
807.472	4215
807.614	4112
807.756	4276
807.898	4238
808.04	4200
808.182	4238
808.324	4306
808.465	4333
808.607	4447
808.749	4413
808.891	4440
809.033	4523
809.174	4363
809.316	4223
809.458	4268
809.6	4116
809.741	4158
809.883	4116
810.025	4192
810.166	4207
810.308	4257
810.45	4265
810.591	4265
810.733	4299
810.875	4493
811.016	4828
811.158	5143
811.299	5246
811.441	5303
811.582	5079
811.724	4740
811.865	4432
812.007	4432
812.148	4478
812.29	4386
812.431	4398
812.573	4440
812.714	4341
812.855	4409
812.997	4413
813.138	4455
813.279	4398
813.421	4390
813.562	4341
813.703	4291
813.845	4303
813.986	4291
814.127	4223
814.268	4249
814.41	4272
814.551	4295
814.692	4333
814.833	4246
814.974	4261
815.115	4325
815.256	4261
815.397	4211
815.539	4284
815.68	4200
815.821	4196
815.962	4303
816.103	4299
816.244	4219
816.385	4272
816.526	4272
816.666	4192
816.807	4013
816.948	4166
817.089	4169
817.23	4097
817.371	4055
817.512	4059
817.653	4048
817.793	4055
817.934	4025
818.075	4063
818.216	4048
818.356	4097
818.497	3972
818.638	3888
818.778	3880
818.919	3934
819.06	3823
819.2	3934
819.341	3857
819.481	3850
819.622	3888
819.762	4036
819.903	3915
820.043	3873
820.184	3850
820.324	3804
820.465	3838
820.605	3873
820.746	3854
820.886	3831
821.026	3922
821.167	3899
821.307	3972
821.447	3956
821.588	3911
821.728	3934
821.868	3937
822.008	3857
822.149	3903
822.289	3930
822.429	3759
822.569	3766
822.709	3778
822.849	3675
822.99	3698
823.13	3755
823.27	3770
823.41	3728
823.55	3766
823.69	3736
823.83	3747
823.97	3663
824.11	3614
824.25	3591
824.389	3637
824.529	3682
824.669	3660
824.809	3656
824.949	3743
825.089	3732
825.228	3709
825.368	3568
825.508	3523
825.648	3576
825.787	3618
825.927	3629
826.067	3576
826.206	3656
826.346	3804
826.485	3835
826.625	3831
826.765	3915
826.904	3789
827.044	3622
827.183	3553
827.323	3447
827.462	3458
827.601	3462
827.741	3428
827.88	3435
828.02	3367
828.159	3454
828.298	3496
828.437	3507
828.577	3462
828.716	3591
828.855	3507
828.994	3405
829.134	3370
829.273	3405
829.412	3351
829.551	3317
829.69	3340
829.829	3416
829.968	3488
830.107	3450
830.246	3435
830.385	3386
830.524	3344
830.663	3264
830.802	3264
830.941	3195
831.08	3218
831.219	3325
831.357	3272
831.496	3397
831.635	3222
831.774	3165
831.913	3195
832.051	3112
832.19	3154
832.329	3169
832.467	3138
832.606	3081
832.744	3138
832.883	3218
833.022	3214
833.16	3268
833.299	3260
833.437	3313
833.576	3370
833.714	3393
833.852	3405
833.991	3405
834.129	3466
834.267	3424
834.406	3416
834.544	3420
834.682	3431
834.821	3363
834.959	3564
835.097	3382
835.235	3538
835.373	3477
835.511	3473
835.65	3435
835.788	3462
835.926	3370
836.064	3367
836.202	3412
836.34	3625
836.478	3599
836.615	3511
836.753	3587
836.891	3610
837.029	3595
837.167	3572
837.305	3557
837.443	3572
837.58	3500
837.718	3576
837.856	3542
837.993	3549
838.131	3603
838.269	3584
838.406	3568
838.544	3591
838.681	3443
838.819	3435
838.956	3359
839.094	3401
839.231	3447
839.369	3519
839.506	3724
839.643	3603
839.781	3477
839.918	3477
840.055	3526
840.193	3492
840.33	3557
840.467	3542
840.604	3599
840.742	3732
840.879	3542
841.016	3534
841.153	3587
841.29	3732
841.427	3755
841.564	3732
841.701	3728
841.838	3652
841.975	3671
842.112	3770
842.249	3618
842.385	3641
842.522	3781
842.659	3671
842.796	3694
842.933	3720
843.069	3709
843.206	3667
843.343	3808
843.479	3728
843.616	3835
843.752	3652
843.889	3652
844.025	3850
844.162	3736
844.298	3835
844.435	3778
844.571	3819
844.708	3888
844.844	4021
844.98	4010
845.117	4029
845.253	3937
845.389	3884
845.525	3968
845.661	3953
845.798	3949
845.934	3998
846.07	3922
846.206	4010
846.342	4124
846.478	4055
846.614	3941
846.75	3937
846.886	3915
847.022	4025
847.158	3964
847.294	3975
847.429	4036
847.565	4002
847.701	4211
847.837	3899
847.972	3861
848.108	3960
848.244	3956
848.379	3861
848.515	3804
848.65	3823
848.786	3789
848.921	3861
849.057	3907
849.192	3945
849.328	3892
849.463	3915
849.598	3861
849.734	3888
849.869	3819
850.004	3819
850.14	3797
850.275	3827
850.41	3751
850.545	3751
850.68	3812
850.815	3781
850.95	3800
851.085	3922
851.22	3861
851.355	3804
851.49	3778
851.625	3762
851.76	3781
851.895	3682
852.03	3705
852.165	3797
852.299	3774
852.434	3903
852.569	3869
852.703	3857
852.838	3937
852.973	3960
853.107	3972
853.242	3876
853.376	3842
853.511	3781
853.645	3876
853.78	3987
853.914	3861
854.048	3865
854.183	3865
854.317	3945
854.451	4032
854.585	3922
854.72	3911
854.854	3994
854.988	3918
855.122	4025
855.256	3876
855.39	4051
855.524	4112
855.658	4090
855.792	4059
855.926	4158
856.06	4158
856.194	4215
856.327	4196
856.461	4135
856.595	4215
856.729	4158
856.862	4272
856.996	4230
857.13	4276
857.263	4291
857.397	4333
857.53	4257
857.664	4341
857.797	4409
857.931	4402
858.064	4394
858.197	4443
858.331	4409
858.464	4344
858.597	4291
858.731	4428
858.864	4443
858.997	4470
859.13	4481
859.263	4519
859.396	4580
859.529	4500
859.662	4500
859.795	4493
859.928	4615
860.061	4694
860.194	4710
860.327	4656
860.46	4653
860.592	4748
860.725	4740
860.858	4740
860.99	4710
861.123	4721
861.256	4653
861.388	4721
861.521	5318
861.653	4679
861.786	4698
861.918	4774
862.05	4801
862.183	4862
862.315	4896
862.447	4885
862.58	4885
862.712	4774
862.844	4755
862.976	4850
863.108	4904
863.24	5147
863.372	4790
863.504	4873
863.636	4900
863.768	4968
863.9	4995
864.032	4908
864.164	4961
864.296	4987
864.428	5022
864.559	5075
864.691	5151
864.823	5086
864.954	5098
865.086	5128
865.217	5121
865.349	5113
865.48	5231
865.612	5223
865.743	5242
865.875	5140
866.006	5197
866.137	5239
866.269	5220
866.4	5284
866.531	5250
866.662	5181
866.793	5299
866.924	5231
867.055	5326
867.186	5280
867.317	5318
867.448	5280
867.579	5353
867.71	5341
867.841	5357
867.972	5471
868.103	5497
868.233	5455
868.364	5425
868.495	5509
868.625	5668
868.756	5760
868.886	5665
869.017	5714
869.147	5802
869.278	5912
869.408	5802
869.539	5790
869.669	5950
869.799	5908
869.929	5984
870.06	6011
870.19	6205
870.32	6197
870.45	6239
870.58	6361
870.71	6486
870.84	6479
870.97	6414
871.1	6429
871.23	6662
871.36	6642
871.489	6612
871.619	6772
871.749	6798
871.879	6878
872.008	6962
872.138	6939
872.267	7000
872.397	6951
872.526	6977
872.656	7080
872.785	7175
872.915	7369
873.044	7502
873.173	7521
873.303	7651
873.432	7742
873.561	7837
873.69	7887
873.819	8027
873.948	8172
874.077	8172
874.206	8328
874.335	8446
874.464	8575
874.593	8895
874.722	8952
874.851	9119
874.979	9260
875.108	9393
875.237	9363
875.365	9469
875.494	9652
875.623	9838
875.751	9835
875.88	9991
876.008	10044
876.136	10185
876.265	10451
876.393	10592
876.521	10752
876.65	10801
876.778	10797
876.906	10938
877.034	10961
877.162	11041
877.29	11178
877.418	11261
877.546	11353
877.674	11448
877.802	11471
877.93	11474
878.058	11604
878.185	11661
878.313	11668
878.441	11714
878.568	11668
878.696	11809
878.824	11897
878.951	11855
879.079	12030
879.206	12155
879.333	12019
879.461	11984
879.588	12057
879.715	12038
879.842	12270
879.97	12041
880.097	11840
880.224	11912
880.351	11908
880.478	11893
880.605	11824
880.732	11783
880.859	11893
880.986	11767
881.112	11855
881.239	11783
881.366	11699
881.493	11653
881.619	11547
881.746	11520
881.872	11566
881.999	11455
882.125	11410
882.252	11619
882.378	11482
882.505	11524
882.631	11452
882.757	11330
882.883	11288
883.01	11273
883.136	11250
883.262	11083
883.388	11048
883.514	11162
883.64	11136
883.766	11128
883.892	11045
884.018	11010
884.143	11029
884.269	11079
884.395	10816
884.52	10763
884.646	10774
884.772	10672
884.897	10630
885.023	10740
885.148	10782
885.274	10782
885.399	10759
885.524	10637
885.65	10592
885.775	10603
885.9	10516
886.025	10565
886.15	10554
886.275	10455
886.4	10402
886.525	10291
886.65	10344
886.775	10325
886.9	10459
887.025	10504
887.149	10447
887.274	10253
887.399	10128
887.523	10139
887.648	10185
887.773	10074
887.897	10215
888.021	10242
888.146	10128
888.27	10196
888.395	10185
888.519	10116
888.643	10215
888.767	10211
888.891	10116
889.015	9934
889.139	10074
889.263	9987
889.387	10124
889.511	10116
889.635	10071
889.759	9956
889.883	9937
890.006	9994
890.13	10154
890.254	9888
890.377	9956
890.501	9926
890.624	9842
890.748	9869
890.871	9797
890.995	9774
891.118	9713
891.241	9789
891.364	9682
891.488	9838
891.611	9728
891.734	9686
891.857	9743
891.98	9762
892.103	9816
892.226	9663
892.349	9652
892.471	9504
892.594	9599
892.717	9641
892.839	9595
892.962	9663
893.085	9587
893.207	9587
893.33	9496
893.452	9542
893.575	9610
893.697	9477
893.819	9618
893.941	9606
894.064	9526
894.186	9450
894.308	9374
894.43	9507
894.552	9572
894.674	9557
894.796	9325
894.918	9348
895.04	9340
895.161	9382
895.283	9344
895.405	9279
895.526	9249
895.648	9291
895.769	9184
895.891	9264
896.012	9287
896.134	9211
896.255	9253
896.376	9116
896.498	9112
896.619	9100
896.74	9116
896.861	9074
896.982	9211
897.103	9325
897.224	9089
897.345	9112
897.466	8971
897.587	9024
897.708	9009
897.828	8990
897.949	8918
898.07	8834
898.19	8864
898.311	9001
898.431	8979
898.552	8895
898.672	8979
898.792	8948
898.913	8937
899.033	8834
899.153	8731
899.273	8674
899.393	8598
899.513	8758
899.633	8701
899.753	8659
899.873	8762
899.993	8705
900.113	8648
900.232	8682
900.352	8602
900.472	8648
900.591	8602
900.711	8606
900.83	8579
900.95	8705
901.069	8629
901.189	8549
901.308	8522
901.427	8389
901.546	8488
901.665	8480
901.784	8484
901.904	8389
902.023	8298
902.141	8221
902.26	8206
902.379	8259
902.498	8202
902.617	8172
902.735	8324
902.854	8279
902.973	8267
903.091	8096
903.21	8119
903.328	8259
903.446	8043
903.565	8103
903.683	8180
903.801	8058
903.919	8069
904.038	8164
904.156	8016
904.274	8077
904.392	8008
904.51	8073
904.627	8016
904.745	8126
904.863	8077
904.981	7932
905.098	7925
905.216	7894
905.334	7822
905.451	7902
905.569	7883
905.686	7986
905.803	7898
905.921	7731
906.038	7875
906.155	7780
906.272	7750
906.389	7784
906.506	7620
906.623	7613
906.74	7609
906.857	7563
906.974	7609
907.091	7670
907.208	7647
907.324	7586
907.441	7651
907.557	7506
907.674	7445
907.79	7407
907.907	7339
908.023	7491
908.139	7468
908.256	7445
908.372	7343
908.488	7407
908.604	7266
908.72	7198
908.836	7274
908.952	7266
909.068	7209
909.184	7346
909.3	7259
909.415	7343
909.531	7255
909.647	7065
909.762	7110
909.878	7008
909.993	7072
910.108	7122
910.224	7114
910.339	7114
910.454	7088
910.57	6977
910.685	6973
910.8	7164
910.915	7091
911.03	7008
911.145	6897
911.259	6871
911.374	6829
911.489	6829
911.604	6787
911.718	6677
911.833	6662
911.947	6635
912.062	6597
912.176	6726
912.291	6681
912.405	6688
912.519	6776
912.633	6814
912.748	6696
912.862	6616
912.976	6589
913.09	6521
913.204	6608
913.318	6555
913.431	6620
913.545	6677
913.659	6738
913.772	6688
913.886	6585
914	6551
914.113	6623
914.226	6665
914.34	6616
914.453	6513
914.566	6608
914.68	6513
914.793	6521
914.906	6403
915.019	6372
915.132	6357
915.245	6418
915.358	6433
915.47	6452
915.583	6437
915.696	6422
915.809	6475
915.921	6555
916.034	6475
916.146	6399
916.259	6369
916.371	6448
916.483	6403
916.595	6353
916.708	6388
916.82	6380
916.932	6323
917.044	6372
917.156	6369
917.268	6369
917.38	6353
917.491	6342
917.603	6308
917.715	6388
917.826	6418
917.938	6319
918.049	6224
918.161	6346
918.272	6445
918.384	6361
918.495	6277
918.606	6254
918.717	6235
918.828	6220
918.939	6266
919.05	6201
919.161	6182
919.272	6114
919.383	6121
919.494	6296
919.604	6414
919.715	6319
919.826	6159
919.936	6220
920.047	6334
920.157	6273
920.267	6464
920.378	6300
920.488	6262
920.598	6437
920.708	6589
920.818	6464
920.928	6429
921.038	6593
921.148	6547
921.258	6361
921.368	6334
921.477	6228
921.587	6197
921.697	6110
921.806	6190
921.916	6098
922.025	5939
922.134	5923
922.244	5878
922.353	5931
922.462	5847
922.571	5741
922.68	5665
922.789	5649
922.898	5676
923.007	5638
923.116	5688
923.224	5680
923.333	5638
923.442	5619
923.55	5573
923.659	5611
923.767	5619
923.876	5604
923.984	5551
924.092	5539
924.201	5570
924.309	5547
924.417	5543
924.525	5528
924.633	5490
924.741	6281
924.849	5452
924.956	5455
925.064	5353
925.172	5292
925.279	5296
925.387	5402
925.494	5296
925.602	5425
925.709	5376
925.816	5231
925.924	5334
926.031	5315
926.138	5269
926.245	5337
926.352	5208
926.459	5269
926.566	5311
926.673	5258
926.779	5105
926.886	5086
926.993	5041
927.099	4946
927.206	4957
927.312	4927
927.419	5025
927.525	4911
927.631	4915
927.737	4919
927.843	4862
927.95	4782
928.056	4759
928.162	4809
928.267	4790
928.373	5239
928.479	4835
928.585	4698
928.69	4736
928.796	4748
928.901	4664
929.007	4580
929.112	4634
929.218	4679
929.323	4592
929.428	4527
929.533	4637
929.638	4512
929.743	4504
929.848	4538
929.953	4497
930.058	4424
930.163	4329
930.267	4329
930.372	4413
930.477	4287
930.581	4459
930.685	4329
930.79	4265
930.894	4261
930.998	4238
931.103	4360
931.207	4097
931.311	4059
931.415	4040
931.519	3930
931.623	3907
