Data from glass_V78500241_2003.txt Node
Date: Wed Sep 01 19:28:23 CST 2021
User: usil
Spectrometer: V785-0024
Trigger mode: 0
Integration Time (sec): 4.000000E-1
Scans to average: 1
Nonlinearity correction enabled: false
Boxcar width: 0
Storing dark spectrum: false
XAxis mode: Wavelengths
Number of Pixels in Spectrum: 1024
>>>>>Begin Spectral Data<<<<<
801.071	3724
801.214	3755
801.356	3690
801.499	3690
801.641	3709
801.783	3770
801.926	3854
802.068	3819
802.211	3865
802.353	3888
802.496	3789
802.638	3888
802.78	3903
802.923	3911
803.065	3903
803.208	3819
803.35	3865
803.492	3896
803.635	3857
803.777	3797
803.919	3857
804.061	4139
804.204	3945
804.346	3972
804.488	3911
804.63	4055
804.773	3964
804.915	4051
805.057	4131
805.199	4021
805.341	4036
805.483	4147
805.626	4147
805.768	4109
805.91	4192
806.052	4223
806.194	4223
806.336	4375
806.478	4188
806.62	4154
806.762	4173
806.904	4223
807.046	4318
807.188	4287
807.33	4215
807.472	4246
807.614	4185
807.756	4223
807.898	4181
808.04	4196
808.182	4276
808.324	4329
808.465	4371
808.607	4447
808.749	4402
808.891	4459
809.033	4497
809.174	4363
809.316	4242
809.458	4223
809.6	4059
809.741	4112
809.883	4162
810.025	4185
810.166	4223
810.308	4219
810.45	4242
810.591	4261
810.733	4238
810.875	4500
811.016	4797
811.158	5083
811.299	5311
811.441	5239
811.582	5041
811.724	4653
811.865	4462
812.007	4474
812.148	4443
812.29	4386
812.431	4440
812.573	4383
812.714	4375
812.855	4398
812.997	4459
813.138	4443
813.279	4409
813.421	4360
813.562	4371
813.703	4325
813.845	4337
813.986	4280
814.127	4215
814.268	4295
814.41	4276
814.551	4249
814.692	4280
814.833	4246
814.974	4329
815.115	4348
815.256	4291
815.397	4276
815.539	4261
815.68	4192
815.821	4169
815.962	4341
816.103	4299
816.244	4238
816.385	4204
816.526	4253
816.666	4196
816.807	4135
816.948	4177
817.089	4173
817.23	4154
817.371	4067
817.512	4013
817.653	4090
817.793	4032
817.934	4017
818.075	4032
818.216	4105
818.356	4101
818.497	3956
818.638	3941
818.778	3896
818.919	3876
819.06	3827
819.2	3930
819.341	3918
819.481	3854
819.622	3884
819.762	3991
819.903	3930
820.043	3865
820.184	3819
820.324	3816
820.465	3854
820.605	3835
820.746	3884
820.886	3816
821.026	3922
821.167	3903
821.307	3941
821.447	3918
821.588	3960
821.728	3922
821.868	3915
822.008	3854
822.149	3907
822.289	3884
822.429	3747
822.569	3720
822.709	3812
822.849	3690
822.99	3766
823.13	3728
823.27	3816
823.41	3652
823.55	3724
823.69	3717
823.83	3675
823.97	3656
824.11	3606
824.25	3625
824.389	3675
824.529	3682
824.669	3644
824.809	3698
824.949	3732
825.089	3705
825.228	3713
825.368	3614
825.508	3545
825.648	3561
825.787	3641
825.927	3660
826.067	3610
826.206	3656
826.346	3781
826.485	3827
826.625	3899
826.765	3934
826.904	3808
827.044	3618
827.183	3530
827.323	3378
827.462	3466
827.601	3443
827.741	3443
827.88	3420
828.02	3367
828.159	3428
828.298	3481
828.437	3515
828.577	3466
828.716	3587
828.855	3469
828.994	3412
829.134	3348
829.273	3378
829.412	3336
829.551	3351
829.69	3351
829.829	3435
829.968	3545
830.107	3431
830.246	3412
830.385	3378
830.524	3367
830.663	3283
830.802	3226
830.941	3169
831.08	3150
831.219	3256
831.357	3275
831.496	3424
831.635	3253
831.774	3180
831.913	3127
832.051	3173
832.19	3150
832.329	3180
832.467	3165
832.606	3089
832.744	3180
832.883	3150
833.022	3173
833.16	3283
833.299	3298
833.437	3340
833.576	3325
833.714	3382
833.852	3397
833.991	3454
834.129	3435
834.267	3439
834.406	3370
834.544	3420
834.682	3439
834.821	3420
834.959	3542
835.097	3435
835.235	3538
835.373	3447
835.511	3492
835.65	3447
835.788	3511
835.926	3378
836.064	3367
836.202	3416
836.34	3584
836.478	3595
836.615	3530
836.753	3618
836.891	3652
837.029	3633
837.167	3603
837.305	3534
837.443	3542
837.58	3500
837.718	3591
837.856	3564
837.993	3553
838.131	3595
838.269	3576
838.406	3557
838.544	3545
838.681	3496
838.819	3416
838.956	3370
839.094	3367
839.231	3466
839.369	3534
839.506	3679
839.643	3580
839.781	3492
839.918	3469
840.055	3564
840.193	3496
840.33	3542
840.467	3564
840.604	3606
840.742	3797
840.879	3553
841.016	3568
841.153	3606
841.29	3740
841.427	3740
841.564	3686
841.701	3732
841.838	3686
841.975	3675
842.112	3675
842.249	3652
842.385	3641
842.522	3800
842.659	3682
842.796	3679
842.933	3694
843.069	3698
843.206	3705
843.343	3800
843.479	3736
843.616	3831
843.752	3660
843.889	3694
844.025	3827
844.162	3709
844.298	3808
844.435	3842
844.571	3762
844.708	3888
844.844	3949
844.98	4013
845.117	4029
845.253	3926
845.389	3934
845.525	3979
845.661	3956
845.798	3926
845.934	4036
846.07	3941
846.206	4036
846.342	4166
846.478	4025
846.614	3972
846.75	3922
846.886	3861
847.022	4032
847.158	3968
847.294	4032
847.429	3987
847.565	4017
847.701	4230
847.837	3861
847.972	3835
848.108	3949
848.244	3987
848.379	3835
848.515	3838
848.65	3838
848.786	3838
848.921	3854
849.057	3873
849.192	3926
849.328	3888
849.463	3945
849.598	3876
849.734	3857
849.869	3827
850.004	3785
850.14	3785
850.275	3789
850.41	3766
850.545	3713
850.68	3755
850.815	3747
850.95	3831
851.085	3937
851.22	3876
851.355	3854
851.49	3846
851.625	3827
851.76	3778
851.895	3720
852.03	3736
852.165	3785
852.299	3816
852.434	3953
852.569	3869
852.703	3861
852.838	3926
852.973	4010
853.107	4010
853.242	3888
853.376	3861
853.511	3774
853.645	3812
853.78	3907
853.914	3907
854.048	3896
854.183	3869
854.317	3956
854.451	4048
854.585	3968
854.72	3934
854.854	4017
854.988	3941
855.122	4006
855.256	3880
855.39	4006
855.524	4147
855.658	4086
855.792	4055
855.926	4105
856.06	4101
856.194	4192
856.327	4143
856.461	4101
856.595	4158
856.729	4177
856.862	4272
856.996	4246
857.13	4287
857.263	4329
857.397	4337
857.53	4265
857.664	4371
857.797	4394
857.931	4363
858.064	4405
858.197	4417
858.331	4451
858.464	4394
858.597	4341
858.731	4428
858.864	4428
858.997	4405
859.13	4512
859.263	4523
859.396	4577
859.529	4497
859.662	4523
859.795	4558
859.928	4615
860.061	4706
860.194	4733
860.327	4675
860.46	4622
860.592	4733
860.725	4748
860.858	4812
860.99	4706
861.123	4664
861.256	4683
861.388	4763
861.521	5406
861.653	4710
861.786	4698
861.918	4736
862.05	4782
862.183	4812
862.315	4881
862.447	4927
862.58	4896
862.712	4763
862.844	4763
862.976	4873
863.108	4816
863.24	5166
863.372	4774
863.504	4881
863.636	4934
863.768	4957
863.9	4934
864.032	4942
864.164	4904
864.296	5041
864.428	5094
864.559	5037
864.691	5117
864.823	5166
864.954	5064
865.086	5136
865.217	5197
865.349	5067
865.48	5162
865.612	5250
865.743	5307
865.875	5246
866.006	5174
866.137	5254
866.269	5261
866.4	5208
866.531	5261
866.662	5231
866.793	5227
866.924	5296
867.055	5353
867.186	5299
867.317	5376
867.448	5280
867.579	5417
867.71	5368
867.841	5372
867.972	5471
868.103	5459
868.233	5459
868.364	5486
868.495	5562
868.625	5615
868.756	5756
868.886	5642
869.017	5733
869.147	5847
869.278	5901
869.408	5775
869.539	5821
869.669	5889
869.799	5847
869.929	6034
870.06	5969
870.19	6190
870.32	6186
870.45	6247
870.58	6289
870.71	6498
870.84	6467
870.97	6448
871.1	6467
871.23	6623
871.36	6692
871.489	6684
871.619	6749
871.749	6810
871.879	6818
872.008	6966
872.138	6943
872.267	6939
872.397	6981
872.526	7019
872.656	7107
872.785	7175
872.915	7335
873.044	7525
873.173	7590
873.303	7647
873.432	7757
873.561	7868
873.69	7890
873.819	7970
873.948	8145
874.077	8176
874.206	8320
874.335	8446
874.464	8648
874.593	8864
874.722	8914
874.851	9138
874.979	9222
875.108	9401
875.237	9431
875.365	9507
875.494	9641
875.623	9759
875.751	9816
875.88	10006
876.008	10150
876.136	10234
876.265	10440
876.393	10698
876.521	10767
876.65	10877
876.778	10843
876.906	10908
877.034	11029
877.162	11105
877.29	11124
877.418	11326
877.546	11345
877.674	11452
877.802	11353
877.93	11577
878.058	11535
878.185	11570
878.313	11642
878.441	11688
878.568	11714
878.696	11809
878.824	11870
878.951	11969
879.079	11946
879.206	12076
879.333	12060
879.461	11980
879.588	12098
879.715	12068
879.842	12205
879.97	12057
880.097	11855
880.224	11863
880.351	11901
880.478	11832
880.605	11851
880.732	11832
880.859	12007
880.986	11802
881.112	11878
881.239	11726
881.366	11604
881.493	11596
881.619	11467
881.746	11642
881.872	11535
881.999	11455
882.125	11455
882.252	11615
882.378	11417
882.505	11539
882.631	11356
882.757	11379
882.883	11307
883.01	11189
883.136	11090
883.262	11124
883.388	11071
883.514	11151
883.64	11166
883.766	11178
883.892	10980
884.018	11052
884.143	11075
884.269	11128
884.395	10911
884.52	10721
884.646	10744
884.772	10694
884.897	10656
885.023	10706
885.148	10702
885.274	10744
885.399	10714
885.524	10584
885.65	10584
885.775	10603
885.9	10577
886.025	10584
886.15	10554
886.275	10466
886.4	10360
886.525	10360
886.65	10337
886.775	10329
886.9	10542
887.025	10459
887.149	10325
887.274	10276
887.399	10223
887.523	10230
887.648	10135
887.773	10150
887.897	10166
888.021	10169
888.146	10150
888.27	10280
888.395	10223
888.519	10211
888.643	10192
888.767	10139
888.891	10116
889.015	9945
889.139	10017
889.263	10010
889.387	10071
889.511	10093
889.635	10044
889.759	9983
889.883	9956
890.006	10013
890.13	10139
890.254	9968
890.377	9979
890.501	9846
890.624	9865
890.748	9850
890.871	9755
890.995	9755
891.118	9740
891.241	9812
891.364	9732
891.488	9835
891.611	9728
891.734	9698
891.857	9698
891.98	9679
892.103	9747
892.226	9781
892.349	9728
892.471	9584
892.594	9526
892.717	9580
892.839	9641
892.962	9629
893.085	9652
893.207	9603
893.33	9420
893.452	9595
893.575	9618
893.697	9477
893.819	9660
893.941	9637
894.064	9534
894.186	9389
894.308	9408
894.43	9534
894.552	9549
894.674	9511
894.796	9321
894.918	9397
895.04	9344
895.161	9332
895.283	9329
895.405	9287
895.526	9230
895.648	9313
895.769	9211
895.891	9272
896.012	9260
896.134	9222
896.255	9100
896.376	9116
896.498	9055
896.619	9108
896.74	9089
896.861	9112
896.982	9253
897.103	9264
897.224	9138
897.345	9051
897.466	8975
897.587	8967
897.708	9036
897.828	9028
897.949	8952
898.07	8891
898.19	8918
898.311	9005
898.431	8796
898.552	8902
898.672	8998
898.792	8967
898.913	8872
899.033	8819
899.153	8746
899.273	8613
899.393	8727
899.513	8800
899.633	8743
899.753	8754
899.873	8708
899.993	8754
900.113	8678
900.232	8727
900.352	8705
900.472	8511
900.591	8530
900.711	8552
900.83	8594
900.95	8682
901.069	8762
901.189	8590
901.308	8476
901.427	8347
901.546	8400
901.665	8454
901.784	8465
901.904	8286
902.023	8343
902.141	8286
902.26	8244
902.379	8332
902.498	8206
902.617	8206
902.735	8332
902.854	8339
902.973	8256
903.091	8111
903.21	8100
903.328	8145
903.446	8096
903.565	8016
903.683	8168
903.801	8081
903.919	8161
904.038	8157
904.156	8058
904.274	8062
904.392	8031
904.51	8008
904.627	8065
904.745	8039
904.863	8031
904.981	7898
905.098	7940
905.216	7837
905.334	7864
905.451	7860
905.569	7890
905.686	7921
905.803	7871
905.921	7769
906.038	7868
906.155	7784
906.272	7708
906.389	7708
906.506	7586
906.623	7624
906.74	7605
906.857	7540
906.974	7552
907.091	7681
907.208	7753
907.324	7636
907.441	7590
907.557	7422
907.674	7373
907.79	7403
907.907	7343
908.023	7377
908.139	7362
908.256	7339
908.372	7354
908.488	7312
908.604	7263
908.72	7160
908.836	7266
908.952	7183
909.068	7244
909.184	7278
909.3	7198
909.415	7305
909.531	7255
909.647	7122
909.762	7160
909.878	7091
909.993	7038
910.108	7088
910.224	7103
910.339	7110
910.454	7046
910.57	7027
910.685	6993
910.8	7171
910.915	7103
911.03	6989
911.145	6886
911.259	6890
911.374	6894
911.489	6787
911.604	6741
911.718	6734
911.833	6700
911.947	6658
912.062	6601
912.176	6677
912.291	6806
912.405	6703
912.519	6821
912.633	6818
912.748	6719
912.862	6673
912.976	6601
913.09	6589
913.204	6559
913.318	6669
913.431	6673
913.545	6635
913.659	6722
913.772	6665
913.886	6555
914	6601
914.113	6570
914.226	6623
914.34	6589
914.453	6509
914.566	6521
914.68	6498
914.793	6540
914.906	6365
915.019	6388
915.132	6353
915.245	6376
915.358	6460
915.47	6433
915.583	6509
915.696	6502
915.809	6498
915.921	6471
916.034	6391
916.146	6350
916.259	6388
916.371	6498
916.483	6410
916.595	6418
916.708	6384
916.82	6441
916.932	6369
917.044	6365
917.156	6395
917.268	6319
917.38	6361
917.491	6289
917.603	6372
917.715	6403
917.826	6410
917.938	6323
918.049	6262
918.161	6319
918.272	6361
918.384	6426
918.495	6304
918.606	6243
918.717	6194
918.828	6277
918.939	6273
919.05	6232
919.161	6285
919.272	6159
919.383	6171
919.494	6247
919.604	6353
919.715	6327
919.826	6205
919.936	6235
920.047	6327
920.157	6258
920.267	6407
920.378	6251
920.488	6209
920.598	6460
920.708	6528
920.818	6479
920.928	6490
921.038	6608
921.148	6585
921.258	6380
921.368	6254
921.477	6186
921.587	6148
921.697	6083
921.806	6163
921.916	5977
922.025	5935
922.134	5920
922.244	5897
922.353	5961
922.462	5851
922.571	5783
922.68	5733
922.789	5665
922.898	5688
923.007	5653
923.116	5691
923.224	5642
923.333	5608
923.442	5589
923.55	5547
923.659	5566
923.767	5627
923.876	5535
923.984	5608
924.092	5524
924.201	5516
924.309	5535
924.417	5581
924.525	5482
924.633	5505
924.741	6270
924.849	5376
924.956	5471
925.064	5357
925.172	5284
925.279	5311
925.387	5330
925.494	5334
925.602	5398
925.709	5398
925.816	5296
925.924	5360
926.031	5299
926.138	5284
926.245	5318
926.352	5212
926.459	5280
926.566	5326
926.673	5189
926.779	5159
926.886	5124
926.993	5056
927.099	5025
927.206	4961
927.312	4930
927.419	5025
927.525	5006
927.631	4946
927.737	4820
927.843	4854
927.95	4809
928.056	4824
928.162	4797
928.267	4862
928.373	5258
928.479	4812
928.585	4641
928.69	4721
928.796	4733
928.901	4691
929.007	4588
929.112	4649
929.218	4618
929.323	4577
929.428	4512
929.533	4630
929.638	4519
929.743	4443
929.848	4542
929.953	4561
930.058	4409
930.163	4314
930.267	4337
930.372	4428
930.477	4325
930.581	4466
930.685	4367
930.79	4238
930.894	4303
930.998	4223
931.103	4390
931.207	4131
931.311	4105
931.415	4029
931.519	3934
931.623	3964
