Data from glass_V78500241_783.txt Node
Date: Wed Sep 01 19:19:55 CST 2021
User: usil
Spectrometer: V785-0024
Trigger mode: 0
Integration Time (sec): 4.000000E-1
Scans to average: 1
Nonlinearity correction enabled: false
Boxcar width: 0
Storing dark spectrum: false
XAxis mode: Wavelengths
Number of Pixels in Spectrum: 1024
>>>>>Begin Spectral Data<<<<<
801.071	3755
801.214	3751
801.356	3762
801.499	3778
801.641	3762
801.783	3751
801.926	3861
802.068	3831
802.211	3835
802.353	3926
802.496	3823
802.638	3918
802.78	3884
802.923	3937
803.065	3880
803.208	3823
803.35	3892
803.492	3930
803.635	3899
803.777	3804
803.919	3926
804.061	4211
804.204	3960
804.346	3937
804.488	3949
804.63	4051
804.773	3998
804.915	4002
805.057	4150
805.199	4071
805.341	4101
805.483	4169
805.626	4147
805.768	4112
805.91	4181
806.052	4207
806.194	4230
806.336	4375
806.478	4234
806.62	4181
806.762	4211
806.904	4306
807.046	4356
807.188	4261
807.33	4211
807.472	4196
807.614	4192
807.756	4257
807.898	4207
808.04	4192
808.182	4341
808.324	4390
808.465	4386
808.607	4447
808.749	4481
808.891	4497
809.033	4508
809.174	4428
809.316	4261
809.458	4253
809.6	4143
809.741	4162
809.883	4154
810.025	4196
810.166	4185
810.308	4223
810.45	4253
810.591	4230
810.733	4242
810.875	4527
811.016	4839
811.158	5159
811.299	5296
811.441	5330
811.582	4999
811.724	4729
811.865	4478
812.007	4538
812.148	4402
812.29	4405
812.431	4428
812.573	4447
812.714	4367
812.855	4398
812.997	4459
813.138	4466
813.279	4421
813.421	4390
813.562	4363
813.703	4375
813.845	4360
813.986	4265
814.127	4230
814.268	4303
814.41	4238
814.551	4272
814.692	4314
814.833	4234
814.974	4318
815.115	4360
815.256	4287
815.397	4238
815.539	4265
815.68	4196
815.821	4223
815.962	4329
816.103	4291
816.244	4268
816.385	4234
816.526	4265
816.666	4185
816.807	4063
816.948	4158
817.089	4207
817.23	4158
817.371	4036
817.512	4078
817.653	4055
817.793	4059
817.934	4074
818.075	4131
818.216	4097
818.356	4055
818.497	3994
818.638	3918
818.778	3956
818.919	3907
819.06	3819
819.2	3922
819.341	3880
819.481	3838
819.622	3937
819.762	4059
819.903	3934
820.043	3861
820.184	3876
820.324	3831
820.465	3907
820.605	3869
820.746	3880
820.886	3816
821.026	3968
821.167	3896
821.307	3998
821.447	3983
821.588	3941
821.728	3964
821.868	3953
822.008	3842
822.149	3911
822.289	3979
822.429	3846
822.569	3762
822.709	3816
822.849	3705
822.99	3751
823.13	3797
823.27	3781
823.41	3747
823.55	3709
823.69	3740
823.83	3743
823.97	3675
824.11	3595
824.25	3606
824.389	3641
824.529	3671
824.669	3698
824.809	3690
824.949	3774
825.089	3732
825.228	3736
825.368	3606
825.508	3553
825.648	3572
825.787	3625
825.927	3648
826.067	3641
826.206	3656
826.346	3789
826.485	3819
826.625	3880
826.765	3960
826.904	3816
827.044	3629
827.183	3530
827.323	3462
827.462	3519
827.601	3416
827.741	3443
827.88	3485
828.02	3351
828.159	3424
828.298	3469
828.437	3545
828.577	3500
828.716	3534
828.855	3492
828.994	3378
829.134	3386
829.273	3428
829.412	3386
829.551	3340
829.69	3370
829.829	3450
829.968	3545
830.107	3412
830.246	3447
830.385	3374
830.524	3332
830.663	3275
830.802	3272
830.941	3199
831.08	3199
831.219	3245
831.357	3302
831.496	3431
831.635	3245
831.774	3237
831.913	3207
832.051	3146
832.19	3127
832.329	3192
832.467	3131
832.606	3131
832.744	3173
832.883	3176
833.022	3218
833.16	3291
833.299	3313
833.437	3355
833.576	3351
833.714	3424
833.852	3416
833.991	3454
834.129	3473
834.267	3420
834.406	3409
834.544	3458
834.682	3420
834.821	3443
834.959	3614
835.097	3435
835.235	3534
835.373	3534
835.511	3511
835.65	3477
835.788	3523
835.926	3382
836.064	3359
836.202	3389
836.34	3618
836.478	3584
836.615	3534
836.753	3637
836.891	3629
837.029	3614
837.167	3595
837.305	3572
837.443	3545
837.58	3515
837.718	3576
837.856	3622
837.993	3534
838.131	3606
838.269	3576
838.406	3591
838.544	3629
838.681	3439
838.819	3458
838.956	3313
839.094	3416
839.231	3443
839.369	3542
839.506	3686
839.643	3648
839.781	3511
839.918	3492
840.055	3549
840.193	3545
840.33	3564
840.467	3568
840.604	3599
840.742	3842
840.879	3576
841.016	3572
841.153	3648
841.29	3774
841.427	3759
841.564	3682
841.701	3781
841.838	3720
841.975	3698
842.112	3709
842.249	3641
842.385	3614
842.522	3861
842.659	3675
842.796	3644
842.933	3713
843.069	3694
843.206	3747
843.343	3823
843.479	3819
843.616	3812
843.752	3720
843.889	3690
844.025	3835
844.162	3728
844.298	3854
844.435	3819
844.571	3755
844.708	3937
844.844	3972
844.98	3983
845.117	3979
845.253	3968
845.389	3915
845.525	3994
845.661	4029
845.798	3911
845.934	3972
846.07	4002
846.206	4048
846.342	4120
846.478	4036
846.614	3949
846.75	3953
846.886	3972
847.022	4036
847.158	4021
847.294	3994
847.429	4032
847.565	4002
847.701	4303
847.837	3873
847.972	3873
848.108	3972
848.244	4032
848.379	3876
848.515	3846
848.65	3785
848.786	3827
848.921	3876
849.057	3960
849.192	3956
849.328	3941
849.463	3915
849.598	3915
849.734	3873
849.869	3842
850.004	3831
850.14	3880
850.275	3800
850.41	3713
850.545	3747
850.68	3823
850.815	3797
850.95	3812
851.085	3953
851.22	3869
851.355	3850
851.49	3785
851.625	3778
851.76	3827
851.895	3694
852.03	3740
852.165	3835
852.299	3876
852.434	3907
852.569	3907
852.703	3903
852.838	3964
852.973	3991
853.107	3991
853.242	3907
853.376	3850
853.511	3800
853.645	3873
853.78	4013
853.914	3907
854.048	3945
854.183	3880
854.317	3964
854.451	4105
854.585	3949
854.72	3956
854.854	4017
854.988	3911
855.122	3975
855.256	3911
855.39	4063
855.524	4116
855.658	4090
855.792	4124
855.926	4143
856.06	4185
856.194	4204
856.327	4135
856.461	4105
856.595	4162
856.729	4177
856.862	4303
856.996	4234
857.13	4333
857.263	4375
857.397	4379
857.53	4291
857.664	4371
857.797	4432
857.931	4432
858.064	4409
858.197	4459
858.331	4413
858.464	4398
858.597	4363
858.731	4405
858.864	4497
858.997	4447
859.13	4565
859.263	4569
859.396	4577
859.529	4546
859.662	4580
859.795	4512
859.928	4618
860.061	4698
860.194	4736
860.327	4675
860.46	4641
860.592	4752
860.725	4790
860.858	4812
860.99	4714
861.123	4714
861.256	4702
861.388	4797
861.521	5448
861.653	4748
861.786	4691
861.918	4748
862.05	4801
862.183	4828
862.315	4900
862.447	4915
862.58	4889
862.712	4805
862.844	4771
862.976	4889
863.108	4923
863.24	5265
863.372	4831
863.504	4892
863.636	4900
863.768	4946
863.9	4995
864.032	4915
864.164	4949
864.296	5041
864.428	5086
864.559	5147
864.691	5155
864.823	5109
864.954	5060
865.086	5132
865.217	5124
865.349	5136
865.48	5170
865.612	5166
865.743	5322
865.875	5201
866.006	5151
866.137	5288
866.269	5242
866.4	5303
866.531	5204
866.662	5258
866.793	5318
866.924	5322
867.055	5318
867.186	5330
867.317	5372
867.448	5330
867.579	5376
867.71	5376
867.841	5372
867.972	5493
868.103	5535
868.233	5490
868.364	5467
868.495	5585
868.625	5653
868.756	5760
868.886	5680
869.017	5748
869.147	5908
869.278	5927
869.408	5760
869.539	5840
869.669	5988
869.799	5946
869.929	6011
870.06	5988
870.19	6186
870.32	6182
870.45	6281
870.58	6372
870.71	6456
870.84	6490
870.97	6448
871.1	6460
871.23	6673
871.36	6707
871.489	6681
871.619	6760
871.749	6795
871.879	6806
872.008	7008
872.138	6954
872.267	7004
872.397	7008
872.526	7042
872.656	7088
872.785	7183
872.915	7365
873.044	7521
873.173	7537
873.303	7738
873.432	7757
873.561	7856
873.69	7860
873.819	7993
873.948	8180
874.077	8240
874.206	8381
874.335	8408
874.464	8693
874.593	8861
874.722	8944
874.851	9157
874.979	9256
875.108	9348
875.237	9469
875.365	9526
875.494	9740
875.623	9876
875.751	9804
875.88	9991
876.008	10135
876.136	10204
876.265	10436
876.393	10755
876.521	10675
876.65	10854
876.778	10873
876.906	10991
877.034	10995
877.162	11083
877.29	11136
877.418	11197
877.546	11345
877.674	11398
877.802	11512
877.93	11570
878.058	11497
878.185	11623
878.313	11684
878.441	11653
878.568	11745
878.696	11912
878.824	11889
878.951	11965
879.079	12019
879.206	12133
879.333	12114
879.461	12030
879.588	12098
879.715	12034
879.842	12224
879.97	12106
880.097	11843
880.224	11882
880.351	11878
880.478	11961
880.605	11859
880.732	11885
880.859	11988
880.986	11786
881.112	11942
881.239	11642
881.366	11722
881.493	11611
881.619	11467
881.746	11490
881.872	11535
881.999	11566
882.125	11490
882.252	11642
882.378	11528
882.505	11516
882.631	11425
882.757	11315
882.883	11311
883.01	11303
883.136	11170
883.262	11121
883.388	11086
883.514	11208
883.64	11185
883.766	11155
883.892	11083
884.018	10934
884.143	11124
884.269	11117
884.395	10881
884.52	10786
884.646	10820
884.772	10793
884.897	10569
885.023	10729
885.148	10710
885.274	10774
885.399	10675
885.524	10611
885.65	10622
885.775	10599
885.9	10538
886.025	10637
886.15	10622
886.275	10500
886.4	10337
886.525	10481
886.65	10390
886.775	10386
886.9	10493
887.025	10516
887.149	10356
887.274	10280
887.399	10242
887.523	10128
887.648	10086
887.773	10162
887.897	10253
888.021	10295
888.146	10109
888.27	10196
888.395	10227
888.519	10223
888.643	10276
888.767	10200
888.891	10063
889.015	10032
889.139	10078
889.263	9903
889.387	10135
889.511	10139
889.635	10055
889.759	10040
889.883	10055
890.006	9941
890.13	10185
890.254	9934
890.377	9998
890.501	9888
890.624	9869
890.748	9945
890.871	9850
890.995	9804
891.118	9709
891.241	9785
891.364	9789
891.488	9835
891.611	9747
891.734	9751
891.857	9816
891.98	9728
892.103	9785
892.226	9747
892.349	9701
892.471	9515
892.594	9614
892.717	9614
892.839	9515
892.962	9568
893.085	9625
893.207	9572
893.33	9534
893.452	9629
893.575	9682
893.697	9564
893.819	9557
893.941	9580
894.064	9599
894.186	9534
894.308	9401
894.43	9561
894.552	9595
894.674	9545
894.796	9329
894.918	9408
895.04	9370
895.161	9348
895.283	9386
895.405	9233
895.526	9287
895.648	9321
895.769	9230
895.891	9245
896.012	9355
896.134	9241
896.255	9230
896.376	9169
896.498	9161
896.619	9188
896.74	9207
896.861	9161
896.982	9310
897.103	9275
897.224	9150
897.345	9119
897.466	9047
897.587	9089
897.708	9093
897.828	9062
897.949	8899
898.07	8918
898.19	8864
898.311	9032
898.431	8864
898.552	8948
898.672	9032
898.792	8979
898.913	8906
899.033	8823
899.153	8769
899.273	8674
899.393	8746
899.513	8769
899.633	8731
899.753	8739
899.873	8796
899.993	8838
900.113	8686
900.232	8678
900.352	8693
900.472	8587
900.591	8537
900.711	8575
900.83	8518
900.95	8640
901.069	8766
901.189	8613
901.308	8389
901.427	8427
901.546	8396
901.665	8404
901.784	8511
901.904	8412
902.023	8408
902.141	8176
902.26	8233
902.379	8244
902.498	8176
902.617	8206
902.735	8336
902.854	8339
902.973	8275
903.091	8183
903.21	8191
903.328	8084
903.446	8115
903.565	8039
903.683	8149
903.801	8043
903.919	8107
904.038	8168
904.156	8054
904.274	8111
904.392	8088
904.51	8088
904.627	8065
904.745	8115
904.863	8046
904.981	7936
905.098	7894
905.216	7887
905.334	7925
905.451	7959
905.569	7936
905.686	7944
905.803	7936
905.921	7830
906.038	7845
906.155	7822
906.272	7772
906.389	7704
906.506	7632
906.623	7689
906.74	7590
906.857	7559
906.974	7544
907.091	7681
907.208	7712
907.324	7647
907.441	7624
907.557	7506
907.674	7445
907.79	7346
907.907	7415
908.023	7468
908.139	7422
908.256	7415
908.372	7441
908.488	7411
908.604	7270
908.72	7209
908.836	7266
908.952	7308
909.068	7289
909.184	7274
909.3	7259
909.415	7331
909.531	7354
909.647	7114
909.762	7137
909.878	7019
909.993	7152
910.108	7141
910.224	7046
910.339	7145
910.454	7061
910.57	7042
910.685	6947
910.8	7141
910.915	7084
911.03	7027
911.145	6924
911.259	6901
911.374	6916
911.489	6882
911.604	6787
911.718	6703
911.833	6783
911.947	6673
912.062	6601
912.176	6764
912.291	6764
912.405	6719
912.519	6844
912.633	6814
912.748	6734
912.862	6662
912.976	6642
913.09	6467
913.204	6623
913.318	6597
913.431	6673
913.545	6719
913.659	6745
913.772	6627
913.886	6616
914	6578
914.113	6650
914.226	6654
914.34	6646
914.453	6483
914.566	6635
914.68	6589
914.793	6486
914.906	6445
915.019	6407
915.132	6346
915.245	6384
915.358	6410
915.47	6403
915.583	6498
915.696	6486
915.809	6547
915.921	6566
916.034	6437
916.146	6426
916.259	6426
916.371	6464
916.483	6483
916.595	6361
916.708	6429
916.82	6338
916.932	6422
917.044	6414
917.156	6418
917.268	6323
917.38	6357
917.491	6376
917.603	6311
917.715	6391
917.826	6422
917.938	6346
918.049	6285
918.161	6391
918.272	6372
918.384	6456
918.495	6350
918.606	6220
918.717	6171
918.828	6311
918.939	6342
919.05	6254
919.161	6251
919.272	6136
919.383	6125
919.494	6319
919.604	6414
919.715	6304
919.826	6243
919.936	6292
920.047	6342
920.157	6273
920.267	6437
920.378	6391
920.488	6239
920.598	6467
920.708	6589
920.818	6509
920.928	6494
921.038	6601
921.148	6570
921.258	6410
921.368	6323
921.477	6213
921.587	6167
921.697	6114
921.806	6209
921.916	6114
922.025	5984
922.134	5980
922.244	5901
922.353	5912
922.462	5859
922.571	5824
922.68	5756
922.789	5737
922.898	5760
923.007	5634
923.116	5737
923.224	5665
923.333	5653
923.442	5665
923.55	5608
923.659	5573
923.767	5661
923.876	5524
923.984	5581
924.092	5543
924.201	5634
924.309	5505
924.417	5573
924.525	5520
924.633	5558
924.741	6167
924.849	5402
924.956	5452
925.064	5383
925.172	5307
925.279	5322
925.387	5391
925.494	5372
925.602	5436
925.709	5383
925.816	5265
925.924	5318
926.031	5349
926.138	5334
926.245	5353
926.352	5246
926.459	5353
926.566	5364
926.673	5258
926.779	5189
926.886	5117
926.993	5079
927.099	5033
927.206	5033
927.312	4949
927.419	5067
927.525	4972
927.631	5048
927.737	4927
927.843	4862
927.95	4778
928.056	4877
928.162	4831
928.267	4896
928.373	5353
928.479	4854
928.585	4679
928.69	4839
928.796	4778
928.901	4649
929.007	4592
929.112	4679
929.218	4603
929.323	4611
929.428	4565
929.533	4687
929.638	4569
929.743	4573
929.848	4573
929.953	4550
930.058	4413
930.163	4360
930.267	4352
930.372	4436
930.477	4352
930.581	4493
930.685	4371
930.79	4284
930.894	4314
930.998	4295
931.103	4390
931.207	4135
931.311	4078
931.415	4082
931.519	3953
931.623	3960
