Data from glass_V78500241_2228.txt Node
Date: Wed Sep 01 19:29:56 CST 2021
User: usil
Spectrometer: V785-0024
Trigger mode: 0
Integration Time (sec): 4.000000E-1
Scans to average: 1
Nonlinearity correction enabled: false
Boxcar width: 0
Storing dark spectrum: false
XAxis mode: Wavelengths
Number of Pixels in Spectrum: 1024
>>>>>Begin Spectral Data<<<<<
801.071	3740
801.214	3736
801.356	3694
801.499	3717
801.641	3701
801.783	3713
801.926	3831
802.068	3838
802.211	3819
802.353	3934
802.496	3846
802.638	3861
802.78	3911
802.923	3937
803.065	3915
803.208	3831
803.35	3907
803.492	3899
803.635	3907
803.777	3781
803.919	3907
804.061	4169
804.204	3934
804.346	3949
804.488	3926
804.63	3998
804.773	3949
804.915	3987
805.057	4135
805.199	4006
805.341	4040
805.483	4143
805.626	4162
805.768	4116
805.91	4215
806.052	4192
806.194	4215
806.336	4325
806.478	4238
806.62	4185
806.762	4169
806.904	4272
807.046	4299
807.188	4215
807.33	4185
807.472	4246
807.614	4188
807.756	4257
807.898	4227
808.04	4188
808.182	4276
808.324	4322
808.465	4352
808.607	4421
808.749	4462
808.891	4459
809.033	4428
809.174	4390
809.316	4204
809.458	4249
809.6	4120
809.741	4147
809.883	4143
810.025	4204
810.166	4181
810.308	4215
810.45	4192
810.591	4204
810.733	4276
810.875	4527
811.016	4809
811.158	5128
811.299	5223
811.441	5261
811.582	5075
811.724	4687
811.865	4432
812.007	4447
812.148	4432
812.29	4432
812.431	4394
812.573	4440
812.714	4390
812.855	4409
812.997	4398
813.138	4485
813.279	4455
813.421	4413
813.562	4409
813.703	4337
813.845	4318
813.986	4238
814.127	4211
814.268	4242
814.41	4318
814.551	4215
814.692	4360
814.833	4261
814.974	4268
815.115	4280
815.256	4272
815.397	4204
815.539	4265
815.68	4200
815.821	4200
815.962	4272
816.103	4280
816.244	4280
816.385	4246
816.526	4299
816.666	4200
816.807	4097
816.948	4173
817.089	4128
817.23	4093
817.371	4036
817.512	4074
817.653	4048
817.793	4032
817.934	4032
818.075	4063
818.216	4063
818.356	4071
818.497	4006
818.638	3934
818.778	3918
818.919	3880
819.06	3823
819.2	3888
819.341	3819
819.481	3808
819.622	3903
819.762	3972
819.903	3945
820.043	3842
820.184	3838
820.324	3831
820.465	3873
820.605	3873
820.746	3873
820.886	3812
821.026	3918
821.167	3926
821.307	3987
821.447	3934
821.588	3903
821.728	3926
821.868	3934
822.008	3865
822.149	3907
822.289	3896
822.429	3770
822.569	3778
822.709	3793
822.849	3743
822.99	3743
823.13	3743
823.27	3774
823.41	3743
823.55	3690
823.69	3709
823.83	3705
823.97	3633
824.11	3557
824.25	3568
824.389	3633
824.529	3648
824.669	3591
824.809	3705
824.949	3789
825.089	3736
825.228	3720
825.368	3580
825.508	3576
825.648	3557
825.787	3606
825.927	3641
826.067	3614
826.206	3671
826.346	3770
826.485	3781
826.625	3842
826.765	3949
826.904	3835
827.044	3606
827.183	3545
827.323	3431
827.462	3462
827.601	3435
827.741	3431
827.88	3485
828.02	3382
828.159	3389
828.298	3439
828.437	3477
828.577	3428
828.716	3610
828.855	3447
828.994	3367
829.134	3313
829.273	3367
829.412	3355
829.551	3340
829.69	3336
829.829	3431
829.968	3473
830.107	3397
830.246	3412
830.385	3378
830.524	3351
830.663	3332
830.802	3287
830.941	3188
831.08	3195
831.219	3249
831.357	3256
831.496	3420
831.635	3230
831.774	3188
831.913	3173
832.051	3131
832.19	3112
832.329	3169
832.467	3173
832.606	3119
832.744	3146
832.883	3203
833.022	3222
833.16	3272
833.299	3294
833.437	3317
833.576	3386
833.714	3420
833.852	3458
833.991	3469
834.129	3492
834.267	3393
834.406	3393
834.544	3412
834.682	3389
834.821	3367
834.959	3553
835.097	3420
835.235	3549
835.373	3496
835.511	3496
835.65	3458
835.788	3507
835.926	3363
836.064	3374
836.202	3401
836.34	3538
836.478	3606
836.615	3523
836.753	3576
836.891	3652
837.029	3648
837.167	3576
837.305	3587
837.443	3530
837.58	3492
837.718	3584
837.856	3538
837.993	3526
838.131	3587
838.269	3557
838.406	3549
838.544	3538
838.681	3485
838.819	3473
838.956	3416
839.094	3382
839.231	3454
839.369	3515
839.506	3717
839.643	3648
839.781	3485
839.918	3473
840.055	3515
840.193	3523
840.33	3538
840.467	3568
840.604	3606
840.742	3762
840.879	3549
841.016	3587
841.153	3599
841.29	3789
841.427	3747
841.564	3701
841.701	3732
841.838	3701
841.975	3679
842.112	3705
842.249	3644
842.385	3663
842.522	3812
842.659	3713
842.796	3701
842.933	3690
843.069	3694
843.206	3701
843.343	3793
843.479	3762
843.616	3816
843.752	3728
843.889	3705
844.025	3907
844.162	3717
844.298	3876
844.435	3766
844.571	3778
844.708	3896
844.844	3987
844.98	3983
845.117	4048
845.253	3911
845.389	3873
845.525	3903
845.661	3930
845.798	3915
845.934	4017
846.07	3922
846.206	4059
846.342	4109
846.478	4071
846.614	3975
846.75	3930
846.886	3911
847.022	4032
847.158	3975
847.294	3994
847.429	3960
847.565	4029
847.701	4303
847.837	3869
847.972	3838
848.108	4048
848.244	3964
848.379	3816
848.515	3797
848.65	3800
848.786	3804
848.921	3842
849.057	3907
849.192	3918
849.328	3880
849.463	3968
849.598	3907
849.734	3850
849.869	3812
850.004	3835
850.14	3816
850.275	3762
850.41	3720
850.545	3736
850.68	3789
850.815	3759
850.95	3751
851.085	3903
851.22	3888
851.355	3785
851.49	3785
851.625	3816
851.76	3755
851.895	3743
852.03	3766
852.165	3766
852.299	3816
852.434	3903
852.569	3846
852.703	3838
852.838	3972
852.973	3960
853.107	3979
853.242	3880
853.376	3861
853.511	3762
853.645	3827
853.78	3972
853.914	3926
854.048	3857
854.183	3911
854.317	3903
854.451	4044
854.585	3945
854.72	3949
854.854	4055
854.988	3934
855.122	4010
855.256	3911
855.39	3987
855.524	4097
855.658	4147
855.792	4101
855.926	4097
856.06	4082
856.194	4192
856.327	4112
856.461	4150
856.595	4169
856.729	4185
856.862	4246
856.996	4257
857.13	4310
857.263	4325
857.397	4386
857.53	4291
857.664	4337
857.797	4402
857.931	4390
858.064	4413
858.197	4440
858.331	4363
858.464	4417
858.597	4310
858.731	4405
858.864	4470
858.997	4413
859.13	4531
859.263	4535
859.396	4588
859.529	4531
859.662	4550
859.795	4497
859.928	4565
860.061	4694
860.194	4717
860.327	4656
860.46	4634
860.592	4687
860.725	4771
860.858	4740
860.99	4702
861.123	4660
861.256	4656
861.388	4752
861.521	5425
861.653	4702
861.786	4710
861.918	4755
862.05	4824
862.183	4847
862.315	4877
862.447	4934
862.58	4847
862.712	4809
862.844	4774
862.976	4850
863.108	4881
863.24	5162
863.372	4877
863.504	4843
863.636	4854
863.768	4919
863.9	4942
864.032	4923
864.164	4915
864.296	5010
864.428	5075
864.559	5067
864.691	5105
864.823	5117
864.954	5136
865.086	5140
865.217	5136
865.349	5090
865.48	5159
865.612	5208
865.743	5273
865.875	5239
866.006	5185
866.137	5235
866.269	5208
866.4	5239
866.531	5223
866.662	5220
866.793	5299
866.924	5284
867.055	5360
867.186	5315
867.317	5398
867.448	5337
867.579	5322
867.71	5360
867.841	5372
867.972	5452
868.103	5490
868.233	5482
868.364	5512
868.495	5570
868.625	5661
868.756	5767
868.886	5634
869.017	5714
869.147	5832
869.278	5851
869.408	5771
869.539	5809
869.669	5931
869.799	5851
869.929	5969
870.06	5984
870.19	6190
870.32	6216
870.45	6277
870.58	6350
870.71	6445
870.84	6426
870.97	6376
871.1	6403
871.23	6604
871.36	6662
871.489	6646
871.619	6795
871.749	6814
871.879	6886
872.008	6939
872.138	6890
872.267	6954
872.397	6989
872.526	6996
872.656	7133
872.785	7221
872.915	7373
873.044	7552
873.173	7525
873.303	7636
873.432	7727
873.561	7871
873.69	7887
873.819	8012
873.948	8176
874.077	8256
874.206	8324
874.335	8469
874.464	8667
874.593	8872
874.722	8895
874.851	9123
874.979	9226
875.108	9332
875.237	9382
875.365	9538
875.494	9663
875.623	9835
875.751	9838
875.88	10063
876.008	10200
876.136	10238
876.265	10485
876.393	10694
876.521	10664
876.65	10816
876.778	10816
876.906	10915
877.034	10995
877.162	11064
877.29	11185
877.418	11311
877.546	11379
877.674	11486
877.802	11433
877.93	11486
878.058	11615
878.185	11543
878.313	11596
878.441	11741
878.568	11604
878.696	11714
878.824	11901
878.951	11939
879.079	11954
879.206	12117
879.333	11977
879.461	11935
879.588	12049
879.715	12019
879.842	12205
879.97	12072
880.097	11859
880.224	11874
880.351	11904
880.478	11912
880.605	11859
880.732	11878
880.859	12011
880.986	11741
881.112	11813
881.239	11691
881.366	11634
881.493	11570
881.619	11554
881.746	11611
881.872	11493
881.999	11512
882.125	11421
882.252	11562
882.378	11539
882.505	11509
882.631	11452
882.757	11315
882.883	11364
883.01	11288
883.136	11185
883.262	11155
883.388	11064
883.514	11159
883.64	11170
883.766	11105
883.892	10968
884.018	10957
884.143	11052
884.269	11083
884.395	10862
884.52	10854
884.646	10771
884.772	10672
884.897	10683
885.023	10679
885.148	10755
885.274	10733
885.399	10649
885.524	10611
885.65	10588
885.775	10577
885.9	10538
886.025	10535
886.15	10440
886.275	10451
886.4	10455
886.525	10443
886.65	10291
886.775	10310
886.9	10493
887.025	10466
887.149	10303
887.274	10166
887.399	10162
887.523	10158
887.648	10150
887.773	10093
887.897	10257
888.021	10238
888.146	10120
888.27	10268
888.395	10207
888.519	10211
888.643	10238
888.767	10131
888.891	10063
889.015	10021
889.139	10013
889.263	9979
889.387	10059
889.511	10154
889.635	10116
889.759	9930
889.883	9926
890.006	10025
890.13	10059
890.254	9918
890.377	9937
890.501	9812
890.624	9808
890.748	9819
890.871	9816
890.995	9774
891.118	9728
891.241	9724
891.364	9762
891.488	9823
891.611	9732
891.734	9762
891.857	9812
891.98	9720
892.103	9705
892.226	9785
892.349	9625
892.471	9538
892.594	9545
892.717	9622
892.839	9633
892.962	9614
893.085	9633
893.207	9523
893.33	9485
893.452	9545
893.575	9545
893.697	9496
893.819	9580
893.941	9637
894.064	9507
894.186	9439
894.308	9408
894.43	9526
894.552	9637
894.674	9477
894.796	9363
894.918	9370
895.04	9325
895.161	9458
895.283	9325
895.405	9214
895.526	9131
895.648	9207
895.769	9230
895.891	9260
896.012	9260
896.134	9214
896.255	9157
896.376	9157
896.498	9146
896.619	9093
896.74	9051
896.861	9051
896.982	9237
897.103	9264
897.224	9176
897.345	8990
897.466	9070
897.587	9024
897.708	9089
897.828	8956
897.949	8971
898.07	8819
898.19	8902
898.311	8975
898.431	8887
898.552	8899
898.672	8921
898.792	8933
898.913	8914
899.033	8845
899.153	8781
899.273	8697
899.393	8689
899.513	8712
899.633	8705
899.753	8800
899.873	8693
899.993	8720
900.113	8655
900.232	8766
900.352	8613
900.472	8644
900.591	8678
900.711	8610
900.83	8495
900.95	8617
901.069	8640
901.189	8617
901.308	8431
901.427	8370
901.546	8385
901.665	8381
901.784	8526
901.904	8408
902.023	8374
902.141	8168
902.26	8191
902.379	8282
902.498	8199
902.617	8187
902.735	8263
902.854	8267
902.973	8233
903.091	8183
903.21	8145
903.328	8123
903.446	8123
903.565	8092
903.683	8126
903.801	7997
903.919	8123
904.038	8134
904.156	8016
904.274	8077
904.392	8039
904.51	8077
904.627	8069
904.745	8145
904.863	8062
904.981	7917
905.098	7852
905.216	7833
905.334	7868
905.451	7887
905.569	7925
905.686	7940
905.803	7841
905.921	7757
906.038	7841
906.155	7746
906.272	7731
906.389	7696
906.506	7658
906.623	7605
906.74	7556
906.857	7529
906.974	7609
907.091	7658
907.208	7613
907.324	7658
907.441	7567
907.557	7449
907.674	7426
907.79	7392
907.907	7430
908.023	7457
908.139	7422
908.256	7369
908.372	7316
908.488	7339
908.604	7259
908.72	7187
908.836	7251
908.952	7247
909.068	7293
909.184	7266
909.3	7209
909.415	7251
909.531	7312
909.647	7091
909.762	7168
909.878	7099
909.993	7069
910.108	7076
910.224	7122
910.339	7069
910.454	7099
910.57	7031
910.685	6916
910.8	7141
910.915	7164
911.03	7061
911.145	6909
911.259	6829
911.374	6905
911.489	6814
911.604	6764
911.718	6764
911.833	6719
911.947	6658
912.062	6616
912.176	6646
912.291	6764
912.405	6703
912.519	6814
912.633	6818
912.748	6677
912.862	6711
912.976	6620
913.09	6513
913.204	6635
913.318	6642
913.431	6665
913.545	6684
913.659	6669
913.772	6627
913.886	6536
914	6540
914.113	6597
914.226	6650
914.34	6597
914.453	6544
914.566	6601
914.68	6471
914.793	6506
914.906	6391
915.019	6422
915.132	6445
915.245	6346
915.358	6384
915.47	6426
915.583	6471
915.696	6418
915.809	6494
915.921	6525
916.034	6380
916.146	6357
916.259	6350
916.371	6479
916.483	6418
916.595	6388
916.708	6403
916.82	6407
916.932	6357
917.044	6365
917.156	6327
917.268	6372
917.38	6361
917.491	6273
917.603	6327
917.715	6391
917.826	6429
917.938	6311
918.049	6213
918.161	6369
918.272	6346
918.384	6407
918.495	6300
918.606	6254
918.717	6197
918.828	6235
918.939	6331
919.05	6220
919.161	6228
919.272	6159
919.383	6136
919.494	6247
919.604	6391
919.715	6285
919.826	6178
919.936	6258
920.047	6289
920.157	6281
920.267	6437
920.378	6357
920.488	6224
920.598	6456
920.708	6525
920.818	6475
920.928	6464
921.038	6570
921.148	6589
921.258	6376
921.368	6285
921.477	6247
921.587	6197
921.697	6076
921.806	6152
921.916	6102
922.025	5996
922.134	5920
922.244	5878
922.353	5904
922.462	5821
922.571	5790
922.68	5691
922.789	5668
922.898	5627
923.007	5627
923.116	5653
923.224	5703
923.333	5714
923.442	5570
923.55	5520
923.659	5528
923.767	5615
923.876	5543
923.984	5596
924.092	5566
924.201	5554
924.309	5543
924.417	5528
924.525	5474
924.633	5471
924.741	6228
924.849	5345
924.956	5444
925.064	5345
925.172	5280
925.279	5269
925.387	5345
925.494	5311
925.602	5459
925.709	5376
925.816	5254
925.924	5284
926.031	5349
926.138	5231
926.245	5326
926.352	5181
926.459	5311
926.566	5337
926.673	5246
926.779	5140
926.886	5105
926.993	5052
927.099	4987
927.206	4927
927.312	4896
927.419	4999
927.525	5010
927.631	4927
927.737	4892
927.843	4892
927.95	4767
928.056	4767
928.162	4801
928.267	4820
928.373	5353
928.479	4854
928.585	4702
928.69	4801
928.796	4763
928.901	4653
929.007	4618
929.112	4664
929.218	4637
929.323	4603
929.428	4546
929.533	4641
929.638	4531
929.743	4523
929.848	4554
929.953	4508
930.058	4443
930.163	4322
930.267	4318
930.372	4440
930.477	4318
930.581	4432
930.685	4356
930.79	4276
930.894	4230
930.998	4257
931.103	4352
931.207	4086
931.311	4036
931.415	3998
931.519	3979
931.623	3949
