Data from glass_V78500241_828.txt Node
Date: Wed Sep 01 19:20:14 CST 2021
User: usil
Spectrometer: V785-0024
Trigger mode: 0
Integration Time (sec): 4.000000E-1
Scans to average: 1
Nonlinearity correction enabled: false
Boxcar width: 0
Storing dark spectrum: false
XAxis mode: Wavelengths
Number of Pixels in Spectrum: 1024
>>>>>Begin Spectral Data<<<<<
801.071	3778
801.214	3720
801.356	3728
801.499	3774
801.641	3816
801.783	3797
801.926	3892
802.068	3850
802.211	3865
802.353	3896
802.496	3857
802.638	3854
802.78	3953
802.923	3915
803.065	3888
803.208	3861
803.35	3880
803.492	3934
803.635	3960
803.777	3831
803.919	3861
804.061	4219
804.204	3941
804.346	3983
804.488	3968
804.63	4036
804.773	4013
804.915	4025
805.057	4154
805.199	4029
805.341	4131
805.483	4147
805.626	4124
805.768	4162
805.91	4188
806.052	4246
806.194	4223
806.336	4390
806.478	4219
806.62	4246
806.762	4219
806.904	4261
807.046	4303
807.188	4192
807.33	4162
807.472	4280
807.614	4162
807.756	4291
807.898	4227
808.04	4257
808.182	4333
808.324	4352
808.465	4402
808.607	4440
808.749	4440
808.891	4424
809.033	4519
809.174	4390
809.316	4295
809.458	4272
809.6	4158
809.741	4150
809.883	4158
810.025	4230
810.166	4185
810.308	4246
810.45	4261
810.591	4265
810.733	4284
810.875	4489
811.016	4801
811.158	5117
811.299	5254
811.441	5254
811.582	5060
811.724	4725
811.865	4443
812.007	4462
812.148	4462
812.29	4402
812.431	4405
812.573	4390
812.714	4337
812.855	4413
812.997	4466
813.138	4481
813.279	4379
813.421	4379
813.562	4413
813.703	4390
813.845	4344
813.986	4261
814.127	4207
814.268	4287
814.41	4318
814.551	4276
814.692	4341
814.833	4287
814.974	4325
815.115	4303
815.256	4333
815.397	4223
815.539	4249
815.68	4204
815.821	4249
815.962	4348
816.103	4295
816.244	4230
816.385	4249
816.526	4287
816.666	4211
816.807	4090
816.948	4223
817.089	4211
817.23	4143
817.371	4074
817.512	4082
817.653	4093
817.793	4074
817.934	4067
818.075	4097
818.216	4067
818.356	4109
818.497	4017
818.638	3918
818.778	3930
818.919	3915
819.06	3876
819.2	3949
819.341	3896
819.481	3823
819.622	3896
819.762	4025
819.903	4021
820.043	3842
820.184	3823
820.324	3850
820.465	3892
820.605	3896
820.746	3880
820.886	3831
821.026	3979
821.167	3934
821.307	3991
821.447	3987
821.588	4002
821.728	3934
821.868	3983
822.008	3907
822.149	3945
822.289	3918
822.429	3808
822.569	3823
822.709	3808
822.849	3682
822.99	3766
823.13	3755
823.27	3747
823.41	3759
823.55	3740
823.69	3724
823.83	3728
823.97	3682
824.11	3625
824.25	3584
824.389	3618
824.529	3713
824.669	3679
824.809	3717
824.949	3728
825.089	3759
825.228	3740
825.368	3572
825.508	3568
825.648	3576
825.787	3625
825.927	3622
826.067	3633
826.206	3671
826.346	3816
826.485	3819
826.625	3880
826.765	3945
826.904	3838
827.044	3625
827.183	3549
827.323	3439
827.462	3485
827.601	3424
827.741	3435
827.88	3443
828.02	3393
828.159	3462
828.298	3504
828.437	3530
828.577	3496
828.716	3625
828.855	3500
828.994	3405
829.134	3397
829.273	3412
829.412	3317
829.551	3306
829.69	3332
829.829	3450
829.968	3545
830.107	3485
830.246	3462
830.385	3412
830.524	3359
830.663	3294
830.802	3256
830.941	3222
831.08	3192
831.219	3298
831.357	3245
831.496	3386
831.635	3272
831.774	3218
831.913	3237
832.051	3154
832.19	3135
832.329	3226
832.467	3127
832.606	3104
832.744	3199
832.883	3211
833.022	3203
833.16	3283
833.299	3283
833.437	3294
833.576	3355
833.714	3450
833.852	3439
833.991	3454
834.129	3450
834.267	3428
834.406	3428
834.544	3420
834.682	3431
834.821	3401
834.959	3568
835.097	3443
835.235	3534
835.373	3500
835.511	3492
835.65	3481
835.788	3458
835.926	3409
836.064	3397
836.202	3412
836.34	3561
836.478	3641
836.615	3526
836.753	3629
836.891	3679
837.029	3633
837.167	3610
837.305	3572
837.443	3519
837.58	3515
837.718	3599
837.856	3568
837.993	3572
838.131	3580
838.269	3564
838.406	3591
838.544	3568
838.681	3466
838.819	3488
838.956	3370
839.094	3389
839.231	3450
839.369	3500
839.506	3793
839.643	3652
839.781	3507
839.918	3477
840.055	3504
840.193	3530
840.33	3553
840.467	3587
840.604	3622
840.742	3842
840.879	3538
841.016	3614
841.153	3599
841.29	3781
841.427	3728
841.564	3736
841.701	3709
841.838	3709
841.975	3675
842.112	3743
842.249	3633
842.385	3637
842.522	3812
842.659	3698
842.796	3671
842.933	3755
843.069	3747
843.206	3728
843.343	3808
843.479	3778
843.616	3816
843.752	3698
843.889	3652
844.025	3869
844.162	3675
844.298	3850
844.435	3808
844.571	3835
844.708	3930
844.844	4010
844.98	4044
845.117	4006
845.253	3926
845.389	3903
845.525	3987
845.661	3972
845.798	3964
845.934	4040
846.07	3949
846.206	4021
846.342	4135
846.478	4090
846.614	3979
846.75	3956
846.886	3907
847.022	4063
847.158	3975
847.294	4006
847.429	4051
847.565	3964
847.701	4234
847.837	3896
847.972	3884
848.108	4013
848.244	3998
848.379	3846
848.515	3804
848.65	3880
848.786	3819
848.921	3846
849.057	3911
849.192	3915
849.328	3873
849.463	3926
849.598	3884
849.734	3846
849.869	3857
850.004	3804
850.14	3854
850.275	3789
850.41	3766
850.545	3785
850.68	3816
850.815	3827
850.95	3819
851.085	3941
851.22	3865
851.355	3842
851.49	3816
851.625	3793
851.76	3812
851.895	3732
852.03	3747
852.165	3846
852.299	3857
852.434	3930
852.569	3880
852.703	3915
852.838	3907
852.973	3991
853.107	4055
853.242	3884
853.376	3838
853.511	3785
853.645	3846
853.78	3998
853.914	3915
854.048	3922
854.183	3911
854.317	4025
854.451	4093
854.585	3945
854.72	3956
854.854	4048
854.988	3930
855.122	3983
855.256	3937
855.39	4013
855.524	4131
855.658	4112
855.792	4055
855.926	4120
856.06	4188
856.194	4219
856.327	4112
856.461	4120
856.595	4158
856.729	4196
856.862	4303
856.996	4265
857.13	4318
857.263	4318
857.397	4318
857.53	4268
857.664	4371
857.797	4409
857.931	4409
858.064	4405
858.197	4481
858.331	4440
858.464	4390
858.597	4360
858.731	4421
858.864	4478
858.997	4432
859.13	4538
859.263	4531
859.396	4577
859.529	4538
859.662	4527
859.795	4550
859.928	4660
860.061	4706
860.194	4763
860.327	4618
860.46	4622
860.592	4736
860.725	4748
860.858	4793
860.99	4668
861.123	4733
861.256	4668
861.388	4767
861.521	5448
861.653	4706
861.786	4736
861.918	4752
862.05	4801
862.183	4835
862.315	4847
862.447	4953
862.58	4908
862.712	4809
862.844	4767
862.976	4858
863.108	4873
863.24	5261
863.372	4805
863.504	4904
863.636	4847
863.768	4984
863.9	4991
864.032	4942
864.164	4911
864.296	5037
864.428	5109
864.559	5079
864.691	5159
864.823	5083
864.954	5113
865.086	5143
865.217	5124
865.349	5151
865.48	5132
865.612	5197
865.743	5288
865.875	5204
866.006	5147
866.137	5235
866.269	5235
866.4	5273
866.531	5284
866.662	5231
866.793	5303
866.924	5299
867.055	5353
867.186	5360
867.317	5353
867.448	5326
867.579	5391
867.71	5379
867.841	5345
867.972	5471
868.103	5436
868.233	5486
868.364	5497
868.495	5581
868.625	5665
868.756	5786
868.886	5703
869.017	5733
869.147	5840
869.278	5912
869.408	5748
869.539	5870
869.669	5961
869.799	5882
869.929	6022
870.06	6026
870.19	6209
870.32	6159
870.45	6258
870.58	6361
870.71	6437
870.84	6486
870.97	6399
871.1	6498
871.23	6654
871.36	6684
871.489	6665
871.619	6741
871.749	6818
871.879	6886
872.008	6924
872.138	6996
872.267	6973
872.397	7023
872.526	7050
872.656	7168
872.785	7270
872.915	7362
873.044	7499
873.173	7487
873.303	7655
873.432	7772
873.561	7917
873.69	7944
873.819	8001
873.948	8130
874.077	8225
874.206	8381
874.335	8511
874.464	8625
874.593	8853
874.722	8883
874.851	9173
874.979	9184
875.108	9397
875.237	9355
875.365	9523
875.494	9629
875.623	9869
875.751	9797
875.88	10063
876.008	10143
876.136	10306
876.265	10478
876.393	10835
876.521	10736
876.65	10847
876.778	10847
876.906	10900
877.034	10934
877.162	11124
877.29	11254
877.418	11345
877.546	11345
877.674	11436
877.802	11448
877.93	11448
878.058	11615
878.185	11547
878.313	11695
878.441	11714
878.568	11657
878.696	11726
878.824	11847
878.951	11946
879.079	12015
879.206	12190
879.333	12053
879.461	11969
879.588	12129
879.715	12125
879.842	12171
879.97	12087
880.097	11878
880.224	11885
880.351	11939
880.478	11859
880.605	11798
880.732	11832
880.859	11961
880.986	11870
881.112	11893
881.239	11779
881.366	11767
881.493	11589
881.619	11532
881.746	11539
881.872	11566
881.999	11554
882.125	11501
882.252	11627
882.378	11486
882.505	11566
882.631	11296
882.757	11349
882.883	11311
883.01	11269
883.136	11140
883.262	11140
883.388	11094
883.514	11288
883.64	11174
883.766	11132
883.892	10949
884.018	10999
884.143	11136
884.269	11060
884.395	10896
884.52	10748
884.646	10820
884.772	10710
884.897	10702
885.023	10672
885.148	10782
885.274	10809
885.399	10702
885.524	10626
885.65	10538
885.775	10626
885.9	10546
886.025	10580
886.15	10630
886.275	10432
886.4	10402
886.525	10421
886.65	10356
886.775	10352
886.9	10512
887.025	10577
887.149	10287
887.274	10215
887.399	10238
887.523	10173
887.648	10128
887.773	10097
887.897	10265
888.021	10310
888.146	10162
888.27	10246
888.395	10223
888.519	10169
888.643	10238
888.767	10162
888.891	10124
889.015	10021
889.139	9983
889.263	9945
889.387	10090
889.511	10078
889.635	10116
889.759	9994
889.883	10055
890.006	9964
890.13	10139
890.254	9934
890.377	9922
890.501	9842
890.624	9827
890.748	9854
890.871	9831
890.995	9740
891.118	9774
891.241	9747
891.364	9766
891.488	9789
891.611	9854
891.734	9701
891.857	9743
891.98	9804
892.103	9789
892.226	9740
892.349	9698
892.471	9557
892.594	9545
892.717	9603
892.839	9599
892.962	9618
893.085	9629
893.207	9618
893.33	9481
893.452	9561
893.575	9660
893.697	9534
893.819	9660
893.941	9690
894.064	9606
894.186	9443
894.308	9374
894.43	9580
894.552	9660
894.674	9557
894.796	9348
894.918	9416
895.04	9382
895.161	9382
895.283	9332
895.405	9268
895.526	9241
895.648	9222
895.769	9169
895.891	9268
896.012	9268
896.134	9245
896.255	9203
896.376	9203
896.498	9173
896.619	9100
896.74	9081
896.861	9135
896.982	9302
897.103	9321
897.224	9188
897.345	9089
897.466	9028
897.587	9009
897.708	9116
897.828	9104
897.949	8979
898.07	8979
898.19	8891
898.311	9043
898.431	8925
898.552	8891
898.672	8941
898.792	9013
898.913	8918
899.033	8823
899.153	8750
899.273	8640
899.393	8823
899.513	8697
899.633	8788
899.753	8773
899.873	8644
899.993	8750
900.113	8651
900.232	8708
900.352	8701
900.472	8621
900.591	8514
900.711	8629
900.83	8537
900.95	8663
901.069	8735
901.189	8568
901.308	8431
901.427	8431
901.546	8377
901.665	8488
901.784	8495
901.904	8473
902.023	8309
902.141	8279
902.26	8275
902.379	8309
902.498	8252
902.617	8256
902.735	8279
902.854	8339
902.973	8279
903.091	8073
903.21	8115
903.328	8096
903.446	8084
903.565	8081
903.683	8100
903.801	8081
903.919	8077
904.038	8126
904.156	8062
904.274	8073
904.392	8065
904.51	8084
904.627	8008
904.745	8103
904.863	8153
904.981	7947
905.098	7875
905.216	7879
905.334	7883
905.451	7879
905.569	7879
905.686	7967
905.803	7970
905.921	7746
906.038	7894
906.155	7776
906.272	7693
906.389	7780
906.506	7639
906.623	7594
906.74	7590
906.857	7529
906.974	7544
907.091	7723
907.208	7700
907.324	7628
907.441	7601
907.557	7464
907.674	7438
907.79	7415
907.907	7487
908.023	7441
908.139	7403
908.256	7434
908.372	7369
908.488	7388
908.604	7301
908.72	7232
908.836	7350
908.952	7278
909.068	7247
909.184	7335
909.3	7266
909.415	7354
909.531	7278
909.647	7149
909.762	7114
909.878	7110
909.993	7118
910.108	7160
910.224	7088
910.339	7084
910.454	7031
910.57	7099
910.685	6939
910.8	7171
910.915	7114
911.03	7046
911.145	6928
911.259	6825
911.374	6882
911.489	6821
911.604	6825
911.718	6719
911.833	6779
911.947	6612
912.062	6608
912.176	6673
912.291	6738
912.405	6665
912.519	6856
912.633	6837
912.748	6753
912.862	6707
912.976	6616
913.09	6517
913.204	6627
913.318	6601
913.431	6711
913.545	6681
913.659	6745
913.772	6665
913.886	6540
914	6551
914.113	6635
914.226	6642
914.34	6593
914.453	6490
914.566	6585
914.68	6578
914.793	6551
914.906	6410
915.019	6346
915.132	6361
915.245	6429
915.358	6429
915.47	6418
915.583	6483
915.696	6547
915.809	6536
915.921	6544
916.034	6384
916.146	6418
916.259	6414
916.371	6486
916.483	6433
916.595	6448
916.708	6418
916.82	6456
916.932	6376
917.044	6410
917.156	6403
917.268	6353
917.38	6331
917.491	6308
917.603	6357
917.715	6365
917.826	6448
917.938	6285
918.049	6304
918.161	6319
918.272	6448
918.384	6452
918.495	6369
918.606	6224
918.717	6152
918.828	6346
918.939	6311
919.05	6216
919.161	6243
919.272	6152
919.383	6201
919.494	6319
919.604	6410
919.715	6289
919.826	6239
919.936	6270
920.047	6350
920.157	6254
920.267	6445
920.378	6338
920.488	6292
920.598	6464
920.708	6608
920.818	6532
920.928	6479
921.038	6604
921.148	6616
921.258	6414
921.368	6365
921.477	6194
921.587	6171
921.697	6083
921.806	6216
921.916	6095
922.025	5901
922.134	5901
922.244	5874
922.353	5988
922.462	5893
922.571	5790
922.68	5752
922.789	5665
922.898	5668
923.007	5661
923.116	5688
923.224	5688
923.333	5756
923.442	5604
923.55	5589
923.659	5604
923.767	5608
923.876	5608
923.984	5585
924.092	5570
924.201	5596
924.309	5551
924.417	5562
924.525	5463
924.633	5528
924.741	6144
924.849	5360
924.956	5478
925.064	5395
925.172	5341
925.279	5296
925.387	5334
925.494	5379
925.602	5402
925.709	5406
925.816	5318
925.924	5307
926.031	5353
926.138	5269
926.245	5307
926.352	5299
926.459	5341
926.566	5269
926.673	5246
926.779	5151
926.886	5178
926.993	5033
927.099	5045
927.206	4976
927.312	4999
927.419	5045
927.525	4957
927.631	5033
927.737	4927
927.843	4835
927.95	4828
928.056	4828
928.162	4809
928.267	4892
928.373	5391
928.479	4889
928.585	4611
928.69	4843
928.796	4759
928.901	4702
929.007	4603
929.112	4691
929.218	4630
929.323	4645
929.428	4573
929.533	4664
929.638	4546
929.743	4550
929.848	4550
929.953	4561
930.058	4478
930.163	4352
930.267	4375
930.372	4390
930.477	4333
930.581	4447
930.685	4383
930.79	4246
930.894	4333
930.998	4249
931.103	4352
931.207	4147
931.311	4097
931.415	4025
931.519	3915
931.623	3926
