Data from glass_V78500241_266.txt Node
Date: Wed Sep 01 19:16:20 CST 2021
User: usil
Spectrometer: V785-0024
Trigger mode: 0
Integration Time (sec): 4.000000E-1
Scans to average: 1
Nonlinearity correction enabled: false
Boxcar width: 0
Storing dark spectrum: false
XAxis mode: Wavelengths
Number of Pixels in Spectrum: 1024
>>>>>Begin Spectral Data<<<<<
801.071	3755
801.214	3755
801.356	3675
801.499	3740
801.641	3732
801.783	3747
801.926	3915
802.068	3869
802.211	3816
802.353	3922
802.496	3838
802.638	3941
802.78	3918
802.923	3949
803.065	3899
803.208	3907
803.35	3918
803.492	3911
803.635	3899
803.777	3827
803.919	3892
804.061	4162
804.204	3956
804.346	3937
804.488	3941
804.63	4036
804.773	3979
804.915	4055
805.057	4128
805.199	4093
805.341	4135
805.483	4162
805.626	4131
805.768	4128
805.91	4230
806.052	4238
806.194	4211
806.336	4322
806.478	4253
806.62	4188
806.762	4169
806.904	4287
807.046	4356
807.188	4238
807.33	4200
807.472	4257
807.614	4181
807.756	4268
807.898	4253
808.04	4227
808.182	4299
808.324	4379
808.465	4394
808.607	4470
808.749	4447
808.891	4478
809.033	4504
809.174	4421
809.316	4268
809.458	4219
809.6	4177
809.741	4150
809.883	4158
810.025	4253
810.166	4223
810.308	4261
810.45	4314
810.591	4291
810.733	4299
810.875	4493
811.016	4835
811.158	5113
811.299	5322
811.441	5326
811.582	5151
811.724	4714
811.865	4497
812.007	4485
812.148	4440
812.29	4421
812.431	4440
812.573	4421
812.714	4375
812.855	4413
812.997	4383
813.138	4512
813.279	4417
813.421	4375
813.562	4402
813.703	4379
813.845	4337
813.986	4276
814.127	4223
814.268	4284
814.41	4322
814.551	4287
814.692	4272
814.833	4287
814.974	4299
815.115	4375
815.256	4287
815.397	4265
815.539	4306
815.68	4204
815.821	4246
815.962	4306
816.103	4253
816.244	4261
816.385	4238
816.526	4284
816.666	4234
816.807	4101
816.948	4227
817.089	4192
817.23	4169
817.371	4051
817.512	4013
817.653	4086
817.793	4086
817.934	4029
818.075	4131
818.216	4105
818.356	4112
818.497	3979
818.638	3949
818.778	3892
818.919	3873
819.06	3869
819.2	3937
819.341	3903
819.481	3873
819.622	3918
819.762	4013
819.903	3991
820.043	3861
820.184	3873
820.324	3823
820.465	3888
820.605	3880
820.746	3896
820.886	3835
821.026	3926
821.167	3926
821.307	3968
821.447	4010
821.588	3941
821.728	3964
821.868	3934
822.008	3888
822.149	3930
822.289	3968
822.429	3797
822.569	3797
822.709	3816
822.849	3701
822.99	3728
823.13	3774
823.27	3850
823.41	3690
823.55	3751
823.69	3713
823.83	3793
823.97	3679
824.11	3622
824.25	3610
824.389	3667
824.529	3671
824.669	3671
824.809	3709
824.949	3766
825.089	3766
825.228	3720
825.368	3564
825.508	3591
825.648	3587
825.787	3614
825.927	3603
826.067	3641
826.206	3720
826.346	3827
826.485	3892
826.625	3888
826.765	3949
826.904	3842
827.044	3591
827.183	3523
827.323	3454
827.462	3454
827.601	3435
827.741	3416
827.88	3454
828.02	3389
828.159	3462
828.298	3534
828.437	3530
828.577	3496
828.716	3603
828.855	3538
828.994	3393
829.134	3389
829.273	3355
829.412	3336
829.551	3351
829.69	3401
829.829	3428
829.968	3530
830.107	3485
830.246	3420
830.385	3363
830.524	3359
830.663	3351
830.802	3268
830.941	3176
831.08	3245
831.219	3260
831.357	3291
831.496	3393
831.635	3226
831.774	3222
831.913	3214
832.051	3161
832.19	3176
832.329	3203
832.467	3131
832.606	3157
832.744	3211
832.883	3218
833.022	3211
833.16	3287
833.299	3336
833.437	3317
833.576	3412
833.714	3416
833.852	3469
833.991	3412
834.129	3469
834.267	3439
834.406	3412
834.544	3447
834.682	3477
834.821	3428
834.959	3568
835.097	3450
835.235	3542
835.373	3542
835.511	3515
835.65	3473
835.788	3542
835.926	3409
836.064	3397
836.202	3428
836.34	3553
836.478	3614
836.615	3572
836.753	3603
836.891	3618
837.029	3644
837.167	3629
837.305	3515
837.443	3576
837.58	3469
837.718	3606
837.856	3576
837.993	3572
838.131	3564
838.269	3610
838.406	3603
838.544	3553
838.681	3526
838.819	3488
838.956	3393
839.094	3401
839.231	3473
839.369	3530
839.506	3766
839.643	3629
839.781	3515
839.918	3515
840.055	3542
840.193	3530
840.33	3530
840.467	3584
840.604	3591
840.742	3838
840.879	3553
841.016	3591
841.153	3595
841.29	3762
841.427	3724
841.564	3736
841.701	3762
841.838	3717
841.975	3667
842.112	3762
842.249	3667
842.385	3625
842.522	3854
842.659	3713
842.796	3656
842.933	3709
843.069	3736
843.206	3755
843.343	3850
843.479	3781
843.616	3892
843.752	3682
843.889	3644
844.025	3876
844.162	3717
844.298	3854
844.435	3751
844.571	3778
844.708	3915
844.844	4021
844.98	4040
845.117	3975
845.253	3926
845.389	3903
845.525	3964
845.661	3994
845.798	3975
845.934	3998
846.07	3956
846.206	4040
846.342	4090
846.478	4055
846.614	3983
846.75	3979
846.886	3930
847.022	4021
847.158	3994
847.294	4025
847.429	4036
847.565	4048
847.701	4249
847.837	3937
847.972	3873
848.108	4010
848.244	3998
848.379	3907
848.515	3857
848.65	3835
848.786	3842
848.921	3873
849.057	3926
849.192	3907
849.328	3888
849.463	3941
849.598	3922
849.734	3827
849.869	3865
850.004	3819
850.14	3835
850.275	3812
850.41	3728
850.545	3793
850.68	3812
850.815	3800
850.95	3797
851.085	3934
851.22	3903
851.355	3861
851.49	3819
851.625	3804
851.76	3816
851.895	3766
852.03	3774
852.165	3846
852.299	3869
852.434	3915
852.569	3888
852.703	3922
852.838	3930
852.973	4048
853.107	3960
853.242	3869
853.376	3850
853.511	3770
853.645	3884
853.78	3972
853.914	3876
854.048	3888
854.183	3941
854.317	3934
854.451	4063
854.585	3979
854.72	3945
854.854	4036
854.988	3922
855.122	4021
855.256	3964
855.39	4032
855.524	4112
855.658	4112
855.792	4055
855.926	4154
856.06	4181
856.194	4215
856.327	4154
856.461	4120
856.595	4211
856.729	4219
856.862	4322
856.996	4284
857.13	4280
857.263	4337
857.397	4341
857.53	4280
857.664	4379
857.797	4398
857.931	4405
858.064	4394
858.197	4478
858.331	4413
858.464	4386
858.597	4398
858.731	4481
858.864	4478
858.997	4474
859.13	4535
859.263	4538
859.396	4569
859.529	4554
859.662	4558
859.795	4527
859.928	4599
860.061	4714
860.194	4763
860.327	4664
860.46	4615
860.592	4774
860.725	4748
860.858	4774
860.99	4744
861.123	4748
861.256	4668
861.388	4824
861.521	5330
861.653	4748
861.786	4653
861.918	4706
862.05	4797
862.183	4831
862.315	4900
862.447	4942
862.58	4900
862.712	4793
862.844	4790
862.976	4930
863.108	4847
863.24	5307
863.372	4892
863.504	4908
863.636	4923
863.768	4930
863.9	4995
864.032	4919
864.164	4930
864.296	5022
864.428	5162
864.559	5147
864.691	5113
864.823	5113
864.954	5147
865.086	5155
865.217	5117
865.349	5178
865.48	5162
865.612	5216
865.743	5322
865.875	5162
866.006	5235
866.137	5284
866.269	5273
866.4	5239
866.531	5284
866.662	5216
866.793	5299
866.924	5292
867.055	5368
867.186	5296
867.317	5387
867.448	5315
867.579	5383
867.71	5425
867.841	5425
867.972	5490
868.103	5486
868.233	5547
868.364	5562
868.495	5547
868.625	5638
868.756	5805
868.886	5691
869.017	5722
869.147	5878
869.278	5870
869.408	5874
869.539	5824
869.669	5916
869.799	5916
869.929	5999
870.06	6015
870.19	6251
870.32	6178
870.45	6247
870.58	6391
870.71	6467
870.84	6456
870.97	6422
871.1	6486
871.23	6684
871.36	6734
871.489	6658
871.619	6806
871.749	6730
871.879	6890
872.008	7019
872.138	6947
872.267	7000
872.397	6939
872.526	7053
872.656	7065
872.785	7232
872.915	7422
873.044	7495
873.173	7571
873.303	7639
873.432	7734
873.561	7902
873.69	7902
873.819	8123
873.948	8149
874.077	8240
874.206	8309
874.335	8530
874.464	8678
874.593	8838
874.722	8914
874.851	9195
874.979	9268
875.108	9389
875.237	9363
875.365	9561
875.494	9667
875.623	9835
875.751	9861
875.88	9998
876.008	10128
876.136	10333
876.265	10527
876.393	10607
876.521	10660
876.65	10877
876.778	10904
876.906	10923
877.034	11014
877.162	11132
877.29	11223
877.418	11372
877.546	11406
877.674	11436
877.802	11505
877.93	11463
878.058	11524
878.185	11585
878.313	11649
878.441	11733
878.568	11680
878.696	11912
878.824	11817
878.951	11973
879.079	12041
879.206	12152
879.333	12076
879.461	12030
879.588	12110
879.715	12148
879.842	12171
879.97	12152
880.097	11908
880.224	11939
880.351	11904
880.478	11866
880.605	11878
880.732	11855
880.859	12049
880.986	11843
881.112	11840
881.239	11733
881.366	11756
881.493	11589
881.619	11600
881.746	11581
881.872	11558
881.999	11551
882.125	11524
882.252	11577
882.378	11551
882.505	11551
882.631	11334
882.757	11277
882.883	11398
883.01	11250
883.136	11193
883.262	11162
883.388	11075
883.514	11204
883.64	11140
883.766	11109
883.892	11010
884.018	11045
884.143	11064
884.269	11121
884.395	10877
884.52	10782
884.646	10843
884.772	10736
884.897	10683
885.023	10668
885.148	10752
885.274	10698
885.399	10687
885.524	10580
885.65	10641
885.775	10607
885.9	10546
886.025	10599
886.15	10565
886.275	10455
886.4	10413
886.525	10402
886.65	10447
886.775	10356
886.9	10535
887.025	10565
887.149	10394
887.274	10284
887.399	10329
887.523	10177
887.648	10093
887.773	10120
887.897	10204
888.021	10185
888.146	10192
888.27	10238
888.395	10215
888.519	10177
888.643	10257
888.767	10166
888.891	10101
889.015	10067
889.139	10032
889.263	9987
889.387	10147
889.511	10093
889.635	10025
889.759	10025
889.883	10002
890.006	10086
890.13	10067
890.254	9994
890.377	9987
890.501	9895
890.624	9941
890.748	9869
890.871	9854
890.995	9793
891.118	9694
891.241	9827
891.364	9755
891.488	9797
891.611	9724
891.734	9804
891.857	9778
891.98	9698
892.103	9732
892.226	9709
892.349	9682
892.471	9545
892.594	9637
892.717	9599
892.839	9633
892.962	9663
893.085	9614
893.207	9572
893.33	9443
893.452	9545
893.575	9599
893.697	9507
893.819	9625
893.941	9701
894.064	9599
894.186	9378
894.308	9447
894.43	9587
894.552	9568
894.674	9523
894.796	9424
894.918	9443
895.04	9329
895.161	9378
895.283	9355
895.405	9207
895.526	9230
895.648	9260
895.769	9245
895.891	9211
896.012	9355
896.134	9256
896.255	9192
896.376	9154
896.498	9173
896.619	9146
896.74	9116
896.861	9119
896.982	9268
897.103	9332
897.224	9207
897.345	9047
897.466	8944
897.587	9032
897.708	9108
897.828	9058
897.949	8925
898.07	8868
898.19	8929
898.311	9043
898.431	8941
898.552	8941
898.672	8948
898.792	8921
898.913	8891
899.033	8853
899.153	8686
899.273	8651
899.393	8712
899.513	8746
899.633	8750
899.753	8739
899.873	8708
899.993	8773
900.113	8766
900.232	8689
900.352	8682
900.472	8689
900.591	8507
900.711	8583
900.83	8598
900.95	8659
901.069	8697
901.189	8632
901.308	8583
901.427	8488
901.546	8473
901.665	8518
901.784	8480
901.904	8355
902.023	8415
902.141	8332
902.26	8237
902.379	8282
902.498	8240
902.617	8256
902.735	8332
902.854	8343
902.973	8275
903.091	8214
903.21	8138
903.328	8172
903.446	8077
903.565	8084
903.683	8069
903.801	8096
903.919	8100
904.038	8161
904.156	8016
904.274	8142
904.392	8016
904.51	8001
904.627	8119
904.745	8088
904.863	8134
904.981	7894
905.098	7856
905.216	7928
905.334	7982
905.451	7856
905.569	7898
905.686	7963
905.803	7894
905.921	7826
906.038	7890
906.155	7795
906.272	7662
906.389	7795
906.506	7681
906.623	7643
906.74	7559
906.857	7559
906.974	7636
907.091	7674
907.208	7753
907.324	7658
907.441	7605
907.557	7407
907.674	7480
907.79	7434
907.907	7445
908.023	7460
908.139	7472
908.256	7400
908.372	7403
908.488	7335
908.604	7320
908.72	7308
908.836	7209
908.952	7206
909.068	7293
909.184	7346
909.3	7236
909.415	7289
909.531	7381
909.647	7038
909.762	7171
909.878	7103
909.993	7183
910.108	7122
910.224	7019
910.339	7126
910.454	7091
910.57	7091
910.685	7076
910.8	7198
910.915	7091
911.03	7027
911.145	6958
911.259	6909
911.374	6924
911.489	6802
911.604	6802
911.718	6696
911.833	6738
911.947	6703
912.062	6616
912.176	6768
912.291	6753
912.405	6722
912.519	6829
912.633	6875
912.748	6738
912.862	6635
912.976	6612
913.09	6559
913.204	6612
913.318	6650
913.431	6673
913.545	6662
913.659	6673
913.772	6642
913.886	6582
914	6589
914.113	6582
914.226	6642
914.34	6612
914.453	6475
914.566	6627
914.68	6585
914.793	6547
914.906	6479
915.019	6403
915.132	6361
915.245	6437
915.358	6475
915.47	6452
915.583	6418
915.696	6498
915.809	6585
915.921	6566
916.034	6456
916.146	6467
916.259	6445
916.371	6486
916.483	6483
916.595	6441
916.708	6437
916.82	6433
916.932	6353
917.044	6441
917.156	6414
917.268	6338
917.38	6369
917.491	6334
917.603	6319
917.715	6426
917.826	6475
917.938	6350
918.049	6254
918.161	6365
918.272	6414
918.384	6464
918.495	6376
918.606	6247
918.717	6232
918.828	6262
918.939	6357
919.05	6213
919.161	6213
919.272	6095
919.383	6190
919.494	6243
919.604	6490
919.715	6247
919.826	6251
919.936	6342
920.047	6369
920.157	6277
920.267	6483
920.378	6285
920.488	6292
920.598	6441
920.708	6517
920.818	6452
920.928	6429
921.038	6582
921.148	6582
921.258	6338
921.368	6334
921.477	6186
921.587	6186
921.697	6102
921.806	6186
921.916	6072
922.025	5973
922.134	5965
922.244	5950
922.353	6015
922.462	5821
922.571	5786
922.68	5710
922.789	5741
922.898	5733
923.007	5627
923.116	5733
923.224	5729
923.333	5676
923.442	5649
923.55	5577
923.659	5646
923.767	5653
923.876	5543
923.984	5615
924.092	5535
924.201	5615
924.309	5562
924.417	5562
924.525	5497
924.633	5516
924.741	6285
924.849	5364
924.956	5463
925.064	5410
925.172	5246
925.279	5322
925.387	5337
925.494	5345
925.602	5474
925.709	5387
925.816	5299
925.924	5322
926.031	5376
926.138	5288
926.245	5311
926.352	5246
926.459	5326
926.566	5330
926.673	5280
926.779	5170
926.886	5136
926.993	5037
927.099	4995
927.206	4991
927.312	4961
927.419	4987
927.525	5003
927.631	5014
927.737	4881
927.843	4866
927.95	4759
928.056	4858
928.162	4824
928.267	4847
928.373	5231
928.479	4858
928.585	4698
928.69	4778
928.796	4767
928.901	4721
929.007	4634
929.112	4656
929.218	4649
929.323	4649
929.428	4565
929.533	4714
929.638	4527
929.743	4535
929.848	4615
929.953	4523
930.058	4413
930.163	4363
930.267	4390
930.372	4451
930.477	4337
930.581	4512
930.685	4363
930.79	4299
930.894	4276
930.998	4253
931.103	4371
931.207	4173
931.311	4135
931.415	4048
931.519	3899
931.623	4010
