Data from glass_V78500241_1335.txt Node
Date: Wed Sep 01 19:23:45 CST 2021
User: usil
Spectrometer: V785-0024
Trigger mode: 0
Integration Time (sec): 4.000000E-1
Scans to average: 1
Nonlinearity correction enabled: false
Boxcar width: 0
Storing dark spectrum: false
XAxis mode: Wavelengths
Number of Pixels in Spectrum: 1024
>>>>>Begin Spectral Data<<<<<
801.071	3709
801.214	3781
801.356	3743
801.499	3709
801.641	3724
801.783	3755
801.926	3850
802.068	3835
802.211	3857
802.353	3915
802.496	3861
802.638	3861
802.78	3892
802.923	3945
803.065	3903
803.208	3827
803.35	3888
803.492	3937
803.635	3941
803.777	3835
803.919	3922
804.061	4154
804.204	3964
804.346	3975
804.488	3911
804.63	4048
804.773	3987
804.915	4032
805.057	4207
805.199	4002
805.341	4093
805.483	4128
805.626	4147
805.768	4139
805.91	4238
806.052	4253
806.194	4223
806.336	4322
806.478	4249
806.62	4150
806.762	4219
806.904	4257
807.046	4329
807.188	4181
807.33	4200
807.472	4234
807.614	4185
807.756	4257
807.898	4246
808.04	4204
808.182	4280
808.324	4344
808.465	4375
808.607	4462
808.749	4455
808.891	4443
809.033	4527
809.174	4413
809.316	4268
809.458	4265
809.6	4177
809.741	4128
809.883	4143
810.025	4162
810.166	4249
810.308	4276
810.45	4253
810.591	4257
810.733	4314
810.875	4493
811.016	4877
811.158	5147
811.299	5239
811.441	5284
811.582	5094
811.724	4706
811.865	4478
812.007	4379
812.148	4424
812.29	4443
812.431	4440
812.573	4462
812.714	4402
812.855	4386
812.997	4455
813.138	4478
813.279	4379
813.421	4390
813.562	4417
813.703	4310
813.845	4291
813.986	4249
814.127	4230
814.268	4318
814.41	4291
814.551	4272
814.692	4329
814.833	4207
814.974	4306
815.115	4371
815.256	4280
815.397	4246
815.539	4291
815.68	4215
815.821	4211
815.962	4337
816.103	4291
816.244	4249
816.385	4253
816.526	4268
816.666	4196
816.807	4120
816.948	4150
817.089	4207
817.23	4139
817.371	4067
817.512	4063
817.653	4071
817.793	4032
817.934	4051
818.075	4097
818.216	4082
818.356	4055
818.497	3979
818.638	3911
818.778	3873
818.919	3903
819.06	3846
819.2	3953
819.341	3861
819.481	3869
819.622	3945
819.762	4044
819.903	3953
820.043	3850
820.184	3819
820.324	3804
820.465	3922
820.605	3861
820.746	3922
820.886	3781
821.026	3960
821.167	3915
821.307	3960
821.447	3979
821.588	3945
821.728	3934
821.868	3926
822.008	3873
822.149	3926
822.289	3907
822.429	3778
822.569	3743
822.709	3800
822.849	3671
822.99	3682
823.13	3781
823.27	3774
823.41	3717
823.55	3751
823.69	3717
823.83	3751
823.97	3701
824.11	3587
824.25	3553
824.389	3633
824.529	3682
824.669	3671
824.809	3713
824.949	3762
825.089	3770
825.228	3732
825.368	3576
825.508	3542
825.648	3542
825.787	3633
825.927	3641
826.067	3656
826.206	3644
826.346	3789
826.485	3865
826.625	3896
826.765	3941
826.904	3850
827.044	3618
827.183	3545
827.323	3409
827.462	3481
827.601	3428
827.741	3420
827.88	3412
828.02	3382
828.159	3450
828.298	3473
828.437	3557
828.577	3462
828.716	3648
828.855	3485
828.994	3405
829.134	3378
829.273	3382
829.412	3363
829.551	3317
829.69	3389
829.829	3462
829.968	3500
830.107	3462
830.246	3447
830.385	3420
830.524	3336
830.663	3306
830.802	3256
830.941	3214
831.08	3230
831.219	3291
831.357	3253
831.496	3412
831.635	3279
831.774	3192
831.913	3226
832.051	3161
832.19	3150
832.329	3249
832.467	3112
832.606	3100
832.744	3138
832.883	3161
833.022	3184
833.16	3256
833.299	3298
833.437	3302
833.576	3367
833.714	3389
833.852	3450
833.991	3447
834.129	3477
834.267	3443
834.406	3405
834.544	3397
834.682	3435
834.821	3428
834.959	3603
835.097	3458
835.235	3511
835.373	3492
835.511	3473
835.65	3458
835.788	3469
835.926	3416
836.064	3428
836.202	3416
836.34	3580
836.478	3595
836.615	3530
836.753	3584
836.891	3618
837.029	3587
837.167	3584
837.305	3576
837.443	3561
837.58	3481
837.718	3641
837.856	3557
837.993	3542
838.131	3572
838.269	3580
838.406	3614
838.544	3584
838.681	3485
838.819	3485
838.956	3386
839.094	3397
839.231	3420
839.369	3488
839.506	3724
839.643	3629
839.781	3492
839.918	3462
840.055	3542
840.193	3511
840.33	3519
840.467	3591
840.604	3572
840.742	3793
840.879	3564
841.016	3572
841.153	3610
841.29	3736
841.427	3720
841.564	3736
841.701	3736
841.838	3709
841.975	3675
842.112	3709
842.249	3682
842.385	3614
842.522	3823
842.659	3675
842.796	3682
842.933	3724
843.069	3713
843.206	3743
843.343	3808
843.479	3762
843.616	3831
843.752	3679
843.889	3698
844.025	3816
844.162	3747
844.298	3850
844.435	3804
844.571	3751
844.708	3903
844.844	4010
844.98	4029
845.117	3968
845.253	3949
845.389	3907
845.525	3941
845.661	3983
845.798	3903
845.934	4006
846.07	3964
846.206	4067
846.342	4120
846.478	4044
846.614	3991
846.75	3953
846.886	3941
847.022	4044
847.158	3998
847.294	4025
847.429	4021
847.565	4025
847.701	4223
847.837	3907
847.972	3838
848.108	3994
848.244	3968
848.379	3899
848.515	3804
848.65	3831
848.786	3842
848.921	3869
849.057	3922
849.192	3968
849.328	3911
849.463	3915
849.598	3873
849.734	3831
849.869	3827
850.004	3762
850.14	3838
850.275	3797
850.41	3755
850.545	3736
850.68	3743
850.815	3838
850.95	3800
851.085	3918
851.22	3876
851.355	3846
851.49	3812
851.625	3770
851.76	3819
851.895	3785
852.03	3743
852.165	3759
852.299	3842
852.434	3937
852.569	3869
852.703	3911
852.838	3926
852.973	4029
853.107	3987
853.242	3918
853.376	3823
853.511	3804
853.645	3896
853.78	3994
853.914	3964
854.048	3907
854.183	3915
854.317	3934
854.451	4059
854.585	3930
854.72	3945
854.854	4063
854.988	3907
855.122	3972
855.256	3899
855.39	4036
855.524	4101
855.658	4097
855.792	4090
855.926	4147
856.06	4207
856.194	4227
856.327	4173
856.461	4112
856.595	4223
856.729	4158
856.862	4242
856.996	4253
857.13	4310
857.263	4314
857.397	4325
857.53	4280
857.664	4352
857.797	4424
857.931	4405
858.064	4443
858.197	4417
858.331	4390
858.464	4363
858.597	4367
858.731	4402
858.864	4421
858.997	4489
859.13	4538
859.263	4493
859.396	4569
859.529	4550
859.662	4561
859.795	4516
859.928	4603
860.061	4702
860.194	4687
860.327	4660
860.46	4649
860.592	4771
860.725	4725
860.858	4721
860.99	4664
861.123	4691
861.256	4729
861.388	4774
861.521	5547
861.653	4740
861.786	4683
861.918	4752
862.05	4801
862.183	4824
862.315	4900
862.447	4946
862.58	4854
862.712	4793
862.844	4744
862.976	4892
863.108	4896
863.24	5201
863.372	4858
863.504	4885
863.636	4858
863.768	4904
863.9	4961
864.032	4896
864.164	4919
864.296	5022
864.428	5086
864.559	5155
864.691	5090
864.823	5105
864.954	5086
865.086	5128
865.217	5056
865.349	5102
865.48	5189
865.612	5174
865.743	5277
865.875	5155
866.006	5162
866.137	5216
866.269	5235
866.4	5250
866.531	5277
866.662	5277
866.793	5204
866.924	5318
867.055	5383
867.186	5322
867.317	5330
867.448	5292
867.579	5433
867.71	5383
867.841	5383
867.972	5425
868.103	5436
868.233	5478
868.364	5554
868.495	5551
868.625	5630
868.756	5771
868.886	5748
869.017	5737
869.147	5840
869.278	5836
869.408	5824
869.539	5832
869.669	5984
869.799	5870
869.929	5996
870.06	6015
870.19	6205
870.32	6205
870.45	6292
870.58	6365
870.71	6437
870.84	6490
870.97	6384
871.1	6467
871.23	6612
871.36	6726
871.489	6635
871.619	6730
871.749	6760
871.879	6901
872.008	6962
872.138	6962
872.267	6977
872.397	6973
872.526	7019
872.656	7129
872.785	7171
872.915	7457
873.044	7521
873.173	7529
873.303	7605
873.432	7807
873.561	7989
873.69	7906
873.819	8058
873.948	8153
874.077	8233
874.206	8301
874.335	8465
874.464	8587
874.593	8861
874.722	8899
874.851	9165
874.979	9291
875.108	9408
875.237	9431
875.365	9447
875.494	9652
875.623	9762
875.751	9800
875.88	10006
876.008	10188
876.136	10215
876.265	10489
876.393	10714
876.521	10725
876.65	10839
876.778	10923
876.906	10919
877.034	10976
877.162	11098
877.29	11113
877.418	11376
877.546	11364
877.674	11395
877.802	11395
877.93	11478
878.058	11528
878.185	11604
878.313	11676
878.441	11752
878.568	11619
878.696	11733
878.824	11866
878.951	11954
879.079	11980
879.206	12136
879.333	12034
879.461	11977
879.588	12026
879.715	12076
879.842	12186
879.97	12068
880.097	11832
880.224	11897
880.351	11958
880.478	11885
880.605	11824
880.732	11805
880.859	12007
880.986	11843
881.112	11874
881.239	11726
881.366	11665
881.493	11638
881.619	11585
881.746	11623
881.872	11520
881.999	11558
882.125	11482
882.252	11543
882.378	11459
882.505	11551
882.631	11421
882.757	11288
882.883	11364
883.01	11307
883.136	11242
883.262	11201
883.388	11140
883.514	11136
883.64	11147
883.766	11166
883.892	11003
884.018	10949
884.143	11010
884.269	11151
884.395	10812
884.52	10820
884.646	10736
884.772	10725
884.897	10645
885.023	10694
885.148	10721
885.274	10698
885.399	10683
885.524	10660
885.65	10611
885.775	10561
885.9	10516
886.025	10607
886.15	10634
886.275	10478
886.4	10363
886.525	10447
886.65	10409
886.775	10386
886.9	10497
887.025	10497
887.149	10382
887.274	10207
887.399	10227
887.523	10173
887.648	10147
887.773	10120
887.897	10173
888.021	10181
888.146	10112
888.27	10249
888.395	10230
888.519	10128
888.643	10139
888.767	10242
888.891	10158
889.015	9998
889.139	9983
889.263	9964
889.387	10040
889.511	10150
889.635	10116
889.759	10013
889.883	10002
890.006	10093
890.13	10150
890.254	9975
890.377	10044
890.501	9884
890.624	9899
890.748	9899
890.871	9873
890.995	9747
891.118	9778
891.241	9789
891.364	9759
891.488	9975
891.611	9747
891.734	9720
891.857	9766
891.98	9713
892.103	9690
892.226	9709
892.349	9633
892.471	9584
892.594	9656
892.717	9682
892.839	9614
892.962	9564
893.085	9663
893.207	9549
893.33	9481
893.452	9481
893.575	9644
893.697	9523
893.819	9629
893.941	9660
894.064	9663
894.186	9515
894.308	9443
894.43	9504
894.552	9587
894.674	9576
894.796	9458
894.918	9408
895.04	9431
895.161	9386
895.283	9348
895.405	9317
895.526	9272
895.648	9192
895.769	9272
895.891	9218
896.012	9306
896.134	9241
896.255	9150
896.376	9169
896.498	9199
896.619	9116
896.74	9150
896.861	9089
896.982	9260
897.103	9298
897.224	9195
897.345	9009
897.466	9070
897.587	8994
897.708	9036
897.828	9097
897.949	8921
898.07	8838
898.19	8952
898.311	9039
898.431	8948
898.552	8937
898.672	9028
898.792	9001
898.913	8910
899.033	8800
899.153	8773
899.273	8644
899.393	8667
899.513	8758
899.633	8785
899.753	8693
899.873	8682
899.993	8724
900.113	8693
900.232	8705
900.352	8708
900.472	8678
900.591	8514
900.711	8556
900.83	8503
900.95	8667
901.069	8701
901.189	8587
901.308	8469
901.427	8442
901.546	8465
901.665	8465
901.784	8503
901.904	8404
902.023	8347
902.141	8229
902.26	8256
902.379	8202
902.498	8259
902.617	8259
902.735	8324
902.854	8282
902.973	8187
903.091	8119
903.21	8134
903.328	8164
903.446	8111
903.565	8107
903.683	8168
903.801	8073
903.919	8157
904.038	8107
904.156	7963
904.274	8043
904.392	8035
904.51	8039
904.627	8069
904.745	8058
904.863	8012
904.981	7902
905.098	7902
905.216	7795
905.334	7928
905.451	7928
905.569	7909
905.686	7932
905.803	7928
905.921	7784
906.038	7868
906.155	7864
906.272	7727
906.389	7693
906.506	7693
906.623	7620
906.74	7643
906.857	7616
906.974	7544
907.091	7643
907.208	7765
907.324	7613
907.441	7552
907.557	7476
907.674	7457
907.79	7430
907.907	7373
908.023	7476
908.139	7392
908.256	7392
908.372	7331
908.488	7327
908.604	7293
908.72	7247
908.836	7289
908.952	7213
909.068	7289
909.184	7327
909.3	7225
909.415	7259
909.531	7308
909.647	7076
909.762	7122
909.878	7072
909.993	7194
910.108	7034
910.224	7126
910.339	7149
910.454	7038
910.57	7050
910.685	6996
910.8	7171
910.915	7122
911.03	7065
911.145	6939
911.259	6989
911.374	6886
911.489	6856
911.604	6806
911.718	6715
911.833	6722
911.947	6639
912.062	6646
912.176	6677
912.291	6795
912.405	6696
912.519	6863
912.633	6848
912.748	6749
912.862	6662
912.976	6536
913.09	6536
913.204	6639
913.318	6612
913.431	6665
913.545	6703
913.659	6722
913.772	6654
913.886	6597
914	6555
914.113	6631
914.226	6616
914.34	6627
914.453	6547
914.566	6566
914.68	6513
914.793	6578
914.906	6422
915.019	6376
915.132	6429
915.245	6448
915.358	6456
915.47	6426
915.583	6467
915.696	6467
915.809	6525
915.921	6551
916.034	6388
916.146	6410
916.259	6338
916.371	6513
916.483	6494
916.595	6407
916.708	6395
916.82	6380
916.932	6273
917.044	6479
917.156	6445
917.268	6342
917.38	6346
917.491	6338
917.603	6346
917.715	6372
917.826	6353
917.938	6399
918.049	6213
918.161	6365
918.272	6372
918.384	6445
918.495	6327
918.606	6277
918.717	6228
918.828	6292
918.939	6273
919.05	6171
919.161	6251
919.272	6148
919.383	6102
919.494	6319
919.604	6361
919.715	6342
919.826	6251
919.936	6213
920.047	6372
920.157	6296
920.267	6471
920.378	6350
920.488	6292
920.598	6464
920.708	6589
920.818	6521
920.928	6479
921.038	6551
921.148	6574
921.258	6369
921.368	6266
921.477	6182
921.587	6194
921.697	6091
921.806	6159
921.916	6098
922.025	5958
922.134	5939
922.244	5897
922.353	5946
922.462	5889
922.571	5809
922.68	5695
922.789	5627
922.898	5691
923.007	5627
923.116	5710
923.224	5672
923.333	5661
923.442	5581
923.55	5596
923.659	5554
923.767	5665
923.876	5528
923.984	5646
924.092	5493
924.201	5551
924.309	5551
924.417	5600
924.525	5482
924.633	5501
924.741	6251
924.849	5345
924.956	5474
925.064	5265
925.172	5261
925.279	5250
925.387	5315
925.494	5318
925.602	5448
925.709	5406
925.816	5227
925.924	5311
926.031	5364
926.138	5322
926.245	5303
926.352	5208
926.459	5349
926.566	5322
926.673	5204
926.779	5136
926.886	5128
926.993	5067
927.099	4999
927.206	4976
927.312	4972
927.419	5018
927.525	4991
927.631	4976
927.737	4896
927.843	4843
927.95	4774
928.056	4805
928.162	4771
928.267	4801
928.373	5303
928.479	4843
928.585	4679
928.69	4733
928.796	4755
928.901	4683
929.007	4630
929.112	4649
929.218	4634
929.323	4634
929.428	4565
929.533	4641
929.638	4493
929.743	4512
929.848	4565
929.953	4542
930.058	4470
930.163	4337
930.267	4379
930.372	4436
930.477	4314
930.581	4432
930.685	4344
930.79	4287
930.894	4287
930.998	4227
931.103	4371
931.207	4124
931.311	4082
931.415	4017
931.519	3903
931.623	3953
