Data from glass_V78500241_1949.txt Node
Date: Wed Sep 01 19:28:00 CST 2021
User: usil
Spectrometer: V785-0024
Trigger mode: 0
Integration Time (sec): 4.000000E-1
Scans to average: 1
Nonlinearity correction enabled: false
Boxcar width: 0
Storing dark spectrum: false
XAxis mode: Wavelengths
Number of Pixels in Spectrum: 1024
>>>>>Begin Spectral Data<<<<<
801.071	3732
801.214	3717
801.356	3701
801.499	3720
801.641	3709
801.783	3789
801.926	3888
802.068	3861
802.211	3816
802.353	3915
802.496	3865
802.638	3903
802.78	3907
802.923	3869
803.065	3918
803.208	3876
803.35	3911
803.492	3903
803.635	3953
803.777	3797
803.919	3869
804.061	4158
804.204	3941
804.346	3941
804.488	3918
804.63	4040
804.773	3960
804.915	4002
805.057	4143
805.199	4029
805.341	4090
805.483	4109
805.626	4128
805.768	4082
805.91	4188
806.052	4188
806.194	4227
806.336	4367
806.478	4227
806.62	4181
806.762	4162
806.904	4204
807.046	4276
807.188	4192
807.33	4223
807.472	4246
807.614	4177
807.756	4257
807.898	4207
808.04	4169
808.182	4284
808.324	4310
808.465	4352
808.607	4455
808.749	4459
808.891	4455
809.033	4478
809.174	4383
809.316	4242
809.458	4257
809.6	4177
809.741	4143
809.883	4120
810.025	4227
810.166	4185
810.308	4211
810.45	4211
810.591	4238
810.733	4284
810.875	4493
811.016	4850
811.158	5162
811.299	5250
811.441	5296
811.582	5094
811.724	4721
811.865	4470
812.007	4478
812.148	4417
812.29	4436
812.431	4394
812.573	4356
812.714	4356
812.855	4417
812.997	4413
813.138	4527
813.279	4409
813.421	4394
813.562	4398
813.703	4280
813.845	4318
813.986	4280
814.127	4223
814.268	4284
814.41	4291
814.551	4295
814.692	4322
814.833	4249
814.974	4329
815.115	4394
815.256	4272
815.397	4211
815.539	4291
815.68	4219
815.821	4207
815.962	4310
816.103	4295
816.244	4211
816.385	4219
816.526	4272
816.666	4185
816.807	4105
816.948	4188
817.089	4204
817.23	4101
817.371	4044
817.512	4044
817.653	4040
817.793	3998
817.934	4021
818.075	4071
818.216	4051
818.356	4063
818.497	3972
818.638	3941
818.778	3926
818.919	3861
819.06	3873
819.2	3949
819.341	3819
819.481	3857
819.622	3880
819.762	4029
819.903	3972
820.043	3846
820.184	3869
820.324	3800
820.465	3876
820.605	3861
820.746	3838
820.886	3755
821.026	3941
821.167	3915
821.307	3949
821.447	3994
821.588	3956
821.728	3911
821.868	3903
822.008	3861
822.149	3846
822.289	3953
822.429	3797
822.569	3751
822.709	3740
822.849	3732
822.99	3728
823.13	3740
823.27	3766
823.41	3701
823.55	3705
823.69	3751
823.83	3759
823.97	3656
824.11	3595
824.25	3576
824.389	3610
824.529	3690
824.669	3618
824.809	3720
824.949	3747
825.089	3720
825.228	3694
825.368	3568
825.508	3599
825.648	3584
825.787	3606
825.927	3648
826.067	3584
826.206	3629
826.346	3827
826.485	3854
826.625	3892
826.765	3934
826.904	3869
827.044	3610
827.183	3485
827.323	3424
827.462	3485
827.601	3447
827.741	3428
827.88	3439
828.02	3401
828.159	3473
828.298	3477
828.437	3500
828.577	3481
828.716	3610
828.855	3507
828.994	3355
829.134	3374
829.273	3348
829.412	3321
829.551	3302
829.69	3386
829.829	3431
829.968	3542
830.107	3458
830.246	3412
830.385	3359
830.524	3344
830.663	3325
830.802	3230
830.941	3207
831.08	3188
831.219	3272
831.357	3275
831.496	3405
831.635	3222
831.774	3195
831.913	3199
832.051	3146
832.19	3195
832.329	3218
832.467	3138
832.606	3070
832.744	3157
832.883	3184
833.022	3226
833.16	3245
833.299	3294
833.437	3317
833.576	3378
833.714	3431
833.852	3389
833.991	3466
834.129	3469
834.267	3469
834.406	3420
834.544	3412
834.682	3412
834.821	3416
834.959	3599
835.097	3405
835.235	3523
835.373	3515
835.511	3511
835.65	3458
835.788	3466
835.926	3420
836.064	3370
836.202	3363
836.34	3564
836.478	3568
836.615	3526
836.753	3526
836.891	3625
837.029	3606
837.167	3557
837.305	3572
837.443	3534
837.58	3515
837.718	3591
837.856	3595
837.993	3534
838.131	3629
838.269	3545
838.406	3561
838.544	3572
838.681	3485
838.819	3409
838.956	3386
839.094	3378
839.231	3469
839.369	3515
839.506	3705
839.643	3625
839.781	3469
839.918	3450
840.055	3507
840.193	3557
840.33	3549
840.467	3561
840.604	3595
840.742	3778
840.879	3538
841.016	3549
841.153	3538
841.29	3713
841.427	3762
841.564	3747
841.701	3747
841.838	3671
841.975	3679
842.112	3720
842.249	3652
842.385	3599
842.522	3789
842.659	3705
842.796	3671
842.933	3724
843.069	3694
843.206	3720
843.343	3819
843.479	3774
843.616	3797
843.752	3675
843.889	3675
844.025	3846
844.162	3713
844.298	3873
844.435	3804
844.571	3755
844.708	3888
844.844	3991
844.98	4040
845.117	3991
845.253	3896
845.389	3907
845.525	3964
845.661	3979
845.798	3896
845.934	3979
846.07	3979
846.206	4055
846.342	4139
846.478	4071
846.614	3953
846.75	3937
846.886	3884
847.022	4032
847.158	3968
847.294	3953
847.429	3979
847.565	3972
847.701	4196
847.837	3892
847.972	3869
848.108	3960
848.244	3972
848.379	3838
848.515	3869
848.65	3861
848.786	3850
848.921	3846
849.057	3922
849.192	3953
849.328	3857
849.463	3903
849.598	3915
849.734	3850
849.869	3819
850.004	3778
850.14	3793
850.275	3778
850.41	3728
850.545	3747
850.68	3789
850.815	3778
850.95	3762
851.085	3907
851.22	3838
851.355	3842
851.49	3785
851.625	3755
851.76	3751
851.895	3724
852.03	3751
852.165	3774
852.299	3842
852.434	3888
852.569	3854
852.703	3888
852.838	3896
852.973	4002
853.107	3983
853.242	3850
853.376	3842
853.511	3755
853.645	3831
853.78	3922
853.914	3884
854.048	3880
854.183	3831
854.317	3945
854.451	4067
854.585	3949
854.72	3983
854.854	3994
854.988	3930
855.122	3975
855.256	3918
855.39	4051
855.524	4101
855.658	4086
855.792	4112
855.926	4143
856.06	4173
856.194	4204
856.327	4116
856.461	4120
856.595	4120
856.729	4143
856.862	4249
856.996	4242
857.13	4280
857.263	4299
857.397	4363
857.53	4280
857.664	4360
857.797	4371
857.931	4478
858.064	4371
858.197	4424
858.331	4459
858.464	4375
858.597	4314
858.731	4383
858.864	4466
858.997	4443
859.13	4489
859.263	4516
859.396	4573
859.529	4504
859.662	4538
859.795	4531
859.928	4596
860.061	4656
860.194	4748
860.327	4637
860.46	4611
860.592	4702
860.725	4767
860.858	4786
860.99	4675
861.123	4675
861.256	4660
861.388	4755
861.521	5376
861.653	4679
861.786	4752
861.918	4774
862.05	4786
862.183	4820
862.315	4858
862.447	4900
862.58	4843
862.712	4759
862.844	4752
862.976	4850
863.108	4892
863.24	5181
863.372	4809
863.504	4873
863.636	4915
863.768	4949
863.9	4957
864.032	4953
864.164	4972
864.296	4999
864.428	5071
864.559	5075
864.691	5098
864.823	5109
864.954	5094
865.086	5174
865.217	5090
865.349	5064
865.48	5143
865.612	5140
865.743	5280
865.875	5151
866.006	5220
866.137	5220
866.269	5231
866.4	5235
866.531	5223
866.662	5212
866.793	5246
866.924	5277
867.055	5334
867.186	5341
867.317	5303
867.448	5250
867.579	5376
867.71	5376
867.841	5364
867.972	5455
868.103	5440
868.233	5478
868.364	5490
868.495	5554
868.625	5661
868.756	5805
868.886	5638
869.017	5726
869.147	5798
869.278	5870
869.408	5802
869.539	5836
869.669	5939
869.799	5916
869.929	5977
870.06	5988
870.19	6251
870.32	6194
870.45	6239
870.58	6376
870.71	6395
870.84	6445
870.97	6479
871.1	6483
871.23	6616
871.36	6692
871.489	6662
871.619	6722
871.749	6776
871.879	6916
872.008	6985
872.138	6962
872.267	7042
872.397	7038
872.526	7053
872.656	7103
872.785	7149
872.915	7327
873.044	7506
873.173	7544
873.303	7636
873.432	7746
873.561	7788
873.69	7974
873.819	8008
873.948	8126
874.077	8252
874.206	8324
874.335	8427
874.464	8659
874.593	8834
874.722	8876
874.851	9157
874.979	9199
875.108	9359
875.237	9382
875.365	9447
875.494	9663
875.623	9854
875.751	9774
875.88	9975
876.008	10074
876.136	10249
876.265	10516
876.393	10641
876.521	10717
876.65	10805
876.778	10824
876.906	10881
877.034	10991
877.162	11064
877.29	11170
877.418	11235
877.546	11318
877.674	11436
877.802	11448
877.93	11440
878.058	11558
878.185	11581
878.313	11665
878.441	11737
878.568	11627
878.696	11764
878.824	11855
878.951	11904
879.079	11969
879.206	12133
879.333	12019
879.461	12022
879.588	12076
879.715	12079
879.842	12171
879.97	12053
880.097	11935
880.224	11752
880.351	11912
880.478	11885
880.605	11798
880.732	11775
880.859	11984
880.986	11745
881.112	11840
881.239	11680
881.366	11657
881.493	11585
881.619	11524
881.746	11577
881.872	11570
881.999	11467
882.125	11417
882.252	11577
882.378	11448
882.505	11551
882.631	11330
882.757	11368
882.883	11318
883.01	11261
883.136	11181
883.262	11174
883.388	11121
883.514	11242
883.64	11189
883.766	11136
883.892	10987
884.018	10984
884.143	11060
884.269	11079
884.395	10850
884.52	10793
884.646	10835
884.772	10714
884.897	10637
885.023	10656
885.148	10710
885.274	10736
885.399	10691
885.524	10668
885.65	10584
885.775	10504
885.9	10531
886.025	10538
886.15	10550
886.275	10405
886.4	10329
886.525	10394
886.65	10382
886.775	10360
886.9	10451
887.025	10603
887.149	10325
887.274	10211
887.399	10276
887.523	10230
887.648	10143
887.773	10200
887.897	10204
888.021	10200
888.146	10124
888.27	10257
888.395	10238
888.519	10196
888.643	10181
888.767	10196
888.891	10086
889.015	10063
889.139	10097
889.263	9994
889.387	10044
889.511	10143
889.635	10055
889.759	9934
889.883	9956
890.006	9945
890.13	10131
890.254	9934
890.377	9953
890.501	9907
890.624	9846
890.748	9873
890.871	9785
890.995	9781
891.118	9622
891.241	9751
891.364	9743
891.488	9759
891.611	9762
891.734	9728
891.857	9732
891.98	9774
892.103	9785
892.226	9694
892.349	9644
892.471	9485
892.594	9542
892.717	9530
892.839	9637
892.962	9610
893.085	9667
893.207	9557
893.33	9469
893.452	9534
893.575	9629
893.697	9481
893.819	9576
893.941	9720
894.064	9610
894.186	9473
894.308	9469
894.43	9485
894.552	9557
894.674	9416
894.796	9416
894.918	9397
895.04	9382
895.161	9325
895.283	9431
895.405	9249
895.526	9233
895.648	9279
895.769	9214
895.891	9218
896.012	9279
896.134	9222
896.255	9165
896.376	9093
896.498	9195
896.619	9100
896.74	9020
896.861	9070
896.982	9313
897.103	9279
897.224	9066
897.345	9058
897.466	9074
897.587	9062
897.708	9055
897.828	9032
897.949	8937
898.07	8902
898.19	8925
898.311	8982
898.431	8842
898.552	8906
898.672	8960
898.792	8918
898.913	8941
899.033	8868
899.153	8670
899.273	8625
899.393	8716
899.513	8724
899.633	8663
899.753	8667
899.873	8697
899.993	8708
900.113	8651
900.232	8712
900.352	8697
900.472	8610
900.591	8518
900.711	8575
900.83	8560
900.95	8697
901.069	8625
901.189	8480
901.308	8450
901.427	8381
901.546	8412
901.665	8431
901.784	8423
901.904	8431
902.023	8385
902.141	8172
902.26	8164
902.379	8237
902.498	8157
902.617	8282
902.735	8229
902.854	8252
902.973	8252
903.091	8130
903.21	8119
903.328	8107
903.446	8058
903.565	8107
903.683	8058
903.801	8005
903.919	8123
904.038	8149
904.156	7989
904.274	8100
904.392	8046
904.51	8016
904.627	8050
904.745	8096
904.863	8100
904.981	7928
905.098	7879
905.216	7837
905.334	7921
905.451	7940
905.569	7845
905.686	7871
905.803	7902
905.921	7761
906.038	7856
906.155	7769
906.272	7742
906.389	7723
906.506	7655
906.623	7628
906.74	7575
906.857	7540
906.974	7529
907.091	7712
907.208	7761
907.324	7613
907.441	7548
907.557	7419
907.674	7426
907.79	7415
907.907	7400
908.023	7514
908.139	7457
908.256	7331
908.372	7362
908.488	7297
908.604	7285
908.72	7190
908.836	7232
908.952	7202
909.068	7236
909.184	7335
909.3	7232
909.415	7335
909.531	7270
909.647	7118
909.762	7084
909.878	7065
909.993	7137
910.108	7103
910.224	7050
910.339	7046
910.454	7069
910.57	7038
910.685	6932
910.8	7175
910.915	7084
911.03	6977
911.145	6909
911.259	6913
911.374	6909
911.489	6802
911.604	6783
911.718	6692
911.833	6787
911.947	6623
912.062	6593
912.176	6688
912.291	6719
912.405	6738
912.519	6806
912.633	6814
912.748	6715
912.862	6669
912.976	6608
913.09	6559
913.204	6612
913.318	6604
913.431	6681
913.545	6669
913.659	6681
913.772	6635
913.886	6593
914	6589
914.113	6665
914.226	6604
914.34	6627
914.453	6460
914.566	6578
914.68	6559
914.793	6528
914.906	6433
915.019	6448
915.132	6384
915.245	6422
915.358	6460
915.47	6490
915.583	6452
915.696	6540
915.809	6559
915.921	6475
916.034	6448
916.146	6429
916.259	6403
916.371	6467
916.483	6448
916.595	6426
916.708	6452
916.82	6429
916.932	6384
917.044	6384
917.156	6384
917.268	6304
917.38	6308
917.491	6296
917.603	6327
917.715	6426
917.826	6380
917.938	6331
918.049	6251
918.161	6357
918.272	6441
918.384	6410
918.495	6369
918.606	6209
918.717	6197
918.828	6224
918.939	6258
919.05	6228
919.161	6194
919.272	6083
919.383	6117
919.494	6285
919.604	6384
919.715	6304
919.826	6216
919.936	6239
920.047	6327
920.157	6258
920.267	6471
920.378	6251
920.488	6239
920.598	6445
920.708	6574
920.818	6456
920.928	6433
921.038	6620
921.148	6528
921.258	6311
921.368	6220
921.477	6224
921.587	6182
921.697	6041
921.806	6209
921.916	6045
922.025	5969
922.134	5882
922.244	5851
922.353	5946
922.462	5813
922.571	5866
922.68	5733
922.789	5653
922.898	5710
923.007	5623
923.116	5699
923.224	5661
923.333	5646
923.442	5630
923.55	5558
923.659	5570
923.767	5630
923.876	5493
923.984	5581
924.092	5543
924.201	5589
924.309	5577
924.417	5524
924.525	5490
924.633	5486
924.741	6281
924.849	5391
924.956	5463
925.064	5387
925.172	5322
925.279	5280
925.387	5349
925.494	5292
925.602	5364
925.709	5353
925.816	5265
925.924	5311
926.031	5330
926.138	5269
926.245	5235
926.352	5220
926.459	5273
926.566	5322
926.673	5197
926.779	5143
926.886	5083
926.993	5018
927.099	5003
927.206	4949
927.312	4915
927.419	5033
927.525	4961
927.631	5018
927.737	4923
927.843	4831
927.95	4767
928.056	4831
928.162	4843
928.267	4828
928.373	5299
928.479	4831
928.585	4714
928.69	4786
928.796	4771
928.901	4694
929.007	4622
929.112	4672
929.218	4634
929.323	4630
929.428	4584
929.533	4691
929.638	4497
929.743	4535
929.848	4565
929.953	4523
930.058	4405
930.163	4333
930.267	4352
930.372	4432
930.477	4314
930.581	4409
930.685	4341
930.79	4280
930.894	4276
930.998	4265
931.103	4329
931.207	4093
931.311	4025
931.415	4017
931.519	3968
931.623	3956
