Data from glass_V78500241_894.txt Node
Date: Wed Sep 01 19:20:41 CST 2021
User: usil
Spectrometer: V785-0024
Trigger mode: 0
Integration Time (sec): 4.000000E-1
Scans to average: 1
Nonlinearity correction enabled: false
Boxcar width: 0
Storing dark spectrum: false
XAxis mode: Wavelengths
Number of Pixels in Spectrum: 1024
>>>>>Begin Spectral Data<<<<<
801.071	3751
801.214	3740
801.356	3732
801.499	3766
801.641	3762
801.783	3770
801.926	3869
802.068	3861
802.211	3865
802.353	3884
802.496	3884
802.638	3884
802.78	3915
802.923	3937
803.065	3915
803.208	3884
803.35	3884
803.492	3926
803.635	3876
803.777	3797
803.919	3930
804.061	4150
804.204	3972
804.346	3930
804.488	3941
804.63	4067
804.773	3934
804.915	4059
805.057	4139
805.199	4025
805.341	4067
805.483	4112
805.626	4154
805.768	4112
805.91	4242
806.052	4280
806.194	4211
806.336	4333
806.478	4204
806.62	4188
806.762	4192
806.904	4265
807.046	4386
807.188	4249
807.33	4166
807.472	4257
807.614	4188
807.756	4284
807.898	4192
808.04	4219
808.182	4257
808.324	4310
808.465	4379
808.607	4451
808.749	4470
808.891	4451
809.033	4500
809.174	4413
809.316	4249
809.458	4261
809.6	4223
809.741	4166
809.883	4166
810.025	4242
810.166	4238
810.308	4223
810.45	4291
810.591	4200
810.733	4329
810.875	4531
811.016	4816
811.158	5136
811.299	5261
811.441	5284
811.582	5113
811.724	4752
811.865	4497
812.007	4443
812.148	4405
812.29	4417
812.431	4405
812.573	4436
812.714	4394
812.855	4417
812.997	4402
813.138	4493
813.279	4394
813.421	4402
813.562	4413
813.703	4379
813.845	4318
813.986	4204
814.127	4227
814.268	4257
814.41	4284
814.551	4303
814.692	4356
814.833	4310
814.974	4306
815.115	4360
815.256	4268
815.397	4280
815.539	4268
815.68	4230
815.821	4192
815.962	4379
816.103	4276
816.244	4261
816.385	4246
816.526	4322
816.666	4246
816.807	4131
816.948	4204
817.089	4173
817.23	4124
817.371	4059
817.512	3998
817.653	4059
817.793	3972
817.934	4044
818.075	4143
818.216	4090
818.356	4105
818.497	3998
818.638	3915
818.778	3941
818.919	3896
819.06	3907
819.2	3960
819.341	3888
819.481	3884
819.622	3918
819.762	4044
819.903	4013
820.043	3857
820.184	3861
820.324	3831
820.465	3899
820.605	3873
820.746	3907
820.886	3835
821.026	3911
821.167	3926
821.307	3956
821.447	3983
821.588	3934
821.728	3975
821.868	3918
822.008	3842
822.149	3899
822.289	3903
822.429	3808
822.569	3785
822.709	3816
822.849	3694
822.99	3747
823.13	3793
823.27	3778
823.41	3774
823.55	3747
823.69	3717
823.83	3724
823.97	3698
824.11	3633
824.25	3606
824.389	3682
824.529	3652
824.669	3698
824.809	3736
824.949	3778
825.089	3766
825.228	3705
825.368	3595
825.508	3519
825.648	3584
825.787	3637
825.927	3652
826.067	3644
826.206	3629
826.346	3800
826.485	3827
826.625	3899
826.765	3941
826.904	3861
827.044	3606
827.183	3523
827.323	3439
827.462	3523
827.601	3420
827.741	3435
827.88	3454
828.02	3412
828.159	3424
828.298	3481
828.437	3545
828.577	3500
828.716	3576
828.855	3542
828.994	3435
829.134	3370
829.273	3325
829.412	3382
829.551	3374
829.69	3409
829.829	3450
829.968	3564
830.107	3443
830.246	3466
830.385	3344
830.524	3348
830.663	3340
830.802	3264
830.941	3230
831.08	3207
831.219	3272
831.357	3313
831.496	3424
831.635	3249
831.774	3226
831.913	3199
832.051	3173
832.19	3161
832.329	3237
832.467	3161
832.606	3112
832.744	3161
832.883	3188
833.022	3195
833.16	3256
833.299	3344
833.437	3310
833.576	3424
833.714	3431
833.852	3412
833.991	3462
834.129	3485
834.267	3443
834.406	3424
834.544	3458
834.682	3447
834.821	3409
834.959	3587
835.097	3424
835.235	3553
835.373	3504
835.511	3496
835.65	3454
835.788	3504
835.926	3435
836.064	3416
836.202	3450
836.34	3625
836.478	3580
836.615	3530
836.753	3591
836.891	3660
837.029	3663
837.167	3580
837.305	3595
837.443	3538
837.58	3496
837.718	3606
837.856	3591
837.993	3572
838.131	3599
838.269	3618
838.406	3599
838.544	3568
838.681	3458
838.819	3462
838.956	3370
839.094	3458
839.231	3466
839.369	3534
839.506	3743
839.643	3648
839.781	3481
839.918	3481
840.055	3538
840.193	3564
840.33	3515
840.467	3561
840.604	3637
840.742	3827
840.879	3549
841.016	3580
841.153	3625
841.29	3770
841.427	3717
841.564	3740
841.701	3770
841.838	3682
841.975	3709
842.112	3720
842.249	3652
842.385	3663
842.522	3857
842.659	3713
842.796	3694
842.933	3732
843.069	3743
843.206	3701
843.343	3838
843.479	3785
843.616	3762
843.752	3671
843.889	3705
844.025	3873
844.162	3709
844.298	3857
844.435	3800
844.571	3778
844.708	3937
844.844	3998
844.98	4044
845.117	4017
845.253	3915
845.389	3876
845.525	3983
845.661	3960
845.798	3899
845.934	3968
846.07	3956
846.206	4097
846.342	4112
846.478	4063
846.614	3987
846.75	3964
846.886	3922
847.022	4021
847.158	4044
847.294	4017
847.429	3991
847.565	4006
847.701	4234
847.837	3876
847.972	3865
848.108	3968
848.244	3956
848.379	3934
848.515	3846
848.65	3850
848.786	3778
848.921	3850
849.057	3956
849.192	3956
849.328	3930
849.463	3918
849.598	3896
849.734	3876
849.869	3873
850.004	3800
850.14	3823
850.275	3755
850.41	3774
850.545	3705
850.68	3800
850.815	3804
850.95	3781
851.085	3991
851.22	3903
851.355	3797
851.49	3785
851.625	3812
851.76	3797
851.895	3743
852.03	3762
852.165	3819
852.299	3816
852.434	3949
852.569	3888
852.703	3842
852.838	3922
852.973	4040
853.107	3991
853.242	3876
853.376	3903
853.511	3800
853.645	3850
853.78	4017
853.914	3907
854.048	3892
854.183	3865
854.317	3972
854.451	4071
854.585	3956
854.72	3956
854.854	3991
854.988	3949
855.122	4010
855.256	3930
855.39	4006
855.524	4109
855.658	4139
855.792	4135
855.926	4143
856.06	4139
856.194	4234
856.327	4143
856.461	4112
856.595	4177
856.729	4192
856.862	4306
856.996	4227
857.13	4318
857.263	4379
857.397	4390
857.53	4261
857.664	4367
857.797	4402
857.931	4386
858.064	4424
858.197	4497
858.331	4383
858.464	4386
858.597	4352
858.731	4394
858.864	4478
858.997	4436
859.13	4519
859.263	4596
859.396	4577
859.529	4538
859.662	4554
859.795	4508
859.928	4611
860.061	4675
860.194	4698
860.327	4679
860.46	4664
860.592	4729
860.725	4793
860.858	4774
860.99	4721
861.123	4687
861.256	4706
861.388	4809
861.521	5501
861.653	4736
861.786	4736
861.918	4740
862.05	4793
862.183	4858
862.315	4908
862.447	4927
862.58	4873
862.712	4793
862.844	4805
862.976	4904
863.108	4881
863.24	5189
863.372	4839
863.504	4934
863.636	4911
863.768	4957
863.9	4999
864.032	4915
864.164	4999
864.296	5075
864.428	5067
864.559	5090
864.691	5071
864.823	5136
864.954	5105
865.086	5189
865.217	5159
865.349	5117
865.48	5208
865.612	5208
865.743	5258
865.875	5201
866.006	5128
866.137	5265
866.269	5239
866.4	5318
866.531	5277
866.662	5239
866.793	5292
866.924	5326
867.055	5315
867.186	5318
867.317	5349
867.448	5258
867.579	5398
867.71	5368
867.841	5376
867.972	5444
868.103	5482
868.233	5532
868.364	5467
868.495	5520
868.625	5691
868.756	5844
868.886	5661
869.017	5748
869.147	5904
869.278	5844
869.408	5863
869.539	5805
869.669	5927
869.799	6003
869.929	5973
870.06	6030
870.19	6220
870.32	6243
870.45	6296
870.58	6327
870.71	6475
870.84	6483
870.97	6388
871.1	6467
871.23	6620
871.36	6745
871.489	6616
871.619	6726
871.749	6867
871.879	6859
872.008	6985
872.138	6939
872.267	6996
872.397	6993
872.526	7046
872.656	7095
872.785	7232
872.915	7358
873.044	7552
873.173	7575
873.303	7677
873.432	7708
873.561	7871
873.69	7921
873.819	7967
873.948	8153
874.077	8263
874.206	8294
874.335	8450
874.464	8644
874.593	8902
874.722	8975
874.851	9165
874.979	9249
875.108	9344
875.237	9428
875.365	9469
875.494	9591
875.623	9892
875.751	9838
875.88	10025
876.008	10166
876.136	10329
876.265	10531
876.393	10717
876.521	10721
876.65	10759
876.778	10904
876.906	10957
877.034	10999
877.162	11048
877.29	11204
877.418	11326
877.546	11410
877.674	11398
877.802	11490
877.93	11547
878.058	11615
878.185	11592
878.313	11691
878.441	11790
878.568	11604
878.696	11824
878.824	11878
878.951	11901
879.079	11992
879.206	12053
879.333	12057
879.461	11977
879.588	12136
879.715	12049
879.842	12270
879.97	12125
880.097	11965
880.224	11897
880.351	11923
880.478	11813
880.605	11961
880.732	11707
880.859	12030
880.986	11798
881.112	11783
881.239	11767
881.366	11604
881.493	11676
881.619	11604
881.746	11577
881.872	11474
881.999	11570
882.125	11467
882.252	11554
882.378	11520
882.505	11520
882.631	11368
882.757	11269
882.883	11318
883.01	11311
883.136	11227
883.262	11162
883.388	11124
883.514	11174
883.64	11216
883.766	11143
883.892	11033
884.018	10987
884.143	11098
884.269	11216
884.395	10881
884.52	10771
884.646	10771
884.772	10714
884.897	10698
885.023	10691
885.148	10717
885.274	10797
885.399	10679
885.524	10679
885.65	10558
885.775	10603
885.9	10630
886.025	10618
886.15	10542
886.275	10413
886.4	10375
886.525	10455
886.65	10394
886.775	10398
886.9	10489
887.025	10558
887.149	10360
887.274	10238
887.399	10257
887.523	10135
887.648	10074
887.773	10200
887.897	10280
888.021	10215
888.146	10166
888.27	10261
888.395	10257
888.519	10192
888.643	10173
888.767	10131
888.891	10040
889.015	10021
889.139	10109
889.263	9956
889.387	10067
889.511	10082
889.635	10048
889.759	9956
889.883	9903
890.006	10059
890.13	10086
890.254	9945
890.377	9953
890.501	9888
890.624	9922
890.748	9827
890.871	9766
890.995	9690
891.118	9743
891.241	9762
891.364	9793
891.488	9846
891.611	9762
891.734	9762
891.857	9816
891.98	9694
892.103	9740
892.226	9671
892.349	9660
892.471	9523
892.594	9576
892.717	9572
892.839	9606
892.962	9606
893.085	9705
893.207	9599
893.33	9534
893.452	9496
893.575	9660
893.697	9485
893.819	9629
893.941	9667
894.064	9580
894.186	9496
894.308	9507
894.43	9526
894.552	9553
894.674	9538
894.796	9382
894.918	9382
895.04	9340
895.161	9450
895.283	9450
895.405	9256
895.526	9279
895.648	9256
895.769	9249
895.891	9275
896.012	9283
896.134	9317
896.255	9169
896.376	9097
896.498	9192
896.619	9203
896.74	9146
896.861	9131
896.982	9336
897.103	9329
897.224	9135
897.345	9104
897.466	9001
897.587	9055
897.708	9173
897.828	8979
897.949	9001
898.07	8842
898.19	8857
898.311	9047
898.431	8918
898.552	8929
898.672	8967
898.792	8994
898.913	8982
899.033	8800
899.153	8750
899.273	8720
899.393	8667
899.513	8796
899.633	8815
899.753	8819
899.873	8674
899.993	8701
900.113	8655
900.232	8716
900.352	8659
900.472	8640
900.591	8473
900.711	8610
900.83	8560
900.95	8640
901.069	8708
901.189	8613
901.308	8415
901.427	8434
901.546	8469
901.665	8408
901.784	8514
901.904	8434
902.023	8415
902.141	8275
902.26	8153
902.379	8336
902.498	8282
902.617	8214
902.735	8298
902.854	8374
902.973	8290
903.091	8111
903.21	8134
903.328	8168
903.446	8149
903.565	8035
903.683	8145
903.801	8081
903.919	8115
904.038	8161
904.156	8058
904.274	8088
904.392	7993
904.51	8043
904.627	8077
904.745	8149
904.863	8100
904.981	7944
905.098	7871
905.216	7887
905.334	7940
905.451	7917
905.569	7856
905.686	7925
905.803	7997
905.921	7765
906.038	7936
906.155	7811
906.272	7731
906.389	7700
906.506	7647
906.623	7597
906.74	7628
906.857	7548
906.974	7601
907.091	7636
907.208	7715
907.324	7624
907.441	7647
907.557	7468
907.674	7407
907.79	7434
907.907	7419
908.023	7487
908.139	7403
908.256	7419
908.372	7438
908.488	7274
908.604	7225
908.72	7202
908.836	7255
908.952	7251
909.068	7320
909.184	7365
909.3	7202
909.415	7259
909.531	7278
909.647	7091
909.762	7129
909.878	7107
909.993	7126
910.108	7095
910.224	7091
910.339	7175
910.454	7080
910.57	7015
910.685	6966
910.8	7206
910.915	7114
911.03	7019
911.145	6878
911.259	6871
911.374	6871
911.489	6852
911.604	6852
911.718	6684
911.833	6715
911.947	6662
912.062	6673
912.176	6642
912.291	6726
912.405	6719
912.519	6916
912.633	6882
912.748	6730
912.862	6688
912.976	6623
913.09	6540
913.204	6597
913.318	6578
913.431	6711
913.545	6707
913.659	6745
913.772	6688
913.886	6623
914	6574
914.113	6654
914.226	6597
914.34	6593
914.453	6517
914.566	6608
914.68	6502
914.793	6525
914.906	6467
915.019	6414
915.132	6372
915.245	6350
915.358	6429
915.47	6441
915.583	6445
915.696	6502
915.809	6563
915.921	6547
916.034	6452
916.146	6448
916.259	6410
916.371	6471
916.483	6471
916.595	6399
916.708	6437
916.82	6414
916.932	6342
917.044	6437
917.156	6410
917.268	6338
917.38	6376
917.491	6315
917.603	6380
917.715	6426
917.826	6452
917.938	6342
918.049	6235
918.161	6365
918.272	6388
918.384	6441
918.495	6369
918.606	6258
918.717	6281
918.828	6315
918.939	6270
919.05	6194
919.161	6277
919.272	6068
919.383	6121
919.494	6365
919.604	6407
919.715	6308
919.826	6175
919.936	6273
920.047	6315
920.157	6254
920.267	6483
920.378	6357
920.488	6254
920.598	6486
920.708	6593
920.818	6479
920.928	6429
921.038	6593
921.148	6585
921.258	6315
921.368	6300
921.477	6228
921.587	6159
921.697	6117
921.806	6216
921.916	6102
922.025	5984
922.134	5958
922.244	5885
922.353	5927
922.462	5889
922.571	5828
922.68	5703
922.789	5691
922.898	5691
923.007	5634
923.116	5733
923.224	5707
923.333	5695
923.442	5596
923.55	5573
923.659	5611
923.767	5604
923.876	5558
923.984	5608
924.092	5482
924.201	5604
924.309	5547
924.417	5497
924.525	5570
924.633	5497
924.741	6129
924.849	5410
924.956	5551
925.064	5349
925.172	5315
925.279	5303
925.387	5379
925.494	5387
925.602	5436
925.709	5372
925.816	5307
925.924	5337
926.031	5383
926.138	5273
926.245	5303
926.352	5254
926.459	5307
926.566	5322
926.673	5239
926.779	5162
926.886	5086
926.993	5079
927.099	4999
927.206	4987
927.312	4976
927.419	5010
927.525	4961
927.631	5025
927.737	4915
927.843	4850
927.95	4771
928.056	4839
928.162	4843
928.267	4870
928.373	5303
928.479	4873
928.585	4687
928.69	4801
928.796	4763
928.901	4664
929.007	4599
929.112	4679
929.218	4668
929.323	4637
929.428	4542
929.533	4656
929.638	4538
929.743	4550
929.848	4546
929.953	4523
930.058	4440
930.163	4341
930.267	4314
930.372	4421
930.477	4329
930.581	4451
930.685	4363
930.79	4223
930.894	4280
930.998	4230
931.103	4413
931.207	4150
931.311	4109
931.415	4051
931.519	3922
931.623	3964
