Data from glass_V78500241_2398.txt Node
Date: Wed Sep 01 19:31:07 CST 2021
User: usil
Spectrometer: V785-0024
Trigger mode: 0
Integration Time (sec): 4.000000E-1
Scans to average: 1
Nonlinearity correction enabled: false
Boxcar width: 0
Storing dark spectrum: false
XAxis mode: Wavelengths
Number of Pixels in Spectrum: 1024
>>>>>Begin Spectral Data<<<<<
801.071	3728
801.214	3743
801.356	3663
801.499	3720
801.641	3709
801.783	3747
801.926	3884
802.068	3827
802.211	3812
802.353	3876
802.496	3823
802.638	3880
802.78	3888
802.923	3911
803.065	3915
803.208	3831
803.35	3838
803.492	3899
803.635	3907
803.777	3774
803.919	3831
804.061	4105
804.204	3941
804.346	3945
804.488	3930
804.63	3998
804.773	3953
804.915	4032
805.057	4147
805.199	4048
805.341	4086
805.483	4051
805.626	4109
805.768	4032
805.91	4173
806.052	4238
806.194	4177
806.336	4325
806.478	4238
806.62	4166
806.762	4169
806.904	4276
807.046	4318
807.188	4196
807.33	4181
807.472	4230
807.614	4162
807.756	4223
807.898	4204
808.04	4230
808.182	4253
808.324	4318
808.465	4367
808.607	4447
808.749	4485
808.891	4508
809.033	4489
809.174	4398
809.316	4261
809.458	4185
809.6	4192
809.741	4143
809.883	4143
810.025	4143
810.166	4211
810.308	4196
810.45	4227
810.591	4181
810.733	4310
810.875	4489
811.016	4847
811.158	5151
811.299	5204
811.441	5250
811.582	5079
811.724	4710
811.865	4428
812.007	4474
812.148	4405
812.29	4417
812.431	4379
812.573	4386
812.714	4375
812.855	4352
812.997	4455
813.138	4470
813.279	4394
813.421	4360
813.562	4379
813.703	4306
813.845	4329
813.986	4257
814.127	4223
814.268	4257
814.41	4265
814.551	4246
814.692	4299
814.833	4261
814.974	4284
815.115	4276
815.256	4230
815.397	4219
815.539	4257
815.68	4169
815.821	4242
815.962	4325
816.103	4280
816.244	4249
816.385	4223
816.526	4287
816.666	4192
816.807	4105
816.948	4207
817.089	4173
817.23	4090
817.371	4059
817.512	4078
817.653	4059
817.793	4029
817.934	4013
818.075	4074
818.216	4101
818.356	4093
818.497	4021
818.638	3884
818.778	3876
818.919	3873
819.06	3854
819.2	3911
819.341	3846
819.481	3838
819.622	3861
819.762	3991
819.903	3903
820.043	3865
820.184	3842
820.324	3812
820.465	3857
820.605	3884
820.746	3888
820.886	3793
821.026	3918
821.167	3934
821.307	3991
821.447	3934
821.588	3922
821.728	3941
821.868	3907
822.008	3838
822.149	3865
822.289	3880
822.429	3759
822.569	3759
822.709	3804
822.849	3690
822.99	3724
823.13	3713
823.27	3743
823.41	3717
823.55	3732
823.69	3732
823.83	3698
823.97	3705
824.11	3614
824.25	3587
824.389	3606
824.529	3686
824.669	3625
824.809	3682
824.949	3709
825.089	3717
825.228	3713
825.368	3587
825.508	3523
825.648	3542
825.787	3625
825.927	3599
826.067	3614
826.206	3701
826.346	3800
826.485	3861
826.625	3850
826.765	3949
826.904	3823
827.044	3576
827.183	3519
827.323	3420
827.462	3447
827.601	3416
827.741	3458
827.88	3443
828.02	3374
828.159	3439
828.298	3473
828.437	3496
828.577	3458
828.716	3587
828.855	3481
828.994	3367
829.134	3355
829.273	3378
829.412	3344
829.551	3317
829.69	3374
829.829	3401
829.968	3526
830.107	3454
830.246	3466
830.385	3359
830.524	3351
830.663	3298
830.802	3222
830.941	3157
831.08	3192
831.219	3256
831.357	3237
831.496	3416
831.635	3237
831.774	3154
831.913	3214
832.051	3123
832.19	3138
832.329	3180
832.467	3085
832.606	3142
832.744	3169
832.883	3214
833.022	3192
833.16	3256
833.299	3256
833.437	3332
833.576	3363
833.714	3420
833.852	3435
833.991	3454
834.129	3435
834.267	3447
834.406	3401
834.544	3431
834.682	3412
834.821	3412
834.959	3526
835.097	3473
835.235	3534
835.373	3443
835.511	3504
835.65	3485
835.788	3504
835.926	3389
836.064	3378
836.202	3382
836.34	3595
836.478	3610
836.615	3488
836.753	3584
836.891	3599
837.029	3584
837.167	3599
837.305	3542
837.443	3523
837.58	3466
837.718	3622
837.856	3564
837.993	3500
838.131	3603
838.269	3580
838.406	3561
838.544	3561
838.681	3435
838.819	3424
838.956	3332
839.094	3367
839.231	3435
839.369	3485
839.506	3713
839.643	3633
839.781	3481
839.918	3507
840.055	3519
840.193	3466
840.33	3511
840.467	3526
840.604	3606
840.742	3797
840.879	3519
841.016	3561
841.153	3576
841.29	3724
841.427	3724
841.564	3694
841.701	3724
841.838	3679
841.975	3663
842.112	3740
842.249	3660
842.385	3606
842.522	3800
842.659	3660
842.796	3641
842.933	3717
843.069	3709
843.206	3709
843.343	3774
843.479	3766
843.616	3819
843.752	3656
843.889	3682
844.025	3907
844.162	3720
844.298	3876
844.435	3789
844.571	3740
844.708	3880
844.844	3979
844.98	4036
845.117	4044
845.253	3918
845.389	3873
845.525	3956
845.661	3934
845.798	3896
845.934	4002
846.07	3918
846.206	4055
846.342	4109
846.478	4063
846.614	3949
846.75	3937
846.886	3876
847.022	4017
847.158	4002
847.294	4017
847.429	4017
847.565	3960
847.701	4227
847.837	3857
847.972	3850
848.108	4013
848.244	3987
848.379	3850
848.515	3778
848.65	3823
848.786	3865
848.921	3823
849.057	3903
849.192	3899
849.328	3857
849.463	3884
849.598	3896
849.734	3850
849.869	3827
850.004	3789
850.14	3808
850.275	3766
850.41	3724
850.545	3698
850.68	3778
850.815	3785
850.95	3774
851.085	3937
851.22	3892
851.355	3850
851.49	3751
851.625	3789
851.76	3724
851.895	3755
852.03	3740
852.165	3823
852.299	3907
852.434	3888
852.569	3838
852.703	3865
852.838	3926
852.973	3998
853.107	3991
853.242	3880
853.376	3903
853.511	3812
853.645	3857
853.78	3945
853.914	3880
854.048	3876
854.183	3888
854.317	3934
854.451	4013
854.585	3960
854.72	3915
854.854	4044
854.988	3896
855.122	3998
855.256	3934
855.39	3987
855.524	4078
855.658	4071
855.792	4131
855.926	4135
856.06	4169
856.194	4181
856.327	4093
856.461	4124
856.595	4135
856.729	4173
856.862	4265
856.996	4234
857.13	4291
857.263	4341
857.397	4352
857.53	4268
857.664	4348
857.797	4360
857.931	4443
858.064	4383
858.197	4440
858.331	4394
858.464	4348
858.597	4363
858.731	4462
858.864	4424
858.997	4478
859.13	4512
859.263	4527
859.396	4577
859.529	4546
859.662	4542
859.795	4455
859.928	4538
860.061	4641
860.194	4710
860.327	4691
860.46	4615
860.592	4691
860.725	4771
860.858	4763
860.99	4637
861.123	4649
861.256	4664
861.388	4790
861.521	5486
861.653	4714
861.786	4698
861.918	4740
862.05	4782
862.183	4805
862.315	4862
862.447	4908
862.58	4866
862.712	4805
862.844	4714
862.976	4858
863.108	4877
863.24	5181
863.372	4866
863.504	4915
863.636	4850
863.768	4953
863.9	4915
864.032	4923
864.164	4995
864.296	5003
864.428	5124
864.559	5136
864.691	5117
864.823	5143
864.954	5132
865.086	5159
865.217	5132
865.349	5083
865.48	5143
865.612	5178
865.743	5250
865.875	5204
866.006	5223
866.137	5227
866.269	5273
866.4	5242
866.531	5265
866.662	5250
866.793	5261
866.924	5318
867.055	5334
867.186	5353
867.317	5284
867.448	5368
867.579	5376
867.71	5364
867.841	5383
867.972	5436
868.103	5497
868.233	5520
868.364	5478
868.495	5589
868.625	5710
868.756	5767
868.886	5649
869.017	5695
869.147	5866
869.278	5882
869.408	5767
869.539	5779
869.669	5897
869.799	5904
869.929	5939
870.06	6034
870.19	6155
870.32	6205
870.45	6334
870.58	6350
870.71	6414
870.84	6494
870.97	6399
871.1	6418
871.23	6593
871.36	6650
871.489	6662
871.619	6749
871.749	6795
871.879	6863
872.008	6932
872.138	7004
872.267	6962
872.397	6970
872.526	7042
872.656	7034
872.785	7217
872.915	7392
873.044	7502
873.173	7567
873.303	7636
873.432	7776
873.561	7807
873.69	7940
873.819	8005
873.948	8225
874.077	8202
874.206	8301
874.335	8488
874.464	8674
874.593	8845
874.722	8925
874.851	9081
874.979	9169
875.108	9344
875.237	9481
875.365	9507
875.494	9614
875.623	9770
875.751	9808
875.88	9972
876.008	10124
876.136	10238
876.265	10481
876.393	10687
876.521	10786
876.65	10850
876.778	10946
876.906	10900
877.034	11010
877.162	11117
877.29	11113
877.418	11212
877.546	11330
877.674	11395
877.802	11410
877.93	11539
878.058	11501
878.185	11478
878.313	11729
878.441	11676
878.568	11611
878.696	11828
878.824	11866
878.951	11965
879.079	12049
879.206	12038
879.333	12064
879.461	11973
879.588	12038
879.715	12079
879.842	12254
879.97	12053
880.097	11798
880.224	11809
880.351	11832
880.478	11836
880.605	11870
880.732	11813
880.859	11999
880.986	11779
881.112	11802
881.239	11809
881.366	11611
881.493	11581
881.619	11501
881.746	11509
881.872	11577
881.999	11440
882.125	11501
882.252	11623
882.378	11433
882.505	11596
882.631	11440
882.757	11353
882.883	11280
883.01	11254
883.136	11166
883.262	11178
883.388	11083
883.514	11235
883.64	11201
883.766	11113
883.892	10984
884.018	10934
884.143	11022
884.269	11071
884.395	10831
884.52	10748
884.646	10778
884.772	10675
884.897	10672
885.023	10634
885.148	10786
885.274	10733
885.399	10782
885.524	10649
885.65	10592
885.775	10580
885.9	10550
886.025	10577
886.15	10558
886.275	10390
886.4	10367
886.525	10375
886.65	10371
886.775	10333
886.9	10474
887.025	10584
887.149	10398
887.274	10238
887.399	10169
887.523	10166
887.648	10177
887.773	10074
887.897	10291
888.021	10211
888.146	10040
888.27	10272
888.395	10234
888.519	10215
888.643	10181
888.767	10185
888.891	9994
889.015	10002
889.139	10021
889.263	9941
889.387	10044
889.511	10112
889.635	10044
889.759	9998
889.883	9975
890.006	10097
890.13	10097
890.254	9956
890.377	9922
890.501	9907
890.624	9911
890.748	9884
890.871	9789
890.995	9778
891.118	9789
891.241	9759
891.364	9743
891.488	9861
891.611	9732
891.734	9644
891.857	9793
891.98	9644
892.103	9781
892.226	9656
892.349	9686
892.471	9553
892.594	9568
892.717	9572
892.839	9576
892.962	9603
893.085	9637
893.207	9568
893.33	9542
893.452	9496
893.575	9553
893.697	9519
893.819	9682
893.941	9644
894.064	9549
894.186	9408
894.308	9397
894.43	9488
894.552	9549
894.674	9469
894.796	9378
894.918	9382
895.04	9321
895.161	9355
895.283	9389
895.405	9226
895.526	9253
895.648	9199
895.769	9233
895.891	9306
896.012	9298
896.134	9222
896.255	9176
896.376	9142
896.498	9161
896.619	9093
896.74	9093
896.861	9108
896.982	9279
897.103	9355
897.224	9093
897.345	9036
897.466	8994
897.587	9028
897.708	9089
897.828	8986
897.949	8979
898.07	8857
898.19	8857
898.311	9005
898.431	8857
898.552	8857
898.672	8895
898.792	8899
898.913	8918
899.033	8720
899.153	8735
899.273	8708
899.393	8659
899.513	8750
899.633	8667
899.753	8785
899.873	8716
899.993	8724
900.113	8697
900.232	8617
900.352	8655
900.472	8617
900.591	8602
900.711	8617
900.83	8488
900.95	8651
901.069	8689
901.189	8511
901.308	8408
901.427	8396
901.546	8492
901.665	8396
901.784	8461
901.904	8419
902.023	8317
902.141	8240
902.26	8237
902.379	8256
902.498	8214
902.617	8221
902.735	8313
902.854	8225
902.973	8233
903.091	8126
903.21	8077
903.328	8130
903.446	8126
903.565	8069
903.683	8058
903.801	8031
903.919	8157
904.038	8103
904.156	8035
904.274	8115
904.392	7997
904.51	7940
904.627	8001
904.745	8020
904.863	8092
904.981	7898
905.098	7852
905.216	7799
905.334	7852
905.451	7887
905.569	7871
905.686	7947
905.803	7917
905.921	7734
906.038	7875
906.155	7788
906.272	7696
906.389	7753
906.506	7704
906.623	7544
906.74	7662
906.857	7521
906.974	7502
907.091	7647
907.208	7696
907.324	7613
907.441	7506
907.557	7426
907.674	7411
907.79	7419
907.907	7362
908.023	7407
908.139	7384
908.256	7335
908.372	7419
908.488	7407
908.604	7232
908.72	7251
908.836	7240
908.952	7198
909.068	7278
909.184	7297
909.3	7244
909.415	7316
909.531	7297
909.647	7042
909.762	7145
909.878	7118
909.993	7122
910.108	7042
910.224	7053
910.339	7095
910.454	6985
910.57	6996
910.685	6905
910.8	7175
910.915	7072
911.03	7034
911.145	6882
911.259	6909
911.374	6894
911.489	6795
911.604	6882
911.718	6764
911.833	6741
911.947	6642
912.062	6623
912.176	6726
912.291	6677
912.405	6753
912.519	6821
912.633	6795
912.748	6681
912.862	6665
912.976	6585
913.09	6578
913.204	6585
913.318	6601
913.431	6700
913.545	6673
913.659	6673
913.772	6623
913.886	6608
914	6547
914.113	6692
914.226	6597
914.34	6555
914.453	6464
914.566	6566
914.68	6506
914.793	6506
914.906	6418
915.019	6418
915.132	6403
915.245	6422
915.358	6437
915.47	6433
915.583	6464
915.696	6467
915.809	6506
915.921	6544
916.034	6410
916.146	6479
916.259	6399
916.371	6441
916.483	6429
916.595	6391
916.708	6445
916.82	6418
916.932	6399
917.044	6460
917.156	6429
917.268	6308
917.38	6369
917.491	6319
917.603	6292
917.715	6422
917.826	6407
917.938	6372
918.049	6201
918.161	6399
918.272	6346
918.384	6399
918.495	6323
918.606	6251
918.717	6171
918.828	6292
918.939	6224
919.05	6197
919.161	6205
919.272	6136
919.383	6148
919.494	6304
919.604	6429
919.715	6251
919.826	6194
919.936	6216
920.047	6319
920.157	6216
920.267	6403
920.378	6304
920.488	6254
920.598	6460
920.708	6582
920.818	6422
920.928	6490
921.038	6582
921.148	6623
921.258	6338
921.368	6304
921.477	6095
921.587	6140
921.697	6068
921.806	6239
921.916	6053
922.025	5904
922.134	6015
922.244	5855
922.353	5931
922.462	5851
922.571	5786
922.68	5672
922.789	5676
922.898	5684
923.007	5657
923.116	5684
923.224	5668
923.333	5676
923.442	5581
923.55	5608
923.659	5577
923.767	5657
923.876	5562
923.984	5581
924.092	5501
924.201	5516
924.309	5509
924.417	5528
924.525	5520
924.633	5482
924.741	6205
924.849	5334
924.956	5490
925.064	5395
925.172	5261
925.279	5326
925.387	5353
925.494	5318
925.602	5410
925.709	5330
925.816	5227
925.924	5303
926.031	5330
926.138	5330
926.245	5330
926.352	5208
926.459	5322
926.566	5318
926.673	5189
926.779	5128
926.886	5102
926.993	5014
927.099	4968
927.206	4972
927.312	4968
927.419	4980
927.525	4911
927.631	4976
927.737	4908
927.843	4866
927.95	4797
928.056	4809
928.162	4820
928.267	4835
928.373	5246
928.479	4843
928.585	4618
928.69	4771
928.796	4824
928.901	4721
929.007	4542
929.112	4710
929.218	4660
929.323	4573
929.428	4527
929.533	4668
929.638	4478
929.743	4516
929.848	4584
929.953	4489
930.058	4432
930.163	4299
930.267	4352
930.372	4428
930.477	4303
930.581	4466
930.685	4371
930.79	4306
930.894	4272
930.998	4242
931.103	4409
931.207	4112
931.311	4101
931.415	3987
931.519	3922
931.623	3964
