Data from glass_V78500241_1109.txt Node
Date: Wed Sep 01 19:22:11 CST 2021
User: usil
Spectrometer: V785-0024
Trigger mode: 0
Integration Time (sec): 4.000000E-1
Scans to average: 1
Nonlinearity correction enabled: false
Boxcar width: 0
Storing dark spectrum: false
XAxis mode: Wavelengths
Number of Pixels in Spectrum: 1024
>>>>>Begin Spectral Data<<<<<
801.071	3717
801.214	3717
801.356	3747
801.499	3740
801.641	3759
801.783	3793
801.926	3892
802.068	3831
802.211	3781
802.353	3869
802.496	3831
802.638	3884
802.78	3884
802.923	3903
803.065	3880
803.208	3876
803.35	3896
803.492	3892
803.635	3880
803.777	3816
803.919	3869
804.061	4181
804.204	3983
804.346	3987
804.488	3896
804.63	4036
804.773	3953
804.915	4017
805.057	4139
805.199	4093
805.341	4158
805.483	4135
805.626	4154
805.768	4116
805.91	4234
806.052	4246
806.194	4242
806.336	4325
806.478	4188
806.62	4147
806.762	4166
806.904	4284
807.046	4341
807.188	4192
807.33	4219
807.472	4219
807.614	4223
807.756	4272
807.898	4230
808.04	4196
808.182	4360
808.324	4341
808.465	4367
808.607	4466
808.749	4462
808.891	4489
809.033	4512
809.174	4462
809.316	4265
809.458	4276
809.6	4162
809.741	4188
809.883	4128
810.025	4227
810.166	4249
810.308	4196
810.45	4242
810.591	4242
810.733	4291
810.875	4508
811.016	4850
811.158	5143
811.299	5265
811.441	5292
811.582	5045
811.724	4683
811.865	4497
812.007	4478
812.148	4421
812.29	4386
812.431	4436
812.573	4436
812.714	4356
812.855	4440
812.997	4436
813.138	4512
813.279	4409
813.421	4375
813.562	4386
813.703	4379
813.845	4348
813.986	4299
814.127	4257
814.268	4268
814.41	4314
814.551	4268
814.692	4337
814.833	4284
814.974	4314
815.115	4333
815.256	4265
815.397	4276
815.539	4230
815.68	4192
815.821	4261
815.962	4337
816.103	4287
816.244	4238
816.385	4242
816.526	4299
816.666	4230
816.807	4097
816.948	4227
817.089	4219
817.23	4150
817.371	4036
817.512	4074
817.653	4074
817.793	4078
817.934	4086
818.075	4051
818.216	4059
818.356	4128
818.497	3991
818.638	3953
818.778	3918
818.919	3880
819.06	3842
819.2	3899
819.341	3846
819.481	3835
819.622	3926
819.762	4067
819.903	3964
820.043	3899
820.184	3850
820.324	3827
820.465	3827
820.605	3850
820.746	3888
820.886	3808
821.026	3941
821.167	3876
821.307	3960
821.447	3960
821.588	3983
821.728	3972
821.868	3964
822.008	3888
822.149	3968
822.289	3941
822.429	3800
822.569	3762
822.709	3838
822.849	3698
822.99	3755
823.13	3732
823.27	3808
823.41	3705
823.55	3740
823.69	3690
823.83	3770
823.97	3690
824.11	3652
824.25	3622
824.389	3671
824.529	3709
824.669	3675
824.809	3713
824.949	3743
825.089	3740
825.228	3694
825.368	3553
825.508	3584
825.648	3603
825.787	3637
825.927	3644
826.067	3660
826.206	3694
826.346	3781
826.485	3854
826.625	3865
826.765	3975
826.904	3816
827.044	3644
827.183	3553
827.323	3416
827.462	3477
827.601	3473
827.741	3462
827.88	3424
828.02	3329
828.159	3431
828.298	3443
828.437	3549
828.577	3481
828.716	3591
828.855	3538
828.994	3374
829.134	3378
829.273	3378
829.412	3416
829.551	3355
829.69	3374
829.829	3420
829.968	3530
830.107	3469
830.246	3431
830.385	3370
830.524	3367
830.663	3325
830.802	3249
830.941	3230
831.08	3214
831.219	3294
831.357	3275
831.496	3389
831.635	3233
831.774	3211
831.913	3211
832.051	3131
832.19	3138
832.329	3218
832.467	3142
832.606	3112
832.744	3161
832.883	3161
833.022	3195
833.16	3287
833.299	3332
833.437	3344
833.576	3359
833.714	3412
833.852	3435
833.991	3454
834.129	3488
834.267	3416
834.406	3424
834.544	3435
834.682	3420
834.821	3435
834.959	3599
835.097	3389
835.235	3553
835.373	3496
835.511	3504
835.65	3485
835.788	3458
835.926	3401
836.064	3393
836.202	3389
836.34	3599
836.478	3625
836.615	3568
836.753	3606
836.891	3610
837.029	3618
837.167	3599
837.305	3595
837.443	3580
837.58	3545
837.718	3591
837.856	3584
837.993	3549
838.131	3591
838.269	3618
838.406	3576
838.544	3614
838.681	3477
838.819	3477
838.956	3348
839.094	3386
839.231	3416
839.369	3534
839.506	3720
839.643	3606
839.781	3488
839.918	3473
840.055	3519
840.193	3530
840.33	3515
840.467	3576
840.604	3606
840.742	3842
840.879	3564
841.016	3572
841.153	3591
841.29	3755
841.427	3770
841.564	3690
841.701	3793
841.838	3759
841.975	3743
842.112	3751
842.249	3679
842.385	3641
842.522	3842
842.659	3694
842.796	3660
842.933	3740
843.069	3698
843.206	3698
843.343	3789
843.479	3743
843.616	3880
843.752	3686
843.889	3690
844.025	3873
844.162	3736
844.298	3842
844.435	3831
844.571	3789
844.708	3873
844.844	4013
844.98	4006
845.117	4017
845.253	3964
845.389	3926
845.525	3953
845.661	3994
845.798	3907
845.934	4006
846.07	3911
846.206	3998
846.342	4154
846.478	4059
846.614	3975
846.75	3964
846.886	3949
847.022	4063
847.158	3975
847.294	3987
847.429	4021
847.565	4002
847.701	4227
847.837	3911
847.972	3861
848.108	3987
848.244	3956
848.379	3827
848.515	3846
848.65	3789
848.786	3880
848.921	3880
849.057	3937
849.192	3945
849.328	3915
849.463	3926
849.598	3899
849.734	3892
849.869	3873
850.004	3770
850.14	3819
850.275	3797
850.41	3705
850.545	3740
850.68	3797
850.815	3842
850.95	3816
851.085	3918
851.22	3918
851.355	3827
851.49	3793
851.625	3835
851.76	3797
851.895	3736
852.03	3736
852.165	3865
852.299	3850
852.434	3926
852.569	3888
852.703	3926
852.838	3979
852.973	3956
853.107	3998
853.242	3918
853.376	3861
853.511	3793
853.645	3854
853.78	4002
853.914	3857
854.048	3899
854.183	3873
854.317	3979
854.451	4105
854.585	3915
854.72	3975
854.854	4048
854.988	3926
855.122	4021
855.256	3926
855.39	3998
855.524	4116
855.658	4029
855.792	4109
855.926	4150
856.06	4173
856.194	4238
856.327	4135
856.461	4120
856.595	4196
856.729	4207
856.862	4295
856.996	4192
857.13	4348
857.263	4367
857.397	4348
857.53	4352
857.664	4417
857.797	4424
857.931	4417
858.064	4386
858.197	4432
858.331	4409
858.464	4398
858.597	4356
858.731	4424
858.864	4417
858.997	4481
859.13	4519
859.263	4542
859.396	4577
859.529	4447
859.662	4573
859.795	4584
859.928	4630
860.061	4736
860.194	4771
860.327	4668
860.46	4653
860.592	4771
860.725	4771
860.858	4831
860.99	4736
861.123	4672
861.256	4740
861.388	4759
861.521	5387
861.653	4736
861.786	4748
861.918	4748
862.05	4767
862.183	4866
862.315	4866
862.447	4923
862.58	4904
862.712	4782
862.844	4778
862.976	4889
863.108	4908
863.24	5197
863.372	4786
863.504	4870
863.636	4927
863.768	4919
863.9	4965
864.032	4930
864.164	4946
864.296	4968
864.428	5113
864.559	5109
864.691	5162
864.823	5086
864.954	5121
865.086	5166
865.217	5098
865.349	5086
865.48	5178
865.612	5227
865.743	5334
865.875	5151
866.006	5208
866.137	5250
866.269	5254
866.4	5322
866.531	5220
866.662	5216
866.793	5231
866.924	5307
867.055	5360
867.186	5368
867.317	5326
867.448	5345
867.579	5414
867.71	5414
867.841	5353
867.972	5417
868.103	5463
868.233	5471
868.364	5528
868.495	5516
868.625	5649
868.756	5844
868.886	5699
869.017	5710
869.147	5866
869.278	5874
869.408	5828
869.539	5809
869.669	5935
869.799	5912
869.929	5980
870.06	5984
870.19	6171
870.32	6163
870.45	6232
870.58	6311
870.71	6464
870.84	6490
870.97	6456
871.1	6429
871.23	6635
871.36	6719
871.489	6669
871.619	6715
871.749	6829
871.879	6913
872.008	7038
872.138	6935
872.267	6996
872.397	6993
872.526	7084
872.656	7076
872.785	7156
872.915	7358
873.044	7510
873.173	7506
873.303	7696
873.432	7727
873.561	7890
873.69	7883
873.819	7997
873.948	8130
874.077	8271
874.206	8347
874.335	8450
874.464	8670
874.593	8956
874.722	8921
874.851	9081
874.979	9237
875.108	9355
875.237	9431
875.365	9473
875.494	9584
875.623	9850
875.751	9854
875.88	10002
876.008	10112
876.136	10306
876.265	10546
876.393	10634
876.521	10714
876.65	10797
876.778	10984
876.906	10881
877.034	10995
877.162	11014
877.29	11185
877.418	11391
877.546	11414
877.674	11474
877.802	11528
877.93	11558
878.058	11589
878.185	11516
878.313	11566
878.441	11703
878.568	11684
878.696	11722
878.824	11977
878.951	11901
879.079	11935
879.206	12068
879.333	12095
879.461	11999
879.588	12083
879.715	12110
879.842	12201
879.97	12129
880.097	11885
880.224	11923
880.351	11885
880.478	11992
880.605	11935
880.732	11779
880.859	11973
880.986	11828
881.112	11859
881.239	11786
881.366	11680
881.493	11737
881.619	11623
881.746	11551
881.872	11562
881.999	11604
882.125	11524
882.252	11547
882.378	11532
882.505	11524
882.631	11414
882.757	11296
882.883	11311
883.01	11311
883.136	11189
883.262	11105
883.388	11147
883.514	11124
883.64	11166
883.766	11136
883.892	10968
884.018	11018
884.143	11140
884.269	11105
884.395	10896
884.52	10702
884.646	10816
884.772	10797
884.897	10683
885.023	10672
885.148	10672
885.274	10679
885.399	10748
885.524	10596
885.65	10565
885.775	10573
885.9	10577
886.025	10622
886.15	10580
886.275	10455
886.4	10348
886.525	10333
886.65	10360
886.775	10337
886.9	10436
887.025	10637
887.149	10470
887.274	10257
887.399	10143
887.523	10162
887.648	10192
887.773	10055
887.897	10310
888.021	10272
888.146	10211
888.27	10249
888.395	10204
888.519	10131
888.643	10188
888.767	10223
888.891	9994
889.015	9949
889.139	10021
889.263	9972
889.387	10116
889.511	10112
889.635	10036
889.759	9983
889.883	10002
890.006	9991
890.13	10071
890.254	9994
890.377	9956
890.501	9915
890.624	9934
890.748	9953
890.871	9819
890.995	9842
891.118	9732
891.241	9827
891.364	9713
891.488	9766
891.611	9827
891.734	9751
891.857	9751
891.98	9736
892.103	9766
892.226	9766
892.349	9740
892.471	9519
892.594	9576
892.717	9576
892.839	9614
892.962	9603
893.085	9675
893.207	9557
893.33	9511
893.452	9557
893.575	9606
893.697	9542
893.819	9580
893.941	9622
894.064	9625
894.186	9481
894.308	9431
894.43	9504
894.552	9584
894.674	9519
894.796	9355
894.918	9469
895.04	9348
895.161	9431
895.283	9332
895.405	9237
895.526	9203
895.648	9249
895.769	9230
895.891	9222
896.012	9249
896.134	9176
896.255	9188
896.376	9176
896.498	9287
896.619	9123
896.74	9100
896.861	9097
896.982	9279
897.103	9340
897.224	9180
897.345	9157
897.466	9047
897.587	9116
897.708	9119
897.828	9058
897.949	8975
898.07	8834
898.19	8906
898.311	9089
898.431	8952
898.552	8880
898.672	8960
898.792	8899
898.913	8929
899.033	8811
899.153	8731
899.273	8670
899.393	8693
899.513	8766
899.633	8708
899.753	8792
899.873	8686
899.993	8686
900.113	8659
900.232	8724
900.352	8636
900.472	8644
900.591	8640
900.711	8621
900.83	8522
900.95	8705
901.069	8731
901.189	8549
901.308	8457
901.427	8400
901.546	8484
901.665	8465
901.784	8438
901.904	8355
902.023	8301
902.141	8271
902.26	8210
902.379	8282
902.498	8221
902.617	8187
902.735	8294
902.854	8237
902.973	8248
903.091	8092
903.21	8191
903.328	8119
903.446	8115
903.565	8043
903.683	8145
903.801	8027
903.919	8138
904.038	8134
904.156	8058
904.274	8084
904.392	8050
904.51	8096
904.627	8077
904.745	8077
904.863	8119
904.981	7982
905.098	7849
905.216	7913
905.334	7906
905.451	7925
905.569	7879
905.686	7940
905.803	7993
905.921	7784
906.038	7925
906.155	7795
906.272	7696
906.389	7719
906.506	7674
906.623	7628
906.74	7651
906.857	7597
906.974	7605
907.091	7708
907.208	7818
907.324	7715
907.441	7571
907.557	7403
907.674	7483
907.79	7422
907.907	7468
908.023	7392
908.139	7430
908.256	7400
908.372	7324
908.488	7369
908.604	7289
908.72	7213
908.836	7331
908.952	7327
909.068	7297
909.184	7324
909.3	7247
909.415	7251
909.531	7297
909.647	7114
909.762	7114
909.878	7065
909.993	7110
910.108	7114
910.224	7160
910.339	7133
910.454	6996
910.57	7004
910.685	6973
910.8	7217
910.915	7114
911.03	7031
911.145	6890
911.259	6920
911.374	6958
911.489	6798
911.604	6825
911.718	6734
911.833	6734
911.947	6631
912.062	6677
912.176	6734
912.291	6753
912.405	6688
912.519	6894
912.633	6840
912.748	6802
912.862	6700
912.976	6578
913.09	6532
913.204	6608
913.318	6620
913.431	6681
913.545	6677
913.659	6719
913.772	6696
913.886	6559
914	6574
914.113	6627
914.226	6604
914.34	6582
914.453	6502
914.566	6620
914.68	6528
914.793	6521
914.906	6388
915.019	6342
915.132	6426
915.245	6490
915.358	6437
915.47	6422
915.583	6494
915.696	6563
915.809	6532
915.921	6593
916.034	6372
916.146	6426
916.259	6353
916.371	6467
916.483	6494
916.595	6448
916.708	6441
916.82	6441
916.932	6319
917.044	6410
917.156	6429
917.268	6319
917.38	6365
917.491	6350
917.603	6353
917.715	6452
917.826	6422
917.938	6342
918.049	6213
918.161	6308
918.272	6407
918.384	6513
918.495	6369
918.606	6270
918.717	6205
918.828	6331
918.939	6232
919.05	6220
919.161	6266
919.272	6171
919.383	6159
919.494	6331
919.604	6418
919.715	6273
919.826	6197
919.936	6289
920.047	6262
920.157	6285
920.267	6486
920.378	6357
920.488	6304
920.598	6486
920.708	6585
920.818	6448
920.928	6498
921.038	6616
921.148	6601
921.258	6323
921.368	6304
921.477	6190
921.587	6232
921.697	6152
921.806	6190
921.916	6045
922.025	5996
922.134	5874
922.244	5863
922.353	5973
922.462	5855
922.571	5824
922.68	5653
922.789	5691
922.898	5695
923.007	5646
923.116	5767
923.224	5638
923.333	5657
923.442	5627
923.55	5551
923.659	5611
923.767	5638
923.876	5516
923.984	5600
924.092	5524
924.201	5608
924.309	5551
924.417	5573
924.525	5474
924.633	5501
924.741	6251
924.849	5341
924.956	5486
925.064	5299
925.172	5318
925.279	5326
925.387	5376
925.494	5368
925.602	5467
925.709	5372
925.816	5292
925.924	5341
926.031	5357
926.138	5349
926.245	5330
926.352	5220
926.459	5280
926.566	5360
926.673	5223
926.779	5124
926.886	5079
926.993	5071
927.099	5018
927.206	4968
927.312	4980
927.419	5022
927.525	4953
927.631	4957
927.737	4881
927.843	4866
927.95	4771
928.056	4870
928.162	4847
928.267	4858
928.373	5357
928.479	4904
928.585	4683
928.69	4763
928.796	4824
928.901	4687
929.007	4611
929.112	4630
929.218	4645
929.323	4668
929.428	4573
929.533	4649
929.638	4519
929.743	4550
929.848	4577
929.953	4538
930.058	4436
930.163	4333
930.267	4386
930.372	4436
930.477	4348
930.581	4440
930.685	4398
930.79	4246
930.894	4257
930.998	4303
931.103	4383
931.207	4135
931.311	4093
931.415	4048
931.519	3968
931.623	3953
