Data from glass_V78500241_1017.txt Node
Date: Wed Sep 01 19:21:32 CST 2021
User: usil
Spectrometer: V785-0024
Trigger mode: 0
Integration Time (sec): 4.000000E-1
Scans to average: 1
Nonlinearity correction enabled: false
Boxcar width: 0
Storing dark spectrum: false
XAxis mode: Wavelengths
Number of Pixels in Spectrum: 1024
>>>>>Begin Spectral Data<<<<<
801.071	3759
801.214	3743
801.356	3705
801.499	3762
801.641	3713
801.783	3766
801.926	3892
802.068	3842
802.211	3865
802.353	3876
802.496	3804
802.638	3865
802.78	3899
802.923	3983
803.065	3896
803.208	3842
803.35	3880
803.492	3892
803.635	3911
803.777	3804
803.919	3899
804.061	4124
804.204	3991
804.346	3968
804.488	3934
804.63	4048
804.773	3953
804.915	4074
805.057	4177
805.199	4017
805.341	4082
805.483	4169
805.626	4135
805.768	4120
805.91	4223
806.052	4234
806.194	4211
806.336	4356
806.478	4181
806.62	4177
806.762	4185
806.904	4238
807.046	4363
807.188	4265
807.33	4185
807.472	4272
807.614	4200
807.756	4249
807.898	4211
808.04	4223
808.182	4284
808.324	4322
808.465	4424
808.607	4436
808.749	4432
808.891	4424
809.033	4485
809.174	4436
809.316	4276
809.458	4234
809.6	4135
809.741	4192
809.883	4185
810.025	4223
810.166	4196
810.308	4204
810.45	4268
810.591	4272
810.733	4291
810.875	4481
811.016	4820
811.158	5185
811.299	5261
811.441	5265
811.582	5014
811.724	4679
811.865	4481
812.007	4508
812.148	4436
812.29	4451
812.431	4428
812.573	4417
812.714	4344
812.855	4413
812.997	4402
813.138	4489
813.279	4421
813.421	4371
813.562	4409
813.703	4341
813.845	4344
813.986	4265
814.127	4287
814.268	4265
814.41	4314
814.551	4280
814.692	4371
814.833	4322
814.974	4287
815.115	4360
815.256	4295
815.397	4253
815.539	4246
815.68	4207
815.821	4227
815.962	4306
816.103	4322
816.244	4234
816.385	4265
816.526	4284
816.666	4169
816.807	4173
816.948	4188
817.089	4227
817.23	4120
817.371	4093
817.512	4051
817.653	4063
817.793	4029
817.934	4082
818.075	4109
818.216	4074
818.356	4086
818.497	3987
818.638	3937
818.778	3937
818.919	3960
819.06	3907
819.2	3972
819.341	3896
819.481	3793
819.622	3934
819.762	4013
819.903	3983
820.043	3842
820.184	3854
820.324	3789
820.465	3880
820.605	3869
820.746	3873
820.886	3827
821.026	3987
821.167	3926
821.307	3975
821.447	4025
821.588	3960
821.728	3975
821.868	3956
822.008	3884
822.149	3930
822.289	3930
822.429	3770
822.569	3759
822.709	3800
822.849	3675
822.99	3720
823.13	3705
823.27	3736
823.41	3679
823.55	3698
823.69	3762
823.83	3724
823.97	3675
824.11	3580
824.25	3568
824.389	3663
824.529	3701
824.669	3614
824.809	3743
824.949	3755
825.089	3747
825.228	3713
825.368	3625
825.508	3557
825.648	3599
825.787	3618
825.927	3660
826.067	3622
826.206	3671
826.346	3755
826.485	3876
826.625	3861
826.765	3979
826.904	3850
827.044	3625
827.183	3526
827.323	3458
827.462	3542
827.601	3420
827.741	3454
827.88	3447
828.02	3424
828.159	3431
828.298	3469
828.437	3526
828.577	3488
828.716	3633
828.855	3523
828.994	3424
829.134	3359
829.273	3473
829.412	3382
829.551	3355
829.69	3386
829.829	3416
829.968	3507
830.107	3462
830.246	3435
830.385	3370
830.524	3351
830.663	3302
830.802	3279
830.941	3184
831.08	3214
831.219	3279
831.357	3306
831.496	3374
831.635	3214
831.774	3157
831.913	3203
832.051	3131
832.19	3138
832.329	3233
832.467	3131
832.606	3127
832.744	3199
832.883	3199
833.022	3203
833.16	3260
833.299	3332
833.437	3340
833.576	3348
833.714	3412
833.852	3435
833.991	3469
834.129	3481
834.267	3458
834.406	3405
834.544	3416
834.682	3462
834.821	3401
834.959	3568
835.097	3458
835.235	3523
835.373	3530
835.511	3542
835.65	3466
835.788	3515
835.926	3420
836.064	3412
836.202	3428
836.34	3610
836.478	3599
836.615	3591
836.753	3641
836.891	3648
837.029	3663
837.167	3591
837.305	3587
837.443	3561
837.58	3500
837.718	3591
837.856	3595
837.993	3511
838.131	3610
838.269	3587
838.406	3610
838.544	3564
838.681	3439
838.819	3439
838.956	3348
839.094	3389
839.231	3450
839.369	3515
839.506	3736
839.643	3663
839.781	3511
839.918	3496
840.055	3530
840.193	3523
840.33	3576
840.467	3595
840.604	3648
840.742	3835
840.879	3568
841.016	3564
841.153	3614
841.29	3781
841.427	3751
841.564	3690
841.701	3766
841.838	3694
841.975	3652
842.112	3720
842.249	3633
842.385	3622
842.522	3846
842.659	3736
842.796	3679
842.933	3698
843.069	3698
843.206	3709
843.343	3812
843.479	3759
843.616	3835
843.752	3660
843.889	3690
844.025	3854
844.162	3732
844.298	3846
844.435	3808
844.571	3808
844.708	3934
844.844	4048
844.98	4051
845.117	4025
845.253	3922
845.389	3911
845.525	3937
845.661	3983
845.798	3941
845.934	4002
846.07	3960
846.206	4048
846.342	4120
846.478	4105
846.614	3949
846.75	3941
846.886	3930
847.022	4051
847.158	3983
847.294	3998
847.429	4029
847.565	3998
847.701	4249
847.837	3884
847.972	3903
848.108	3998
848.244	3945
848.379	3842
848.515	3797
848.65	3808
848.786	3857
848.921	3884
849.057	3922
849.192	3922
849.328	3956
849.463	3873
849.598	3884
849.734	3838
849.869	3838
850.004	3800
850.14	3823
850.275	3823
850.41	3740
850.545	3762
850.68	3800
850.815	3812
850.95	3797
851.085	3964
851.22	3861
851.355	3869
851.49	3785
851.625	3808
851.76	3827
851.895	3740
852.03	3751
852.165	3781
852.299	3880
852.434	3915
852.569	3869
852.703	3884
852.838	3956
852.973	4002
853.107	3987
853.242	3926
853.376	3835
853.511	3789
853.645	3846
853.78	3991
853.914	3918
854.048	3896
854.183	3869
854.317	3964
854.451	3998
854.585	4025
854.72	3953
854.854	4055
854.988	3937
855.122	4044
855.256	3907
855.39	4029
855.524	4124
855.658	4097
855.792	4105
855.926	4196
856.06	4188
856.194	4234
856.327	4154
856.461	4120
856.595	4124
856.729	4200
856.862	4257
856.996	4268
857.13	4341
857.263	4329
857.397	4379
857.53	4303
857.664	4424
857.797	4379
857.931	4432
858.064	4417
858.197	4485
858.331	4379
858.464	4367
858.597	4348
858.731	4421
858.864	4459
858.997	4459
859.13	4561
859.263	4580
859.396	4607
859.529	4500
859.662	4550
859.795	4508
859.928	4607
860.061	4729
860.194	4740
860.327	4649
860.46	4634
860.592	4736
860.725	4790
860.858	4782
860.99	4717
861.123	4717
861.256	4740
861.388	4790
861.521	5532
861.653	4740
861.786	4744
861.918	4759
862.05	4797
862.183	4843
862.315	4896
862.447	4949
862.58	4908
862.712	4820
862.844	4820
862.976	4896
863.108	4900
863.24	5280
863.372	4812
863.504	4881
863.636	4850
863.768	4961
863.9	4987
864.032	4942
864.164	4995
864.296	4972
864.428	5136
864.559	5109
864.691	5136
864.823	5124
864.954	5128
865.086	5166
865.217	5143
865.349	5121
865.48	5189
865.612	5204
865.743	5307
865.875	5159
866.006	5193
866.137	5292
866.269	5212
866.4	5258
866.531	5246
866.662	5261
866.793	5250
866.924	5288
867.055	5326
867.186	5326
867.317	5330
867.448	5284
867.579	5357
867.71	5360
867.841	5402
867.972	5448
868.103	5448
868.233	5455
868.364	5490
868.495	5524
868.625	5646
868.756	5802
868.886	5695
869.017	5741
869.147	5832
869.278	5897
869.408	5783
869.539	5813
869.669	5870
869.799	5889
869.929	5977
870.06	6049
870.19	6186
870.32	6167
870.45	6296
870.58	6315
870.71	6460
870.84	6460
870.97	6357
871.1	6460
871.23	6627
871.36	6787
871.489	6692
871.619	6814
871.749	6795
871.879	6928
872.008	7069
872.138	6989
872.267	7072
872.397	6993
872.526	7038
872.656	7072
872.785	7171
872.915	7301
873.044	7582
873.173	7529
873.303	7578
873.432	7742
873.561	7841
873.69	7951
873.819	8035
873.948	8161
874.077	8320
874.206	8377
874.335	8454
874.464	8689
874.593	8880
874.722	8975
874.851	9142
874.979	9287
875.108	9298
875.237	9507
875.365	9492
875.494	9682
875.623	9838
875.751	9854
875.88	9911
876.008	10169
876.136	10280
876.265	10455
876.393	10687
876.521	10748
876.65	10892
876.778	10896
876.906	10927
877.034	11018
877.162	11166
877.29	11166
877.418	11258
877.546	11391
877.674	11463
877.802	11532
877.93	11486
878.058	11623
878.185	11573
878.313	11752
878.441	11729
878.568	11741
878.696	11843
878.824	11824
878.951	11927
879.079	11965
879.206	12232
879.333	12133
879.461	12030
879.588	12155
879.715	12060
879.842	12209
879.97	12064
880.097	11882
880.224	11843
880.351	12007
880.478	11897
880.605	11828
880.732	11786
880.859	12049
880.986	11851
881.112	11901
881.239	11733
881.366	11630
881.493	11558
881.619	11585
881.746	11573
881.872	11630
881.999	11486
882.125	11562
882.252	11581
882.378	11440
882.505	11600
882.631	11379
882.757	11292
882.883	11315
883.01	11288
883.136	11162
883.262	11174
883.388	11041
883.514	11181
883.64	11231
883.766	11086
883.892	11022
884.018	10927
884.143	11181
884.269	11170
884.395	10873
884.52	10778
884.646	10771
884.772	10755
884.897	10656
885.023	10660
885.148	10736
885.274	10809
885.399	10714
885.524	10641
885.65	10573
885.775	10641
885.9	10603
886.025	10603
886.15	10542
886.275	10497
886.4	10421
886.525	10459
886.65	10398
886.775	10341
886.9	10481
887.025	10527
887.149	10443
887.274	10238
887.399	10272
887.523	10306
887.648	10253
887.773	10090
887.897	10261
888.021	10200
888.146	10109
888.27	10162
888.395	10211
888.519	10166
888.643	10169
888.767	10276
888.891	10071
889.015	10006
889.139	10097
889.263	9907
889.387	10051
889.511	10200
889.635	10097
889.759	9964
889.883	9994
890.006	10002
890.13	10101
890.254	9884
890.377	9922
890.501	9915
890.624	9907
890.748	9819
890.871	9823
890.995	9709
891.118	9663
891.241	9705
891.364	9732
891.488	9819
891.611	9785
891.734	9743
891.857	9743
891.98	9728
892.103	9827
892.226	9709
892.349	9797
892.471	9572
892.594	9709
892.717	9686
892.839	9618
892.962	9641
893.085	9698
893.207	9644
893.33	9485
893.452	9500
893.575	9663
893.697	9515
893.819	9568
893.941	9633
894.064	9675
894.186	9386
894.308	9439
894.43	9561
894.552	9519
894.674	9507
894.796	9416
894.918	9416
895.04	9298
895.161	9408
895.283	9416
895.405	9279
895.526	9294
895.648	9291
895.769	9241
895.891	9279
896.012	9291
896.134	9233
896.255	9150
896.376	9142
896.498	9146
896.619	9112
896.74	9043
896.861	9123
896.982	9245
897.103	9275
897.224	9192
897.345	9055
897.466	9009
897.587	8963
897.708	9123
897.828	9020
897.949	8960
898.07	8842
898.19	8963
898.311	9043
898.431	8876
898.552	8933
898.672	8986
898.792	8956
898.913	8937
899.033	8849
899.153	8727
899.273	8682
899.393	8720
899.513	8792
899.633	8735
899.753	8674
899.873	8697
899.993	8727
900.113	8693
900.232	8689
900.352	8602
900.472	8602
900.591	8571
900.711	8659
900.83	8526
900.95	8602
901.069	8686
901.189	8533
901.308	8461
901.427	8526
901.546	8419
901.665	8473
901.784	8484
901.904	8381
902.023	8298
902.141	8259
902.26	8237
902.379	8279
902.498	8252
902.617	8218
902.735	8229
902.854	8275
902.973	8244
903.091	8157
903.21	8119
903.328	8248
903.446	8073
903.565	8046
903.683	8103
903.801	8008
903.919	8092
904.038	8123
904.156	8020
904.274	8058
904.392	8027
904.51	8008
904.627	8065
904.745	8107
904.863	8077
904.981	7947
905.098	7868
905.216	7917
905.334	7936
905.451	7913
905.569	7845
905.686	7951
905.803	7921
905.921	7799
906.038	7898
906.155	7784
906.272	7734
906.389	7708
906.506	7719
906.623	7624
906.74	7643
906.857	7521
906.974	7605
907.091	7655
907.208	7780
907.324	7609
907.441	7578
907.557	7521
907.674	7419
907.79	7384
907.907	7415
908.023	7441
908.139	7430
908.256	7381
908.372	7384
908.488	7369
908.604	7297
908.72	7236
908.836	7324
908.952	7320
909.068	7278
909.184	7305
909.3	7251
909.415	7251
909.531	7297
909.647	7171
909.762	7171
909.878	7152
909.993	7171
910.108	7099
910.224	7088
910.339	7183
910.454	7118
910.57	7004
910.685	6985
910.8	7209
910.915	7129
911.03	6989
911.145	6882
911.259	6913
911.374	6947
911.489	6806
911.604	6745
911.718	6677
911.833	6730
911.947	6677
912.062	6650
912.176	6734
912.291	6722
912.405	6715
912.519	6772
912.633	6821
912.748	6730
912.862	6696
912.976	6635
913.09	6555
913.204	6544
913.318	6692
913.431	6604
913.545	6722
913.659	6745
913.772	6612
913.886	6585
914	6551
914.113	6570
914.226	6677
914.34	6642
914.453	6547
914.566	6578
914.68	6582
914.793	6517
914.906	6441
915.019	6433
915.132	6338
915.245	6407
915.358	6456
915.47	6471
915.583	6426
915.696	6452
915.809	6513
915.921	6563
916.034	6532
916.146	6429
916.259	6384
916.371	6483
916.483	6426
916.595	6395
916.708	6445
916.82	6437
916.932	6403
917.044	6471
917.156	6418
917.268	6350
917.38	6342
917.491	6300
917.603	6346
917.715	6441
917.826	6433
917.938	6292
918.049	6338
918.161	6350
918.272	6429
918.384	6384
918.495	6365
918.606	6266
918.717	6186
918.828	6281
918.939	6270
919.05	6258
919.161	6304
919.272	6129
919.383	6216
919.494	6292
919.604	6380
919.715	6254
919.826	6270
919.936	6270
920.047	6357
920.157	6262
920.267	6471
920.378	6369
920.488	6289
920.598	6456
920.708	6555
920.818	6448
920.928	6475
921.038	6650
921.148	6635
921.258	6311
921.368	6311
921.477	6247
921.587	6194
921.697	6102
921.806	6186
921.916	6049
922.025	6007
922.134	5935
922.244	5874
922.353	5908
922.462	5859
922.571	5859
922.68	5756
922.789	5695
922.898	5676
923.007	5611
923.116	5767
923.224	5668
923.333	5665
923.442	5566
923.55	5558
923.659	5596
923.767	5619
923.876	5566
923.984	5634
924.092	5558
924.201	5539
924.309	5524
924.417	5566
924.525	5478
924.633	5558
924.741	6319
924.849	5345
924.956	5532
925.064	5372
925.172	5311
925.279	5322
925.387	5357
925.494	5311
925.602	5402
925.709	5429
925.816	5326
925.924	5296
926.031	5372
926.138	5337
926.245	5318
926.352	5212
926.459	5353
926.566	5341
926.673	5212
926.779	5201
926.886	5094
926.993	5064
927.099	5033
927.206	5010
927.312	4984
927.419	5006
927.525	4995
927.631	5018
927.737	4892
927.843	4843
927.95	4797
928.056	4828
928.162	4816
928.267	4835
928.373	5307
928.479	4881
928.585	4702
928.69	4763
928.796	4740
928.901	4786
929.007	4596
929.112	4679
929.218	4607
929.323	4618
929.428	4611
929.533	4675
929.638	4546
929.743	4535
929.848	4626
929.953	4455
930.058	4447
930.163	4344
930.267	4383
930.372	4443
930.477	4329
930.581	4516
930.685	4367
930.79	4238
930.894	4295
930.998	4306
931.103	4367
931.207	4120
931.311	4086
931.415	3994
931.519	3934
931.623	3987
