Data from glass_V78500241_994.txt Node
Date: Wed Sep 01 19:21:23 CST 2021
User: usil
Spectrometer: V785-0024
Trigger mode: 0
Integration Time (sec): 4.000000E-1
Scans to average: 1
Nonlinearity correction enabled: false
Boxcar width: 0
Storing dark spectrum: false
XAxis mode: Wavelengths
Number of Pixels in Spectrum: 1024
>>>>>Begin Spectral Data<<<<<
801.071	3713
801.214	3755
801.356	3724
801.499	3698
801.641	3736
801.783	3781
801.926	3873
802.068	3842
802.211	3873
802.353	3884
802.496	3846
802.638	3876
802.78	3926
802.923	3945
803.065	3876
803.208	3854
803.35	3892
803.492	3903
803.635	3876
803.777	3816
803.919	3937
804.061	4177
804.204	3964
804.346	3941
804.488	3926
804.63	4059
804.773	3972
804.915	4048
805.057	4188
805.199	4055
805.341	4101
805.483	4135
805.626	4112
805.768	4135
805.91	4188
806.052	4249
806.194	4219
806.336	4379
806.478	4246
806.62	4162
806.762	4173
806.904	4253
807.046	4379
807.188	4200
807.33	4192
807.472	4272
807.614	4230
807.756	4287
807.898	4249
808.04	4192
808.182	4261
808.324	4314
808.465	4322
808.607	4405
808.749	4474
808.891	4436
809.033	4497
809.174	4432
809.316	4284
809.458	4299
809.6	4169
809.741	4196
809.883	4158
810.025	4185
810.166	4211
810.308	4276
810.45	4230
810.591	4242
810.733	4318
810.875	4531
811.016	4892
811.158	5159
811.299	5303
811.441	5296
811.582	5037
811.724	4729
811.865	4489
812.007	4493
812.148	4474
812.29	4459
812.431	4424
812.573	4402
812.714	4348
812.855	4428
812.997	4413
813.138	4447
813.279	4443
813.421	4371
813.562	4348
813.703	4352
813.845	4333
813.986	4223
814.127	4211
814.268	4280
814.41	4325
814.551	4295
814.692	4306
814.833	4223
814.974	4344
815.115	4367
815.256	4299
815.397	4230
815.539	4253
815.68	4185
815.821	4238
815.962	4306
816.103	4276
816.244	4272
816.385	4265
816.526	4287
816.666	4200
816.807	4109
816.948	4188
817.089	4188
817.23	4147
817.371	4090
817.512	4143
817.653	4116
817.793	4044
817.934	4090
818.075	4082
818.216	4078
818.356	4105
818.497	4044
818.638	3903
818.778	3930
818.919	3861
819.06	3896
819.2	3964
819.341	3888
819.481	3854
819.622	3941
819.762	4010
819.903	3960
820.043	3892
820.184	3850
820.324	3793
820.465	3926
820.605	3861
820.746	3880
820.886	3842
821.026	3983
821.167	3937
821.307	3975
821.447	3956
821.588	3975
821.728	3953
821.868	3934
822.008	3934
822.149	3937
822.289	3979
822.429	3778
822.569	3781
822.709	3793
822.849	3679
822.99	3694
823.13	3755
823.27	3804
823.41	3698
823.55	3740
823.69	3743
823.83	3766
823.97	3682
824.11	3667
824.25	3606
824.389	3641
824.529	3701
824.669	3644
824.809	3740
824.949	3785
825.089	3781
825.228	3701
825.368	3587
825.508	3580
825.648	3580
825.787	3637
825.927	3629
826.067	3660
826.206	3644
826.346	3816
826.485	3816
826.625	3850
826.765	3953
826.904	3823
827.044	3660
827.183	3553
827.323	3420
827.462	3523
827.601	3401
827.741	3481
827.88	3466
828.02	3378
828.159	3477
828.298	3507
828.437	3504
828.577	3496
828.716	3580
828.855	3492
828.994	3405
829.134	3370
829.273	3386
829.412	3374
829.551	3336
829.69	3416
829.829	3458
829.968	3564
830.107	3447
830.246	3454
830.385	3401
830.524	3386
830.663	3302
830.802	3272
830.941	3195
831.08	3230
831.219	3291
831.357	3268
831.496	3405
831.635	3249
831.774	3188
831.913	3230
832.051	3180
832.19	3154
832.329	3237
832.467	3165
832.606	3123
832.744	3192
832.883	3195
833.022	3180
833.16	3298
833.299	3272
833.437	3370
833.576	3386
833.714	3443
833.852	3447
833.991	3481
834.129	3488
834.267	3428
834.406	3405
834.544	3416
834.682	3389
834.821	3428
834.959	3606
835.097	3409
835.235	3526
835.373	3519
835.511	3538
835.65	3492
835.788	3515
835.926	3401
836.064	3348
836.202	3386
836.34	3534
836.478	3656
836.615	3564
836.753	3644
836.891	3686
837.029	3614
837.167	3610
837.305	3568
837.443	3572
837.58	3504
837.718	3625
837.856	3553
837.993	3584
838.131	3610
838.269	3576
838.406	3595
838.544	3557
838.681	3492
838.819	3439
838.956	3397
839.094	3370
839.231	3450
839.369	3515
839.506	3717
839.643	3644
839.781	3492
839.918	3458
840.055	3568
840.193	3549
840.33	3515
840.467	3599
840.604	3595
840.742	3838
840.879	3538
841.016	3580
841.153	3591
841.29	3717
841.427	3701
841.564	3751
841.701	3766
841.838	3732
841.975	3698
842.112	3747
842.249	3641
842.385	3641
842.522	3873
842.659	3709
842.796	3728
842.933	3690
843.069	3675
843.206	3720
843.343	3873
843.479	3766
843.616	3812
843.752	3679
843.889	3682
844.025	3888
844.162	3732
844.298	3865
844.435	3842
844.571	3804
844.708	3876
844.844	3994
844.98	4002
845.117	4029
845.253	3884
845.389	3949
845.525	3998
845.661	4010
845.798	3899
845.934	4036
846.07	3991
846.206	4059
846.342	4116
846.478	4055
846.614	4006
846.75	3918
846.886	3865
847.022	4029
847.158	4013
847.294	3987
847.429	4006
847.565	3968
847.701	4261
847.837	3884
847.972	3861
848.108	4002
848.244	3964
848.379	3861
848.515	3827
848.65	3827
848.786	3816
848.921	3876
849.057	3899
849.192	3915
849.328	3930
849.463	3915
849.598	3907
849.734	3804
849.869	3838
850.004	3819
850.14	3831
850.275	3831
850.41	3778
850.545	3759
850.68	3785
850.815	3808
850.95	3812
851.085	3915
851.22	3884
851.355	3850
851.49	3781
851.625	3797
851.76	3800
851.895	3709
852.03	3713
852.165	3778
852.299	3873
852.434	3922
852.569	3869
852.703	3869
852.838	3964
852.973	3991
853.107	4025
853.242	3869
853.376	3869
853.511	3751
853.645	3846
853.78	4017
853.914	3915
854.048	3930
854.183	3892
854.317	3983
854.451	4048
854.585	3968
854.72	3934
854.854	4002
854.988	3945
855.122	4036
855.256	3975
855.39	4059
855.524	4139
855.658	4116
855.792	4116
855.926	4105
856.06	4238
856.194	4211
856.327	4135
856.461	4154
856.595	4169
856.729	4192
856.862	4310
856.996	4284
857.13	4284
857.263	4344
857.397	4409
857.53	4284
857.664	4329
857.797	4417
857.931	4455
858.064	4417
858.197	4451
858.331	4398
858.464	4409
858.597	4363
858.731	4447
858.864	4470
858.997	4512
859.13	4573
859.263	4531
859.396	4630
859.529	4558
859.662	4558
859.795	4554
859.928	4664
860.061	4645
860.194	4740
860.327	4668
860.46	4672
860.592	4755
860.725	4801
860.858	4805
860.99	4710
861.123	4717
861.256	4717
861.388	4831
861.521	5493
861.653	4698
861.786	4736
861.918	4717
862.05	4793
862.183	4839
862.315	4862
862.447	4968
862.58	4889
862.712	4831
862.844	4801
862.976	4847
863.108	4885
863.24	5239
863.372	4820
863.504	4892
863.636	4938
863.768	4976
863.9	4961
864.032	4908
864.164	4949
864.296	5064
864.428	5086
864.559	5117
864.691	5166
864.823	5143
864.954	5124
865.086	5162
865.217	5155
865.349	5132
865.48	5193
865.612	5246
865.743	5292
865.875	5166
866.006	5170
866.137	5273
866.269	5265
866.4	5284
866.531	5227
866.662	5269
866.793	5254
866.924	5284
867.055	5364
867.186	5357
867.317	5277
867.448	5307
867.579	5387
867.71	5345
867.841	5398
867.972	5459
868.103	5474
868.233	5436
868.364	5532
868.495	5558
868.625	5691
868.756	5817
868.886	5661
869.017	5756
869.147	5824
869.278	5847
869.408	5855
869.539	5798
869.669	6019
869.799	5916
869.929	5954
870.06	6015
870.19	6197
870.32	6232
870.45	6285
870.58	6350
870.71	6418
870.84	6460
870.97	6372
871.1	6452
871.23	6692
871.36	6658
871.489	6620
871.619	6696
871.749	6848
871.879	6905
872.008	6966
872.138	6989
872.267	7046
872.397	7042
872.526	7076
872.656	7118
872.785	7259
872.915	7396
873.044	7476
873.173	7567
873.303	7658
873.432	7746
873.561	7894
873.69	7947
873.819	8062
873.948	8164
874.077	8271
874.206	8339
874.335	8381
874.464	8621
874.593	8918
874.722	8963
874.851	9154
874.979	9173
875.108	9340
875.237	9405
875.365	9564
875.494	9644
875.623	9819
875.751	9850
875.88	9907
876.008	10150
876.136	10310
876.265	10649
876.393	10683
876.521	10679
876.65	10889
876.778	10850
876.906	10908
877.034	11014
877.162	11201
877.29	11105
877.418	11322
877.546	11322
877.674	11452
877.802	11512
877.93	11467
878.058	11570
878.185	11596
878.313	11688
878.441	11783
878.568	11710
878.696	11828
878.824	11882
878.951	11999
879.079	12079
879.206	12091
879.333	12102
879.461	11988
879.588	12079
879.715	12011
879.842	12232
879.97	12114
880.097	11885
880.224	11923
880.351	11882
880.478	11923
880.605	11843
880.732	11847
880.859	12038
880.986	11798
881.112	11882
881.239	11764
881.366	11646
881.493	11649
881.619	11566
881.746	11543
881.872	11554
881.999	11520
882.125	11486
882.252	11558
882.378	11524
882.505	11589
882.631	11376
882.757	11307
882.883	11345
883.01	11265
883.136	11220
883.262	11174
883.388	10980
883.514	11105
883.64	11204
883.766	11181
883.892	10984
884.018	11048
884.143	11121
884.269	11124
884.395	10919
884.52	10843
884.646	10767
884.772	10694
884.897	10622
885.023	10702
885.148	10706
885.274	10752
885.399	10698
885.524	10634
885.65	10580
885.775	10637
885.9	10599
886.025	10645
886.15	10516
886.275	10386
886.4	10322
886.525	10485
886.65	10341
886.775	10451
886.9	10451
887.025	10497
887.149	10314
887.274	10215
887.399	10143
887.523	10169
887.648	10135
887.773	10177
887.897	10280
888.021	10238
888.146	10116
888.27	10242
888.395	10177
888.519	10246
888.643	10181
888.767	10188
888.891	10147
889.015	10086
889.139	10071
889.263	9964
889.387	10063
889.511	10093
889.635	10139
889.759	10044
889.883	9953
890.006	10044
890.13	10109
890.254	9991
890.377	9922
890.501	9899
890.624	9918
890.748	9915
890.871	9774
890.995	9751
891.118	9675
891.241	9793
891.364	9732
891.488	9850
891.611	9778
891.734	9762
891.857	9770
891.98	9686
892.103	9835
892.226	9732
892.349	9682
892.471	9549
892.594	9553
892.717	9663
892.839	9576
892.962	9671
893.085	9671
893.207	9576
893.33	9477
893.452	9545
893.575	9629
893.697	9485
893.819	9603
893.941	9606
894.064	9557
894.186	9439
894.308	9382
894.43	9450
894.552	9580
894.674	9523
894.796	9317
894.918	9367
895.04	9329
895.161	9428
895.283	9336
895.405	9241
895.526	9264
895.648	9287
895.769	9226
895.891	9268
896.012	9306
896.134	9264
896.255	9195
896.376	9146
896.498	9173
896.619	9123
896.74	9097
896.861	9070
896.982	9291
897.103	9363
897.224	9146
897.345	9116
897.466	9009
897.587	9024
897.708	9142
897.828	9028
897.949	9043
898.07	8883
898.19	8883
898.311	9009
898.431	8941
898.552	8998
898.672	8941
898.792	8921
898.913	8944
899.033	8830
899.153	8716
899.273	8739
899.393	8743
899.513	8743
899.633	8769
899.753	8769
899.873	8785
899.993	8750
900.113	8682
900.232	8731
900.352	8617
900.472	8575
900.591	8560
900.711	8598
900.83	8556
900.95	8697
901.069	8674
901.189	8549
901.308	8450
901.427	8412
901.546	8442
901.665	8503
901.784	8484
901.904	8396
902.023	8351
902.141	8210
902.26	8229
902.379	8317
902.498	8199
902.617	8218
902.735	8298
902.854	8282
902.973	8256
903.091	8191
903.21	8157
903.328	8138
903.446	8119
903.565	8100
903.683	8111
903.801	8084
903.919	8149
904.038	8180
904.156	8027
904.274	8069
904.392	8012
904.51	8005
904.627	8073
904.745	8050
904.863	8168
904.981	7947
905.098	7917
905.216	7951
905.334	7921
905.451	7913
905.569	7906
905.686	8027
905.803	7982
905.921	7750
906.038	7871
906.155	7803
906.272	7727
906.389	7734
906.506	7723
906.623	7590
906.74	7616
906.857	7578
906.974	7655
907.091	7693
907.208	7750
907.324	7624
907.441	7567
907.557	7483
907.674	7502
907.79	7362
907.907	7320
908.023	7411
908.139	7434
908.256	7384
908.372	7441
908.488	7339
908.604	7255
908.72	7221
908.836	7255
908.952	7316
909.068	7289
909.184	7335
909.3	7263
909.415	7320
909.531	7247
909.647	7187
909.762	7137
909.878	7145
909.993	7129
910.108	7145
910.224	7027
910.339	7183
910.454	7042
910.57	7099
910.685	7023
910.8	7103
910.915	7129
911.03	7065
911.145	6886
911.259	6882
911.374	6928
911.489	6844
911.604	6837
911.718	6703
911.833	6730
911.947	6635
912.062	6646
912.176	6700
912.291	6738
912.405	6711
912.519	6802
912.633	6875
912.748	6715
912.862	6696
912.976	6620
913.09	6578
913.204	6559
913.318	6650
913.431	6711
913.545	6669
913.659	6692
913.772	6719
913.886	6582
914	6528
914.113	6620
914.226	6700
914.34	6620
914.453	6502
914.566	6604
914.68	6566
914.793	6506
914.906	6429
915.019	6452
915.132	6376
915.245	6388
915.358	6441
915.47	6437
915.583	6471
915.696	6452
915.809	6585
915.921	6517
916.034	6433
916.146	6433
916.259	6384
916.371	6483
916.483	6456
916.595	6372
916.708	6361
916.82	6429
916.932	6418
917.044	6456
917.156	6346
917.268	6300
917.38	6388
917.491	6292
917.603	6331
917.715	6353
917.826	6498
917.938	6331
918.049	6220
918.161	6353
918.272	6490
918.384	6429
918.495	6376
918.606	6338
918.717	6220
918.828	6239
918.939	6277
919.05	6201
919.161	6319
919.272	6144
919.383	6159
919.494	6323
919.604	6460
919.715	6311
919.826	6194
919.936	6243
920.047	6342
920.157	6285
920.267	6464
920.378	6361
920.488	6311
920.598	6479
920.708	6616
920.818	6452
920.928	6506
921.038	6616
921.148	6642
921.258	6410
921.368	6289
921.477	6216
921.587	6159
921.697	6076
921.806	6163
921.916	6136
922.025	5965
922.134	5912
922.244	5897
922.353	6003
922.462	5832
922.571	5775
922.68	5699
922.789	5703
922.898	5695
923.007	5665
923.116	5790
923.224	5703
923.333	5665
923.442	5634
923.55	5558
923.659	5589
923.767	5638
923.876	5524
923.984	5592
924.092	5493
924.201	5562
924.309	5547
924.417	5562
924.525	5490
924.633	5516
924.741	6167
924.849	5334
924.956	5436
925.064	5402
925.172	5311
925.279	5322
925.387	5379
925.494	5357
925.602	5444
925.709	5421
925.816	5299
925.924	5387
926.031	5398
926.138	5337
926.245	5334
926.352	5250
926.459	5345
926.566	5334
926.673	5223
926.779	5155
926.886	5086
926.993	5056
927.099	5060
927.206	5006
927.312	4999
927.419	5041
927.525	5010
927.631	5037
927.737	4930
927.843	4904
927.95	4805
928.056	4801
928.162	4889
928.267	4873
928.373	5383
928.479	4900
928.585	4714
928.69	4740
928.796	4755
928.901	4752
929.007	4577
929.112	4710
929.218	4637
929.323	4637
929.428	4599
929.533	4675
929.638	4531
929.743	4531
929.848	4546
929.953	4474
930.058	4394
930.163	4333
930.267	4379
930.372	4440
930.477	4276
930.581	4485
930.685	4337
930.79	4280
930.894	4333
930.998	4253
931.103	4436
931.207	4139
931.311	4101
931.415	4059
931.519	3975
931.623	3956
