Data from glass_V78500241_2793.txt Node
Date: Wed Sep 01 19:33:51 CST 2021
User: usil
Spectrometer: V785-0024
Trigger mode: 0
Integration Time (sec): 4.000000E-1
Scans to average: 1
Nonlinearity correction enabled: false
Boxcar width: 0
Storing dark spectrum: false
XAxis mode: Wavelengths
Number of Pixels in Spectrum: 1024
>>>>>Begin Spectral Data<<<<<
801.071	3694
801.214	3770
801.356	3656
801.499	3724
801.641	3728
801.783	3770
801.926	3827
802.068	3835
802.211	3861
802.353	3918
802.496	3766
802.638	3869
802.78	3865
802.923	3873
803.065	3922
803.208	3827
803.35	3857
803.492	3865
803.635	3899
803.777	3747
803.919	3899
804.061	4128
804.204	3994
804.346	3983
804.488	3903
804.63	4002
804.773	3934
804.915	3975
805.057	4143
805.199	4017
805.341	4059
805.483	4112
805.626	4109
805.768	4105
805.91	4185
806.052	4215
806.194	4181
806.336	4341
806.478	4192
806.62	4162
806.762	4200
806.904	4257
807.046	4337
807.188	4158
807.33	4154
807.472	4207
807.614	4185
807.756	4234
807.898	4204
808.04	4185
808.182	4287
808.324	4333
808.465	4360
808.607	4443
808.749	4428
808.891	4443
809.033	4489
809.174	4375
809.316	4249
809.458	4230
809.6	4128
809.741	4128
809.883	4093
810.025	4227
810.166	4211
810.308	4139
810.45	4242
810.591	4223
810.733	4242
810.875	4489
811.016	4752
811.158	5117
811.299	5185
811.441	5250
811.582	5003
811.724	4721
811.865	4455
812.007	4447
812.148	4462
812.29	4398
812.431	4390
812.573	4367
812.714	4367
812.855	4375
812.997	4375
813.138	4455
813.279	4379
813.421	4341
813.562	4360
813.703	4318
813.845	4310
813.986	4249
814.127	4200
814.268	4230
814.41	4284
814.551	4268
814.692	4310
814.833	4284
814.974	4268
815.115	4299
815.256	4246
815.397	4211
815.539	4238
815.68	4154
815.821	4188
815.962	4310
816.103	4257
816.244	4204
816.385	4219
816.526	4303
816.666	4173
816.807	4093
816.948	4143
817.089	4143
817.23	4101
817.371	4032
817.512	4063
817.653	4036
817.793	4006
817.934	4048
818.075	4074
818.216	4074
818.356	4017
818.497	4017
818.638	3899
818.778	3907
818.919	3873
819.06	3838
819.2	3918
819.341	3827
819.481	3789
819.622	3903
819.762	3975
819.903	3953
820.043	3804
820.184	3797
820.324	3865
820.465	3838
820.605	3865
820.746	3835
820.886	3797
821.026	3937
821.167	3888
821.307	3956
821.447	3945
821.588	3926
821.728	3903
821.868	3915
822.008	3835
822.149	3876
822.289	3937
822.429	3800
822.569	3800
822.709	3774
822.849	3679
822.99	3713
823.13	3732
823.27	3747
823.41	3709
823.55	3682
823.69	3690
823.83	3724
823.97	3732
824.11	3549
824.25	3584
824.389	3625
824.529	3656
824.669	3568
824.809	3705
824.949	3747
825.089	3705
825.228	3701
825.368	3530
825.508	3564
825.648	3549
825.787	3629
825.927	3572
826.067	3595
826.206	3644
826.346	3781
826.485	3797
826.625	3827
826.765	3934
826.904	3793
827.044	3614
827.183	3488
827.323	3393
827.462	3488
827.601	3454
827.741	3378
827.88	3397
828.02	3359
828.159	3424
828.298	3477
828.437	3515
828.577	3481
828.716	3591
828.855	3462
828.994	3359
829.134	3329
829.273	3389
829.412	3336
829.551	3321
829.69	3340
829.829	3431
829.968	3481
830.107	3393
830.246	3397
830.385	3359
830.524	3359
830.663	3272
830.802	3222
830.941	3154
831.08	3211
831.219	3237
831.357	3218
831.496	3378
831.635	3211
831.774	3161
831.913	3203
832.051	3081
832.19	3127
832.329	3199
832.467	3100
832.606	3108
832.744	3154
832.883	3176
833.022	3176
833.16	3245
833.299	3302
833.437	3294
833.576	3336
833.714	3370
833.852	3420
833.991	3443
834.129	3450
834.267	3412
834.406	3397
834.544	3428
834.682	3435
834.821	3420
834.959	3523
835.097	3431
835.235	3519
835.373	3454
835.511	3462
835.65	3435
835.788	3450
835.926	3397
836.064	3374
836.202	3325
836.34	3515
836.478	3614
836.615	3515
836.753	3576
836.891	3625
837.029	3587
837.167	3599
837.305	3507
837.443	3542
837.58	3485
837.718	3580
837.856	3568
837.993	3534
838.131	3530
838.269	3576
838.406	3580
838.544	3557
838.681	3481
838.819	3450
838.956	3386
839.094	3351
839.231	3454
839.369	3481
839.506	3701
839.643	3595
839.781	3485
839.918	3454
840.055	3511
840.193	3443
840.33	3515
840.467	3526
840.604	3576
840.742	3793
840.879	3507
841.016	3553
841.153	3591
841.29	3724
841.427	3698
841.564	3724
841.701	3728
841.838	3682
841.975	3663
842.112	3660
842.249	3652
842.385	3625
842.522	3819
842.659	3614
842.796	3679
842.933	3682
843.069	3675
843.206	3648
843.343	3797
843.479	3781
843.616	3797
843.752	3660
843.889	3698
844.025	3808
844.162	3705
844.298	3846
844.435	3728
844.571	3755
844.708	3869
844.844	3934
844.98	4025
845.117	3956
845.253	3903
845.389	3907
845.525	3975
845.661	3945
845.798	3896
845.934	3991
846.07	3903
846.206	4010
846.342	4101
846.478	4074
846.614	3960
846.75	3937
846.886	3896
847.022	4029
847.158	3937
847.294	3972
847.429	4044
847.565	4002
847.701	4230
847.837	3854
847.972	3850
848.108	3937
848.244	3953
848.379	3838
848.515	3827
848.65	3812
848.786	3835
848.921	3857
849.057	3899
849.192	3960
849.328	3899
849.463	3827
849.598	3823
849.734	3899
849.869	3793
850.004	3781
850.14	3827
850.275	3743
850.41	3698
850.545	3705
850.68	3743
850.815	3808
850.95	3743
851.085	3896
851.22	3857
851.355	3797
851.49	3778
851.625	3766
851.76	3789
851.895	3709
852.03	3728
852.165	3774
852.299	3876
852.434	3918
852.569	3861
852.703	3857
852.838	3915
852.973	3968
853.107	3994
853.242	3876
853.376	3831
853.511	3747
853.645	3823
853.78	3937
853.914	3869
854.048	3854
854.183	3854
854.317	3915
854.451	4044
854.585	3934
854.72	3968
854.854	4036
854.988	3934
855.122	3972
855.256	3861
855.39	3983
855.524	4044
855.658	4074
855.792	4074
855.926	4112
856.06	4173
856.194	4154
856.327	4097
856.461	4109
856.595	4128
856.729	4150
856.862	4249
856.996	4234
857.13	4310
857.263	4299
857.397	4367
857.53	4253
857.664	4379
857.797	4363
857.931	4432
858.064	4379
858.197	4417
858.331	4386
858.464	4344
858.597	4348
858.731	4436
858.864	4443
858.997	4394
859.13	4512
859.263	4546
859.396	4573
859.529	4523
859.662	4542
859.795	4459
859.928	4550
860.061	4691
860.194	4717
860.327	4622
860.46	4615
860.592	4706
860.725	4755
860.858	4744
860.99	4679
861.123	4615
861.256	4679
861.388	4748
861.521	5223
861.653	4698
861.786	4694
861.918	4660
862.05	4801
862.183	4843
862.315	4877
862.447	4927
862.58	4915
862.712	4801
862.844	4744
862.976	4843
863.108	4812
863.24	5170
863.372	4793
863.504	4930
863.636	4923
863.768	4953
863.9	4942
864.032	4968
864.164	4953
864.296	5010
864.428	5094
864.559	5064
864.691	5121
864.823	5098
864.954	5121
865.086	5121
865.217	5086
865.349	5048
865.48	5193
865.612	5181
865.743	5258
865.875	5162
866.006	5140
866.137	5250
866.269	5189
866.4	5185
866.531	5246
866.662	5261
866.793	5277
866.924	5311
867.055	5315
867.186	5345
867.317	5284
867.448	5303
867.579	5353
867.71	5322
867.841	5360
867.972	5417
868.103	5463
868.233	5551
868.364	5501
868.495	5566
868.625	5699
868.756	5817
868.886	5646
869.017	5741
869.147	5786
869.278	5844
869.408	5836
869.539	5863
869.669	5920
869.799	5916
869.929	5920
870.06	6026
870.19	6144
870.32	6194
870.45	6232
870.58	6331
870.71	6471
870.84	6403
870.97	6399
871.1	6426
871.23	6566
871.36	6703
871.489	6681
871.619	6726
871.749	6757
871.879	6848
872.008	6981
872.138	6875
872.267	6989
872.397	6913
872.526	7027
872.656	7034
872.785	7221
872.915	7335
873.044	7457
873.173	7514
873.303	7689
873.432	7750
873.561	7807
873.69	7887
873.819	8008
873.948	8168
874.077	8229
874.206	8362
874.335	8389
874.464	8674
874.593	8929
874.722	8937
874.851	9051
874.979	9188
875.108	9325
875.237	9450
875.365	9374
875.494	9717
875.623	9831
875.751	9835
875.88	10048
876.008	10139
876.136	10215
876.265	10558
876.393	10615
876.521	10672
876.65	10790
876.778	10835
876.906	10839
877.034	11048
877.162	11083
877.29	11151
877.418	11322
877.546	11284
877.674	11417
877.802	11535
877.93	11501
878.058	11558
878.185	11524
878.313	11665
878.441	11752
878.568	11726
878.696	11794
878.824	11821
878.951	11920
879.079	11969
879.206	12110
879.333	12011
879.461	12019
879.588	12076
879.715	12125
879.842	12216
879.97	11980
880.097	11885
880.224	11847
880.351	11798
880.478	11874
880.605	11821
880.732	11836
880.859	11961
880.986	11832
881.112	11874
881.239	11726
881.366	11649
881.493	11581
881.619	11452
881.746	11509
881.872	11543
881.999	11467
882.125	11501
882.252	11493
882.378	11497
882.505	11566
882.631	11406
882.757	11288
882.883	11269
883.01	11303
883.136	11155
883.262	11113
883.388	11075
883.514	11185
883.64	11064
883.766	11098
883.892	11014
884.018	11006
884.143	11022
884.269	11136
884.395	10793
884.52	10748
884.646	10763
884.772	10596
884.897	10717
885.023	10672
885.148	10694
885.274	10839
885.399	10649
885.524	10630
885.65	10550
885.775	10603
885.9	10622
886.025	10634
886.15	10588
886.275	10398
886.4	10337
886.525	10493
886.65	10325
886.775	10303
886.9	10443
887.025	10542
887.149	10314
887.274	10158
887.399	10211
887.523	10211
887.648	10150
887.773	10078
887.897	10215
888.021	10303
888.146	10143
888.27	10230
888.395	10253
888.519	10158
888.643	10169
888.767	10116
888.891	10010
889.015	10021
889.139	10051
889.263	9964
889.387	10112
889.511	10086
889.635	10082
889.759	9960
889.883	9975
890.006	9956
890.13	10063
890.254	9842
890.377	9922
890.501	9835
890.624	9846
890.748	9884
890.871	9778
890.995	9740
891.118	9736
891.241	9781
891.364	9740
891.488	9766
891.611	9694
891.734	9751
891.857	9724
891.98	9682
892.103	9682
892.226	9610
892.349	9580
892.471	9519
892.594	9587
892.717	9633
892.839	9572
892.962	9633
893.085	9576
893.207	9504
893.33	9538
893.452	9462
893.575	9591
893.697	9530
893.819	9576
893.941	9576
894.064	9553
894.186	9488
894.308	9420
894.43	9545
894.552	9519
894.674	9526
894.796	9325
894.918	9313
895.04	9351
895.161	9382
895.283	9348
895.405	9230
895.526	9237
895.648	9268
895.769	9256
895.891	9249
896.012	9264
896.134	9176
896.255	9131
896.376	9081
896.498	9074
896.619	9154
896.74	8990
896.861	9077
896.982	9253
897.103	9226
897.224	9089
897.345	9024
897.466	8948
897.587	9024
897.708	9047
897.828	8986
897.949	8986
898.07	8834
898.19	8914
898.311	8925
898.431	8948
898.552	8918
898.672	8941
898.792	8921
898.913	8880
899.033	8807
899.153	8777
899.273	8720
899.393	8682
899.513	8788
899.633	8693
899.753	8720
899.873	8720
899.993	8674
900.113	8678
900.232	8655
900.352	8560
900.472	8549
900.591	8545
900.711	8533
900.83	8526
900.95	8629
901.069	8708
901.189	8484
901.308	8473
901.427	8396
901.546	8450
901.665	8419
901.784	8457
901.904	8393
902.023	8290
902.141	8202
902.26	8126
902.379	8225
902.498	8206
902.617	8191
902.735	8259
902.854	8244
902.973	8195
903.091	8043
903.21	8115
903.328	8107
903.446	8115
903.565	8046
903.683	8092
903.801	8035
903.919	8107
904.038	8100
904.156	8077
904.274	8027
904.392	7967
904.51	8031
904.627	7997
904.745	8020
904.863	8115
904.981	7906
905.098	7883
905.216	7887
905.334	7852
905.451	7894
905.569	7879
905.686	7944
905.803	7970
905.921	7742
906.038	7799
906.155	7753
906.272	7742
906.389	7734
906.506	7639
906.623	7613
906.74	7609
906.857	7556
906.974	7563
907.091	7609
907.208	7689
907.324	7571
907.441	7544
907.557	7487
907.674	7422
907.79	7343
907.907	7377
908.023	7460
908.139	7434
908.256	7324
908.372	7388
908.488	7350
908.604	7263
908.72	7221
908.836	7194
908.952	7187
909.068	7198
909.184	7282
909.3	7244
909.415	7244
909.531	7301
909.647	7088
909.762	7076
909.878	7088
909.993	7114
910.108	7065
910.224	7065
910.339	7065
910.454	7019
910.57	6981
910.685	6943
910.8	7133
910.915	7069
911.03	6989
911.145	6859
911.259	6840
911.374	6897
911.489	6829
911.604	6810
911.718	6703
911.833	6738
911.947	6589
912.062	6601
912.176	6741
912.291	6662
912.405	6650
912.519	6844
912.633	6840
912.748	6707
912.862	6616
912.976	6623
913.09	6540
913.204	6608
913.318	6639
913.431	6654
913.545	6707
913.659	6669
913.772	6650
913.886	6486
914	6585
914.113	6540
914.226	6566
914.34	6559
914.453	6460
914.566	6585
914.68	6578
914.793	6498
914.906	6407
915.019	6365
915.132	6296
915.245	6418
915.358	6414
915.47	6441
915.583	6467
915.696	6456
915.809	6521
915.921	6486
916.034	6426
916.146	6380
916.259	6380
916.371	6433
916.483	6475
916.595	6365
916.708	6407
916.82	6331
916.932	6350
917.044	6346
917.156	6350
917.268	6289
917.38	6342
917.491	6292
917.603	6334
917.715	6403
917.826	6304
917.938	6323
918.049	6190
918.161	6315
918.272	6361
918.384	6399
918.495	6327
918.606	6175
918.717	6258
918.828	6239
918.939	6285
919.05	6163
919.161	6251
919.272	6087
919.383	6102
919.494	6209
919.604	6433
919.715	6300
919.826	6216
919.936	6201
920.047	6300
920.157	6258
920.267	6433
920.378	6327
920.488	6216
920.598	6475
920.708	6601
920.818	6410
920.928	6452
921.038	6585
921.148	6547
921.258	6323
921.368	6254
921.477	6186
921.587	6167
921.697	6110
921.806	6163
921.916	6083
922.025	5920
922.134	5965
922.244	5863
922.353	5904
922.462	5771
922.571	5836
922.68	5726
922.789	5615
922.898	5703
923.007	5596
923.116	5668
923.224	5707
923.333	5657
923.442	5600
923.55	5539
923.659	5592
923.767	5562
923.876	5532
923.984	5585
924.092	5505
924.201	5520
924.309	5581
924.417	5512
924.525	5471
924.633	5516
924.741	6243
924.849	5360
924.956	5486
925.064	5376
925.172	5212
925.279	5265
925.387	5326
925.494	5326
925.602	5383
925.709	5330
925.816	5220
925.924	5288
926.031	5292
926.138	5261
926.245	5299
926.352	5193
926.459	5277
926.566	5277
926.673	5121
926.779	5124
926.886	5105
926.993	5029
927.099	5010
927.206	4946
927.312	4877
927.419	5003
927.525	4942
927.631	4942
927.737	4847
927.843	4828
927.95	4763
928.056	4774
928.162	4839
928.267	4809
928.373	5277
928.479	4831
928.585	4675
928.69	4759
928.796	4755
928.901	4611
929.007	4603
929.112	4660
929.218	4653
929.323	4535
929.428	4485
929.533	4637
929.638	4527
929.743	4527
929.848	4516
929.953	4512
930.058	4371
930.163	4314
930.267	4310
930.372	4413
930.477	4280
930.581	4462
930.685	4333
930.79	4207
930.894	4280
930.998	4246
931.103	4367
931.207	4059
931.311	4044
931.415	4055
931.519	3922
931.623	3964
