Data from glass_V78500241_1408.txt Node
Date: Wed Sep 01 19:24:15 CST 2021
User: usil
Spectrometer: V785-0024
Trigger mode: 0
Integration Time (sec): 4.000000E-1
Scans to average: 1
Nonlinearity correction enabled: false
Boxcar width: 0
Storing dark spectrum: false
XAxis mode: Wavelengths
Number of Pixels in Spectrum: 1024
>>>>>Begin Spectral Data<<<<<
801.071	3724
801.214	3747
801.356	3690
801.499	3705
801.641	3709
801.783	3793
801.926	3854
802.068	3827
802.211	3835
802.353	3903
802.496	3819
802.638	3857
802.78	3903
802.923	3968
803.065	3911
803.208	3857
803.35	3911
803.492	3922
803.635	3918
803.777	3827
803.919	3926
804.061	4204
804.204	3926
804.346	3960
804.488	3899
804.63	4029
804.773	3960
804.915	4006
805.057	4173
805.199	4044
805.341	4101
805.483	4158
805.626	4166
805.768	4090
805.91	4219
806.052	4234
806.194	4234
806.336	4356
806.478	4188
806.62	4177
806.762	4181
806.904	4268
807.046	4287
807.188	4257
807.33	4207
807.472	4192
807.614	4192
807.756	4295
807.898	4227
808.04	4204
808.182	4272
808.324	4284
808.465	4371
808.607	4459
808.749	4474
808.891	4447
809.033	4459
809.174	4421
809.316	4272
809.458	4249
809.6	4097
809.741	4139
809.883	4158
810.025	4230
810.166	4223
810.308	4242
810.45	4280
810.591	4234
810.733	4306
810.875	4508
811.016	4805
811.158	5143
811.299	5322
811.441	5261
811.582	5098
811.724	4729
811.865	4455
812.007	4535
812.148	4394
812.29	4455
812.431	4409
812.573	4352
812.714	4394
812.855	4413
812.997	4390
813.138	4497
813.279	4451
813.421	4409
813.562	4367
813.703	4337
813.845	4337
813.986	4238
814.127	4215
814.268	4249
814.41	4306
814.551	4265
814.692	4329
814.833	4280
814.974	4299
815.115	4337
815.256	4280
815.397	4227
815.539	4249
815.68	4261
815.821	4268
815.962	4329
816.103	4265
816.244	4227
816.385	4249
816.526	4318
816.666	4234
816.807	4131
816.948	4150
817.089	4166
817.23	4078
817.371	4093
817.512	4071
817.653	4093
817.793	4067
817.934	4067
818.075	4109
818.216	4078
818.356	4112
818.497	3983
818.638	3918
818.778	3934
818.919	3907
819.06	3884
819.2	3876
819.341	3884
819.481	3838
819.622	3922
819.762	4021
819.903	3937
820.043	3915
820.184	3831
820.324	3804
820.465	3854
820.605	3865
820.746	3907
820.886	3778
821.026	3911
821.167	3888
821.307	4013
821.447	4002
821.588	3991
821.728	3968
821.868	3956
822.008	3873
822.149	3918
822.289	3915
822.429	3804
822.569	3781
822.709	3770
822.849	3698
822.99	3694
823.13	3793
823.27	3793
823.41	3732
823.55	3724
823.69	3732
823.83	3751
823.97	3675
824.11	3641
824.25	3614
824.389	3633
824.529	3644
824.669	3603
824.809	3728
824.949	3740
825.089	3743
825.228	3671
825.368	3591
825.508	3534
825.648	3576
825.787	3603
825.927	3622
826.067	3641
826.206	3679
826.346	3770
826.485	3804
826.625	3876
826.765	3975
826.904	3835
827.044	3603
827.183	3553
827.323	3424
827.462	3485
827.601	3450
827.741	3458
827.88	3424
828.02	3363
828.159	3439
828.298	3469
828.437	3500
828.577	3488
828.716	3572
828.855	3519
828.994	3393
829.134	3355
829.273	3389
829.412	3359
829.551	3329
829.69	3378
829.829	3424
829.968	3519
830.107	3405
830.246	3454
830.385	3355
830.524	3367
830.663	3344
830.802	3256
830.941	3195
831.08	3184
831.219	3245
831.357	3291
831.496	3405
831.635	3241
831.774	3203
831.913	3207
832.051	3173
832.19	3112
832.329	3260
832.467	3135
832.606	3116
832.744	3173
832.883	3180
833.022	3188
833.16	3298
833.299	3302
833.437	3336
833.576	3355
833.714	3386
833.852	3443
833.991	3378
834.129	3481
834.267	3431
834.406	3409
834.544	3439
834.682	3405
834.821	3401
834.959	3561
835.097	3420
835.235	3576
835.373	3511
835.511	3534
835.65	3431
835.788	3492
835.926	3397
836.064	3382
836.202	3409
836.34	3564
836.478	3568
836.615	3526
836.753	3595
836.891	3648
837.029	3603
837.167	3603
837.305	3595
837.443	3545
837.58	3526
837.718	3595
837.856	3534
837.993	3534
838.131	3606
838.269	3584
838.406	3618
838.544	3587
838.681	3507
838.819	3439
838.956	3409
839.094	3363
839.231	3439
839.369	3545
839.506	3759
839.643	3603
839.781	3519
839.918	3473
840.055	3496
840.193	3534
840.33	3523
840.467	3557
840.604	3637
840.742	3846
840.879	3557
841.016	3561
841.153	3580
841.29	3774
841.427	3732
841.564	3740
841.701	3728
841.838	3690
841.975	3675
842.112	3679
842.249	3625
842.385	3618
842.522	3793
842.659	3679
842.796	3701
842.933	3740
843.069	3690
843.206	3724
843.343	3819
843.479	3793
843.616	3838
843.752	3686
843.889	3648
844.025	3854
844.162	3679
844.298	3869
844.435	3838
844.571	3823
844.708	3896
844.844	4006
844.98	4021
845.117	4051
845.253	3899
845.389	3899
845.525	3964
845.661	3987
845.798	3941
845.934	3983
846.07	3922
846.206	4044
846.342	4112
846.478	4116
846.614	3972
846.75	3968
846.886	3918
847.022	4044
847.158	3953
847.294	4002
847.429	4044
847.565	3991
847.701	4242
847.837	3911
847.972	3876
848.108	4002
848.244	3968
848.379	3850
848.515	3861
848.65	3823
848.786	3808
848.921	3884
849.057	3911
849.192	3975
849.328	3907
849.463	3922
849.598	3899
849.734	3888
849.869	3827
850.004	3819
850.14	3823
850.275	3781
850.41	3724
850.545	3781
850.68	3774
850.815	3778
850.95	3789
851.085	3911
851.22	3892
851.355	3831
851.49	3812
851.625	3808
851.76	3743
851.895	3755
852.03	3736
852.165	3838
852.299	3888
852.434	3911
852.569	3876
852.703	3857
852.838	3915
852.973	3983
853.107	3983
853.242	3861
853.376	3861
853.511	3789
853.645	3831
853.78	3964
853.914	3945
854.048	3926
854.183	3884
854.317	3922
854.451	4048
854.585	3979
854.72	3941
854.854	4040
854.988	3941
855.122	4010
855.256	3975
855.39	4010
855.524	4128
855.658	4086
855.792	4101
855.926	4112
856.06	4131
856.194	4181
856.327	4162
856.461	4185
856.595	4120
856.729	4181
856.862	4329
856.996	4242
857.13	4325
857.263	4337
857.397	4344
857.53	4295
857.664	4322
857.797	4348
857.931	4413
858.064	4417
858.197	4485
858.331	4390
858.464	4383
858.597	4306
858.731	4428
858.864	4474
858.997	4466
859.13	4538
859.263	4558
859.396	4573
859.529	4516
859.662	4542
859.795	4531
859.928	4622
860.061	4717
860.194	4744
860.327	4660
860.46	4641
860.592	4714
860.725	4717
860.858	4755
860.99	4717
861.123	4733
861.256	4687
861.388	4782
861.521	5349
861.653	4755
861.786	4717
861.918	4759
862.05	4763
862.183	4835
862.315	4885
862.447	4934
862.58	4885
862.712	4790
862.844	4790
862.976	4873
863.108	4850
863.24	5124
863.372	4812
863.504	4938
863.636	4915
863.768	4991
863.9	4953
864.032	4911
864.164	4961
864.296	5029
864.428	5048
864.559	5067
864.691	5079
864.823	5151
864.954	5128
865.086	5197
865.217	5121
865.349	5109
865.48	5151
865.612	5220
865.743	5334
865.875	5181
866.006	5212
866.137	5212
866.269	5208
866.4	5273
866.531	5269
866.662	5216
866.793	5284
866.924	5296
867.055	5292
867.186	5299
867.317	5334
867.448	5322
867.579	5429
867.71	5376
867.841	5417
867.972	5459
868.103	5471
868.233	5463
868.364	5558
868.495	5596
868.625	5619
868.756	5790
868.886	5710
869.017	5703
869.147	5824
869.278	5863
869.408	5813
869.539	5802
869.669	5874
869.799	5908
869.929	6038
870.06	6057
870.19	6186
870.32	6159
870.45	6254
870.58	6296
870.71	6414
870.84	6486
870.97	6353
871.1	6433
871.23	6623
871.36	6654
871.489	6635
871.619	6776
871.749	6779
871.879	6878
872.008	6947
872.138	6989
872.267	7015
872.397	6989
872.526	7038
872.656	7080
872.785	7206
872.915	7350
873.044	7548
873.173	7556
873.303	7662
873.432	7727
873.561	7868
873.69	7917
873.819	8027
873.948	8206
874.077	8282
874.206	8294
874.335	8442
874.464	8705
874.593	8853
874.722	8941
874.851	9093
874.979	9275
875.108	9351
875.237	9443
875.365	9473
875.494	9584
875.623	9835
875.751	9857
875.88	10013
876.008	10238
876.136	10238
876.265	10519
876.393	10752
876.521	10725
876.65	10862
876.778	10862
876.906	11003
877.034	10965
877.162	11094
877.29	11201
877.418	11258
877.546	11284
877.674	11410
877.802	11452
877.93	11604
878.058	11543
878.185	11535
878.313	11608
878.441	11726
878.568	11649
878.696	11703
878.824	11832
878.951	11893
879.079	12022
879.206	12175
879.333	12057
879.461	11977
879.588	12007
879.715	12076
879.842	12300
879.97	12106
880.097	11870
880.224	11893
880.351	11878
880.478	11904
880.605	11805
880.732	11805
880.859	12076
880.986	11786
881.112	11942
881.239	11794
881.366	11676
881.493	11592
881.619	11596
881.746	11509
881.872	11619
881.999	11509
882.125	11417
882.252	11566
882.378	11543
882.505	11554
882.631	11353
882.757	11307
882.883	11280
883.01	11220
883.136	11178
883.262	11094
883.388	11033
883.514	11189
883.64	11143
883.766	11067
883.892	11010
884.018	11064
884.143	11067
884.269	11197
884.395	10774
884.52	10828
884.646	10755
884.772	10691
884.897	10660
885.023	10679
885.148	10702
885.274	10778
885.399	10710
885.524	10588
885.65	10683
885.775	10599
885.9	10500
886.025	10607
886.15	10573
886.275	10443
886.4	10371
886.525	10390
886.65	10386
886.775	10421
886.9	10474
887.025	10577
887.149	10386
887.274	10287
887.399	10211
887.523	10177
887.648	10112
887.773	10154
887.897	10272
888.021	10162
888.146	10169
888.27	10169
888.395	10223
888.519	10230
888.643	10204
888.767	10215
888.891	10078
889.015	9979
889.139	10055
889.263	9941
889.387	10059
889.511	10188
889.635	10055
889.759	9998
889.883	10055
890.006	10040
890.13	10131
890.254	9968
890.377	9911
890.501	9930
890.624	9884
890.748	9892
890.871	9774
890.995	9709
891.118	9663
891.241	9804
891.364	9705
891.488	9797
891.611	9743
891.734	9740
891.857	9736
891.98	9694
892.103	9713
892.226	9694
892.349	9644
892.471	9568
892.594	9549
892.717	9641
892.839	9629
892.962	9595
893.085	9671
893.207	9564
893.33	9530
893.452	9496
893.575	9584
893.697	9500
893.819	9610
893.941	9629
894.064	9591
894.186	9416
894.308	9439
894.43	9576
894.552	9530
894.674	9561
894.796	9420
894.918	9431
895.04	9389
895.161	9428
895.283	9340
895.405	9211
895.526	9325
895.648	9260
895.769	9230
895.891	9241
896.012	9260
896.134	9157
896.255	9192
896.376	9104
896.498	9203
896.619	9157
896.74	9058
896.861	9123
896.982	9207
897.103	9279
897.224	9161
897.345	9024
897.466	9024
897.587	9028
897.708	9150
897.828	8963
897.949	8944
898.07	8823
898.19	8895
898.311	8967
898.431	8906
898.552	8979
898.672	8994
898.792	8956
898.913	8800
899.033	8872
899.153	8800
899.273	8651
899.393	8754
899.513	8777
899.633	8716
899.753	8796
899.873	8697
899.993	8804
900.113	8724
900.232	8655
900.352	8735
900.472	8583
900.591	8587
900.711	8602
900.83	8590
900.95	8632
901.069	8712
901.189	8552
901.308	8454
901.427	8408
901.546	8412
901.665	8465
901.784	8442
901.904	8404
902.023	8324
902.141	8210
902.26	8275
902.379	8301
902.498	8259
902.617	8142
902.735	8320
902.854	8218
902.973	8210
903.091	8134
903.21	8115
903.328	8138
903.446	8123
903.565	8100
903.683	8054
903.801	8054
903.919	8111
904.038	8191
904.156	7986
904.274	8157
904.392	8054
904.51	8043
904.627	8039
904.745	8138
904.863	8126
904.981	7936
905.098	7852
905.216	7871
905.334	7883
905.451	7868
905.569	7921
905.686	7909
905.803	7947
905.921	7715
906.038	7868
906.155	7799
906.272	7681
906.389	7788
906.506	7639
906.623	7643
906.74	7632
906.857	7480
906.974	7586
907.091	7681
907.208	7704
907.324	7651
907.441	7559
907.557	7480
907.674	7487
907.79	7426
907.907	7400
908.023	7445
908.139	7411
908.256	7335
908.372	7411
908.488	7327
908.604	7324
908.72	7266
908.836	7274
908.952	7266
909.068	7247
909.184	7312
909.3	7297
909.415	7266
909.531	7297
909.647	7084
909.762	7080
909.878	7072
909.993	7107
910.108	7088
910.224	7076
910.339	7160
910.454	7000
910.57	7015
910.685	6943
910.8	7168
910.915	7057
911.03	7137
911.145	6966
911.259	6909
911.374	6897
911.489	6818
911.604	6806
911.718	6738
911.833	6726
911.947	6726
912.062	6639
912.176	6711
912.291	6764
912.405	6760
912.519	6810
912.633	6848
912.748	6711
912.862	6696
912.976	6563
913.09	6563
913.204	6593
913.318	6585
913.431	6684
913.545	6681
913.659	6654
913.772	6669
913.886	6597
914	6563
914.113	6566
914.226	6631
914.34	6631
914.453	6517
914.566	6650
914.68	6532
914.793	6582
914.906	6490
915.019	6456
915.132	6433
915.245	6414
915.358	6418
915.47	6475
915.583	6418
915.696	6502
915.809	6509
915.921	6578
916.034	6418
916.146	6388
916.259	6391
916.371	6506
916.483	6475
916.595	6391
916.708	6464
916.82	6338
916.932	6369
917.044	6323
917.156	6361
917.268	6251
917.38	6270
917.491	6331
917.603	6319
917.715	6346
917.826	6418
917.938	6369
918.049	6232
918.161	6342
918.272	6403
918.384	6452
918.495	6319
918.606	6228
918.717	6235
918.828	6296
918.939	6273
919.05	6292
919.161	6285
919.272	6197
919.383	6175
919.494	6289
919.604	6445
919.715	6281
919.826	6247
919.936	6235
920.047	6311
920.157	6232
920.267	6460
920.378	6342
920.488	6315
920.598	6475
920.708	6513
920.818	6422
920.928	6460
921.038	6616
921.148	6578
921.258	6304
921.368	6304
921.477	6232
921.587	6197
921.697	6102
921.806	6186
921.916	6098
922.025	5969
922.134	5931
922.244	5866
922.353	5942
922.462	5866
922.571	5798
922.68	5714
922.789	5695
922.898	5707
923.007	5672
923.116	5699
923.224	5665
923.333	5668
923.442	5596
923.55	5592
923.659	5596
923.767	5570
923.876	5547
923.984	5623
924.092	5490
924.201	5619
924.309	5532
924.417	5501
924.525	5490
924.633	5516
924.741	6254
924.849	5360
924.956	5547
925.064	5337
925.172	5303
925.279	5307
925.387	5360
925.494	5315
925.602	5425
925.709	5391
925.816	5288
925.924	5299
926.031	5337
926.138	5258
926.245	5273
926.352	5246
926.459	5311
926.566	5292
926.673	5162
926.779	5155
926.886	5143
926.993	5067
927.099	5025
927.206	4995
927.312	4923
927.419	5056
927.525	5014
927.631	4995
927.737	4881
927.843	4908
927.95	4774
928.056	4835
928.162	4793
928.267	4896
928.373	5254
928.479	4866
928.585	4706
928.69	4801
928.796	4714
928.901	4702
929.007	4607
929.112	4683
929.218	4634
929.323	4649
929.428	4561
929.533	4675
929.638	4531
929.743	4516
929.848	4546
929.953	4538
930.058	4432
930.163	4322
930.267	4314
930.372	4402
930.477	4325
930.581	4466
930.685	4386
930.79	4253
930.894	4306
930.998	4242
931.103	4394
931.207	4097
931.311	4086
931.415	4044
931.519	3896
931.623	3934
