Data from glass_V78500241_2640.txt Node
Date: Wed Sep 01 19:32:48 CST 2021
User: usil
Spectrometer: V785-0024
Trigger mode: 0
Integration Time (sec): 4.000000E-1
Scans to average: 1
Nonlinearity correction enabled: false
Boxcar width: 0
Storing dark spectrum: false
XAxis mode: Wavelengths
Number of Pixels in Spectrum: 1024
>>>>>Begin Spectral Data<<<<<
801.071	3686
801.214	3740
801.356	3728
801.499	3743
801.641	3740
801.783	3759
801.926	3823
802.068	3842
802.211	3850
802.353	3865
802.496	3800
802.638	3835
802.78	3937
802.923	3930
803.065	3934
803.208	3793
803.35	3827
803.492	3934
803.635	3922
803.777	3808
803.919	3911
804.061	4147
804.204	3922
804.346	3941
804.488	3892
804.63	4006
804.773	3922
804.915	3968
805.057	4158
805.199	4090
805.341	4044
805.483	4150
805.626	4116
805.768	4101
805.91	4219
806.052	4249
806.194	4200
806.336	4325
806.478	4188
806.62	4139
806.762	4166
806.904	4238
807.046	4318
807.188	4227
807.33	4181
807.472	4223
807.614	4185
807.756	4215
807.898	4242
808.04	4200
808.182	4246
808.324	4280
808.465	4360
808.607	4432
808.749	4436
808.891	4466
809.033	4466
809.174	4356
809.316	4257
809.458	4223
809.6	4120
809.741	4101
809.883	4158
810.025	4234
810.166	4211
810.308	4181
810.45	4188
810.591	4230
810.733	4306
810.875	4489
811.016	4778
811.158	5090
811.299	5288
811.441	5303
811.582	5041
811.724	4683
811.865	4436
812.007	4485
812.148	4402
812.29	4398
812.431	4413
812.573	4348
812.714	4371
812.855	4402
812.997	4402
813.138	4497
813.279	4470
813.421	4402
813.562	4379
813.703	4367
813.845	4295
813.986	4234
814.127	4215
814.268	4227
814.41	4291
814.551	4272
814.692	4329
814.833	4261
814.974	4287
815.115	4344
815.256	4204
815.397	4185
815.539	4261
815.68	4185
815.821	4177
815.962	4310
816.103	4287
816.244	4185
816.385	4207
816.526	4253
816.666	4204
816.807	4131
816.948	4158
817.089	4185
817.23	4086
817.371	4048
817.512	4025
817.653	4040
817.793	3998
817.934	3987
818.075	4097
818.216	4051
818.356	4002
818.497	4021
818.638	3911
818.778	3911
818.919	3876
819.06	3835
819.2	3873
819.341	3846
819.481	3854
819.622	3899
819.762	3979
819.903	3934
820.043	3797
820.184	3797
820.324	3827
820.465	3857
820.605	3899
820.746	3827
820.886	3755
821.026	3899
821.167	3930
821.307	3949
821.447	3930
821.588	3960
821.728	3926
821.868	3915
822.008	3869
822.149	3888
822.289	3896
822.429	3751
822.569	3759
822.709	3800
822.849	3663
822.99	3701
823.13	3747
823.27	3755
823.41	3671
823.55	3736
823.69	3701
823.83	3740
823.97	3675
824.11	3584
824.25	3587
824.389	3698
824.529	3625
824.669	3610
824.809	3709
824.949	3789
825.089	3728
825.228	3682
825.368	3557
825.508	3603
825.648	3561
825.787	3564
825.927	3671
826.067	3618
826.206	3644
826.346	3789
826.485	3838
826.625	3831
826.765	3937
826.904	3816
827.044	3595
827.183	3515
827.323	3420
827.462	3450
827.601	3393
827.741	3412
827.88	3443
828.02	3329
828.159	3409
828.298	3496
828.437	3523
828.577	3458
828.716	3557
828.855	3538
828.994	3348
829.134	3370
829.273	3367
829.412	3310
829.551	3294
829.69	3355
829.829	3401
829.968	3458
830.107	3397
830.246	3454
830.385	3389
830.524	3336
830.663	3287
830.802	3279
830.941	3173
831.08	3165
831.219	3294
831.357	3249
831.496	3409
831.635	3249
831.774	3218
831.913	3154
832.051	3112
832.19	3161
832.329	3192
832.467	3146
832.606	3104
832.744	3161
832.883	3173
833.022	3184
833.16	3249
833.299	3287
833.437	3313
833.576	3374
833.714	3409
833.852	3435
833.991	3397
834.129	3454
834.267	3458
834.406	3340
834.544	3435
834.682	3378
834.821	3378
834.959	3534
835.097	3389
835.235	3530
835.373	3473
835.511	3469
835.65	3462
835.788	3466
835.926	3351
836.064	3386
836.202	3374
836.34	3538
836.478	3603
836.615	3545
836.753	3584
836.891	3686
837.029	3584
837.167	3595
837.305	3549
837.443	3538
837.58	3469
837.718	3610
837.856	3507
837.993	3500
838.131	3576
838.269	3526
838.406	3625
838.544	3549
838.681	3443
838.819	3469
838.956	3389
839.094	3348
839.231	3416
839.369	3526
839.506	3660
839.643	3595
839.781	3507
839.918	3466
840.055	3549
840.193	3534
840.33	3530
840.467	3557
840.604	3625
840.742	3800
840.879	3519
841.016	3530
841.153	3580
841.29	3778
841.427	3686
841.564	3751
841.701	3743
841.838	3660
841.975	3686
842.112	3679
842.249	3660
842.385	3625
842.522	3770
842.659	3675
842.796	3663
842.933	3690
843.069	3732
843.206	3701
843.343	3800
843.479	3781
843.616	3812
843.752	3656
843.889	3663
844.025	3819
844.162	3717
844.298	3850
844.435	3736
844.571	3781
844.708	3873
844.844	3987
844.98	4036
845.117	3991
845.253	3975
845.389	3941
845.525	3968
845.661	3941
845.798	3896
845.934	4002
846.07	3964
846.206	4029
846.342	4071
846.478	4040
846.614	3915
846.75	3926
846.886	3903
847.022	4013
847.158	3987
847.294	3968
847.429	3983
847.565	4002
847.701	4207
847.837	3854
847.972	3846
848.108	3998
848.244	3964
848.379	3835
848.515	3816
848.65	3778
848.786	3823
848.921	3861
849.057	3911
849.192	3994
849.328	3892
849.463	3918
849.598	3865
849.734	3835
849.869	3812
850.004	3724
850.14	3789
850.275	3793
850.41	3789
850.545	3740
850.68	3812
850.815	3781
850.95	3800
851.085	3953
851.22	3873
851.355	3804
851.49	3766
851.625	3789
851.76	3789
851.895	3720
852.03	3755
852.165	3785
852.299	3842
852.434	3903
852.569	3819
852.703	3846
852.838	3934
852.973	3964
853.107	3953
853.242	3896
853.376	3842
853.511	3747
853.645	3816
853.78	3949
853.914	3865
854.048	3835
854.183	3888
854.317	3960
854.451	4051
854.585	3937
854.72	3899
854.854	4017
854.988	3934
855.122	3991
855.256	3922
855.39	4006
855.524	4097
855.658	4063
855.792	4120
855.926	4124
856.06	4135
856.194	4185
856.327	4158
856.461	4124
856.595	4192
856.729	4166
856.862	4261
856.996	4227
857.13	4276
857.263	4310
857.397	4337
857.53	4242
857.664	4360
857.797	4352
857.931	4413
858.064	4402
858.197	4443
858.331	4344
858.464	4402
858.597	4348
858.731	4455
858.864	4440
858.997	4402
859.13	4485
859.263	4565
859.396	4569
859.529	4485
859.662	4527
859.795	4516
859.928	4607
860.061	4733
860.194	4714
860.327	4622
860.46	4622
860.592	4729
860.725	4702
860.858	4778
860.99	4675
861.123	4691
861.256	4630
861.388	4755
861.521	5364
861.653	4698
861.786	4672
861.918	4729
862.05	4824
862.183	4831
862.315	4896
862.447	4946
862.58	4957
862.712	4805
862.844	4820
862.976	4896
863.108	4858
863.24	5223
863.372	4828
863.504	4896
863.636	4870
863.768	4938
863.9	4930
864.032	4938
864.164	4881
864.296	5029
864.428	5067
864.559	5079
864.691	5060
864.823	5117
864.954	5105
865.086	5162
865.217	5121
865.349	5075
865.48	5128
865.612	5178
865.743	5242
865.875	5162
866.006	5159
866.137	5201
866.269	5189
866.4	5277
866.531	5204
866.662	5239
866.793	5227
866.924	5250
867.055	5364
867.186	5292
867.317	5326
867.448	5307
867.579	5414
867.71	5349
867.841	5372
867.972	5471
868.103	5543
868.233	5440
868.364	5444
868.495	5535
868.625	5718
868.756	5790
868.886	5668
869.017	5665
869.147	5802
869.278	5786
869.408	5840
869.539	5821
869.669	5897
869.799	5908
869.929	5996
870.06	6011
870.19	6190
870.32	6205
870.45	6239
870.58	6319
870.71	6479
870.84	6418
870.97	6395
871.1	6448
871.23	6570
871.36	6684
871.489	6654
871.619	6738
871.749	6749
871.879	6844
872.008	7012
872.138	6939
872.267	7027
872.397	6993
872.526	7046
872.656	7069
872.785	7129
872.915	7396
873.044	7521
873.173	7559
873.303	7647
873.432	7731
873.561	7852
873.69	7944
873.819	8016
873.948	8130
874.077	8218
874.206	8332
874.335	8427
874.464	8644
874.593	8872
874.722	8891
874.851	9013
874.979	9256
875.108	9351
875.237	9408
875.365	9526
875.494	9538
875.623	9857
875.751	9778
875.88	10036
876.008	10128
876.136	10284
876.265	10459
876.393	10687
876.521	10698
876.65	10820
876.778	10873
876.906	10908
877.034	10919
877.162	11071
877.29	11151
877.418	11292
877.546	11356
877.674	11368
877.802	11486
877.93	11516
878.058	11608
878.185	11600
878.313	11638
878.441	11756
878.568	11714
878.696	11882
878.824	11805
878.951	11958
879.079	12045
879.206	12091
879.333	12098
879.461	12015
879.588	12057
879.715	12148
879.842	12270
879.97	12038
880.097	11912
880.224	11843
880.351	11889
880.478	11950
880.605	11832
880.732	11756
880.859	11999
880.986	11790
881.112	11885
881.239	11714
881.366	11653
881.493	11627
881.619	11532
881.746	11604
881.872	11554
881.999	11543
882.125	11406
882.252	11642
882.378	11520
882.505	11543
882.631	11364
882.757	11303
882.883	11353
883.01	11337
883.136	11178
883.262	11090
883.388	11098
883.514	11121
883.64	11098
883.766	11041
883.892	11003
884.018	11010
884.143	11064
884.269	11075
884.395	10927
884.52	10748
884.646	10793
884.772	10664
884.897	10717
885.023	10637
885.148	10752
885.274	10660
885.399	10626
885.524	10675
885.65	10580
885.775	10542
885.9	10519
886.025	10702
886.15	10531
886.275	10413
886.4	10390
886.525	10337
886.65	10322
886.775	10409
886.9	10504
887.025	10546
887.149	10348
887.274	10207
887.399	10257
887.523	10135
887.648	10124
887.773	10124
887.897	10246
888.021	10227
888.146	10166
888.27	10322
888.395	10207
888.519	10223
888.643	10139
888.767	10173
888.891	10078
889.015	9975
889.139	10010
889.263	9964
889.387	10078
889.511	10036
889.635	10074
889.759	9987
889.883	10006
890.006	10048
890.13	10128
890.254	9903
890.377	9972
890.501	9861
890.624	9850
890.748	9964
890.871	9778
890.995	9747
891.118	9781
891.241	9732
891.364	9751
891.488	9816
891.611	9740
891.734	9770
891.857	9759
891.98	9713
892.103	9808
892.226	9690
892.349	9732
892.471	9568
892.594	9644
892.717	9564
892.839	9549
892.962	9614
893.085	9660
893.207	9568
893.33	9515
893.452	9610
893.575	9675
893.697	9481
893.819	9595
893.941	9637
894.064	9644
894.186	9488
894.308	9405
894.43	9485
894.552	9564
894.674	9530
894.796	9294
894.918	9336
895.04	9332
895.161	9351
895.283	9393
895.405	9233
895.526	9268
895.648	9188
895.769	9264
895.891	9256
896.012	9226
896.134	9218
896.255	9169
896.376	9119
896.498	9131
896.619	9123
896.74	9081
896.861	9100
896.982	9253
897.103	9359
897.224	9112
897.345	9020
897.466	9070
897.587	8948
897.708	9131
897.828	9005
897.949	8929
898.07	8895
898.19	8990
898.311	8960
898.431	8925
898.552	8918
898.672	8979
898.792	9005
898.913	8979
899.033	8796
899.153	8762
899.273	8689
899.393	8678
899.513	8766
899.633	8705
899.753	8762
899.873	8689
899.993	8682
900.113	8693
900.232	8727
900.352	8606
900.472	8655
900.591	8587
900.711	8560
900.83	8514
900.95	8667
901.069	8705
901.189	8568
901.308	8438
901.427	8347
901.546	8415
901.665	8434
901.784	8473
901.904	8393
902.023	8351
902.141	8221
902.26	8221
902.379	8290
902.498	8145
902.617	8248
902.735	8263
902.854	8298
902.973	8298
903.091	8043
903.21	8157
903.328	8176
903.446	8107
903.565	8043
903.683	8073
903.801	8035
903.919	8100
904.038	8176
904.156	7989
904.274	8046
904.392	8050
904.51	8035
904.627	8065
904.745	8092
904.863	8069
904.981	7917
905.098	7890
905.216	7845
905.334	7894
905.451	7951
905.569	7875
905.686	7883
905.803	7932
905.921	7837
906.038	7799
906.155	7807
906.272	7647
906.389	7769
906.506	7655
906.623	7575
906.74	7582
906.857	7548
906.974	7616
907.091	7620
907.208	7674
907.324	7597
907.441	7628
907.557	7396
907.674	7403
907.79	7289
907.907	7415
908.023	7365
908.139	7388
908.256	7346
908.372	7346
908.488	7346
908.604	7293
908.72	7244
908.836	7266
908.952	7270
909.068	7251
909.184	7289
909.3	7198
909.415	7278
909.531	7236
909.647	7080
909.762	7038
909.878	7046
909.993	7065
910.108	7095
910.224	7046
910.339	7099
910.454	7000
910.57	6962
910.685	6947
910.8	7179
910.915	7091
911.03	7015
911.145	6871
911.259	6856
911.374	6821
911.489	6825
911.604	6829
911.718	6711
911.833	6730
911.947	6730
912.062	6574
912.176	6688
912.291	6692
912.405	6646
912.519	6859
912.633	6806
912.748	6741
912.862	6719
912.976	6593
913.09	6521
913.204	6601
913.318	6566
913.431	6662
913.545	6681
913.659	6749
913.772	6623
913.886	6532
914	6578
914.113	6612
914.226	6608
914.34	6547
914.453	6547
914.566	6604
914.68	6509
914.793	6521
914.906	6464
915.019	6445
915.132	6414
915.245	6376
915.358	6433
915.47	6437
915.583	6467
915.696	6456
915.809	6525
915.921	6494
916.034	6403
916.146	6399
916.259	6361
916.371	6498
916.483	6445
916.595	6399
916.708	6357
916.82	6365
916.932	6407
917.044	6388
917.156	6369
917.268	6235
917.38	6296
917.491	6342
917.603	6346
917.715	6350
917.826	6448
917.938	6353
918.049	6209
918.161	6334
918.272	6395
918.384	6429
918.495	6292
918.606	6258
918.717	6216
918.828	6292
918.939	6296
919.05	6205
919.161	6232
919.272	6121
919.383	6087
919.494	6270
919.604	6395
919.715	6304
919.826	6159
919.936	6232
920.047	6266
920.157	6262
920.267	6433
920.378	6292
920.488	6273
920.598	6437
920.708	6509
920.818	6456
920.928	6437
921.038	6604
921.148	6601
921.258	6331
921.368	6270
921.477	6190
921.587	6155
921.697	6076
921.806	6205
921.916	6129
922.025	5889
922.134	5904
922.244	5889
922.353	5950
922.462	5859
922.571	5794
922.68	5737
922.789	5688
922.898	5703
923.007	5661
923.116	5691
923.224	5615
923.333	5657
923.442	5615
923.55	5528
923.659	5551
923.767	5611
923.876	5528
923.984	5608
924.092	5478
924.201	5512
924.309	5547
924.417	5539
924.525	5433
924.633	5486
924.741	6296
924.849	5360
924.956	5493
925.064	5318
925.172	5315
925.279	5292
925.387	5334
925.494	5337
925.602	5402
925.709	5391
925.816	5307
925.924	5288
926.031	5372
926.138	5277
926.245	5258
926.352	5250
926.459	5311
926.566	5265
926.673	5208
926.779	5178
926.886	5083
926.993	5003
927.099	5003
927.206	5025
927.312	4942
927.419	5022
927.525	4991
927.631	4972
927.737	4850
927.843	4866
927.95	4763
928.056	4793
928.162	4850
928.267	4793
928.373	5379
928.479	4850
928.585	4679
928.69	4778
928.796	4752
928.901	4736
929.007	4580
929.112	4710
929.218	4626
929.323	4577
929.428	4588
929.533	4634
929.638	4508
929.743	4504
929.848	4569
929.953	4508
930.058	4470
930.163	4348
930.267	4341
930.372	4390
930.477	4268
930.581	4413
930.685	4379
930.79	4234
930.894	4272
930.998	4223
931.103	4379
931.207	4082
931.311	4082
931.415	4051
931.519	3907
931.623	3956
