Data from glass_V78500241_162.txt Node
Date: Wed Sep 01 19:15:37 CST 2021
User: usil
Spectrometer: V785-0024
Trigger mode: 0
Integration Time (sec): 4.000000E-1
Scans to average: 1
Nonlinearity correction enabled: false
Boxcar width: 0
Storing dark spectrum: false
XAxis mode: Wavelengths
Number of Pixels in Spectrum: 1024
>>>>>Begin Spectral Data<<<<<
801.071	3755
801.214	3732
801.356	3762
801.499	3755
801.641	3728
801.783	3812
801.926	3880
802.068	3869
802.211	3873
802.353	3941
802.496	3854
802.638	3888
802.78	3880
802.923	3953
803.065	3922
803.208	3869
803.35	3876
803.492	3911
803.635	3922
803.777	3854
803.919	3918
804.061	4154
804.204	3983
804.346	3934
804.488	3949
804.63	4063
804.773	3956
804.915	3994
805.057	4143
805.199	4040
805.341	4120
805.483	4154
805.626	4147
805.768	4067
805.91	4211
806.052	4287
806.194	4215
806.336	4402
806.478	4261
806.62	4192
806.762	4196
806.904	4268
807.046	4363
807.188	4253
807.33	4185
807.472	4230
807.614	4219
807.756	4306
807.898	4223
808.04	4219
808.182	4291
808.324	4333
808.465	4371
808.607	4447
808.749	4466
808.891	4493
809.033	4546
809.174	4428
809.316	4325
809.458	4299
809.6	4109
809.741	4181
809.883	4158
810.025	4192
810.166	4185
810.308	4192
810.45	4291
810.591	4272
810.733	4280
810.875	4554
811.016	4835
811.158	5147
811.299	5311
811.441	5307
811.582	5151
811.724	4736
811.865	4474
812.007	4497
812.148	4405
812.29	4428
812.431	4417
812.573	4432
812.714	4398
812.855	4428
812.997	4436
813.138	4527
813.279	4417
813.421	4398
813.562	4363
813.703	4322
813.845	4329
813.986	4280
814.127	4265
814.268	4276
814.41	4352
814.551	4337
814.692	4363
814.833	4268
814.974	4341
815.115	4295
815.256	4272
815.397	4280
815.539	4234
815.68	4207
815.821	4215
815.962	4291
816.103	4246
816.244	4204
816.385	4242
816.526	4310
816.666	4227
816.807	4154
816.948	4200
817.089	4188
817.23	4147
817.371	4067
817.512	4051
817.653	4101
817.793	4044
817.934	4048
818.075	4135
818.216	4086
818.356	4086
818.497	3983
818.638	3907
818.778	3873
818.919	3911
819.06	3869
819.2	3960
819.341	3892
819.481	3850
819.622	3903
819.762	4040
819.903	3941
820.043	3876
820.184	3842
820.324	3823
820.465	3892
820.605	3880
820.746	3918
820.886	3876
821.026	3922
821.167	3972
821.307	3975
821.447	3972
821.588	3964
821.728	3972
821.868	3960
822.008	3907
822.149	3960
822.289	3918
822.429	3759
822.569	3797
822.709	3800
822.849	3728
822.99	3751
823.13	3804
823.27	3800
823.41	3736
823.55	3759
823.69	3709
823.83	3766
823.97	3679
824.11	3637
824.25	3603
824.389	3652
824.529	3671
824.669	3641
824.809	3720
824.949	3766
825.089	3740
825.228	3694
825.368	3618
825.508	3599
825.648	3606
825.787	3625
825.927	3656
826.067	3591
826.206	3686
826.346	3823
826.485	3816
826.625	3854
826.765	3975
826.904	3892
827.044	3606
827.183	3504
827.323	3439
827.462	3530
827.601	3409
827.741	3450
827.88	3466
828.02	3378
828.159	3454
828.298	3481
828.437	3477
828.577	3473
828.716	3599
828.855	3488
828.994	3382
829.134	3401
829.273	3378
829.412	3367
829.551	3386
829.69	3370
829.829	3458
829.968	3584
830.107	3462
830.246	3473
830.385	3374
830.524	3424
830.663	3325
830.802	3264
830.941	3207
831.08	3199
831.219	3264
831.357	3272
831.496	3424
831.635	3264
831.774	3222
831.913	3203
832.051	3165
832.19	3161
832.329	3233
832.467	3150
832.606	3123
832.744	3161
832.883	3203
833.022	3233
833.16	3253
833.299	3294
833.437	3313
833.576	3367
833.714	3397
833.852	3447
833.991	3500
834.129	3504
834.267	3496
834.406	3435
834.544	3412
834.682	3462
834.821	3443
834.959	3568
835.097	3435
835.235	3549
835.373	3469
835.511	3519
835.65	3466
835.788	3488
835.926	3439
836.064	3424
836.202	3439
836.34	3584
836.478	3591
836.615	3545
836.753	3584
836.891	3629
837.029	3622
837.167	3622
837.305	3587
837.443	3549
837.58	3519
837.718	3633
837.856	3606
837.993	3549
838.131	3576
838.269	3641
838.406	3595
838.544	3587
838.681	3454
838.819	3469
838.956	3409
839.094	3397
839.231	3477
839.369	3576
839.506	3736
839.643	3679
839.781	3530
839.918	3443
840.055	3515
840.193	3538
840.33	3545
840.467	3584
840.604	3644
840.742	3873
840.879	3568
841.016	3610
841.153	3584
841.29	3766
841.427	3736
841.564	3751
841.701	3740
841.838	3705
841.975	3667
842.112	3747
842.249	3679
842.385	3698
842.522	3816
842.659	3694
842.796	3698
842.933	3736
843.069	3766
843.206	3701
843.343	3835
843.479	3759
843.616	3819
843.752	3679
843.889	3682
844.025	3911
844.162	3747
844.298	3922
844.435	3831
844.571	3800
844.708	3934
844.844	3937
844.98	4063
845.117	4021
845.253	3934
845.389	3922
845.525	3937
845.661	4013
845.798	3979
845.934	4048
846.07	3979
846.206	4017
846.342	4147
846.478	4032
846.614	3975
846.75	3941
846.886	3956
847.022	4029
847.158	3983
847.294	3991
847.429	4063
847.565	4029
847.701	4276
847.837	3865
847.972	3857
848.108	3972
848.244	4002
848.379	3903
848.515	3846
848.65	3831
848.786	3846
848.921	3873
849.057	3918
849.192	3930
849.328	3968
849.463	3922
849.598	3934
849.734	3846
849.869	3873
850.004	3808
850.14	3808
850.275	3778
850.41	3724
850.545	3732
850.68	3819
850.815	3865
850.95	3812
851.085	3979
851.22	3873
851.355	3808
851.49	3789
851.625	3812
851.76	3819
851.895	3774
852.03	3736
852.165	3778
852.299	3911
852.434	3968
852.569	3884
852.703	3861
852.838	3964
852.973	4006
853.107	4021
853.242	3915
853.376	3850
853.511	3755
853.645	3873
853.78	4006
853.914	3911
854.048	3949
854.183	3930
854.317	3991
854.451	4097
854.585	3956
854.72	3994
854.854	4097
854.988	3949
855.122	4036
855.256	3972
855.39	3998
855.524	4128
855.658	4051
855.792	4150
855.926	4082
856.06	4158
856.194	4303
856.327	4135
856.461	4135
856.595	4177
856.729	4181
856.862	4287
856.996	4253
857.13	4284
857.263	4306
857.397	4375
857.53	4306
857.664	4363
857.797	4447
857.931	4428
858.064	4402
858.197	4474
858.331	4413
858.464	4421
858.597	4360
858.731	4417
858.864	4493
858.997	4493
859.13	4527
859.263	4531
859.396	4584
859.529	4527
859.662	4519
859.795	4519
859.928	4618
860.061	4725
860.194	4706
860.327	4683
860.46	4649
860.592	4774
860.725	4710
860.858	4786
860.99	4706
861.123	4675
861.256	4691
861.388	4752
861.521	5372
861.653	4767
861.786	4679
861.918	4820
862.05	4782
862.183	4828
862.315	4915
862.447	4991
862.58	4946
862.712	4782
862.844	4763
862.976	4870
863.108	4850
863.24	5288
863.372	4831
863.504	4938
863.636	4908
863.768	5033
863.9	4999
864.032	4934
864.164	4938
864.296	5079
864.428	5105
864.559	5151
864.691	5128
864.823	5121
864.954	5102
865.086	5159
865.217	5143
865.349	5147
865.48	5147
865.612	5193
865.743	5292
865.875	5223
866.006	5212
866.137	5265
866.269	5265
866.4	5284
866.531	5239
866.662	5261
866.793	5254
866.924	5326
867.055	5334
867.186	5387
867.317	5364
867.448	5315
867.579	5467
867.71	5326
867.841	5410
867.972	5482
868.103	5410
868.233	5509
868.364	5509
868.495	5539
868.625	5695
868.756	5794
868.886	5642
869.017	5726
869.147	5866
869.278	5904
869.408	5802
869.539	5840
869.669	5954
869.799	5939
869.929	6019
870.06	5980
870.19	6182
870.32	6228
870.45	6270
870.58	6407
870.71	6376
870.84	6597
870.97	6502
871.1	6448
871.23	6646
871.36	6696
871.489	6711
871.619	6791
871.749	6802
871.879	6890
872.008	6958
872.138	6985
872.267	7019
872.397	7057
872.526	7031
872.656	7057
872.785	7221
872.915	7400
873.044	7514
873.173	7533
873.303	7655
873.432	7738
873.561	7887
873.69	7871
873.819	8001
873.948	8138
874.077	8214
874.206	8343
874.335	8465
874.464	8625
874.593	8807
874.722	8918
874.851	9188
874.979	9222
875.108	9386
875.237	9481
875.365	9511
875.494	9637
875.623	9865
875.751	9895
875.88	10010
876.008	10154
876.136	10329
876.265	10558
876.393	10755
876.521	10717
876.65	10812
876.778	10858
876.906	10961
877.034	10995
877.162	11124
877.29	11174
877.418	11277
877.546	11376
877.674	11524
877.802	11433
877.93	11512
878.058	11619
878.185	11547
878.313	11688
878.441	11703
878.568	11680
878.696	11836
878.824	11866
878.951	11927
879.079	12030
879.206	12110
879.333	12011
879.461	12030
879.588	12159
879.715	11988
879.842	12201
879.97	12053
880.097	11954
880.224	11859
880.351	11870
880.478	11923
880.605	11927
880.732	11859
880.859	11980
880.986	11855
881.112	11904
881.239	11760
881.366	11653
881.493	11653
881.619	11562
881.746	11627
881.872	11566
881.999	11566
882.125	11543
882.252	11532
882.378	11410
882.505	11520
882.631	11337
882.757	11322
882.883	11349
883.01	11280
883.136	11216
883.262	11117
883.388	11109
883.514	11212
883.64	11193
883.766	11079
883.892	11056
884.018	10972
884.143	11071
884.269	11102
884.395	10881
884.52	10782
884.646	10763
884.772	10752
884.897	10637
885.023	10729
885.148	10736
885.274	10736
885.399	10649
885.524	10596
885.65	10558
885.775	10561
885.9	10592
886.025	10736
886.15	10561
886.275	10466
886.4	10409
886.525	10360
886.65	10367
886.775	10295
886.9	10519
887.025	10603
887.149	10382
887.274	10276
887.399	10253
887.523	10234
887.648	10185
887.773	10109
887.897	10276
888.021	10207
888.146	10086
888.27	10276
888.395	10227
888.519	10181
888.643	10238
888.767	10219
888.891	10162
889.015	9987
889.139	10040
889.263	9983
889.387	10067
889.511	10120
889.635	10147
889.759	9941
889.883	10044
890.006	9945
890.13	10105
890.254	9953
890.377	9991
890.501	9869
890.624	9838
890.748	9941
890.871	9812
890.995	9724
891.118	9770
891.241	9679
891.364	9770
891.488	9823
891.611	9812
891.734	9808
891.857	9835
891.98	9740
892.103	9770
892.226	9701
892.349	9663
892.471	9572
892.594	9553
892.717	9618
892.839	9564
892.962	9591
893.085	9686
893.207	9591
893.33	9500
893.452	9622
893.575	9618
893.697	9462
893.819	9705
893.941	9614
894.064	9614
894.186	9435
894.308	9466
894.43	9629
894.552	9663
894.674	9530
894.796	9424
894.918	9408
895.04	9386
895.161	9416
895.283	9416
895.405	9218
895.526	9253
895.648	9249
895.769	9199
895.891	9214
896.012	9253
896.134	9253
896.255	9192
896.376	9165
896.498	9218
896.619	9116
896.74	9070
896.861	9116
896.982	9275
897.103	9306
897.224	9184
897.345	9070
897.466	9028
897.587	8998
897.708	9028
897.828	9066
897.949	9017
898.07	8883
898.19	8960
898.311	8960
898.431	8918
898.552	8876
898.672	9009
898.792	8906
898.913	8933
899.033	8830
899.153	8792
899.273	8636
899.393	8773
899.513	8781
899.633	8758
899.753	8735
899.873	8648
899.993	8758
900.113	8785
900.232	8689
900.352	8667
900.472	8689
900.591	8590
900.711	8602
900.83	8530
900.95	8682
901.069	8758
901.189	8552
901.308	8389
901.427	8336
901.546	8415
901.665	8511
901.784	8495
901.904	8408
902.023	8305
902.141	8210
902.26	8225
902.379	8336
902.498	8240
902.617	8248
902.735	8282
902.854	8267
902.973	8320
903.091	8134
903.21	8176
903.328	8119
903.446	8107
903.565	8088
903.683	8164
903.801	8069
903.919	8145
904.038	8176
904.156	8046
904.274	8111
904.392	7989
904.51	8005
904.627	8073
904.745	8138
904.863	8084
904.981	7909
905.098	7883
905.216	7913
905.334	7890
905.451	7967
905.569	7951
905.686	7986
905.803	7993
905.921	7784
906.038	7841
906.155	7830
906.272	7757
906.389	7731
906.506	7674
906.623	7559
906.74	7590
906.857	7529
906.974	7586
907.091	7674
907.208	7712
907.324	7639
907.441	7616
907.557	7525
907.674	7506
907.79	7403
907.907	7457
908.023	7430
908.139	7445
908.256	7438
908.372	7388
908.488	7331
908.604	7293
908.72	7244
908.836	7289
908.952	7259
909.068	7236
909.184	7354
909.3	7266
909.415	7358
909.531	7266
909.647	7103
909.762	7209
909.878	7095
909.993	7084
910.108	7099
910.224	7122
910.339	7042
910.454	7015
910.57	7034
910.685	6970
910.8	7179
910.915	7145
911.03	7023
911.145	6897
911.259	6859
911.374	6935
911.489	6890
911.604	6859
911.718	6726
911.833	6787
911.947	6646
912.062	6654
912.176	6696
912.291	6719
912.405	6696
912.519	6825
912.633	6825
912.748	6719
912.862	6692
912.976	6597
913.09	6593
913.204	6578
913.318	6635
913.431	6684
913.545	6688
913.659	6726
913.772	6585
913.886	6574
914	6540
914.113	6616
914.226	6642
914.34	6700
914.453	6566
914.566	6642
914.68	6540
914.793	6544
914.906	6448
915.019	6441
915.132	6346
915.245	6437
915.358	6471
915.47	6471
915.583	6471
915.696	6509
915.809	6551
915.921	6585
916.034	6403
916.146	6410
916.259	6418
916.371	6467
916.483	6399
916.595	6422
916.708	6418
916.82	6414
916.932	6399
917.044	6452
917.156	6437
917.268	6376
917.38	6365
917.491	6403
917.603	6331
917.715	6448
917.826	6490
917.938	6365
918.049	6270
918.161	6441
918.272	6418
918.384	6437
918.495	6391
918.606	6281
918.717	6251
918.828	6235
918.939	6331
919.05	6258
919.161	6311
919.272	6106
919.383	6213
919.494	6296
919.604	6456
919.715	6327
919.826	6205
919.936	6308
920.047	6304
920.157	6342
920.267	6467
920.378	6372
920.488	6334
920.598	6441
920.708	6540
920.818	6486
920.928	6494
921.038	6585
921.148	6582
921.258	6361
921.368	6319
921.477	6224
921.587	6201
921.697	6144
921.806	6220
921.916	6060
922.025	5923
922.134	5923
922.244	5859
922.353	5946
922.462	5870
922.571	5847
922.68	5699
922.789	5691
922.898	5741
923.007	5676
923.116	5722
923.224	5661
923.333	5691
923.442	5573
923.55	5577
923.659	5615
923.767	5634
923.876	5592
923.984	5592
924.092	5486
924.201	5577
924.309	5627
924.417	5551
924.525	5497
924.633	5474
924.741	6175
924.849	5406
924.956	5486
925.064	5360
925.172	5322
925.279	5288
925.387	5353
925.494	5357
925.602	5436
925.709	5387
925.816	5303
925.924	5292
926.031	5383
926.138	5299
926.245	5379
926.352	5227
926.459	5345
926.566	5368
926.673	5201
926.779	5170
926.886	5094
926.993	5071
927.099	5025
927.206	5025
927.312	4995
927.419	5041
927.525	4942
927.631	4987
927.737	4911
927.843	4873
927.95	4778
928.056	4866
928.162	4870
928.267	4881
928.373	5387
928.479	4908
928.585	4725
928.69	4809
928.796	4790
928.901	4683
929.007	4596
929.112	4660
929.218	4664
929.323	4626
929.428	4577
929.533	4725
929.638	4546
929.743	4584
929.848	4561
929.953	4546
930.058	4447
930.163	4352
930.267	4386
930.372	4447
930.477	4337
930.581	4504
930.685	4363
930.79	4284
930.894	4284
930.998	4223
931.103	4428
931.207	4124
931.311	4109
931.415	4071
931.519	3953
931.623	3930
