Data from glass_V78500241_1751.txt Node
Date: Wed Sep 01 19:26:38 CST 2021
User: usil
Spectrometer: V785-0024
Trigger mode: 0
Integration Time (sec): 4.000000E-1
Scans to average: 1
Nonlinearity correction enabled: false
Boxcar width: 0
Storing dark spectrum: false
XAxis mode: Wavelengths
Number of Pixels in Spectrum: 1024
>>>>>Begin Spectral Data<<<<<
801.071	3781
801.214	3713
801.356	3747
801.499	3766
801.641	3759
801.783	3759
801.926	3865
802.068	3831
802.211	3816
802.353	3880
802.496	3854
802.638	3899
802.78	3873
802.923	3941
803.065	3888
803.208	3823
803.35	3846
803.492	3888
803.635	3915
803.777	3842
803.919	3876
804.061	4116
804.204	3953
804.346	3941
804.488	3964
804.63	4032
804.773	4044
804.915	4040
805.057	4139
805.199	4082
805.341	4093
805.483	4150
805.626	4131
805.768	4112
805.91	4200
806.052	4204
806.194	4204
806.336	4360
806.478	4207
806.62	4166
806.762	4234
806.904	4257
807.046	4348
807.188	4219
807.33	4230
807.472	4261
807.614	4185
807.756	4246
807.898	4196
808.04	4207
808.182	4299
808.324	4318
808.465	4344
808.607	4462
808.749	4455
808.891	4451
809.033	4504
809.174	4413
809.316	4257
809.458	4219
809.6	4181
809.741	4158
809.883	4082
810.025	4204
810.166	4219
810.308	4246
810.45	4272
810.591	4219
810.733	4253
810.875	4512
811.016	4847
811.158	5124
811.299	5284
811.441	5284
811.582	5094
811.724	4729
811.865	4481
812.007	4455
812.148	4390
812.29	4424
812.431	4371
812.573	4436
812.714	4348
812.855	4417
812.997	4432
813.138	4485
813.279	4413
813.421	4356
813.562	4413
813.703	4306
813.845	4352
813.986	4276
814.127	4215
814.268	4249
814.41	4291
814.551	4246
814.692	4352
814.833	4306
814.974	4356
815.115	4322
815.256	4249
815.397	4234
815.539	4238
815.68	4185
815.821	4192
815.962	4299
816.103	4314
816.244	4223
816.385	4268
816.526	4261
816.666	4223
816.807	4112
816.948	4128
817.089	4207
817.23	4139
817.371	4086
817.512	4097
817.653	4093
817.793	4036
817.934	4044
818.075	4067
818.216	4051
818.356	4124
818.497	3994
818.638	3949
818.778	3926
818.919	3926
819.06	3850
819.2	3953
819.341	3846
819.481	3823
819.622	3934
819.762	4055
819.903	3975
820.043	3911
820.184	3800
820.324	3778
820.465	3865
820.605	3842
820.746	3884
820.886	3800
821.026	3934
821.167	3918
821.307	3987
821.447	3972
821.588	3937
821.728	3975
821.868	3941
822.008	3899
822.149	3907
822.289	3922
822.429	3778
822.569	3770
822.709	3789
822.849	3671
822.99	3709
823.13	3781
823.27	3812
823.41	3679
823.55	3717
823.69	3720
823.83	3740
823.97	3682
824.11	3629
824.25	3587
824.389	3629
824.529	3618
824.669	3625
824.809	3701
824.949	3762
825.089	3720
825.228	3728
825.368	3614
825.508	3545
825.648	3580
825.787	3618
825.927	3675
826.067	3637
826.206	3656
826.346	3816
826.485	3823
826.625	3827
826.765	3918
826.904	3797
827.044	3610
827.183	3538
827.323	3450
827.462	3511
827.601	3443
827.741	3424
827.88	3428
828.02	3401
828.159	3431
828.298	3500
828.437	3504
828.577	3492
828.716	3606
828.855	3485
828.994	3363
829.134	3363
829.273	3386
829.412	3329
829.551	3306
829.69	3382
829.829	3424
829.968	3553
830.107	3431
830.246	3416
830.385	3378
830.524	3340
830.663	3310
830.802	3256
830.941	3195
831.08	3192
831.219	3260
831.357	3275
831.496	3416
831.635	3249
831.774	3180
831.913	3207
832.051	3123
832.19	3161
832.329	3214
832.467	3146
832.606	3097
832.744	3157
832.883	3188
833.022	3161
833.16	3268
833.299	3294
833.437	3336
833.576	3351
833.714	3401
833.852	3420
833.991	3466
834.129	3466
834.267	3447
834.406	3397
834.544	3443
834.682	3428
834.821	3382
834.959	3568
835.097	3431
835.235	3553
835.373	3477
835.511	3477
835.65	3450
835.788	3488
835.926	3420
836.064	3378
836.202	3428
836.34	3564
836.478	3614
836.615	3564
836.753	3584
836.891	3671
837.029	3629
837.167	3603
837.305	3580
837.443	3568
837.58	3507
837.718	3629
837.856	3580
837.993	3519
838.131	3629
838.269	3599
838.406	3568
838.544	3584
838.681	3492
838.819	3447
838.956	3393
839.094	3405
839.231	3431
839.369	3519
839.506	3728
839.643	3663
839.781	3534
839.918	3473
840.055	3500
840.193	3557
840.33	3534
840.467	3568
840.604	3591
840.742	3816
840.879	3530
841.016	3523
841.153	3622
841.29	3762
841.427	3679
841.564	3717
841.701	3724
841.838	3648
841.975	3705
842.112	3720
842.249	3637
842.385	3633
842.522	3850
842.659	3740
842.796	3679
842.933	3705
843.069	3709
843.206	3759
843.343	3800
843.479	3797
843.616	3819
843.752	3686
843.889	3648
844.025	3812
844.162	3717
844.298	3835
844.435	3778
844.571	3755
844.708	3896
844.844	3972
844.98	4063
845.117	4017
845.253	3930
845.389	3899
845.525	3998
845.661	3975
845.798	3934
845.934	4013
846.07	3937
846.206	4025
846.342	4101
846.478	4051
846.614	3991
846.75	3934
846.886	3888
847.022	4021
847.158	4017
847.294	3991
847.429	4044
847.565	4010
847.701	4215
847.837	3873
847.972	3865
848.108	3979
848.244	3994
848.379	3873
848.515	3785
848.65	3789
848.786	3846
848.921	3857
849.057	3945
849.192	3998
849.328	3892
849.463	3896
849.598	3918
849.734	3854
849.869	3812
850.004	3797
850.14	3846
850.275	3770
850.41	3720
850.545	3778
850.68	3781
850.815	3747
850.95	3793
851.085	3949
851.22	3838
851.355	3831
851.49	3785
851.625	3804
851.76	3789
851.895	3732
852.03	3728
852.165	3766
852.299	3857
852.434	3888
852.569	3838
852.703	3884
852.838	3972
852.973	3979
853.107	3945
853.242	3941
853.376	3831
853.511	3770
853.645	3838
853.78	3972
853.914	3876
854.048	3926
854.183	3850
854.317	3964
854.451	4063
854.585	3949
854.72	3960
854.854	4051
854.988	3945
855.122	3994
855.256	3930
855.39	4029
855.524	4093
855.658	4124
855.792	4120
855.926	4135
856.06	4143
856.194	4207
856.327	4090
856.461	4150
856.595	4158
856.729	4147
856.862	4284
856.996	4306
857.13	4287
857.263	4314
857.397	4333
857.53	4265
857.664	4367
857.797	4417
857.931	4432
858.064	4383
858.197	4466
858.331	4379
858.464	4314
858.597	4352
858.731	4371
858.864	4459
858.997	4470
859.13	4535
859.263	4565
859.396	4626
859.529	4500
859.662	4550
859.795	4535
859.928	4618
860.061	4706
860.194	4736
860.327	4649
860.46	4660
860.592	4698
860.725	4755
860.858	4717
860.99	4675
861.123	4691
861.256	4706
861.388	4793
861.521	5417
861.653	4744
861.786	4683
861.918	4786
862.05	4812
862.183	4850
862.315	4908
862.447	4980
862.58	4900
862.712	4805
862.844	4797
862.976	4862
863.108	4873
863.24	5292
863.372	4805
863.504	4896
863.636	4904
863.768	4980
863.9	4972
864.032	4904
864.164	4908
864.296	4976
864.428	5090
864.559	5109
864.691	5079
864.823	5170
864.954	5155
865.086	5140
865.217	5105
865.349	5109
865.48	5193
865.612	5212
865.743	5277
865.875	5193
866.006	5204
866.137	5178
866.269	5246
866.4	5261
866.531	5212
866.662	5227
866.793	5288
866.924	5341
867.055	5357
867.186	5311
867.317	5269
867.448	5292
867.579	5372
867.71	5395
867.841	5368
867.972	5421
868.103	5490
868.233	5490
868.364	5490
868.495	5547
868.625	5680
868.756	5775
868.886	5638
869.017	5745
869.147	5893
869.278	5874
869.408	5859
869.539	5809
869.669	5939
869.799	5935
869.929	6007
870.06	6019
870.19	6155
870.32	6201
870.45	6239
870.58	6346
870.71	6407
870.84	6403
870.97	6407
871.1	6418
871.23	6646
871.36	6673
871.489	6620
871.619	6776
871.749	6791
871.879	6760
872.008	6951
872.138	6935
872.267	7042
872.397	6966
872.526	7031
872.656	7057
872.785	7228
872.915	7362
873.044	7548
873.173	7491
873.303	7655
873.432	7776
873.561	7833
873.69	7932
873.819	8027
873.948	8176
874.077	8305
874.206	8385
874.335	8511
874.464	8663
874.593	8853
874.722	8925
874.851	9123
874.979	9245
875.108	9291
875.237	9431
875.365	9454
875.494	9724
875.623	9747
875.751	9915
875.88	10032
876.008	10101
876.136	10257
876.265	10481
876.393	10664
876.521	10748
876.65	10778
876.778	10930
876.906	10828
877.034	10908
877.162	11098
877.29	11166
877.418	11326
877.546	11410
877.674	11463
877.802	11501
877.93	11467
878.058	11585
878.185	11604
878.313	11661
878.441	11748
878.568	11733
878.696	11824
878.824	11786
878.951	11916
879.079	12038
879.206	12110
879.333	12026
879.461	12026
879.588	12034
879.715	12015
879.842	12114
879.97	12095
880.097	11855
880.224	11889
880.351	11893
880.478	11912
880.605	11863
880.732	11779
880.859	12030
880.986	11828
881.112	11942
881.239	11790
881.366	11642
881.493	11554
881.619	11634
881.746	11539
881.872	11512
881.999	11497
882.125	11535
882.252	11543
882.378	11493
882.505	11539
882.631	11315
882.757	11296
882.883	11353
883.01	11261
883.136	11197
883.262	11071
883.388	11075
883.514	11132
883.64	11216
883.766	11098
883.892	11025
884.018	10957
884.143	11094
884.269	11075
884.395	10847
884.52	10721
884.646	10748
884.772	10790
884.897	10660
885.023	10740
885.148	10710
885.274	10797
885.399	10637
885.524	10626
885.65	10603
885.775	10546
885.9	10573
886.025	10634
886.15	10523
886.275	10474
886.4	10382
886.525	10341
886.65	10409
886.775	10344
886.9	10447
887.025	10432
887.149	10356
887.274	10246
887.399	10181
887.523	10227
887.648	10177
887.773	10131
887.897	10230
888.021	10257
888.146	10158
888.27	10181
888.395	10230
888.519	10177
888.643	10230
888.767	10173
888.891	10120
889.015	9941
889.139	10124
889.263	9960
889.387	10109
889.511	10074
889.635	10082
889.759	9911
889.883	10013
890.006	9983
890.13	10173
890.254	9953
890.377	9998
890.501	9861
890.624	9812
890.748	9899
890.871	9785
890.995	9755
891.118	9732
891.241	9728
891.364	9682
891.488	9804
891.611	9728
891.734	9713
891.857	9732
891.98	9736
892.103	9808
892.226	9736
892.349	9637
892.471	9568
892.594	9603
892.717	9660
892.839	9633
892.962	9553
893.085	9622
893.207	9580
893.33	9523
893.452	9587
893.575	9614
893.697	9507
893.819	9644
893.941	9694
894.064	9614
894.186	9443
894.308	9408
894.43	9511
894.552	9545
894.674	9511
894.796	9481
894.918	9389
895.04	9287
895.161	9363
895.283	9348
895.405	9214
895.526	9279
895.648	9211
895.769	9260
895.891	9218
896.012	9207
896.134	9241
896.255	9203
896.376	9123
896.498	9184
896.619	9066
896.74	9070
896.861	9058
896.982	9199
897.103	9264
897.224	9203
897.345	9024
897.466	8990
897.587	8990
897.708	9142
897.828	9009
897.949	8975
898.07	8849
898.19	8948
898.311	8986
898.431	8910
898.552	8975
898.672	8994
898.792	8902
898.913	8937
899.033	8785
899.153	8659
899.273	8720
899.393	8720
899.513	8777
899.633	8735
899.753	8731
899.873	8727
899.993	8716
900.113	8735
900.232	8686
900.352	8621
900.472	8606
900.591	8598
900.711	8571
900.83	8499
900.95	8667
901.069	8727
901.189	8602
901.308	8404
901.427	8366
901.546	8465
901.665	8461
901.784	8526
901.904	8385
902.023	8324
902.141	8317
902.26	8180
902.379	8317
902.498	8191
902.617	8206
902.735	8298
902.854	8320
902.973	8286
903.091	8111
903.21	8168
903.328	8180
903.446	8065
903.565	8130
903.683	8039
903.801	7989
903.919	8161
904.038	8092
904.156	8081
904.274	8145
904.392	8050
904.51	8069
904.627	8054
904.745	8088
904.863	8065
904.981	7921
905.098	7959
905.216	7875
905.334	7856
905.451	7913
905.569	7993
905.686	8005
905.803	7932
905.921	7776
906.038	7917
906.155	7814
906.272	7719
906.389	7696
906.506	7594
906.623	7609
906.74	7655
906.857	7613
906.974	7597
907.091	7734
907.208	7742
907.324	7632
907.441	7552
907.557	7441
907.674	7457
907.79	7434
907.907	7369
908.023	7483
908.139	7419
908.256	7377
908.372	7377
908.488	7388
908.604	7301
908.72	7297
908.836	7240
908.952	7175
909.068	7156
909.184	7308
909.3	7228
909.415	7343
909.531	7282
909.647	7198
909.762	7149
909.878	7080
909.993	7069
910.108	7095
910.224	7057
910.339	7080
910.454	7080
910.57	6970
910.685	6939
910.8	7107
910.915	7149
911.03	6989
911.145	6932
911.259	6829
911.374	6913
911.489	6829
911.604	6798
911.718	6726
911.833	6719
911.947	6604
912.062	6589
912.176	6688
912.291	6711
912.405	6719
912.519	6871
912.633	6795
912.748	6722
912.862	6734
912.976	6612
913.09	6460
913.204	6608
913.318	6612
913.431	6635
913.545	6639
913.659	6696
913.772	6616
913.886	6574
914	6589
914.113	6604
914.226	6726
914.34	6635
914.453	6521
914.566	6646
914.68	6479
914.793	6509
914.906	6441
915.019	6429
915.132	6479
915.245	6441
915.358	6391
915.47	6460
915.583	6498
915.696	6467
915.809	6536
915.921	6528
916.034	6380
916.146	6410
916.259	6422
916.371	6441
916.483	6521
916.595	6407
916.708	6414
916.82	6460
916.932	6414
917.044	6361
917.156	6464
917.268	6285
917.38	6304
917.491	6300
917.603	6304
917.715	6403
917.826	6464
917.938	6361
918.049	6220
918.161	6319
918.272	6376
918.384	6486
918.495	6384
918.606	6266
918.717	6243
918.828	6319
918.939	6216
919.05	6228
919.161	6239
919.272	6045
919.383	6159
919.494	6258
919.604	6445
919.715	6304
919.826	6277
919.936	6239
920.047	6403
920.157	6296
920.267	6467
920.378	6277
920.488	6262
920.598	6475
920.708	6566
920.818	6471
920.928	6433
921.038	6578
921.148	6521
921.258	6399
921.368	6327
921.477	6194
921.587	6106
921.697	6098
921.806	6136
921.916	6041
922.025	5961
922.134	5904
922.244	5870
922.353	5980
922.462	5874
922.571	5828
922.68	5703
922.789	5653
922.898	5672
923.007	5676
923.116	5684
923.224	5642
923.333	5653
923.442	5577
923.55	5585
923.659	5585
923.767	5600
923.876	5535
923.984	5611
924.092	5505
924.201	5573
924.309	5558
924.417	5573
924.525	5459
924.633	5452
924.741	6277
924.849	5402
924.956	5497
925.064	5368
925.172	5296
925.279	5284
925.387	5337
925.494	5311
925.602	5368
925.709	5372
925.816	5265
925.924	5318
926.031	5372
926.138	5330
926.245	5307
926.352	5265
926.459	5337
926.566	5330
926.673	5143
926.779	5121
926.886	5140
926.993	4980
927.099	4980
927.206	4999
927.312	4957
927.419	5048
927.525	4961
927.631	4934
927.737	4896
927.843	4843
927.95	4782
928.056	4835
928.162	4828
928.267	4831
928.373	5337
928.479	4877
928.585	4694
928.69	4752
928.796	4755
928.901	4675
929.007	4558
929.112	4706
929.218	4607
929.323	4611
929.428	4546
929.533	4694
929.638	4523
929.743	4565
929.848	4535
929.953	4493
930.058	4455
930.163	4322
930.267	4344
930.372	4424
930.477	4322
930.581	4474
930.685	4379
930.79	4261
930.894	4265
930.998	4284
931.103	4402
931.207	4112
931.311	4044
931.415	4067
931.519	3918
931.623	3937
