Data from glass_V78500241_417.txt Node
Date: Wed Sep 01 19:17:23 CST 2021
User: usil
Spectrometer: V785-0024
Trigger mode: 0
Integration Time (sec): 4.000000E-1
Scans to average: 1
Nonlinearity correction enabled: false
Boxcar width: 0
Storing dark spectrum: false
XAxis mode: Wavelengths
Number of Pixels in Spectrum: 1024
>>>>>Begin Spectral Data<<<<<
801.071	3724
801.214	3778
801.356	3740
801.499	3759
801.641	3797
801.783	3762
801.926	3873
802.068	3873
802.211	3884
802.353	3880
802.496	3823
802.638	3869
802.78	3911
802.923	3983
803.065	3869
803.208	3816
803.35	3869
803.492	3903
803.635	3941
803.777	3827
803.919	3880
804.061	4177
804.204	3979
804.346	3937
804.488	3979
804.63	4074
804.773	4006
804.915	4036
805.057	4147
805.199	4040
805.341	4128
805.483	4158
805.626	4109
805.768	4135
805.91	4253
806.052	4249
806.194	4204
806.336	4383
806.478	4192
806.62	4192
806.762	4169
806.904	4306
807.046	4314
807.188	4204
807.33	4200
807.472	4242
807.614	4177
807.756	4310
807.898	4185
808.04	4204
808.182	4280
808.324	4322
808.465	4421
808.607	4428
808.749	4512
808.891	4462
809.033	4508
809.174	4405
809.316	4272
809.458	4200
809.6	4200
809.741	4196
809.883	4120
810.025	4223
810.166	4238
810.308	4265
810.45	4291
810.591	4249
810.733	4295
810.875	4516
811.016	4850
811.158	5151
811.299	5280
811.441	5265
811.582	5105
811.724	4736
811.865	4459
812.007	4481
812.148	4417
812.29	4413
812.431	4432
812.573	4451
812.714	4436
812.855	4421
812.997	4485
813.138	4474
813.279	4402
813.421	4390
813.562	4356
813.703	4344
813.845	4337
813.986	4227
814.127	4211
814.268	4276
814.41	4344
814.551	4268
814.692	4314
814.833	4265
814.974	4356
815.115	4333
815.256	4257
815.397	4257
815.539	4253
815.68	4238
815.821	4215
815.962	4310
816.103	4329
816.244	4223
816.385	4291
816.526	4325
816.666	4181
816.807	4090
816.948	4162
817.089	4162
817.23	4101
817.371	4036
817.512	4048
817.653	4097
817.793	4044
817.934	4067
818.075	4143
818.216	4059
818.356	4158
818.497	4002
818.638	3945
818.778	3949
818.919	3873
819.06	3861
819.2	3960
819.341	3907
819.481	3842
819.622	3907
819.762	4032
819.903	3934
820.043	3922
820.184	3838
820.324	3842
820.465	3945
820.605	3876
820.746	3892
820.886	3838
821.026	3949
821.167	3941
821.307	3972
821.447	4010
821.588	3945
821.728	3979
821.868	3953
822.008	3850
822.149	3911
822.289	3953
822.429	3838
822.569	3778
822.709	3808
822.849	3694
822.99	3755
823.13	3785
823.27	3808
823.41	3724
823.55	3774
823.69	3751
823.83	3808
823.97	3698
824.11	3629
824.25	3603
824.389	3671
824.529	3679
824.669	3652
824.809	3682
824.949	3770
825.089	3770
825.228	3709
825.368	3591
825.508	3641
825.648	3610
825.787	3614
825.927	3663
826.067	3606
826.206	3679
826.346	3827
826.485	3842
826.625	3789
826.765	3968
826.904	3838
827.044	3694
827.183	3538
827.323	3439
827.462	3488
827.601	3454
827.741	3420
827.88	3462
828.02	3378
828.159	3439
828.298	3496
828.437	3523
828.577	3481
828.716	3614
828.855	3492
828.994	3412
829.134	3420
829.273	3386
829.412	3363
829.551	3329
829.69	3393
829.829	3450
829.968	3523
830.107	3458
830.246	3431
830.385	3386
830.524	3378
830.663	3355
830.802	3283
830.941	3222
831.08	3199
831.219	3264
831.357	3272
831.496	3397
831.635	3218
831.774	3173
831.913	3237
832.051	3146
832.19	3150
832.329	3226
832.467	3154
832.606	3119
832.744	3165
832.883	3192
833.022	3199
833.16	3264
833.299	3294
833.437	3351
833.576	3386
833.714	3397
833.852	3409
833.991	3405
834.129	3504
834.267	3488
834.406	3420
834.544	3450
834.682	3466
834.821	3401
834.959	3584
835.097	3439
835.235	3523
835.373	3542
835.511	3538
835.65	3450
835.788	3519
835.926	3420
836.064	3393
836.202	3401
836.34	3614
836.478	3622
836.615	3542
836.753	3625
836.891	3637
837.029	3629
837.167	3637
837.305	3564
837.443	3595
837.58	3496
837.718	3625
837.856	3568
837.993	3549
838.131	3568
838.269	3595
838.406	3572
838.544	3599
838.681	3477
838.819	3435
838.956	3409
839.094	3401
839.231	3473
839.369	3500
839.506	3682
839.643	3652
839.781	3496
839.918	3485
840.055	3580
840.193	3568
840.33	3561
840.467	3545
840.604	3603
840.742	3835
840.879	3580
841.016	3557
841.153	3652
841.29	3766
841.427	3724
841.564	3740
841.701	3755
841.838	3694
841.975	3755
842.112	3762
842.249	3629
842.385	3663
842.522	3846
842.659	3720
842.796	3701
842.933	3732
843.069	3713
843.206	3778
843.343	3800
843.479	3774
843.616	3797
843.752	3682
843.889	3709
844.025	3873
844.162	3694
844.298	3838
844.435	3823
844.571	3797
844.708	3911
844.844	4017
844.98	4006
845.117	3998
845.253	3907
845.389	3876
845.525	3972
845.661	3953
845.798	3907
845.934	3991
846.07	4010
846.206	4071
846.342	4154
846.478	4116
846.614	3998
846.75	3960
846.886	3964
847.022	4040
847.158	4021
847.294	4010
847.429	4048
847.565	4025
847.701	4261
847.837	3918
847.972	3850
848.108	3983
848.244	3979
848.379	3865
848.515	3800
848.65	3838
848.786	3896
848.921	3873
849.057	3953
849.192	3956
849.328	3953
849.463	3949
849.598	3911
849.734	3876
849.869	3880
850.004	3827
850.14	3800
850.275	3781
850.41	3759
850.545	3751
850.68	3789
850.815	3785
850.95	3816
851.085	3960
851.22	3869
851.355	3819
851.49	3785
851.625	3827
851.76	3800
851.895	3747
852.03	3720
852.165	3823
852.299	3876
852.434	3907
852.569	3876
852.703	3892
852.838	3899
852.973	3994
853.107	4025
853.242	3899
853.376	3850
853.511	3797
853.645	3838
853.78	3987
853.914	3896
854.048	3903
854.183	3896
854.317	4029
854.451	4086
854.585	3979
854.72	3934
854.854	4109
854.988	3888
855.122	4013
855.256	3964
855.39	4051
855.524	4082
855.658	4166
855.792	4120
855.926	4135
856.06	4166
856.194	4253
856.327	4169
856.461	4055
856.595	4177
856.729	4207
856.862	4265
856.996	4204
857.13	4314
857.263	4348
857.397	4383
857.53	4318
857.664	4375
857.797	4409
857.931	4417
858.064	4398
858.197	4428
858.331	4394
858.464	4363
858.597	4310
858.731	4443
858.864	4546
858.997	4432
859.13	4523
859.263	4527
859.396	4622
859.529	4577
859.662	4538
859.795	4500
859.928	4607
860.061	4736
860.194	4809
860.327	4672
860.46	4702
860.592	4786
860.725	4805
860.858	4744
860.99	4729
861.123	4641
861.256	4675
861.388	4774
861.521	5402
861.653	4755
861.786	4706
861.918	4782
862.05	4805
862.183	4850
862.315	4877
862.447	4934
862.58	4900
862.712	4828
862.844	4786
862.976	4892
863.108	4889
863.24	5292
863.372	4858
863.504	4946
863.636	4934
863.768	4911
863.9	4972
864.032	4923
864.164	4980
864.296	4987
864.428	5109
864.559	5155
864.691	5136
864.823	5117
864.954	5113
865.086	5140
865.217	5147
865.349	5124
865.48	5159
865.612	5181
865.743	5307
865.875	5220
866.006	5193
866.137	5269
866.269	5231
866.4	5231
866.531	5235
866.662	5299
866.793	5254
866.924	5315
867.055	5398
867.186	5322
867.317	5364
867.448	5326
867.579	5391
867.71	5368
867.841	5436
867.972	5471
868.103	5463
868.233	5448
868.364	5501
868.495	5566
868.625	5661
868.756	5790
868.886	5722
869.017	5790
869.147	5855
869.278	5863
869.408	5836
869.539	5855
869.669	5912
869.799	5920
869.929	6064
870.06	6060
870.19	6243
870.32	6205
870.45	6216
870.58	6426
870.71	6521
870.84	6452
870.97	6433
871.1	6452
871.23	6627
871.36	6711
871.489	6711
871.619	6722
871.749	6757
871.879	6890
872.008	7000
872.138	6962
872.267	7053
872.397	6996
872.526	7065
872.656	7133
872.785	7244
872.915	7445
873.044	7533
873.173	7499
873.303	7677
873.432	7799
873.561	8005
873.69	7925
873.819	7989
873.948	8206
874.077	8218
874.206	8389
874.335	8434
874.464	8655
874.593	8872
874.722	8891
874.851	9036
874.979	9176
875.108	9367
875.237	9450
875.365	9454
875.494	9629
875.623	9797
875.751	9876
875.88	10021
876.008	10097
876.136	10230
876.265	10599
876.393	10675
876.521	10767
876.65	10839
876.778	10972
876.906	10881
877.034	11014
877.162	11212
877.29	11166
877.418	11341
877.546	11307
877.674	11425
877.802	11429
877.93	11573
878.058	11657
878.185	11585
878.313	11627
878.441	11695
878.568	11699
878.696	11737
878.824	11942
878.951	11965
879.079	12011
879.206	12209
879.333	12045
879.461	11988
879.588	12095
879.715	12125
879.842	12213
879.97	11965
880.097	12011
880.224	11885
880.351	11859
880.478	11916
880.605	11916
880.732	11840
880.859	12022
880.986	11904
881.112	11813
881.239	11741
881.366	11672
881.493	11577
881.619	11440
881.746	11543
881.872	11558
881.999	11592
882.125	11516
882.252	11581
882.378	11551
882.505	11604
882.631	11406
882.757	11246
882.883	11360
883.01	11239
883.136	11242
883.262	11128
883.388	11090
883.514	11178
883.64	11227
883.766	11121
883.892	10949
884.018	11052
884.143	11041
884.269	11105
884.395	10767
884.52	10797
884.646	10759
884.772	10729
884.897	10649
885.023	10717
885.148	10744
885.274	10744
885.399	10691
885.524	10634
885.65	10599
885.775	10634
885.9	10512
886.025	10626
886.15	10504
886.275	10455
886.4	10325
886.525	10375
886.65	10306
886.775	10382
886.9	10508
887.025	10577
887.149	10379
887.274	10227
887.399	10253
887.523	10173
887.648	10166
887.773	10105
887.897	10215
888.021	10272
888.146	10124
888.27	10284
888.395	10200
888.519	10124
888.643	10131
888.767	10158
888.891	10059
889.015	10059
889.139	10048
889.263	9972
889.387	10139
889.511	10116
889.635	10097
889.759	9968
889.883	9998
890.006	9907
890.13	10124
890.254	9915
890.377	9922
890.501	9873
890.624	9865
890.748	9865
890.871	9774
890.995	9766
891.118	9679
891.241	9785
891.364	9736
891.488	9865
891.611	9770
891.734	9709
891.857	9785
891.98	9694
892.103	9766
892.226	9747
892.349	9648
892.471	9515
892.594	9564
892.717	9606
892.839	9698
892.962	9603
893.085	9641
893.207	9648
893.33	9492
893.452	9519
893.575	9584
893.697	9618
893.819	9599
893.941	9701
894.064	9622
894.186	9443
894.308	9393
894.43	9469
894.552	9568
894.674	9557
894.796	9359
894.918	9363
895.04	9310
895.161	9389
895.283	9450
895.405	9245
895.526	9340
895.648	9256
895.769	9279
895.891	9340
896.012	9374
896.134	9249
896.255	9230
896.376	9104
896.498	9161
896.619	9127
896.74	9089
896.861	9150
896.982	9226
897.103	9287
897.224	9150
897.345	9135
897.466	8986
897.587	9032
897.708	9157
897.828	9001
897.949	8998
898.07	8887
898.19	8944
898.311	8998
898.431	8948
898.552	8887
898.672	9005
898.792	8979
898.913	8921
899.033	8849
899.153	8830
899.273	8651
899.393	8758
899.513	8743
899.633	8769
899.753	8724
899.873	8590
899.993	8773
900.113	8754
900.232	8750
900.352	8610
900.472	8583
900.591	8488
900.711	8583
900.83	8575
900.95	8667
901.069	8705
901.189	8583
901.308	8503
901.427	8374
901.546	8507
901.665	8492
901.784	8514
901.904	8442
902.023	8301
902.141	8248
902.26	8225
902.379	8259
902.498	8218
902.617	8218
902.735	8332
902.854	8279
902.973	8294
903.091	8081
903.21	8111
903.328	8183
903.446	8176
903.565	8126
903.683	8054
903.801	8054
903.919	8138
904.038	8210
904.156	8008
904.274	8027
904.392	8008
904.51	8088
904.627	8084
904.745	8058
904.863	8138
904.981	7906
905.098	7811
905.216	7883
905.334	7951
905.451	7906
905.569	7879
905.686	7917
905.803	7963
905.921	7784
906.038	7875
906.155	7845
906.272	7792
906.389	7727
906.506	7715
906.623	7643
906.74	7548
906.857	7563
906.974	7582
907.091	7727
907.208	7757
907.324	7620
907.441	7571
907.557	7407
907.674	7400
907.79	7422
907.907	7460
908.023	7514
908.139	7369
908.256	7392
908.372	7369
908.488	7350
908.604	7301
908.72	7293
908.836	7266
908.952	7320
909.068	7274
909.184	7305
909.3	7285
909.415	7301
909.531	7320
909.647	7118
909.762	7160
909.878	7152
909.993	7091
910.108	7145
910.224	7080
910.339	7198
910.454	7069
910.57	7050
910.685	7008
910.8	7107
910.915	7141
911.03	7038
911.145	6878
911.259	6939
911.374	6894
911.489	6882
911.604	6848
911.718	6764
911.833	6722
911.947	6677
912.062	6608
912.176	6673
912.291	6654
912.405	6715
912.519	6897
912.633	6829
912.748	6753
912.862	6734
912.976	6559
913.09	6483
913.204	6547
913.318	6574
913.431	6726
913.545	6692
913.659	6726
913.772	6642
913.886	6574
914	6551
914.113	6635
914.226	6639
914.34	6601
914.453	6452
914.566	6635
914.68	6547
914.793	6563
914.906	6448
915.019	6380
915.132	6361
915.245	6433
915.358	6448
915.47	6464
915.583	6475
915.696	6509
915.809	6551
915.921	6566
916.034	6445
916.146	6426
916.259	6418
916.371	6490
916.483	6448
916.595	6388
916.708	6433
916.82	6403
916.932	6376
917.044	6429
917.156	6422
917.268	6357
917.38	6384
917.491	6289
917.603	6346
917.715	6384
917.826	6433
917.938	6319
918.049	6235
918.161	6380
918.272	6372
918.384	6422
918.495	6380
918.606	6334
918.717	6171
918.828	6281
918.939	6323
919.05	6194
919.161	6232
919.272	6125
919.383	6129
919.494	6338
919.604	6384
919.715	6285
919.826	6213
919.936	6220
920.047	6384
920.157	6300
920.267	6464
920.378	6296
920.488	6311
920.598	6498
920.708	6585
920.818	6536
920.928	6464
921.038	6669
921.148	6551
921.258	6380
921.368	6289
921.477	6220
921.587	6163
921.697	6060
921.806	6197
921.916	6060
922.025	5973
922.134	5927
922.244	5901
922.353	5977
922.462	5847
922.571	5813
922.68	5779
922.789	5741
922.898	5714
923.007	5604
923.116	5737
923.224	5718
923.333	5680
923.442	5589
923.55	5615
923.659	5585
923.767	5604
923.876	5551
923.984	5627
924.092	5543
924.201	5596
924.309	5577
924.417	5524
924.525	5551
924.633	5535
924.741	6235
924.849	5334
924.956	5486
925.064	5379
925.172	5299
925.279	5334
925.387	5360
925.494	5357
925.602	5433
925.709	5410
925.816	5311
925.924	5284
926.031	5357
926.138	5330
926.245	5364
926.352	5258
926.459	5353
926.566	5353
926.673	5223
926.779	5193
926.886	5159
926.993	5083
927.099	4972
927.206	4961
927.312	4911
927.419	5018
927.525	4968
927.631	5006
927.737	4946
927.843	4858
927.95	4793
928.056	4850
928.162	4835
928.267	4889
928.373	5258
928.479	4828
928.585	4736
928.69	4809
928.796	4755
928.901	4698
929.007	4603
929.112	4660
929.218	4656
929.323	4580
929.428	4527
929.533	4637
929.638	4519
929.743	4596
929.848	4554
929.953	4561
930.058	4485
930.163	4348
930.267	4375
930.372	4455
930.477	4344
930.581	4485
930.685	4329
930.79	4276
930.894	4287
930.998	4261
931.103	4440
931.207	4124
931.311	4112
931.415	4036
931.519	3975
931.623	3953
