Data from glass_V78500241_1329.txt Node
Date: Wed Sep 01 19:23:42 CST 2021
User: usil
Spectrometer: V785-0024
Trigger mode: 0
Integration Time (sec): 4.000000E-1
Scans to average: 1
Nonlinearity correction enabled: false
Boxcar width: 0
Storing dark spectrum: false
XAxis mode: Wavelengths
Number of Pixels in Spectrum: 1024
>>>>>Begin Spectral Data<<<<<
801.071	3740
801.214	3762
801.356	3713
801.499	3785
801.641	3732
801.783	3800
801.926	3873
802.068	3827
802.211	3869
802.353	3918
802.496	3838
802.638	3922
802.78	3922
802.923	3960
803.065	3876
803.208	3850
803.35	3888
803.492	3884
803.635	3880
803.777	3816
803.919	3903
804.061	4139
804.204	4006
804.346	3937
804.488	3949
804.63	4040
804.773	3949
804.915	4051
805.057	4143
805.199	4044
805.341	4109
805.483	4112
805.626	4143
805.768	4154
805.91	4227
806.052	4261
806.194	4185
806.336	4386
806.478	4185
806.62	4177
806.762	4196
806.904	4265
807.046	4356
807.188	4227
807.33	4227
807.472	4249
807.614	4150
807.756	4249
807.898	4242
808.04	4249
808.182	4276
808.324	4333
808.465	4398
808.607	4497
808.749	4466
808.891	4485
809.033	4519
809.174	4432
809.316	4265
809.458	4242
809.6	4162
809.741	4135
809.883	4181
810.025	4219
810.166	4227
810.308	4223
810.45	4265
810.591	4204
810.733	4329
810.875	4538
811.016	4850
811.158	5121
811.299	5239
811.441	5277
811.582	5052
811.724	4721
811.865	4478
812.007	4523
812.148	4417
812.29	4428
812.431	4417
812.573	4386
812.714	4398
812.855	4443
812.997	4405
813.138	4516
813.279	4424
813.421	4386
813.562	4424
813.703	4360
813.845	4386
813.986	4242
814.127	4249
814.268	4291
814.41	4257
814.551	4268
814.692	4325
814.833	4272
814.974	4299
815.115	4356
815.256	4284
815.397	4223
815.539	4219
815.68	4234
815.821	4185
815.962	4314
816.103	4268
816.244	4249
816.385	4265
816.526	4253
816.666	4196
816.807	4116
816.948	4204
817.089	4200
817.23	4093
817.371	4082
817.512	4044
817.653	4116
817.793	4029
817.934	4063
818.075	4120
818.216	4097
818.356	4051
818.497	3991
818.638	3960
818.778	3953
818.919	3930
819.06	3880
819.2	3903
819.341	3873
819.481	3789
819.622	3888
819.762	4059
819.903	3979
820.043	3903
820.184	3819
820.324	3880
820.465	3842
820.605	3907
820.746	3861
820.886	3793
821.026	3937
821.167	3926
821.307	3979
821.447	4036
821.588	3922
821.728	3949
821.868	3953
822.008	3835
822.149	3899
822.289	3926
822.429	3774
822.569	3736
822.709	3842
822.849	3705
822.99	3736
823.13	3724
823.27	3766
823.41	3675
823.55	3705
823.69	3694
823.83	3713
823.97	3675
824.11	3610
824.25	3568
824.389	3682
824.529	3663
824.669	3622
824.809	3736
824.949	3759
825.089	3694
825.228	3743
825.368	3580
825.508	3523
825.648	3568
825.787	3610
825.927	3633
826.067	3614
826.206	3671
826.346	3800
826.485	3823
826.625	3918
826.765	3937
826.904	3846
827.044	3614
827.183	3515
827.323	3458
827.462	3485
827.601	3416
827.741	3416
827.88	3466
828.02	3397
828.159	3420
828.298	3473
828.437	3538
828.577	3488
828.716	3633
828.855	3523
828.994	3378
829.134	3378
829.273	3401
829.412	3378
829.551	3370
829.69	3351
829.829	3435
829.968	3538
830.107	3435
830.246	3450
830.385	3378
830.524	3367
830.663	3317
830.802	3291
830.941	3173
831.08	3226
831.219	3306
831.357	3264
831.496	3416
831.635	3218
831.774	3184
831.913	3226
832.051	3142
832.19	3146
832.329	3195
832.467	3146
832.606	3104
832.744	3192
832.883	3192
833.022	3226
833.16	3275
833.299	3321
833.437	3332
833.576	3359
833.714	3447
833.852	3439
833.991	3477
834.129	3466
834.267	3462
834.406	3405
834.544	3447
834.682	3386
834.821	3378
834.959	3587
835.097	3416
835.235	3534
835.373	3488
835.511	3462
835.65	3428
835.788	3454
835.926	3393
836.064	3374
836.202	3412
836.34	3553
836.478	3576
836.615	3564
836.753	3584
836.891	3633
837.029	3595
837.167	3610
837.305	3580
837.443	3561
837.58	3488
837.718	3576
837.856	3557
837.993	3572
838.131	3660
838.269	3553
838.406	3576
838.544	3561
838.681	3481
838.819	3454
838.956	3363
839.094	3389
839.231	3473
839.369	3511
839.506	3766
839.643	3622
839.781	3481
839.918	3481
840.055	3515
840.193	3519
840.33	3553
840.467	3572
840.604	3663
840.742	3778
840.879	3557
841.016	3606
841.153	3538
841.29	3713
841.427	3755
841.564	3740
841.701	3751
841.838	3690
841.975	3667
842.112	3720
842.249	3644
842.385	3648
842.522	3816
842.659	3732
842.796	3690
842.933	3743
843.069	3671
843.206	3732
843.343	3816
843.479	3793
843.616	3846
843.752	3686
843.889	3701
844.025	3865
844.162	3762
844.298	3846
844.435	3800
844.571	3785
844.708	3884
844.844	3998
844.98	4002
845.117	3987
845.253	3930
845.389	3857
845.525	3960
845.661	3945
845.798	3876
845.934	3979
846.07	3983
846.206	4048
846.342	4135
846.478	4067
846.614	3972
846.75	3873
846.886	3911
847.022	4048
847.158	4013
847.294	4006
847.429	3998
847.565	4006
847.701	4238
847.837	3873
847.972	3838
848.108	4006
848.244	3941
848.379	3876
848.515	3789
848.65	3850
848.786	3838
848.921	3873
849.057	3945
849.192	4002
849.328	3934
849.463	3911
849.598	3922
849.734	3873
849.869	3827
850.004	3785
850.14	3823
850.275	3762
850.41	3770
850.545	3766
850.68	3770
850.815	3793
850.95	3770
851.085	3945
851.22	3880
851.355	3793
851.49	3793
851.625	3770
851.76	3793
851.895	3713
852.03	3713
852.165	3800
852.299	3876
852.434	3926
852.569	3838
852.703	3865
852.838	3934
852.973	4029
853.107	3972
853.242	3930
853.376	3861
853.511	3755
853.645	3835
853.78	3991
853.914	3941
854.048	3911
854.183	3922
854.317	3945
854.451	4154
854.585	3975
854.72	3941
854.854	4032
854.988	3960
855.122	3998
855.256	3934
855.39	4044
855.524	4097
855.658	4090
855.792	4093
855.926	4112
856.06	4204
856.194	4200
856.327	4139
856.461	4112
856.595	4097
856.729	4204
856.862	4265
856.996	4238
857.13	4344
857.263	4356
857.397	4348
857.53	4306
857.664	4383
857.797	4436
857.931	4459
858.064	4405
858.197	4516
858.331	4398
858.464	4413
858.597	4329
858.731	4478
858.864	4481
858.997	4497
859.13	4512
859.263	4550
859.396	4538
859.529	4519
859.662	4535
859.795	4527
859.928	4580
860.061	4748
860.194	4744
860.327	4653
860.46	4694
860.592	4721
860.725	4733
860.858	4816
860.99	4672
861.123	4679
861.256	4698
861.388	4801
861.521	5512
861.653	4645
861.786	4675
861.918	4763
862.05	4805
862.183	4835
862.315	4858
862.447	4896
862.58	4873
862.712	4793
862.844	4774
862.976	4896
863.108	4885
863.24	5197
863.372	4805
863.504	4885
863.636	4915
863.768	5010
863.9	4938
864.032	4908
864.164	4961
864.296	5056
864.428	5071
864.559	5132
864.691	5128
864.823	5128
864.954	5136
865.086	5140
865.217	5155
865.349	5162
865.48	5170
865.612	5162
865.743	5337
865.875	5212
866.006	5193
866.137	5197
866.269	5227
866.4	5258
866.531	5277
866.662	5269
866.793	5284
866.924	5296
867.055	5303
867.186	5334
867.317	5322
867.448	5273
867.579	5406
867.71	5368
867.841	5402
867.972	5463
868.103	5474
868.233	5535
868.364	5524
868.495	5516
868.625	5600
868.756	5821
868.886	5668
869.017	5775
869.147	5897
869.278	5847
869.408	5805
869.539	5844
869.669	5927
869.799	5878
869.929	5992
870.06	6003
870.19	6209
870.32	6175
870.45	6220
870.58	6388
870.71	6407
870.84	6467
870.97	6445
871.1	6452
871.23	6665
871.36	6673
871.489	6635
871.619	6779
871.749	6798
871.879	6840
872.008	7053
872.138	7000
872.267	7012
872.397	7038
872.526	7069
872.656	7095
872.785	7255
872.915	7384
873.044	7487
873.173	7601
873.303	7689
873.432	7708
873.561	7871
873.69	7925
873.819	7997
873.948	8172
874.077	8279
874.206	8343
874.335	8419
874.464	8651
874.593	8910
874.722	8925
874.851	9055
874.979	9253
875.108	9416
875.237	9504
875.365	9458
875.494	9675
875.623	9850
875.751	9926
875.88	10040
876.008	10173
876.136	10265
876.265	10512
876.393	10717
876.521	10668
876.65	10759
876.778	10923
876.906	10896
877.034	11003
877.162	11067
877.29	11113
877.418	11265
877.546	11402
877.674	11463
877.802	11436
877.93	11516
878.058	11558
878.185	11604
878.313	11589
878.441	11752
878.568	11699
878.696	11874
878.824	11828
878.951	11999
879.079	11973
879.206	12129
879.333	12087
879.461	11980
879.588	12159
879.715	12148
879.842	12270
879.97	12079
880.097	11805
880.224	11866
880.351	11927
880.478	11897
880.605	11840
880.732	11889
880.859	12091
880.986	11866
881.112	11901
881.239	11699
881.366	11710
881.493	11638
881.619	11585
881.746	11615
881.872	11562
881.999	11505
882.125	11509
882.252	11589
882.378	11463
882.505	11672
882.631	11330
882.757	11227
882.883	11429
883.01	11288
883.136	11166
883.262	11075
883.388	11128
883.514	11227
883.64	11124
883.766	11136
883.892	10995
884.018	11003
884.143	11029
884.269	11052
884.395	10854
884.52	10797
884.646	10843
884.772	10717
884.897	10577
885.023	10740
885.148	10717
885.274	10847
885.399	10596
885.524	10710
885.65	10592
885.775	10615
885.9	10481
886.025	10641
886.15	10558
886.275	10493
886.4	10341
886.525	10310
886.65	10356
886.775	10356
886.9	10527
887.025	10493
887.149	10382
887.274	10257
887.399	10207
887.523	10238
887.648	10162
887.773	10139
887.897	10196
888.021	10253
888.146	10147
888.27	10272
888.395	10249
888.519	10219
888.643	10246
888.767	10143
888.891	10078
889.015	10017
889.139	10048
889.263	9964
889.387	10101
889.511	10143
889.635	10025
889.759	10025
889.883	9998
890.006	10025
890.13	10188
890.254	9998
890.377	9934
890.501	9838
890.624	9812
890.748	9838
890.871	9838
890.995	9766
891.118	9713
891.241	9762
891.364	9785
891.488	9812
891.611	9808
891.734	9648
891.857	9797
891.98	9743
892.103	9857
892.226	9762
892.349	9660
892.471	9496
892.594	9580
892.717	9633
892.839	9648
892.962	9576
893.085	9679
893.207	9580
893.33	9618
893.452	9439
893.575	9549
893.697	9515
893.819	9629
893.941	9618
894.064	9622
894.186	9443
894.308	9469
894.43	9492
894.552	9633
894.674	9504
894.796	9344
894.918	9416
895.04	9279
895.161	9431
895.283	9431
895.405	9336
895.526	9275
895.648	9306
895.769	9275
895.891	9256
896.012	9283
896.134	9218
896.255	9161
896.376	9058
896.498	9146
896.619	9188
896.74	9138
896.861	9157
896.982	9256
897.103	9268
897.224	9150
897.345	9058
897.466	8990
897.587	9013
897.708	9020
897.828	9039
897.949	8910
898.07	8921
898.19	8948
898.311	8956
898.431	8948
898.552	8895
898.672	8994
898.792	8986
898.913	8998
899.033	8845
899.153	8766
899.273	8720
899.393	8762
899.513	8754
899.633	8705
899.753	8731
899.873	8678
899.993	8746
900.113	8735
900.232	8712
900.352	8655
900.472	8659
900.591	8549
900.711	8663
900.83	8511
900.95	8644
901.069	8716
901.189	8541
901.308	8442
901.427	8408
901.546	8495
901.665	8503
901.784	8503
901.904	8377
902.023	8324
902.141	8218
902.26	8229
902.379	8279
902.498	8240
902.617	8248
902.735	8256
902.854	8282
902.973	8358
903.091	8225
903.21	8210
903.328	8157
903.446	8081
903.565	8073
903.683	8084
903.801	8031
903.919	8081
904.038	8134
904.156	8081
904.274	8115
904.392	8058
904.51	8027
904.627	8035
904.745	8088
904.863	8096
904.981	7883
905.098	7879
905.216	7875
905.334	7932
905.451	7944
905.569	7974
905.686	7967
905.803	7909
905.921	7860
906.038	7837
906.155	7780
906.272	7769
906.389	7719
906.506	7670
906.623	7632
906.74	7666
906.857	7544
906.974	7571
907.091	7681
907.208	7750
907.324	7712
907.441	7518
907.557	7476
907.674	7434
907.79	7392
907.907	7373
908.023	7453
908.139	7400
908.256	7396
908.372	7373
908.488	7392
908.604	7213
908.72	7228
908.836	7255
908.952	7240
909.068	7244
909.184	7301
909.3	7282
909.415	7358
909.531	7274
909.647	7099
909.762	7129
909.878	7080
909.993	7141
910.108	7069
910.224	7053
910.339	7129
910.454	7084
910.57	6989
910.685	6996
910.8	7168
910.915	7133
911.03	7046
911.145	6947
911.259	6924
911.374	6863
911.489	6806
911.604	6818
911.718	6688
911.833	6764
911.947	6658
912.062	6601
912.176	6719
912.291	6741
912.405	6707
912.519	6856
912.633	6825
912.748	6760
912.862	6700
912.976	6658
913.09	6563
913.204	6574
913.318	6570
913.431	6631
913.545	6700
913.659	6730
913.772	6658
913.886	6597
914	6528
914.113	6642
914.226	6642
914.34	6658
914.453	6536
914.566	6642
914.68	6509
914.793	6528
914.906	6395
915.019	6407
915.132	6365
915.245	6372
915.358	6399
915.47	6502
915.583	6502
915.696	6475
915.809	6547
915.921	6574
916.034	6426
916.146	6391
916.259	6410
916.371	6494
916.483	6460
916.595	6395
916.708	6410
916.82	6353
916.932	6399
917.044	6403
917.156	6357
917.268	6361
917.38	6342
917.491	6369
917.603	6369
917.715	6395
917.826	6475
917.938	6361
918.049	6251
918.161	6311
918.272	6433
918.384	6464
918.495	6346
918.606	6292
918.717	6270
918.828	6262
918.939	6220
919.05	6209
919.161	6273
919.272	6140
919.383	6148
919.494	6338
919.604	6418
919.715	6311
919.826	6205
919.936	6209
920.047	6327
920.157	6289
920.267	6445
920.378	6334
920.488	6289
920.598	6441
920.708	6593
920.818	6483
920.928	6464
921.038	6578
921.148	6570
921.258	6346
921.368	6327
921.477	6224
921.587	6186
921.697	6038
921.806	6178
921.916	6102
922.025	6007
922.134	5935
922.244	5923
922.353	5988
922.462	5855
922.571	5745
922.68	5703
922.789	5657
922.898	5707
923.007	5676
923.116	5707
923.224	5668
923.333	5722
923.442	5615
923.55	5566
923.659	5585
923.767	5680
923.876	5570
923.984	5634
924.092	5543
924.201	5543
924.309	5577
924.417	5528
924.525	5509
924.633	5501
924.741	6270
924.849	5395
924.956	5436
925.064	5360
925.172	5349
925.279	5330
925.387	5341
925.494	5341
925.602	5455
925.709	5402
925.816	5235
925.924	5303
926.031	5368
926.138	5273
926.245	5349
926.352	5250
926.459	5273
926.566	5318
926.673	5235
926.779	5132
926.886	5143
926.993	5029
927.099	4980
927.206	5006
927.312	4991
927.419	5014
927.525	4946
927.631	4961
927.737	4919
927.843	4877
927.95	4763
928.056	4843
928.162	4843
928.267	4831
928.373	5402
928.479	4854
928.585	4698
928.69	4771
928.796	4755
928.901	4691
929.007	4573
929.112	4717
929.218	4634
929.323	4630
929.428	4580
929.533	4634
929.638	4523
929.743	4535
929.848	4531
929.953	4535
930.058	4447
930.163	4322
930.267	4371
930.372	4451
930.477	4329
930.581	4485
930.685	4367
930.79	4284
930.894	4329
930.998	4242
931.103	4337
931.207	4131
931.311	4101
931.415	4074
931.519	3968
931.623	3918
