Data from glass_V78500241_2237.txt Node
Date: Wed Sep 01 19:30:00 CST 2021
User: usil
Spectrometer: V785-0024
Trigger mode: 0
Integration Time (sec): 4.000000E-1
Scans to average: 1
Nonlinearity correction enabled: false
Boxcar width: 0
Storing dark spectrum: false
XAxis mode: Wavelengths
Number of Pixels in Spectrum: 1024
>>>>>Begin Spectral Data<<<<<
801.071	3732
801.214	3724
801.356	3720
801.499	3732
801.641	3747
801.783	3762
801.926	3857
802.068	3812
802.211	3884
802.353	3850
802.496	3762
802.638	3838
802.78	3907
802.923	3896
803.065	3861
803.208	3869
803.35	3827
803.492	3911
803.635	3888
803.777	3827
803.919	3850
804.061	4093
804.204	3972
804.346	3956
804.488	3899
804.63	4025
804.773	3934
804.915	3975
805.057	4166
805.199	4021
805.341	4143
805.483	4143
805.626	4131
805.768	4147
805.91	4188
806.052	4230
806.194	4185
806.336	4371
806.478	4234
806.62	4192
806.762	4200
806.904	4246
807.046	4322
807.188	4223
807.33	4158
807.472	4280
807.614	4177
807.756	4280
807.898	4177
808.04	4246
808.182	4287
808.324	4272
808.465	4363
808.607	4497
808.749	4466
808.891	4436
809.033	4493
809.174	4405
809.316	4257
809.458	4219
809.6	4150
809.741	4162
809.883	4086
810.025	4192
810.166	4207
810.308	4188
810.45	4246
810.591	4219
810.733	4268
810.875	4497
811.016	4809
811.158	5086
811.299	5201
811.441	5239
811.582	5071
811.724	4691
811.865	4455
812.007	4455
812.148	4424
812.29	4363
812.431	4371
812.573	4424
812.714	4405
812.855	4409
812.997	4394
813.138	4440
813.279	4409
813.421	4383
813.562	4375
813.703	4318
813.845	4341
813.986	4257
814.127	4207
814.268	4261
814.41	4276
814.551	4257
814.692	4360
814.833	4246
814.974	4325
815.115	4291
815.256	4204
815.397	4234
815.539	4268
815.68	4177
815.821	4215
815.962	4291
816.103	4257
816.244	4249
816.385	4215
816.526	4284
816.666	4223
816.807	4105
816.948	4207
817.089	4147
817.23	4143
817.371	4074
817.512	3983
817.653	4082
817.793	4048
817.934	4029
818.075	4090
818.216	4090
818.356	4093
818.497	3956
818.638	3922
818.778	3888
818.919	3888
819.06	3842
819.2	3937
819.341	3850
819.481	3869
819.622	3876
819.762	4040
819.903	3953
820.043	3850
820.184	3831
820.324	3816
820.465	3854
820.605	3876
820.746	3880
820.886	3800
821.026	3926
821.167	3926
821.307	3956
821.447	3945
821.588	3956
821.728	3918
821.868	3903
822.008	3876
822.149	3907
822.289	3884
822.429	3781
822.569	3804
822.709	3793
822.849	3686
822.99	3717
823.13	3751
823.27	3766
823.41	3698
823.55	3709
823.69	3732
823.83	3675
823.97	3625
824.11	3595
824.25	3591
824.389	3622
824.529	3663
824.669	3610
824.809	3671
824.949	3766
825.089	3709
825.228	3663
825.368	3591
825.508	3530
825.648	3564
825.787	3576
825.927	3584
826.067	3568
826.206	3701
826.346	3743
826.485	3816
826.625	3842
826.765	3934
826.904	3762
827.044	3625
827.183	3545
827.323	3458
827.462	3462
827.601	3431
827.741	3412
827.88	3447
828.02	3351
828.159	3450
828.298	3481
828.437	3526
828.577	3469
828.716	3610
828.855	3492
828.994	3370
829.134	3359
829.273	3397
829.412	3332
829.551	3363
829.69	3382
829.829	3416
829.968	3511
830.107	3477
830.246	3431
830.385	3386
830.524	3409
830.663	3302
830.802	3268
830.941	3169
831.08	3188
831.219	3237
831.357	3283
831.496	3416
831.635	3184
831.774	3165
831.913	3226
832.051	3135
832.19	3154
832.329	3245
832.467	3108
832.606	3093
832.744	3211
832.883	3165
833.022	3195
833.16	3245
833.299	3260
833.437	3310
833.576	3348
833.714	3397
833.852	3454
833.991	3409
834.129	3485
834.267	3458
834.406	3389
834.544	3393
834.682	3374
834.821	3412
834.959	3545
835.097	3409
835.235	3526
835.373	3458
835.511	3481
835.65	3378
835.788	3473
835.926	3389
836.064	3340
836.202	3405
836.34	3561
836.478	3606
836.615	3545
836.753	3576
836.891	3667
837.029	3584
837.167	3564
837.305	3542
837.443	3519
837.58	3515
837.718	3591
837.856	3564
837.993	3526
838.131	3614
838.269	3485
838.406	3595
838.544	3580
838.681	3466
838.819	3439
838.956	3321
839.094	3424
839.231	3466
839.369	3488
839.506	3740
839.643	3591
839.781	3500
839.918	3435
840.055	3526
840.193	3534
840.33	3545
840.467	3542
840.604	3595
840.742	3816
840.879	3591
841.016	3542
841.153	3557
841.29	3740
841.427	3701
841.564	3709
841.701	3728
841.838	3675
841.975	3660
842.112	3701
842.249	3629
842.385	3606
842.522	3835
842.659	3671
842.796	3675
842.933	3690
843.069	3705
843.206	3675
843.343	3835
843.479	3778
843.616	3808
843.752	3637
843.889	3679
844.025	3857
844.162	3755
844.298	3823
844.435	3781
844.571	3770
844.708	3884
844.844	3987
844.98	4029
845.117	3987
845.253	3899
845.389	3873
845.525	3956
845.661	3949
845.798	3937
845.934	4021
846.07	3960
846.206	4067
846.342	4139
846.478	4025
846.614	3949
846.75	3926
846.886	3903
847.022	4025
847.158	3937
847.294	3964
847.429	3998
847.565	3994
847.701	4246
847.837	3876
847.972	3846
848.108	3983
848.244	3953
848.379	3880
848.515	3857
848.65	3808
848.786	3793
848.921	3838
849.057	3922
849.192	3899
849.328	3903
849.463	3975
849.598	3838
849.734	3873
849.869	3819
850.004	3789
850.14	3774
850.275	3827
850.41	3709
850.545	3762
850.68	3770
850.815	3755
850.95	3793
851.085	3888
851.22	3880
851.355	3838
851.49	3774
851.625	3774
851.76	3781
851.895	3785
852.03	3698
852.165	3793
852.299	3842
852.434	3869
852.569	3808
852.703	3857
852.838	3949
852.973	4010
853.107	4013
853.242	3812
853.376	3835
853.511	3743
853.645	3823
853.78	4002
853.914	3884
854.048	3915
854.183	3854
854.317	3930
854.451	4082
854.585	3903
854.72	3941
854.854	4036
854.988	3915
855.122	3987
855.256	3857
855.39	3972
855.524	4147
855.658	4109
855.792	4063
855.926	4147
856.06	4143
856.194	4188
856.327	4162
856.461	4082
856.595	4116
856.729	4109
856.862	4280
856.996	4234
857.13	4341
857.263	4337
857.397	4360
857.53	4280
857.664	4405
857.797	4367
857.931	4417
858.064	4386
858.197	4432
858.331	4371
858.464	4394
858.597	4360
858.731	4409
858.864	4424
858.997	4462
859.13	4462
859.263	4558
859.396	4573
859.529	4516
859.662	4497
859.795	4516
859.928	4588
860.061	4656
860.194	4710
860.327	4691
860.46	4599
860.592	4694
860.725	4752
860.858	4752
860.99	4706
861.123	4691
861.256	4683
861.388	4778
861.521	5436
861.653	4744
861.786	4698
861.918	4748
862.05	4759
862.183	4805
862.315	4953
862.447	4934
862.58	4862
862.712	4812
862.844	4733
862.976	4858
863.108	4839
863.24	5204
863.372	4839
863.504	4896
863.636	4877
863.768	4968
863.9	4968
864.032	4915
864.164	4984
864.296	4957
864.428	5071
864.559	5048
864.691	5136
864.823	5151
864.954	5075
865.086	5113
865.217	5113
865.349	5124
865.48	5178
865.612	5208
865.743	5303
865.875	5223
866.006	5166
866.137	5178
866.269	5227
866.4	5261
866.531	5231
866.662	5185
866.793	5258
866.924	5269
867.055	5353
867.186	5292
867.317	5318
867.448	5315
867.579	5307
867.71	5372
867.841	5341
867.972	5452
868.103	5516
868.233	5429
868.364	5535
868.495	5528
868.625	5630
868.756	5828
868.886	5627
869.017	5733
869.147	5794
869.278	5882
869.408	5756
869.539	5813
869.669	5927
869.799	5958
869.929	5939
870.06	6011
870.19	6152
870.32	6232
870.45	6239
870.58	6281
870.71	6479
870.84	6467
870.97	6369
871.1	6399
871.23	6627
871.36	6738
871.489	6700
871.619	6741
871.749	6787
871.879	6852
872.008	6954
872.138	7004
872.267	6989
872.397	7015
872.526	7012
872.656	7122
872.785	7221
872.915	7392
873.044	7525
873.173	7529
873.303	7670
873.432	7708
873.561	7925
873.69	7932
873.819	8005
873.948	8134
874.077	8259
874.206	8259
874.335	8366
874.464	8648
874.593	8800
874.722	8880
874.851	9055
874.979	9184
875.108	9302
875.237	9450
875.365	9428
875.494	9644
875.623	9892
875.751	9857
875.88	10010
876.008	10101
876.136	10348
876.265	10489
876.393	10675
876.521	10653
876.65	10816
876.778	10881
876.906	10847
877.034	10991
877.162	11094
877.29	11159
877.418	11250
877.546	11356
877.674	11436
877.802	11414
877.93	11467
878.058	11642
878.185	11630
878.313	11699
878.441	11752
878.568	11710
878.696	11893
878.824	11809
878.951	11977
879.079	11977
879.206	12197
879.333	11984
879.461	12034
879.588	11996
879.715	12087
879.842	12235
879.97	11977
880.097	11859
880.224	11863
880.351	11950
880.478	11935
880.605	11916
880.732	11771
880.859	12041
880.986	11722
881.112	11794
881.239	11718
881.366	11657
881.493	11608
881.619	11520
881.746	11573
881.872	11497
881.999	11463
882.125	11493
882.252	11490
882.378	11490
882.505	11429
882.631	11410
882.757	11444
882.883	11334
883.01	11246
883.136	11223
883.262	10976
883.388	11052
883.514	11208
883.64	11147
883.766	11105
883.892	11006
884.018	10991
884.143	11067
884.269	11075
884.395	10774
884.52	10740
884.646	10782
884.772	10683
884.897	10656
885.023	10687
885.148	10664
885.274	10759
885.399	10668
885.524	10653
885.65	10615
885.775	10645
885.9	10592
886.025	10596
886.15	10561
886.275	10440
886.4	10451
886.525	10341
886.65	10481
886.775	10398
886.9	10367
887.025	10493
887.149	10413
887.274	10215
887.399	10185
887.523	10173
887.648	10112
887.773	10181
887.897	10265
888.021	10181
888.146	10112
888.27	10207
888.395	10192
888.519	10169
888.643	10162
888.767	10181
888.891	10101
889.015	10021
889.139	10040
889.263	9945
889.387	10036
889.511	10124
889.635	10063
889.759	9956
889.883	9934
890.006	10040
890.13	10101
890.254	9930
890.377	10010
890.501	9838
890.624	9842
890.748	9892
890.871	9800
890.995	9686
891.118	9816
891.241	9781
891.364	9732
891.488	9759
891.611	9701
891.734	9671
891.857	9793
891.98	9770
892.103	9751
892.226	9705
892.349	9663
892.471	9496
892.594	9561
892.717	9652
892.839	9580
892.962	9515
893.085	9591
893.207	9610
893.33	9553
893.452	9538
893.575	9526
893.697	9500
893.819	9633
893.941	9606
894.064	9534
894.186	9481
894.308	9389
894.43	9641
894.552	9572
894.674	9481
894.796	9389
894.918	9359
895.04	9287
895.161	9378
895.283	9401
895.405	9272
895.526	9260
895.648	9199
895.769	9165
895.891	9294
896.012	9325
896.134	9192
896.255	9157
896.376	9024
896.498	9138
896.619	9169
896.74	9058
896.861	9051
896.982	9203
897.103	9272
897.224	9135
897.345	9047
897.466	8998
897.587	8971
897.708	9013
897.828	9024
897.949	8933
898.07	8849
898.19	8975
898.311	8990
898.431	8891
898.552	8979
898.672	8910
898.792	8925
898.913	8883
899.033	8811
899.153	8686
899.273	8708
899.393	8686
899.513	8705
899.633	8674
899.753	8743
899.873	8674
899.993	8708
900.113	8712
900.232	8720
900.352	8670
900.472	8659
900.591	8537
900.711	8610
900.83	8583
900.95	8594
901.069	8629
901.189	8545
901.308	8370
901.427	8423
901.546	8484
901.665	8400
901.784	8442
901.904	8317
902.023	8267
902.141	8233
902.26	8199
902.379	8313
902.498	8221
902.617	8164
902.735	8267
902.854	8309
902.973	8339
903.091	8164
903.21	8088
903.328	8081
903.446	8096
903.565	8088
903.683	8096
903.801	8035
903.919	8100
904.038	8111
904.156	8020
904.274	8001
904.392	8088
904.51	8020
904.627	8024
904.745	8187
904.863	8020
904.981	7997
905.098	7852
905.216	7818
905.334	7928
905.451	7871
905.569	7864
905.686	7875
905.803	7906
905.921	7780
906.038	7856
906.155	7757
906.272	7689
906.389	7651
906.506	7696
906.623	7624
906.74	7578
906.857	7563
906.974	7537
907.091	7677
907.208	7704
907.324	7658
907.441	7670
907.557	7438
907.674	7419
907.79	7362
907.907	7388
908.023	7445
908.139	7396
908.256	7362
908.372	7365
908.488	7327
908.604	7274
908.72	7175
908.836	7278
908.952	7232
909.068	7316
909.184	7339
909.3	7194
909.415	7289
909.531	7293
909.647	7107
909.762	7129
909.878	7110
909.993	7099
910.108	7129
910.224	7027
910.339	7145
910.454	7065
910.57	6985
910.685	6928
910.8	7149
910.915	7145
911.03	7042
911.145	6924
911.259	6875
911.374	6848
911.489	6863
911.604	6749
911.718	6673
911.833	6654
911.947	6719
912.062	6570
912.176	6722
912.291	6688
912.405	6734
912.519	6825
912.633	6795
912.748	6757
912.862	6662
912.976	6601
913.09	6513
913.204	6574
913.318	6612
913.431	6662
913.545	6700
913.659	6703
913.772	6639
913.886	6585
914	6517
914.113	6593
914.226	6574
914.34	6582
914.453	6536
914.566	6593
914.68	6509
914.793	6513
914.906	6418
915.019	6414
915.132	6357
915.245	6475
915.358	6407
915.47	6452
915.583	6433
915.696	6502
915.809	6502
915.921	6532
916.034	6418
916.146	6399
916.259	6391
916.371	6452
916.483	6483
916.595	6338
916.708	6464
916.82	6353
916.932	6380
917.044	6350
917.156	6410
917.268	6311
917.38	6300
917.491	6304
917.603	6388
917.715	6388
917.826	6460
917.938	6304
918.049	6213
918.161	6296
918.272	6498
918.384	6429
918.495	6308
918.606	6213
918.717	6251
918.828	6281
918.939	6289
919.05	6304
919.161	6232
919.272	6060
919.383	6175
919.494	6205
919.604	6422
919.715	6277
919.826	6216
919.936	6243
920.047	6338
920.157	6254
920.267	6422
920.378	6304
920.488	6254
920.598	6422
920.708	6540
920.818	6464
920.928	6464
921.038	6616
921.148	6620
921.258	6289
921.368	6277
921.477	6235
921.587	6159
921.697	6087
921.806	6148
921.916	6068
922.025	5908
922.134	5870
922.244	5844
922.353	5939
922.462	5866
922.571	5767
922.68	5733
922.789	5668
922.898	5665
923.007	5638
923.116	5714
923.224	5668
923.333	5615
923.442	5558
923.55	5592
923.659	5623
923.767	5642
923.876	5509
923.984	5585
924.092	5501
924.201	5532
924.309	5482
924.417	5539
924.525	5501
924.633	5493
924.741	6277
924.849	5410
924.956	5463
925.064	5364
925.172	5303
925.279	5299
925.387	5292
925.494	5258
925.602	5395
925.709	5402
925.816	5269
925.924	5311
926.031	5349
926.138	5277
926.245	5357
926.352	5204
926.459	5258
926.566	5322
926.673	5227
926.779	5132
926.886	5102
926.993	5060
927.099	5033
927.206	4976
927.312	4987
927.419	5029
927.525	4953
927.631	4995
927.737	4885
927.843	4828
927.95	4801
928.056	4793
928.162	4847
928.267	4892
928.373	5288
928.479	4801
928.585	4698
928.69	4759
928.796	4812
928.901	4679
929.007	4580
929.112	4637
929.218	4599
929.323	4592
929.428	4584
929.533	4672
929.638	4542
929.743	4546
929.848	4565
929.953	4493
930.058	4497
930.163	4295
930.267	4341
930.372	4402
930.477	4303
930.581	4481
930.685	4341
930.79	4230
930.894	4306
930.998	4257
931.103	4367
931.207	4078
931.311	4097
931.415	4025
931.519	3930
931.623	3926
