Data from glass_V78500241_2570.txt Node
Date: Wed Sep 01 19:32:18 CST 2021
User: usil
Spectrometer: V785-0024
Trigger mode: 0
Integration Time (sec): 4.000000E-1
Scans to average: 1
Nonlinearity correction enabled: false
Boxcar width: 0
Storing dark spectrum: false
XAxis mode: Wavelengths
Number of Pixels in Spectrum: 1024
>>>>>Begin Spectral Data<<<<<
801.071	3690
801.214	3709
801.356	3694
801.499	3762
801.641	3724
801.783	3793
801.926	3850
802.068	3838
802.211	3819
802.353	3873
802.496	3793
802.638	3876
802.78	3907
802.923	3892
803.065	3892
803.208	3835
803.35	3865
803.492	3903
803.635	3899
803.777	3781
803.919	3884
804.061	4071
804.204	3956
804.346	3945
804.488	3918
804.63	4013
804.773	3964
804.915	4002
805.057	4109
805.199	4082
805.341	4078
805.483	4188
805.626	4112
805.768	4128
805.91	4261
806.052	4234
806.194	4150
806.336	4322
806.478	4215
806.62	4169
806.762	4185
806.904	4253
807.046	4314
807.188	4200
807.33	4158
807.472	4234
807.614	4223
807.756	4253
807.898	4181
808.04	4177
808.182	4287
808.324	4306
808.465	4360
808.607	4481
808.749	4413
808.891	4455
809.033	4459
809.174	4394
809.316	4230
809.458	4242
809.6	4093
809.741	4109
809.883	4135
810.025	4200
810.166	4207
810.308	4238
810.45	4246
810.591	4227
810.733	4257
810.875	4554
811.016	4782
811.158	5159
811.299	5265
811.441	5269
811.582	5029
811.724	4717
811.865	4474
812.007	4455
812.148	4417
812.29	4405
812.431	4447
812.573	4409
812.714	4386
812.855	4394
812.997	4390
813.138	4500
813.279	4386
813.421	4363
813.562	4386
813.703	4306
813.845	4276
813.986	4227
814.127	4188
814.268	4246
814.41	4242
814.551	4234
814.692	4318
814.833	4253
814.974	4325
815.115	4356
815.256	4204
815.397	4242
815.539	4257
815.68	4173
815.821	4196
815.962	4310
816.103	4280
816.244	4253
816.385	4219
816.526	4291
816.666	4211
816.807	4109
816.948	4154
817.089	4158
817.23	4093
817.371	4063
817.512	4017
817.653	4048
817.793	4025
817.934	4021
818.075	4124
818.216	4071
818.356	4063
818.497	3972
818.638	3888
818.778	3922
818.919	3869
819.06	3838
819.2	3926
819.341	3823
819.481	3865
819.622	3922
819.762	4029
819.903	3949
820.043	3812
820.184	3827
820.324	3816
820.465	3854
820.605	3827
820.746	3842
820.886	3770
821.026	3907
821.167	3884
821.307	3956
821.447	3945
821.588	3918
821.728	3934
821.868	3934
822.008	3857
822.149	3915
822.289	3880
822.429	3819
822.569	3785
822.709	3770
822.849	3667
822.99	3724
823.13	3766
823.27	3751
823.41	3690
823.55	3751
823.69	3717
823.83	3755
823.97	3656
824.11	3584
824.25	3614
824.389	3644
824.529	3637
824.669	3652
824.809	3679
824.949	3785
825.089	3732
825.228	3682
825.368	3542
825.508	3584
825.648	3595
825.787	3523
825.927	3633
826.067	3622
826.206	3660
826.346	3770
826.485	3827
826.625	3861
826.765	3960
826.904	3823
827.044	3580
827.183	3500
827.323	3435
827.462	3447
827.601	3386
827.741	3420
827.88	3450
828.02	3317
828.159	3443
828.298	3454
828.437	3526
828.577	3405
828.716	3618
828.855	3511
828.994	3409
829.134	3351
829.273	3393
829.412	3348
829.551	3313
829.69	3348
829.829	3374
829.968	3511
830.107	3401
830.246	3431
830.385	3386
830.524	3329
830.663	3294
830.802	3233
830.941	3180
831.08	3188
831.219	3264
831.357	3237
831.496	3401
831.635	3230
831.774	3214
831.913	3169
832.051	3131
832.19	3157
832.329	3211
832.467	3123
832.606	3157
832.744	3169
832.883	3180
833.022	3180
833.16	3256
833.299	3344
833.437	3340
833.576	3340
833.714	3367
833.852	3416
833.991	3393
834.129	3450
834.267	3424
834.406	3409
834.544	3401
834.682	3420
834.821	3397
834.959	3545
835.097	3389
835.235	3515
835.373	3492
835.511	3526
835.65	3462
835.788	3431
835.926	3393
836.064	3386
836.202	3420
836.34	3549
836.478	3610
836.615	3549
836.753	3580
836.891	3663
837.029	3614
837.167	3549
837.305	3580
837.443	3496
837.58	3469
837.718	3656
837.856	3545
837.993	3534
838.131	3564
838.269	3549
838.406	3572
838.544	3564
838.681	3477
838.819	3416
838.956	3367
839.094	3389
839.231	3443
839.369	3519
839.506	3736
839.643	3625
839.781	3466
839.918	3416
840.055	3545
840.193	3526
840.33	3557
840.467	3545
840.604	3580
840.742	3812
840.879	3561
841.016	3584
841.153	3591
841.29	3717
841.427	3698
841.564	3724
841.701	3740
841.838	3682
841.975	3667
842.112	3698
842.249	3625
842.385	3599
842.522	3800
842.659	3675
842.796	3667
842.933	3705
843.069	3698
843.206	3679
843.343	3797
843.479	3778
843.616	3781
843.752	3679
843.889	3690
844.025	3861
844.162	3732
844.298	3827
844.435	3781
844.571	3724
844.708	3899
844.844	3968
844.98	3983
845.117	3968
845.253	3941
845.389	3884
845.525	3911
845.661	3945
845.798	3915
845.934	3968
846.07	3915
846.206	4010
846.342	4120
846.478	4006
846.614	3934
846.75	3926
846.886	3907
847.022	4017
847.158	3975
847.294	3960
847.429	4006
847.565	4002
847.701	4219
847.837	3918
847.972	3876
848.108	3960
848.244	3907
848.379	3880
848.515	3797
848.65	3831
848.786	3861
848.921	3842
849.057	3918
849.192	3945
849.328	3907
849.463	3922
849.598	3899
849.734	3880
849.869	3816
850.004	3724
850.14	3816
850.275	3770
850.41	3732
850.545	3728
850.68	3778
850.815	3785
850.95	3759
851.085	3896
851.22	3892
851.355	3812
851.49	3778
851.625	3713
851.76	3785
851.895	3728
852.03	3713
852.165	3762
852.299	3861
852.434	3842
852.569	3873
852.703	3857
852.838	3918
852.973	3972
853.107	4010
853.242	3876
853.376	3835
853.511	3732
853.645	3835
853.78	3945
853.914	3903
854.048	3884
854.183	3873
854.317	3983
854.451	4051
854.585	3945
854.72	3926
854.854	4040
854.988	3922
855.122	4032
855.256	3884
855.39	4036
855.524	4067
855.658	4101
855.792	4135
855.926	4124
856.06	4154
856.194	4246
856.327	4131
856.461	4135
856.595	4124
856.729	4169
856.862	4253
856.996	4223
857.13	4284
857.263	4348
857.397	4352
857.53	4337
857.664	4352
857.797	4451
857.931	4405
858.064	4432
858.197	4474
858.331	4383
858.464	4409
858.597	4322
858.731	4398
858.864	4440
858.997	4523
859.13	4485
859.263	4538
859.396	4584
859.529	4455
859.662	4481
859.795	4508
859.928	4538
860.061	4687
860.194	4733
860.327	4622
860.46	4634
860.592	4740
860.725	4763
860.858	4733
860.99	4637
861.123	4694
861.256	4668
861.388	4782
861.521	5368
861.653	4752
861.786	4694
861.918	4675
862.05	4820
862.183	4870
862.315	4900
862.447	4896
862.58	4862
862.712	4778
862.844	4816
862.976	4904
863.108	4858
863.24	5086
863.372	4843
863.504	4870
863.636	4828
863.768	4976
863.9	4938
864.032	4896
864.164	4908
864.296	5060
864.428	5086
864.559	5098
864.691	5083
864.823	5075
864.954	5121
865.086	5075
865.217	5132
865.349	5056
865.48	5147
865.612	5159
865.743	5334
865.875	5220
866.006	5178
866.137	5239
866.269	5197
866.4	5227
866.531	5250
866.662	5197
866.793	5280
866.924	5231
867.055	5315
867.186	5326
867.317	5330
867.448	5315
867.579	5387
867.71	5376
867.841	5364
867.972	5482
868.103	5482
868.233	5467
868.364	5501
868.495	5524
868.625	5691
868.756	5779
868.886	5703
869.017	5756
869.147	5882
869.278	5882
869.408	5779
869.539	5840
869.669	5817
869.799	5885
869.929	5923
870.06	5988
870.19	6205
870.32	6247
870.45	6216
870.58	6296
870.71	6426
870.84	6479
870.97	6403
871.1	6429
871.23	6608
871.36	6658
871.489	6601
871.619	6715
871.749	6821
871.879	6890
872.008	6954
872.138	6977
872.267	7015
872.397	6973
872.526	6996
872.656	7110
872.785	7202
872.915	7396
873.044	7499
873.173	7499
873.303	7605
873.432	7788
873.561	7807
873.69	7928
873.819	8039
873.948	8096
874.077	8183
874.206	8301
874.335	8431
874.464	8651
874.593	8853
874.722	8937
874.851	9070
874.979	9222
875.108	9279
875.237	9389
875.365	9561
875.494	9625
875.623	9774
875.751	9918
875.88	10025
876.008	10139
876.136	10223
876.265	10485
876.393	10698
876.521	10645
876.65	10786
876.778	10854
876.906	10927
877.034	10862
877.162	11071
877.29	11201
877.418	11330
877.546	11273
877.674	11493
877.802	11414
877.93	11577
878.058	11509
878.185	11638
878.313	11630
878.441	11707
878.568	11566
878.696	11840
878.824	11851
878.951	11927
879.079	12019
879.206	12030
879.333	12106
879.461	11916
879.588	12045
879.715	12053
879.842	12209
879.97	12106
880.097	11870
880.224	11836
880.351	11863
880.478	11878
880.605	11878
880.732	11836
880.859	11961
880.986	11824
881.112	11897
881.239	11741
881.366	11665
881.493	11642
881.619	11642
881.746	11573
881.872	11539
881.999	11554
882.125	11471
882.252	11543
882.378	11455
882.505	11532
882.631	11395
882.757	11277
882.883	11356
883.01	11292
883.136	11261
883.262	11098
883.388	11022
883.514	11197
883.64	11117
883.766	11086
883.892	10961
884.018	10949
884.143	11064
884.269	11086
884.395	10889
884.52	10725
884.646	10816
884.772	10615
884.897	10611
885.023	10679
885.148	10683
885.274	10740
885.399	10660
885.524	10630
885.65	10538
885.775	10569
885.9	10527
886.025	10645
886.15	10592
886.275	10443
886.4	10421
886.525	10428
886.65	10287
886.775	10352
886.9	10474
887.025	10497
887.149	10325
887.274	10246
887.399	10257
887.523	10215
887.648	10162
887.773	10055
887.897	10329
888.021	10242
888.146	10063
888.27	10249
888.395	10249
888.519	10215
888.643	10188
888.767	10207
888.891	10078
889.015	9968
889.139	10101
889.263	9968
889.387	10082
889.511	10074
889.635	10120
889.759	9964
889.883	9998
890.006	9987
890.13	10090
890.254	9865
890.377	9934
890.501	9835
890.624	9838
890.748	9895
890.871	9740
890.995	9785
891.118	9705
891.241	9740
891.364	9663
891.488	9785
891.611	9762
891.734	9751
891.857	9728
891.98	9648
892.103	9755
892.226	9736
892.349	9705
892.471	9576
892.594	9614
892.717	9644
892.839	9492
892.962	9568
893.085	9660
893.207	9633
893.33	9496
893.452	9515
893.575	9568
893.697	9477
893.819	9584
893.941	9568
894.064	9576
894.186	9469
894.308	9408
894.43	9469
894.552	9549
894.674	9469
894.796	9447
894.918	9401
895.04	9325
895.161	9348
895.283	9275
895.405	9237
895.526	9253
895.648	9249
895.769	9260
895.891	9302
896.012	9302
896.134	9207
896.255	9176
896.376	9123
896.498	9211
896.619	9062
896.74	9097
896.861	9093
896.982	9302
897.103	9363
897.224	9142
897.345	9058
897.466	8918
897.587	9005
897.708	8990
897.828	9001
897.949	8895
898.07	8872
898.19	8899
898.311	8990
898.431	8883
898.552	8883
898.672	8921
898.792	8899
898.913	8838
899.033	8861
899.153	8735
899.273	8545
899.393	8689
899.513	8758
899.633	8735
899.753	8663
899.873	8678
899.993	8674
900.113	8708
900.232	8670
900.352	8636
900.472	8617
900.591	8590
900.711	8552
900.83	8533
900.95	8670
901.069	8705
901.189	8549
901.308	8423
901.427	8454
901.546	8438
901.665	8465
901.784	8511
901.904	8385
902.023	8309
902.141	8210
902.26	8267
902.379	8237
902.498	8229
902.617	8206
902.735	8256
902.854	8229
902.973	8317
903.091	8123
903.21	8153
903.328	8191
903.446	8142
903.565	8016
903.683	8153
903.801	8043
903.919	8054
904.038	8115
904.156	8058
904.274	8092
904.392	8016
904.51	8020
904.627	8046
904.745	8073
904.863	8043
904.981	7864
905.098	7818
905.216	7925
905.334	7894
905.451	7879
905.569	7822
905.686	7902
905.803	7864
905.921	7769
906.038	7925
906.155	7788
906.272	7655
906.389	7757
906.506	7662
906.623	7674
906.74	7639
906.857	7472
906.974	7609
907.091	7605
907.208	7696
907.324	7628
907.441	7544
907.557	7415
907.674	7388
907.79	7384
907.907	7400
908.023	7449
908.139	7441
908.256	7305
908.372	7358
908.488	7293
908.604	7274
908.72	7232
908.836	7236
908.952	7198
909.068	7282
909.184	7343
909.3	7190
909.415	7289
909.531	7285
909.647	7057
909.762	7133
909.878	7118
909.993	7084
910.108	7084
910.224	7095
910.339	7088
910.454	7008
910.57	6958
910.685	6947
910.8	7133
910.915	7126
911.03	7004
911.145	6905
911.259	6825
911.374	6852
911.489	6802
911.604	6768
911.718	6764
911.833	6726
911.947	6642
912.062	6601
912.176	6688
912.291	6688
912.405	6650
912.519	6810
912.633	6810
912.748	6692
912.862	6692
912.976	6555
913.09	6528
913.204	6563
913.318	6563
913.431	6616
913.545	6612
913.659	6642
913.772	6604
913.886	6570
914	6593
914.113	6563
914.226	6631
914.34	6555
914.453	6479
914.566	6631
914.68	6506
914.793	6452
914.906	6410
915.019	6403
915.132	6361
915.245	6380
915.358	6448
915.47	6407
915.583	6479
915.696	6448
915.809	6513
915.921	6521
916.034	6380
916.146	6399
916.259	6395
916.371	6494
916.483	6380
916.595	6399
916.708	6376
916.82	6414
916.932	6296
917.044	6380
917.156	6388
917.268	6315
917.38	6311
917.491	6292
917.603	6323
917.715	6384
917.826	6418
917.938	6289
918.049	6296
918.161	6319
918.272	6467
918.384	6342
918.495	6346
918.606	6296
918.717	6209
918.828	6270
918.939	6251
919.05	6209
919.161	6209
919.272	6114
919.383	6144
919.494	6308
919.604	6418
919.715	6270
919.826	6197
919.936	6258
920.047	6323
920.157	6216
920.267	6483
920.378	6342
920.488	6277
920.598	6445
920.708	6517
920.818	6433
920.928	6448
921.038	6608
921.148	6536
921.258	6323
921.368	6270
921.477	6148
921.587	6167
921.697	6095
921.806	6121
921.916	6106
922.025	5927
922.134	5889
922.244	5889
922.353	5954
922.462	5836
922.571	5805
922.68	5703
922.789	5642
922.898	5718
923.007	5638
923.116	5729
923.224	5634
923.333	5604
923.442	5592
923.55	5589
923.659	5608
923.767	5589
923.876	5570
923.984	5551
924.092	5505
924.201	5570
924.309	5505
924.417	5539
924.525	5433
924.633	5501
924.741	6273
924.849	5368
924.956	5455
925.064	5395
925.172	5284
925.279	5242
925.387	5364
925.494	5292
925.602	5376
925.709	5364
925.816	5296
925.924	5299
926.031	5330
926.138	5265
926.245	5280
926.352	5197
926.459	5315
926.566	5326
926.673	5189
926.779	5170
926.886	5128
926.993	5060
927.099	4961
927.206	4968
927.312	4961
927.419	5045
927.525	4930
927.631	4976
927.737	4850
927.843	4866
927.95	4748
928.056	4782
928.162	4793
928.267	4812
928.373	5258
928.479	4866
928.585	4596
928.69	4736
928.796	4744
928.901	4725
929.007	4630
929.112	4626
929.218	4660
929.323	4584
929.428	4569
929.533	4645
929.638	4504
929.743	4546
929.848	4550
929.953	4478
930.058	4413
930.163	4344
930.267	4325
930.372	4440
930.477	4257
930.581	4421
930.685	4360
930.79	4242
930.894	4295
930.998	4257
931.103	4398
931.207	4135
931.311	4021
931.415	4025
931.519	3892
931.623	3937
