Data from glass_V78500241_1525.txt Node
Date: Wed Sep 01 19:25:04 CST 2021
User: usil
Spectrometer: V785-0024
Trigger mode: 0
Integration Time (sec): 4.000000E-1
Scans to average: 1
Nonlinearity correction enabled: false
Boxcar width: 0
Storing dark spectrum: false
XAxis mode: Wavelengths
Number of Pixels in Spectrum: 1024
>>>>>Begin Spectral Data<<<<<
801.071	3770
801.214	3736
801.356	3686
801.499	3766
801.641	3717
801.783	3781
801.926	3903
802.068	3789
802.211	3857
802.353	3880
802.496	3850
802.638	3892
802.78	3918
802.923	3903
803.065	3842
803.208	3854
803.35	3857
803.492	3880
803.635	3953
803.777	3785
803.919	3907
804.061	4147
804.204	3975
804.346	3918
804.488	3896
804.63	4002
804.773	3945
804.915	4010
805.057	4109
805.199	3998
805.341	4116
805.483	4135
805.626	4120
805.768	4143
805.91	4223
806.052	4280
806.194	4188
806.336	4341
806.478	4238
806.62	4188
806.762	4185
806.904	4242
807.046	4280
807.188	4207
807.33	4169
807.472	4181
807.614	4219
807.756	4272
807.898	4227
808.04	4223
808.182	4261
808.324	4325
808.465	4383
808.607	4443
808.749	4459
808.891	4474
809.033	4447
809.174	4436
809.316	4238
809.458	4284
809.6	4139
809.741	4124
809.883	4147
810.025	4215
810.166	4219
810.308	4234
810.45	4253
810.591	4246
810.733	4284
810.875	4546
811.016	4793
811.158	5109
811.299	5250
811.441	5330
811.582	5060
811.724	4729
811.865	4481
812.007	4462
812.148	4462
812.29	4440
812.431	4379
812.573	4417
812.714	4375
812.855	4424
812.997	4466
813.138	4459
813.279	4440
813.421	4360
813.562	4363
813.703	4333
813.845	4348
813.986	4261
814.127	4211
814.268	4295
814.41	4314
814.551	4238
814.692	4291
814.833	4284
814.974	4310
815.115	4348
815.256	4246
815.397	4238
815.539	4280
815.68	4188
815.821	4249
815.962	4306
816.103	4287
816.244	4192
816.385	4257
816.526	4234
816.666	4265
816.807	4135
816.948	4158
817.089	4188
817.23	4124
817.371	4082
817.512	4059
817.653	4078
817.793	4040
817.934	4013
818.075	4120
818.216	4078
818.356	4093
818.497	4025
818.638	3899
818.778	3930
818.919	3922
819.06	3842
819.2	3953
819.341	3865
819.481	3835
819.622	3899
819.762	3998
819.903	3956
820.043	3892
820.184	3869
820.324	3816
820.465	3880
820.605	3857
820.746	3857
820.886	3808
821.026	3918
821.167	3926
821.307	3972
821.447	4025
821.588	3934
821.728	3941
821.868	3918
822.008	3861
822.149	3892
822.289	3880
822.429	3797
822.569	3770
822.709	3800
822.849	3682
822.99	3701
823.13	3778
823.27	3823
823.41	3720
823.55	3736
823.69	3724
823.83	3755
823.97	3679
824.11	3591
824.25	3561
824.389	3637
824.529	3656
824.669	3667
824.809	3690
824.949	3740
825.089	3732
825.228	3736
825.368	3584
825.508	3538
825.648	3618
825.787	3625
825.927	3656
826.067	3648
826.206	3637
826.346	3785
826.485	3823
826.625	3846
826.765	3945
826.904	3778
827.044	3610
827.183	3561
827.323	3431
827.462	3534
827.601	3477
827.741	3443
827.88	3416
828.02	3382
828.159	3397
828.298	3469
828.437	3557
828.577	3481
828.716	3637
828.855	3500
828.994	3401
829.134	3363
829.273	3363
829.412	3378
829.551	3359
829.69	3462
829.829	3450
829.968	3477
830.107	3409
830.246	3454
830.385	3351
830.524	3336
830.663	3313
830.802	3241
830.941	3214
831.08	3199
831.219	3272
831.357	3260
831.496	3359
831.635	3256
831.774	3195
831.913	3211
832.051	3104
832.19	3142
832.329	3154
832.467	3119
832.606	3089
832.744	3150
832.883	3176
833.022	3180
833.16	3237
833.299	3302
833.437	3310
833.576	3367
833.714	3416
833.852	3435
833.991	3397
834.129	3507
834.267	3435
834.406	3409
834.544	3412
834.682	3393
834.821	3412
834.959	3587
835.097	3439
835.235	3515
835.373	3492
835.511	3431
835.65	3450
835.788	3492
835.926	3412
836.064	3389
836.202	3405
836.34	3587
836.478	3564
836.615	3568
836.753	3587
836.891	3629
837.029	3622
837.167	3572
837.305	3549
837.443	3519
837.58	3515
837.718	3606
837.856	3603
837.993	3568
838.131	3587
838.269	3564
838.406	3568
838.544	3580
838.681	3469
838.819	3469
838.956	3348
839.094	3393
839.231	3443
839.369	3511
839.506	3743
839.643	3625
839.781	3466
839.918	3481
840.055	3523
840.193	3576
840.33	3534
840.467	3557
840.604	3584
840.742	3827
840.879	3568
841.016	3549
841.153	3595
841.29	3740
841.427	3701
841.564	3709
841.701	3728
841.838	3713
841.975	3679
842.112	3701
842.249	3618
842.385	3629
842.522	3842
842.659	3675
842.796	3663
842.933	3694
843.069	3713
843.206	3743
843.343	3804
843.479	3785
843.616	3846
843.752	3671
843.889	3705
844.025	3899
844.162	3724
844.298	3854
844.435	3781
844.571	3789
844.708	3899
844.844	3994
844.98	4025
845.117	3987
845.253	3903
845.389	3896
845.525	3987
845.661	3960
845.798	3926
845.934	4002
846.07	3949
846.206	3994
846.342	4078
846.478	4059
846.614	3960
846.75	3930
846.886	3880
847.022	4036
847.158	3983
847.294	3987
847.429	4021
847.565	4055
847.701	4284
847.837	3888
847.972	3880
848.108	4017
848.244	3987
848.379	3880
848.515	3793
848.65	3781
848.786	3808
848.921	3896
849.057	3945
849.192	3991
849.328	3953
849.463	3937
849.598	3869
849.734	3884
849.869	3838
850.004	3736
850.14	3804
850.275	3778
850.41	3762
850.545	3728
850.68	3774
850.815	3793
850.95	3797
851.085	3937
851.22	3876
851.355	3800
851.49	3778
851.625	3804
851.76	3766
851.895	3755
852.03	3740
852.165	3827
852.299	3846
852.434	3922
852.569	3869
852.703	3888
852.838	3937
852.973	3994
853.107	3983
853.242	3869
853.376	3876
853.511	3759
853.645	3835
853.78	4006
853.914	3880
854.048	3861
854.183	3907
854.317	3953
854.451	4086
854.585	3949
854.72	3937
854.854	4040
854.988	3899
855.122	4025
855.256	3949
855.39	4048
855.524	4124
855.658	4112
855.792	4143
855.926	4124
856.06	4173
856.194	4185
856.327	4150
856.461	4105
856.595	4139
856.729	4181
856.862	4276
856.996	4246
857.13	4363
857.263	4295
857.397	4360
857.53	4265
857.664	4325
857.797	4417
857.931	4421
858.064	4394
858.197	4455
858.331	4356
858.464	4363
858.597	4367
858.731	4390
858.864	4462
858.997	4413
859.13	4512
859.263	4542
859.396	4584
859.529	4508
859.662	4508
859.795	4504
859.928	4630
860.061	4721
860.194	4744
860.327	4622
860.46	4626
860.592	4763
860.725	4755
860.858	4767
860.99	4717
861.123	4710
861.256	4698
861.388	4755
861.521	5566
861.653	4759
861.786	4710
861.918	4752
862.05	4831
862.183	4812
862.315	4915
862.447	4976
862.58	4915
862.712	4786
862.844	4774
862.976	4927
863.108	4908
863.24	5246
863.372	4812
863.504	4873
863.636	4942
863.768	4965
863.9	4938
864.032	4889
864.164	4927
864.296	4987
864.428	5064
864.559	5128
864.691	5132
864.823	5094
864.954	5075
865.086	5098
865.217	5105
865.349	5094
865.48	5151
865.612	5155
865.743	5307
865.875	5174
866.006	5155
866.137	5254
866.269	5254
866.4	5227
866.531	5261
866.662	5242
866.793	5292
866.924	5231
867.055	5345
867.186	5315
867.317	5391
867.448	5326
867.579	5360
867.71	5368
867.841	5360
867.972	5463
868.103	5490
868.233	5501
868.364	5543
868.495	5585
868.625	5672
868.756	5794
868.886	5672
869.017	5741
869.147	5840
869.278	5836
869.408	5817
869.539	5878
869.669	5901
869.799	5878
869.929	6019
870.06	6019
870.19	6163
870.32	6159
870.45	6262
870.58	6315
870.71	6452
870.84	6490
870.97	6437
871.1	6445
871.23	6677
871.36	6677
871.489	6639
871.619	6764
871.749	6829
871.879	6806
872.008	7046
872.138	6973
872.267	7015
872.397	6951
872.526	7027
872.656	7084
872.785	7232
872.915	7369
873.044	7502
873.173	7556
873.303	7632
873.432	7715
873.561	7837
873.69	7887
873.819	8069
873.948	8149
874.077	8267
874.206	8279
874.335	8446
874.464	8705
874.593	8891
874.722	8921
874.851	9108
874.979	9203
875.108	9272
875.237	9511
875.365	9458
875.494	9584
875.623	9793
875.751	9797
875.88	10082
876.008	10120
876.136	10265
876.265	10474
876.393	10702
876.521	10717
876.65	10790
876.778	10881
876.906	10946
877.034	11094
877.162	11128
877.29	11147
877.418	11231
877.546	11402
877.674	11452
877.802	11425
877.93	11497
878.058	11596
878.185	11570
878.313	11608
878.441	11703
878.568	11668
878.696	11851
878.824	11939
878.951	11923
879.079	12041
879.206	12152
879.333	12117
879.461	11912
879.588	12072
879.715	12079
879.842	12254
879.97	12034
880.097	11901
880.224	11923
880.351	11885
880.478	11866
880.605	11843
880.732	11737
880.859	11912
880.986	11840
881.112	11821
881.239	11703
881.366	11634
881.493	11649
881.619	11558
881.746	11608
881.872	11482
881.999	11486
882.125	11318
882.252	11566
882.378	11490
882.505	11604
882.631	11372
882.757	11212
882.883	11315
883.01	11311
883.136	11178
883.262	11105
883.388	11102
883.514	11178
883.64	11121
883.766	11143
883.892	11033
884.018	10957
884.143	11033
884.269	11067
884.395	10820
884.52	10733
884.646	10744
884.772	10733
884.897	10645
885.023	10653
885.148	10714
885.274	10706
885.399	10679
885.524	10653
885.65	10618
885.775	10611
885.9	10538
886.025	10588
886.15	10516
886.275	10531
886.4	10398
886.525	10432
886.65	10318
886.775	10367
886.9	10421
887.025	10500
887.149	10367
887.274	10268
887.399	10154
887.523	10139
887.648	10181
887.773	10109
887.897	10227
888.021	10223
888.146	10105
888.27	10185
888.395	10207
888.519	10131
888.643	10196
888.767	10207
888.891	10078
889.015	10074
889.139	10044
889.263	10029
889.387	10116
889.511	10166
889.635	10032
889.759	10029
889.883	9949
890.006	9956
890.13	10059
890.254	9987
890.377	9903
890.501	9838
890.624	9861
890.748	9892
890.871	9759
890.995	9728
891.118	9720
891.241	9740
891.364	9743
891.488	9819
891.611	9671
891.734	9682
891.857	9728
891.98	9717
892.103	9797
892.226	9740
892.349	9675
892.471	9511
892.594	9599
892.717	9625
892.839	9606
892.962	9576
893.085	9690
893.207	9549
893.33	9534
893.452	9568
893.575	9564
893.697	9511
893.819	9644
893.941	9766
894.064	9557
894.186	9397
894.308	9344
894.43	9507
894.552	9515
894.674	9545
894.796	9348
894.918	9355
895.04	9393
895.161	9428
895.283	9397
895.405	9256
895.526	9355
895.648	9272
895.769	9233
895.891	9306
896.012	9321
896.134	9184
896.255	9256
896.376	9077
896.498	9108
896.619	9188
896.74	9108
896.861	9157
896.982	9279
897.103	9272
897.224	9165
897.345	9077
897.466	9013
897.587	9036
897.708	9043
897.828	9001
897.949	8948
898.07	8948
898.19	8933
898.311	8979
898.431	8902
898.552	8895
898.672	8960
898.792	8902
898.913	8921
899.033	8777
899.153	8777
899.273	8682
899.393	8727
899.513	8781
899.633	8750
899.753	8724
899.873	8640
899.993	8731
900.113	8674
900.232	8678
900.352	8663
900.472	8636
900.591	8583
900.711	8644
900.83	8518
900.95	8625
901.069	8705
901.189	8632
901.308	8415
901.427	8404
901.546	8473
901.665	8526
901.784	8533
901.904	8366
902.023	8290
902.141	8252
902.26	8221
902.379	8259
902.498	8263
902.617	8244
902.735	8282
902.854	8271
902.973	8252
903.091	8172
903.21	8176
903.328	8199
903.446	8107
903.565	8119
903.683	8073
903.801	8035
903.919	8134
904.038	8130
904.156	8016
904.274	8020
904.392	8065
904.51	7986
904.627	8119
904.745	8081
904.863	8039
904.981	7940
905.098	7852
905.216	7852
905.334	7932
905.451	7902
905.569	7906
905.686	7890
905.803	7917
905.921	7772
906.038	7849
906.155	7788
906.272	7658
906.389	7769
906.506	7632
906.623	7624
906.74	7533
906.857	7552
906.974	7658
907.091	7677
907.208	7742
907.324	7632
907.441	7597
907.557	7407
907.674	7476
907.79	7343
907.907	7400
908.023	7460
908.139	7510
908.256	7369
908.372	7335
908.488	7354
908.604	7278
908.72	7251
908.836	7301
908.952	7244
909.068	7316
909.184	7327
909.3	7308
909.415	7301
909.531	7324
909.647	7129
909.762	7194
909.878	7095
909.993	7118
910.108	7129
910.224	7034
910.339	7103
910.454	7004
910.57	6966
910.685	6943
910.8	7137
910.915	7171
911.03	7050
911.145	6966
911.259	6871
911.374	6878
911.489	6810
911.604	6760
911.718	6772
911.833	6738
911.947	6703
912.062	6635
912.176	6700
912.291	6696
912.405	6646
912.519	6840
912.633	6791
912.748	6722
912.862	6741
912.976	6570
913.09	6536
913.204	6608
913.318	6627
913.431	6631
913.545	6662
913.659	6764
913.772	6673
913.886	6593
914	6593
914.113	6669
914.226	6612
914.34	6597
914.453	6464
914.566	6642
914.68	6532
914.793	6536
914.906	6464
915.019	6418
915.132	6353
915.245	6426
915.358	6422
915.47	6452
915.583	6536
915.696	6498
915.809	6582
915.921	6608
916.034	6426
916.146	6418
916.259	6388
916.371	6517
916.483	6410
916.595	6384
916.708	6429
916.82	6422
916.932	6353
917.044	6338
917.156	6426
917.268	6315
917.38	6292
917.491	6331
917.603	6262
917.715	6308
917.826	6448
917.938	6365
918.049	6262
918.161	6338
918.272	6410
918.384	6437
918.495	6395
918.606	6281
918.717	6228
918.828	6300
918.939	6281
919.05	6182
919.161	6251
919.272	6159
919.383	6148
919.494	6334
919.604	6422
919.715	6319
919.826	6300
919.936	6220
920.047	6315
920.157	6331
920.267	6483
920.378	6308
920.488	6273
920.598	6475
920.708	6532
920.818	6464
920.928	6456
921.038	6612
921.148	6582
921.258	6353
921.368	6353
921.477	6209
921.587	6205
921.697	6015
921.806	6155
921.916	6106
922.025	5942
922.134	5912
922.244	5855
922.353	5973
922.462	5874
922.571	5802
922.68	5688
922.789	5619
922.898	5748
923.007	5661
923.116	5657
923.224	5649
923.333	5707
923.442	5592
923.55	5581
923.659	5638
923.767	5623
923.876	5501
923.984	5592
924.092	5505
924.201	5589
924.309	5512
924.417	5524
924.525	5539
924.633	5520
924.741	6125
924.849	5345
924.956	5471
925.064	5360
925.172	5296
925.279	5292
925.387	5391
925.494	5269
925.602	5417
925.709	5417
925.816	5330
925.924	5303
926.031	5391
926.138	5307
926.245	5322
926.352	5216
926.459	5368
926.566	5284
926.673	5216
926.779	5151
926.886	5105
926.993	5075
927.099	5014
927.206	4965
927.312	4946
927.419	5056
927.525	5018
927.631	4949
927.737	4889
927.843	4904
927.95	4816
928.056	4847
928.162	4820
928.267	4877
928.373	5216
928.479	4858
928.585	4710
928.69	4782
928.796	4790
928.901	4752
929.007	4580
929.112	4664
929.218	4637
929.323	4626
929.428	4558
929.533	4641
929.638	4455
929.743	4527
929.848	4607
929.953	4478
930.058	4459
930.163	4287
930.267	4356
930.372	4398
930.477	4284
930.581	4459
930.685	4352
930.79	4265
930.894	4268
930.998	4257
931.103	4405
931.207	4097
931.311	4055
931.415	4021
931.519	3911
931.623	3934
