Data from glass_V78500241_1170.txt Node
Date: Wed Sep 01 19:22:36 CST 2021
User: usil
Spectrometer: V785-0024
Trigger mode: 0
Integration Time (sec): 4.000000E-1
Scans to average: 1
Nonlinearity correction enabled: false
Boxcar width: 0
Storing dark spectrum: false
XAxis mode: Wavelengths
Number of Pixels in Spectrum: 1024
>>>>>Begin Spectral Data<<<<<
801.071	3778
801.214	3751
801.356	3740
801.499	3713
801.641	3713
801.783	3766
801.926	3842
802.068	3823
802.211	3865
802.353	3926
802.496	3850
802.638	3918
802.78	3896
802.923	3907
803.065	3899
803.208	3892
803.35	3873
803.492	3892
803.635	3930
803.777	3831
803.919	3915
804.061	4185
804.204	3953
804.346	3983
804.488	3918
804.63	4082
804.773	3972
804.915	4055
805.057	4139
805.199	4067
805.341	4082
805.483	4181
805.626	4082
805.768	4090
805.91	4246
806.052	4272
806.194	4158
806.336	4409
806.478	4242
806.62	4131
806.762	4158
806.904	4227
807.046	4325
807.188	4246
807.33	4188
807.472	4177
807.614	4181
807.756	4329
807.898	4227
808.04	4204
808.182	4299
808.324	4352
808.465	4371
808.607	4485
808.749	4516
808.891	4485
809.033	4489
809.174	4394
809.316	4272
809.458	4242
809.6	4177
809.741	4166
809.883	4124
810.025	4238
810.166	4162
810.308	4234
810.45	4318
810.591	4196
810.733	4306
810.875	4508
811.016	4889
811.158	5178
811.299	5239
811.441	5299
811.582	5113
811.724	4733
811.865	4516
812.007	4462
812.148	4447
812.29	4402
812.431	4447
812.573	4417
812.714	4363
812.855	4424
812.997	4459
813.138	4440
813.279	4402
813.421	4394
813.562	4383
813.703	4348
813.845	4352
813.986	4242
814.127	4211
814.268	4265
814.41	4352
814.551	4242
814.692	4303
814.833	4242
814.974	4306
815.115	4352
815.256	4246
815.397	4242
815.539	4295
815.68	4196
815.821	4219
815.962	4280
816.103	4284
816.244	4246
816.385	4253
816.526	4310
816.666	4223
816.807	4109
816.948	4169
817.089	4185
817.23	4116
817.371	4063
817.512	4040
817.653	4059
817.793	4025
817.934	4071
818.075	4067
818.216	4086
818.356	4116
818.497	4010
818.638	3907
818.778	3934
818.919	3915
819.06	3865
819.2	3953
819.341	3842
819.481	3861
819.622	3896
819.762	4036
819.903	3987
820.043	3899
820.184	3823
820.324	3781
820.465	3880
820.605	3876
820.746	3903
820.886	3850
821.026	3937
821.167	3949
821.307	4002
821.447	4036
821.588	4013
821.728	3945
821.868	3922
822.008	3876
822.149	3918
822.289	3896
822.429	3781
822.569	3778
822.709	3800
822.849	3694
822.99	3747
823.13	3793
823.27	3838
823.41	3713
823.55	3755
823.69	3690
823.83	3759
823.97	3709
824.11	3572
824.25	3595
824.389	3648
824.529	3644
824.669	3709
824.809	3682
824.949	3759
825.089	3717
825.228	3724
825.368	3629
825.508	3587
825.648	3568
825.787	3606
825.927	3675
826.067	3656
826.206	3652
826.346	3785
826.485	3854
826.625	3869
826.765	3930
826.904	3812
827.044	3660
827.183	3557
827.323	3466
827.462	3488
827.601	3485
827.741	3431
827.88	3481
828.02	3386
828.159	3454
828.298	3462
828.437	3542
828.577	3450
828.716	3572
828.855	3530
828.994	3420
829.134	3397
829.273	3374
829.412	3348
829.551	3344
829.69	3313
829.829	3397
829.968	3504
830.107	3443
830.246	3443
830.385	3378
830.524	3405
830.663	3264
830.802	3241
830.941	3222
831.08	3249
831.219	3222
831.357	3291
831.496	3389
831.635	3233
831.774	3207
831.913	3180
832.051	3154
832.19	3157
832.329	3195
832.467	3157
832.606	3085
832.744	3199
832.883	3184
833.022	3222
833.16	3237
833.299	3302
833.437	3355
833.576	3397
833.714	3409
833.852	3447
833.991	3454
834.129	3466
834.267	3454
834.406	3393
834.544	3428
834.682	3428
834.821	3401
834.959	3553
835.097	3401
835.235	3530
835.373	3511
835.511	3504
835.65	3511
835.788	3473
835.926	3397
836.064	3409
836.202	3412
836.34	3599
836.478	3572
836.615	3534
836.753	3603
836.891	3690
837.029	3584
837.167	3633
837.305	3568
837.443	3511
837.58	3454
837.718	3591
837.856	3553
837.993	3534
838.131	3584
838.269	3595
838.406	3595
838.544	3545
838.681	3462
838.819	3477
838.956	3355
839.094	3329
839.231	3435
839.369	3511
839.506	3736
839.643	3622
839.781	3515
839.918	3504
840.055	3584
840.193	3519
840.33	3557
840.467	3542
840.604	3606
840.742	3793
840.879	3557
841.016	3564
841.153	3584
841.29	3732
841.427	3747
841.564	3743
841.701	3732
841.838	3713
841.975	3713
842.112	3728
842.249	3701
842.385	3625
842.522	3842
842.659	3698
842.796	3675
842.933	3740
843.069	3751
843.206	3728
843.343	3816
843.479	3800
843.616	3835
843.752	3679
843.889	3724
844.025	3911
844.162	3755
844.298	3857
844.435	3778
844.571	3789
844.708	3930
844.844	3998
844.98	4010
845.117	3987
845.253	3930
845.389	3861
845.525	3991
845.661	3987
845.798	3937
845.934	3998
846.07	3987
846.206	4093
846.342	4139
846.478	4063
846.614	3960
846.75	3956
846.886	3930
847.022	4032
847.158	3979
847.294	4017
847.429	4017
847.565	4032
847.701	4211
847.837	3850
847.972	3896
848.108	3987
848.244	3926
848.379	3888
848.515	3808
848.65	3812
848.786	3861
848.921	3869
849.057	3926
849.192	3953
849.328	3899
849.463	3918
849.598	3884
849.734	3907
849.869	3842
850.004	3766
850.14	3846
850.275	3789
850.41	3732
850.545	3736
850.68	3778
850.815	3789
850.95	3778
851.085	3937
851.22	3873
851.355	3816
851.49	3781
851.625	3823
851.76	3850
851.895	3709
852.03	3778
852.165	3838
852.299	3835
852.434	3907
852.569	3838
852.703	3884
852.838	3888
852.973	3979
853.107	4025
853.242	3880
853.376	3816
853.511	3766
853.645	3838
853.78	3953
853.914	3892
854.048	3888
854.183	3896
854.317	3956
854.451	4128
854.585	3956
854.72	3934
854.854	4055
854.988	3960
855.122	4013
855.256	3911
855.39	4029
855.524	4101
855.658	4086
855.792	4090
855.926	4135
856.06	4185
856.194	4207
856.327	4131
856.461	4150
856.595	4196
856.729	4166
856.862	4318
856.996	4249
857.13	4299
857.263	4348
857.397	4352
857.53	4318
857.664	4386
857.797	4402
857.931	4440
858.064	4352
858.197	4466
858.331	4428
858.464	4405
858.597	4329
858.731	4462
858.864	4440
858.997	4504
859.13	4535
859.263	4592
859.396	4588
859.529	4531
859.662	4519
859.795	4493
859.928	4626
860.061	4675
860.194	4729
860.327	4702
860.46	4668
860.592	4744
860.725	4801
860.858	4774
860.99	4656
861.123	4645
861.256	4736
861.388	4771
861.521	5387
861.653	4748
861.786	4702
861.918	4752
862.05	4778
862.183	4870
862.315	4900
862.447	4930
862.58	4930
862.712	4824
862.844	4759
862.976	4892
863.108	4904
863.24	5132
863.372	4831
863.504	4911
863.636	4885
863.768	4991
863.9	4972
864.032	4946
864.164	4949
864.296	5018
864.428	5128
864.559	5117
864.691	5136
864.823	5162
864.954	5170
865.086	5121
865.217	5060
865.349	5109
865.48	5151
865.612	5201
865.743	5326
865.875	5147
866.006	5223
866.137	5220
866.269	5193
866.4	5212
866.531	5223
866.662	5197
866.793	5322
866.924	5318
867.055	5341
867.186	5315
867.317	5364
867.448	5360
867.579	5387
867.71	5406
867.841	5406
867.972	5425
868.103	5463
868.233	5497
868.364	5524
868.495	5539
868.625	5634
868.756	5809
868.886	5627
869.017	5767
869.147	5874
869.278	5821
869.408	5832
869.539	5901
869.669	5889
869.799	5939
869.929	6026
870.06	6019
870.19	6243
870.32	6186
870.45	6327
870.58	6319
870.71	6494
870.84	6426
870.97	6441
871.1	6483
871.23	6601
871.36	6677
871.489	6623
871.619	6764
871.749	6795
871.879	6909
872.008	6958
872.138	6985
872.267	7069
872.397	7008
872.526	7065
872.656	7114
872.785	7194
872.915	7354
873.044	7521
873.173	7594
873.303	7666
873.432	7734
873.561	7883
873.69	7947
873.819	7982
873.948	8214
874.077	8252
874.206	8336
874.335	8457
874.464	8625
874.593	8800
874.722	8929
874.851	9112
874.979	9214
875.108	9283
875.237	9485
875.365	9545
875.494	9644
875.623	9835
875.751	9876
875.88	10006
876.008	10169
876.136	10356
876.265	10504
876.393	10793
876.521	10752
876.65	10721
876.778	10820
876.906	10987
877.034	11006
877.162	11029
877.29	11105
877.418	11280
877.546	11364
877.674	11387
877.802	11455
877.93	11608
878.058	11634
878.185	11524
878.313	11657
878.441	11752
878.568	11684
878.696	11832
878.824	12015
878.951	11980
879.079	12060
879.206	12136
879.333	12064
879.461	11954
879.588	12155
879.715	12068
879.842	12194
879.97	12038
880.097	11847
880.224	11828
880.351	11927
880.478	11859
880.605	11912
880.732	11874
880.859	11996
880.986	11805
881.112	11863
881.239	11653
881.366	11699
881.493	11634
881.619	11524
881.746	11615
881.872	11535
881.999	11535
882.125	11509
882.252	11615
882.378	11524
882.505	11448
882.631	11440
882.757	11307
882.883	11292
883.01	11227
883.136	11223
883.262	11170
883.388	11113
883.514	11216
883.64	11162
883.766	11151
883.892	11014
884.018	10961
884.143	11086
884.269	11086
884.395	10820
884.52	10797
884.646	10820
884.772	10679
884.897	10653
885.023	10672
885.148	10755
885.274	10835
885.399	10702
885.524	10630
885.65	10550
885.775	10603
885.9	10565
886.025	10596
886.15	10497
886.275	10523
886.4	10352
886.525	10424
886.65	10394
886.775	10402
886.9	10451
887.025	10569
887.149	10394
887.274	10131
887.399	10261
887.523	10147
887.648	10169
887.773	10131
887.897	10287
888.021	10219
888.146	10097
888.27	10242
888.395	10162
888.519	10253
888.643	10284
888.767	10185
888.891	10086
889.015	10044
889.139	10017
889.263	9945
889.387	10147
889.511	10048
889.635	10040
889.759	9895
889.883	9987
890.006	9983
890.13	10131
890.254	9945
890.377	9937
890.501	9838
890.624	9911
890.748	9960
890.871	9797
890.995	9766
891.118	9808
891.241	9781
891.364	9720
891.488	9774
891.611	9698
891.734	9686
891.857	9747
891.98	9717
892.103	9785
892.226	9713
892.349	9663
892.471	9511
892.594	9629
892.717	9557
892.839	9580
892.962	9599
893.085	9698
893.207	9542
893.33	9587
893.452	9568
893.575	9599
893.697	9507
893.819	9671
893.941	9644
894.064	9701
894.186	9447
894.308	9393
894.43	9561
894.552	9530
894.674	9545
894.796	9348
894.918	9416
895.04	9344
895.161	9405
895.283	9393
895.405	9230
895.526	9298
895.648	9363
895.769	9249
895.891	9294
896.012	9359
896.134	9253
896.255	9150
896.376	9093
896.498	9211
896.619	9169
896.74	9112
896.861	9081
896.982	9241
897.103	9313
897.224	9135
897.345	9047
897.466	9036
897.587	9009
897.708	9256
897.828	9017
897.949	8944
898.07	8807
898.19	8883
898.311	8975
898.431	8948
898.552	9001
898.672	9013
898.792	8963
898.913	8910
899.033	8849
899.153	8739
899.273	8739
899.393	8678
899.513	8716
899.633	8720
899.753	8731
899.873	8659
899.993	8731
900.113	8708
900.232	8716
900.352	8693
900.472	8564
900.591	8560
900.711	8568
900.83	8590
900.95	8701
901.069	8686
901.189	8632
901.308	8419
901.427	8393
901.546	8339
901.665	8438
901.784	8457
901.904	8366
902.023	8309
902.141	8267
902.26	8225
902.379	8240
902.498	8187
902.617	8138
902.735	8263
902.854	8298
902.973	8298
903.091	8134
903.21	8153
903.328	8180
903.446	8031
903.565	8088
903.683	8119
903.801	8027
903.919	8145
904.038	8180
904.156	8062
904.274	8081
904.392	8005
904.51	8073
904.627	8065
904.745	8100
904.863	8084
904.981	7970
905.098	7849
905.216	7818
905.334	7928
905.451	7993
905.569	7852
905.686	7822
905.803	7890
905.921	7757
906.038	7814
906.155	7780
906.272	7708
906.389	7757
906.506	7620
906.623	7636
906.74	7544
906.857	7540
906.974	7586
907.091	7677
907.208	7742
907.324	7662
907.441	7575
907.557	7460
907.674	7396
907.79	7400
907.907	7403
908.023	7476
908.139	7441
908.256	7396
908.372	7388
908.488	7346
908.604	7339
908.72	7225
908.836	7354
908.952	7263
909.068	7198
909.184	7308
909.3	7270
909.415	7289
909.531	7282
909.647	7156
909.762	7133
909.878	7156
909.993	7107
910.108	7129
910.224	7107
910.339	7137
910.454	7084
910.57	7034
910.685	6989
910.8	7183
910.915	7076
911.03	7008
911.145	6901
911.259	6867
911.374	6954
911.489	6810
911.604	6814
911.718	6730
911.833	6741
911.947	6688
912.062	6623
912.176	6696
912.291	6764
912.405	6681
912.519	6806
912.633	6840
912.748	6760
912.862	6635
912.976	6623
913.09	6566
913.204	6608
913.318	6604
913.431	6677
913.545	6730
913.659	6703
913.772	6696
913.886	6509
914	6547
914.113	6700
914.226	6692
914.34	6601
914.453	6452
914.566	6547
914.68	6483
914.793	6532
914.906	6414
915.019	6384
915.132	6331
915.245	6532
915.358	6426
915.47	6441
915.583	6452
915.696	6479
915.809	6563
915.921	6646
916.034	6403
916.146	6418
916.259	6376
916.371	6483
916.483	6456
916.595	6395
916.708	6395
916.82	6365
916.932	6388
917.044	6429
917.156	6418
917.268	6353
917.38	6292
917.491	6350
917.603	6315
917.715	6445
917.826	6403
917.938	6292
918.049	6308
918.161	6361
918.272	6361
918.384	6445
918.495	6350
918.606	6251
918.717	6258
918.828	6292
918.939	6251
919.05	6235
919.161	6266
919.272	6121
919.383	6155
919.494	6342
919.604	6464
919.715	6296
919.826	6251
919.936	6235
920.047	6346
920.157	6262
920.267	6483
920.378	6357
920.488	6292
920.598	6490
920.708	6601
920.818	6509
920.928	6448
921.038	6559
921.148	6597
921.258	6372
921.368	6296
921.477	6243
921.587	6155
921.697	6045
921.806	6140
921.916	6079
922.025	5954
922.134	5916
922.244	5916
922.353	5984
922.462	5836
922.571	5794
922.68	5745
922.789	5638
922.898	5726
923.007	5642
923.116	5756
923.224	5707
923.333	5646
923.442	5608
923.55	5573
923.659	5562
923.767	5646
923.876	5509
923.984	5615
924.092	5581
924.201	5573
924.309	5562
924.417	5528
924.525	5512
924.633	5539
924.741	6277
924.849	5398
924.956	5490
925.064	5349
925.172	5269
925.279	5334
925.387	5368
925.494	5330
925.602	5425
925.709	5395
925.816	5284
925.924	5368
926.031	5376
926.138	5315
926.245	5322
926.352	5235
926.459	5368
926.566	5334
926.673	5223
926.779	5151
926.886	5124
926.993	5033
927.099	4999
927.206	4984
927.312	4987
927.419	4999
927.525	4968
927.631	5003
927.737	4900
927.843	4896
927.95	4755
928.056	4866
928.162	4843
928.267	4866
928.373	5299
928.479	4828
928.585	4675
928.69	4767
928.796	4767
928.901	4702
929.007	4637
929.112	4733
929.218	4618
929.323	4599
929.428	4588
929.533	4645
929.638	4527
929.743	4573
929.848	4573
929.953	4516
930.058	4432
930.163	4360
930.267	4383
930.372	4424
930.477	4325
930.581	4519
930.685	4402
930.79	4261
930.894	4303
930.998	4242
931.103	4375
931.207	4109
931.311	4090
931.415	4036
931.519	3953
931.623	3960
