Data from glass_V78500241_1135.txt Node
Date: Wed Sep 01 19:22:22 CST 2021
User: usil
Spectrometer: V785-0024
Trigger mode: 0
Integration Time (sec): 4.000000E-1
Scans to average: 1
Nonlinearity correction enabled: false
Boxcar width: 0
Storing dark spectrum: false
XAxis mode: Wavelengths
Number of Pixels in Spectrum: 1024
>>>>>Begin Spectral Data<<<<<
801.071	3774
801.214	3740
801.356	3713
801.499	3743
801.641	3709
801.783	3785
801.926	3876
802.068	3835
802.211	3857
802.353	3911
802.496	3793
802.638	3930
802.78	3903
802.923	3937
803.065	3907
803.208	3880
803.35	3922
803.492	3922
803.635	3922
803.777	3869
803.919	3907
804.061	4185
804.204	3937
804.346	3987
804.488	3945
804.63	4044
804.773	3987
804.915	4006
805.057	4131
805.199	4036
805.341	4116
805.483	4116
805.626	4093
805.768	4101
805.91	4204
806.052	4238
806.194	4158
806.336	4344
806.478	4246
806.62	4188
806.762	4196
806.904	4268
807.046	4333
807.188	4238
807.33	4200
807.472	4268
807.614	4238
807.756	4257
807.898	4295
808.04	4223
808.182	4291
808.324	4337
808.465	4348
808.607	4466
808.749	4424
808.891	4459
809.033	4519
809.174	4363
809.316	4242
809.458	4238
809.6	4158
809.741	4124
809.883	4128
810.025	4204
810.166	4234
810.308	4249
810.45	4234
810.591	4219
810.733	4295
810.875	4546
811.016	4850
811.158	5140
811.299	5296
811.441	5303
811.582	5075
811.724	4748
811.865	4455
812.007	4508
812.148	4447
812.29	4424
812.431	4474
812.573	4394
812.714	4367
812.855	4402
812.997	4424
813.138	4504
813.279	4409
813.421	4348
813.562	4428
813.703	4299
813.845	4360
813.986	4287
814.127	4238
814.268	4280
814.41	4268
814.551	4310
814.692	4356
814.833	4265
814.974	4371
815.115	4394
815.256	4238
815.397	4204
815.539	4253
815.68	4219
815.821	4272
815.962	4352
816.103	4284
816.244	4219
816.385	4242
816.526	4265
816.666	4230
816.807	4109
816.948	4177
817.089	4181
817.23	4124
817.371	4059
817.512	4048
817.653	4036
817.793	4017
817.934	4071
818.075	4093
818.216	4101
818.356	4086
818.497	3994
818.638	3876
818.778	3918
818.919	3892
819.06	3884
819.2	3930
819.341	3823
819.481	3846
819.622	3888
819.762	4006
819.903	3960
820.043	3903
820.184	3869
820.324	3838
820.465	3884
820.605	3857
820.746	3907
820.886	3854
821.026	3915
821.167	3899
821.307	3972
821.447	3975
821.588	3934
821.728	3960
821.868	3926
822.008	3892
822.149	3884
822.289	3972
822.429	3785
822.569	3778
822.709	3823
822.849	3694
822.99	3728
823.13	3800
823.27	3762
823.41	3724
823.55	3759
823.69	3743
823.83	3755
823.97	3675
824.11	3591
824.25	3603
824.389	3637
824.529	3713
824.669	3633
824.809	3724
824.949	3717
825.089	3724
825.228	3671
825.368	3591
825.508	3561
825.648	3557
825.787	3610
825.927	3656
826.067	3629
826.206	3660
826.346	3804
826.485	3869
826.625	3857
826.765	3956
826.904	3857
827.044	3625
827.183	3553
827.323	3492
827.462	3473
827.601	3412
827.741	3439
827.88	3450
828.02	3386
828.159	3435
828.298	3458
828.437	3515
828.577	3488
828.716	3622
828.855	3496
828.994	3382
829.134	3370
829.273	3416
829.412	3359
829.551	3329
829.69	3363
829.829	3477
829.968	3553
830.107	3416
830.246	3439
830.385	3397
830.524	3386
830.663	3329
830.802	3279
830.941	3195
831.08	3192
831.219	3268
831.357	3249
831.496	3412
831.635	3294
831.774	3203
831.913	3207
832.051	3138
832.19	3127
832.329	3214
832.467	3173
832.606	3135
832.744	3214
832.883	3188
833.022	3203
833.16	3298
833.299	3313
833.437	3359
833.576	3355
833.714	3386
833.852	3435
833.991	3431
834.129	3485
834.267	3431
834.406	3405
834.544	3416
834.682	3431
834.821	3443
834.959	3568
835.097	3412
835.235	3549
835.373	3477
835.511	3454
835.65	3450
835.788	3466
835.926	3405
836.064	3382
836.202	3466
836.34	3580
836.478	3656
836.615	3553
836.753	3629
836.891	3641
837.029	3625
837.167	3629
837.305	3557
837.443	3572
837.58	3454
837.718	3637
837.856	3545
837.993	3561
838.131	3618
838.269	3580
838.406	3561
838.544	3580
838.681	3450
838.819	3428
838.956	3428
839.094	3397
839.231	3424
839.369	3519
839.506	3728
839.643	3671
839.781	3466
839.918	3481
840.055	3538
840.193	3504
840.33	3515
840.467	3549
840.604	3610
840.742	3827
840.879	3542
841.016	3610
841.153	3599
841.29	3793
841.427	3709
841.564	3720
841.701	3747
841.838	3667
841.975	3698
842.112	3747
842.249	3629
842.385	3675
842.522	3861
842.659	3690
842.796	3682
842.933	3705
843.069	3732
843.206	3751
843.343	3827
843.479	3797
843.616	3854
843.752	3698
843.889	3656
844.025	3850
844.162	3736
844.298	3915
844.435	3781
844.571	3759
844.708	3956
844.844	4025
844.98	4051
845.117	4017
845.253	3922
845.389	3941
845.525	3979
845.661	4002
845.798	3937
845.934	4055
846.07	3903
846.206	4025
846.342	4192
846.478	4044
846.614	3991
846.75	3956
846.886	3899
847.022	4059
847.158	3994
847.294	3998
847.429	4021
847.565	4006
847.701	4196
847.837	3911
847.972	3869
848.108	4040
848.244	3964
848.379	3888
848.515	3793
848.65	3827
848.786	3861
848.921	3888
849.057	3907
849.192	4013
849.328	3903
849.463	3960
849.598	3873
849.734	3850
849.869	3835
850.004	3793
850.14	3831
850.275	3808
850.41	3747
850.545	3793
850.68	3812
850.815	3831
850.95	3804
851.085	4006
851.22	3896
851.355	3854
851.49	3747
851.625	3774
851.76	3781
851.895	3720
852.03	3766
852.165	3785
852.299	3857
852.434	3930
852.569	3926
852.703	3876
852.838	3960
852.973	3983
853.107	4002
853.242	3888
853.376	3846
853.511	3789
853.645	3827
853.78	4029
853.914	3926
854.048	3930
854.183	3926
854.317	3983
854.451	4078
854.585	3953
854.72	3975
854.854	3998
854.988	3945
855.122	4006
855.256	3941
855.39	4002
855.524	4093
855.658	4150
855.792	4105
855.926	4154
856.06	4181
856.194	4230
856.327	4162
856.461	4150
856.595	4158
856.729	4211
856.862	4276
856.996	4219
857.13	4310
857.263	4367
857.397	4375
857.53	4310
857.664	4386
857.797	4432
857.931	4432
858.064	4371
858.197	4504
858.331	4447
858.464	4390
858.597	4360
858.731	4447
858.864	4497
858.997	4474
859.13	4493
859.263	4561
859.396	4615
859.529	4519
859.662	4500
859.795	4580
859.928	4611
860.061	4733
860.194	4717
860.327	4698
860.46	4656
860.592	4733
860.725	4790
860.858	4793
860.99	4721
861.123	4683
861.256	4641
861.388	4706
861.521	5421
861.653	4691
861.786	4702
861.918	4744
862.05	4854
862.183	4885
862.315	4873
862.447	4938
862.58	4877
862.712	4782
862.844	4782
862.976	4904
863.108	4892
863.24	5239
863.372	4839
863.504	4896
863.636	4900
863.768	4965
863.9	4961
864.032	4896
864.164	4938
864.296	5025
864.428	5109
864.559	5166
864.691	5151
864.823	5090
864.954	5098
865.086	5159
865.217	5151
865.349	5094
865.48	5151
865.612	5246
865.743	5307
865.875	5227
866.006	5242
866.137	5212
866.269	5254
866.4	5269
866.531	5273
866.662	5261
866.793	5292
866.924	5258
867.055	5337
867.186	5349
867.317	5341
867.448	5322
867.579	5376
867.71	5368
867.841	5429
867.972	5463
868.103	5433
868.233	5471
868.364	5505
868.495	5554
868.625	5684
868.756	5756
868.886	5695
869.017	5691
869.147	5889
869.278	5874
869.408	5832
869.539	5855
869.669	5939
869.799	5946
869.929	6015
870.06	6041
870.19	6144
870.32	6209
870.45	6262
870.58	6372
870.71	6388
870.84	6460
870.97	6486
871.1	6490
871.23	6604
871.36	6677
871.489	6658
871.619	6768
871.749	6814
871.879	6878
872.008	6989
872.138	6981
872.267	7000
872.397	7019
872.526	7137
872.656	7103
872.785	7179
872.915	7358
873.044	7514
873.173	7518
873.303	7632
873.432	7761
873.561	7894
873.69	7978
873.819	7993
873.948	8183
874.077	8279
874.206	8381
874.335	8389
874.464	8686
874.593	8830
874.722	8975
874.851	9104
874.979	9260
875.108	9386
875.237	9485
875.365	9424
875.494	9618
875.623	9816
875.751	9804
875.88	10006
876.008	10109
876.136	10363
876.265	10440
876.393	10744
876.521	10763
876.65	10759
876.778	10835
876.906	10923
877.034	10961
877.162	11014
877.29	11109
877.418	11311
877.546	11395
877.674	11425
877.802	11509
877.93	11558
878.058	11444
878.185	11596
878.313	11707
878.441	11828
878.568	11657
878.696	11726
878.824	11809
878.951	11893
879.079	12045
879.206	12117
879.333	12129
879.461	12152
879.588	12003
879.715	12114
879.842	12262
879.97	12110
880.097	11817
880.224	11874
880.351	11901
880.478	11836
880.605	11874
880.732	11832
880.859	12064
880.986	11809
881.112	11748
881.239	11733
881.366	11611
881.493	11729
881.619	11585
881.746	11554
881.872	11551
881.999	11376
882.125	11524
882.252	11577
882.378	11512
882.505	11516
882.631	11406
882.757	11315
882.883	11376
883.01	11292
883.136	11201
883.262	11136
883.388	11143
883.514	11189
883.64	11223
883.766	11159
883.892	11025
884.018	10972
884.143	11006
884.269	11090
884.395	10862
884.52	10812
884.646	10767
884.772	10637
884.897	10748
885.023	10630
885.148	10748
885.274	10831
885.399	10717
885.524	10660
885.65	10744
885.775	10573
885.9	10508
886.025	10588
886.15	10561
886.275	10421
886.4	10363
886.525	10394
886.65	10428
886.775	10337
886.9	10402
887.025	10523
887.149	10413
887.274	10234
887.399	10238
887.523	10234
887.648	10147
887.773	10135
887.897	10325
888.021	10169
888.146	10173
888.27	10284
888.395	10207
888.519	10162
888.643	10223
888.767	10211
888.891	10078
889.015	9991
889.139	10055
889.263	9994
889.387	10010
889.511	10150
889.635	10109
889.759	9964
889.883	10010
890.006	9968
890.13	10093
890.254	9941
890.377	9937
890.501	9861
890.624	9926
890.748	9991
890.871	9819
890.995	9713
891.118	9690
891.241	9751
891.364	9789
891.488	9816
891.611	9728
891.734	9781
891.857	9762
891.98	9740
892.103	9850
892.226	9728
892.349	9724
892.471	9511
892.594	9603
892.717	9694
892.839	9614
892.962	9584
893.085	9679
893.207	9610
893.33	9511
893.452	9526
893.575	9625
893.697	9485
893.819	9599
893.941	9561
894.064	9591
894.186	9515
894.308	9435
894.43	9526
894.552	9595
894.674	9515
894.796	9367
894.918	9431
895.04	9344
895.161	9367
895.283	9378
895.405	9241
895.526	9253
895.648	9249
895.769	9226
895.891	9291
896.012	9241
896.134	9154
896.255	9253
896.376	9142
896.498	9154
896.619	9119
896.74	9074
896.861	9150
896.982	9294
897.103	9340
897.224	9199
897.345	9047
897.466	9009
897.587	9005
897.708	9173
897.828	9028
897.949	9009
898.07	8929
898.19	8952
898.311	9020
898.431	8872
898.552	8891
898.672	8971
898.792	8982
898.913	8887
899.033	8880
899.153	8804
899.273	8667
899.393	8697
899.513	8766
899.633	8663
899.753	8731
899.873	8781
899.993	8838
900.113	8682
900.232	8625
900.352	8697
900.472	8621
900.591	8571
900.711	8594
900.83	8579
900.95	8655
901.069	8682
901.189	8507
901.308	8522
901.427	8366
901.546	8488
901.665	8450
901.784	8450
901.904	8389
902.023	8328
902.141	8176
902.26	8225
902.379	8263
902.498	8199
902.617	8240
902.735	8271
902.854	8214
902.973	8374
903.091	8168
903.21	8210
903.328	8195
903.446	8130
903.565	8119
903.683	8062
903.801	8130
903.919	8134
904.038	8157
904.156	8031
904.274	8054
904.392	8081
904.51	8084
904.627	8119
904.745	8191
904.863	8138
904.981	8005
905.098	7887
905.216	7879
905.334	7917
905.451	7909
905.569	7856
905.686	7906
905.803	7936
905.921	7792
906.038	7849
906.155	7811
906.272	7765
906.389	7700
906.506	7670
906.623	7632
906.74	7605
906.857	7601
906.974	7575
907.091	7685
907.208	7727
907.324	7666
907.441	7567
907.557	7441
907.674	7449
907.79	7453
907.907	7407
908.023	7491
908.139	7415
908.256	7354
908.372	7312
908.488	7438
908.604	7251
908.72	7251
908.836	7259
908.952	7247
909.068	7255
909.184	7335
909.3	7263
909.415	7225
909.531	7335
909.647	7137
909.762	7118
909.878	7072
909.993	7118
910.108	7069
910.224	7088
910.339	7160
910.454	7053
910.57	6985
910.685	7012
910.8	7145
910.915	7122
911.03	7095
911.145	6905
911.259	6848
911.374	6951
911.489	6795
911.604	6814
911.718	6753
911.833	6741
911.947	6673
912.062	6551
912.176	6753
912.291	6795
912.405	6772
912.519	6890
912.633	6776
912.748	6829
912.862	6730
912.976	6627
913.09	6589
913.204	6612
913.318	6616
913.431	6707
913.545	6681
913.659	6700
913.772	6673
913.886	6582
914	6589
914.113	6608
914.226	6658
914.34	6593
914.453	6532
914.566	6597
914.68	6521
914.793	6494
914.906	6422
915.019	6384
915.132	6395
915.245	6403
915.358	6448
915.47	6433
915.583	6403
915.696	6498
915.809	6536
915.921	6559
916.034	6395
916.146	6388
916.259	6418
916.371	6475
916.483	6433
916.595	6388
916.708	6399
916.82	6407
916.932	6380
917.044	6376
917.156	6422
917.268	6327
917.38	6285
917.491	6384
917.603	6388
917.715	6369
917.826	6429
917.938	6300
918.049	6224
918.161	6365
918.272	6376
918.384	6452
918.495	6304
918.606	6247
918.717	6247
918.828	6308
918.939	6239
919.05	6209
919.161	6292
919.272	6098
919.383	6228
919.494	6308
919.604	6471
919.715	6342
919.826	6228
919.936	6251
920.047	6365
920.157	6232
920.267	6490
920.378	6388
920.488	6254
920.598	6486
920.708	6627
920.818	6506
920.928	6479
921.038	6627
921.148	6566
921.258	6414
921.368	6277
921.477	6258
921.587	6186
921.697	6087
921.806	6213
921.916	6091
922.025	5969
922.134	5859
922.244	5824
922.353	5980
922.462	5863
922.571	5764
922.68	5752
922.789	5695
922.898	5756
923.007	5668
923.116	5695
923.224	5661
923.333	5699
923.442	5634
923.55	5600
923.659	5615
923.767	5653
923.876	5592
923.984	5638
924.092	5543
924.201	5558
924.309	5528
924.417	5520
924.525	5478
924.633	5528
924.741	6285
924.849	5387
924.956	5520
925.064	5296
925.172	5372
925.279	5307
925.387	5414
925.494	5353
925.602	5402
925.709	5417
925.816	5330
925.924	5330
926.031	5398
926.138	5288
926.245	5337
926.352	5258
926.459	5303
926.566	5322
926.673	5220
926.779	5155
926.886	5136
926.993	5064
927.099	5033
927.206	4968
927.312	4980
927.419	5014
927.525	5014
927.631	4995
927.737	4908
927.843	4908
927.95	4786
928.056	4824
928.162	4889
928.267	4854
928.373	5349
928.479	4843
928.585	4649
928.69	4759
928.796	4809
928.901	4740
929.007	4596
929.112	4702
929.218	4660
929.323	4573
929.428	4561
929.533	4668
929.638	4573
929.743	4550
929.848	4546
929.953	4516
930.058	4485
930.163	4333
930.267	4314
930.372	4462
930.477	4287
930.581	4459
930.685	4363
930.79	4253
930.894	4310
930.998	4284
931.103	4409
931.207	4131
931.311	4112
931.415	4048
931.519	3922
931.623	3926
