Data from glass_V78500241_1547.txt Node
Date: Wed Sep 01 19:25:13 CST 2021
User: usil
Spectrometer: V785-0024
Trigger mode: 0
Integration Time (sec): 4.000000E-1
Scans to average: 1
Nonlinearity correction enabled: false
Boxcar width: 0
Storing dark spectrum: false
XAxis mode: Wavelengths
Number of Pixels in Spectrum: 1024
>>>>>Begin Spectral Data<<<<<
801.071	3755
801.214	3717
801.356	3709
801.499	3740
801.641	3717
801.783	3759
801.926	3854
802.068	3812
802.211	3884
802.353	3880
802.496	3812
802.638	3899
802.78	3884
802.923	3892
803.065	3857
803.208	3850
803.35	3884
803.492	3899
803.635	3960
803.777	3800
803.919	3915
804.061	4109
804.204	3960
804.346	3941
804.488	3907
804.63	4044
804.773	3972
804.915	4040
805.057	4078
805.199	4010
805.341	4074
805.483	4143
805.626	4101
805.768	4166
805.91	4211
806.052	4169
806.194	4215
806.336	4329
806.478	4246
806.62	4230
806.762	4223
806.904	4268
807.046	4329
807.188	4215
807.33	4200
807.472	4242
807.614	4173
807.756	4295
807.898	4204
808.04	4227
808.182	4261
808.324	4329
808.465	4383
808.607	4455
808.749	4485
808.891	4470
809.033	4485
809.174	4440
809.316	4306
809.458	4257
809.6	4124
809.741	4173
809.883	4112
810.025	4227
810.166	4200
810.308	4223
810.45	4268
810.591	4204
810.733	4299
810.875	4531
811.016	4793
811.158	5128
811.299	5318
811.441	5277
811.582	5079
811.724	4744
811.865	4455
812.007	4519
812.148	4402
812.29	4375
812.431	4428
812.573	4424
812.714	4371
812.855	4405
812.997	4409
813.138	4497
813.279	4428
813.421	4390
813.562	4367
813.703	4363
813.845	4367
813.986	4272
814.127	4238
814.268	4295
814.41	4284
814.551	4280
814.692	4344
814.833	4284
814.974	4333
815.115	4306
815.256	4310
815.397	4276
815.539	4287
815.68	4181
815.821	4192
815.962	4299
816.103	4284
816.244	4234
816.385	4227
816.526	4272
816.666	4261
816.807	4101
816.948	4131
817.089	4185
817.23	4143
817.371	4017
817.512	4036
817.653	4082
817.793	4002
817.934	4032
818.075	4128
818.216	4071
818.356	4109
818.497	3994
818.638	3937
818.778	3922
818.919	3896
819.06	3876
819.2	3911
819.341	3838
819.481	3865
819.622	3911
819.762	4032
819.903	3922
820.043	3842
820.184	3838
820.324	3850
820.465	3880
820.605	3873
820.746	3835
820.886	3816
821.026	3972
821.167	3934
821.307	3998
821.447	3998
821.588	3960
821.728	3956
821.868	3968
822.008	3873
822.149	3857
822.289	3903
822.429	3774
822.569	3778
822.709	3774
822.849	3713
822.99	3724
823.13	3724
823.27	3789
823.41	3751
823.55	3743
823.69	3682
823.83	3724
823.97	3690
824.11	3618
824.25	3606
824.389	3618
824.529	3682
824.669	3622
824.809	3686
824.949	3793
825.089	3713
825.228	3675
825.368	3572
825.508	3557
825.648	3580
825.787	3599
825.927	3614
826.067	3618
826.206	3660
826.346	3800
826.485	3823
826.625	3846
826.765	3926
826.904	3816
827.044	3633
827.183	3549
827.323	3447
827.462	3488
827.601	3409
827.741	3409
827.88	3488
828.02	3344
828.159	3450
828.298	3447
828.437	3507
828.577	3450
828.716	3606
828.855	3492
828.994	3329
829.134	3367
829.273	3393
829.412	3351
829.551	3332
829.69	3348
829.829	3420
829.968	3477
830.107	3454
830.246	3454
830.385	3351
830.524	3367
830.663	3294
830.802	3211
830.941	3184
831.08	3199
831.219	3275
831.357	3256
831.496	3405
831.635	3207
831.774	3192
831.913	3237
832.051	3123
832.19	3154
832.329	3192
832.467	3138
832.606	3085
832.744	3169
832.883	3211
833.022	3218
833.16	3264
833.299	3279
833.437	3397
833.576	3367
833.714	3428
833.852	3450
833.991	3431
834.129	3428
834.267	3458
834.406	3409
834.544	3405
834.682	3401
834.821	3386
834.959	3507
835.097	3412
835.235	3496
835.373	3469
835.511	3496
835.65	3523
835.788	3454
835.926	3382
836.064	3359
836.202	3393
836.34	3591
836.478	3606
836.615	3542
836.753	3629
836.891	3644
837.029	3584
837.167	3633
837.305	3526
837.443	3542
837.58	3511
837.718	3644
837.856	3538
837.993	3523
838.131	3599
838.269	3595
838.406	3587
838.544	3553
838.681	3454
838.819	3477
838.956	3416
839.094	3405
839.231	3488
839.369	3496
839.506	3690
839.643	3610
839.781	3515
839.918	3454
840.055	3545
840.193	3557
840.33	3500
840.467	3557
840.604	3595
840.742	3831
840.879	3534
841.016	3526
841.153	3587
841.29	3781
841.427	3747
841.564	3713
841.701	3774
841.838	3679
841.975	3698
842.112	3736
842.249	3622
842.385	3637
842.522	3823
842.659	3679
842.796	3682
842.933	3686
843.069	3690
843.206	3694
843.343	3823
843.479	3785
843.616	3827
843.752	3679
843.889	3660
844.025	3842
844.162	3736
844.298	3880
844.435	3797
844.571	3781
844.708	3907
844.844	3975
844.98	4097
845.117	3998
845.253	3922
845.389	3926
845.525	3994
845.661	3930
845.798	3941
845.934	4025
846.07	3949
846.206	4067
846.342	4147
846.478	4044
846.614	4010
846.75	3968
846.886	3899
847.022	4032
847.158	3930
847.294	3991
847.429	4013
847.565	3994
847.701	4230
847.837	3918
847.972	3876
848.108	3972
848.244	3987
848.379	3880
848.515	3823
848.65	3797
848.786	3846
848.921	3861
849.057	3953
849.192	3960
849.328	3892
849.463	3922
849.598	3857
849.734	3861
849.869	3842
850.004	3800
850.14	3835
850.275	3808
850.41	3732
850.545	3759
850.68	3789
850.815	3770
850.95	3793
851.085	3949
851.22	3869
851.355	3831
851.49	3770
851.625	3816
851.76	3827
851.895	3774
852.03	3717
852.165	3785
852.299	3865
852.434	3884
852.569	3873
852.703	3911
852.838	3926
852.973	3975
853.107	4017
853.242	3865
853.376	3865
853.511	3808
853.645	3800
853.78	3994
853.914	3876
854.048	3899
854.183	3865
854.317	3968
854.451	4051
854.585	3956
854.72	3934
854.854	4078
854.988	3949
855.122	4010
855.256	3934
855.39	3987
855.524	4093
855.658	4109
855.792	4128
855.926	4135
856.06	4173
856.194	4192
856.327	4109
856.461	4124
856.595	4166
856.729	4196
856.862	4249
856.996	4207
857.13	4287
857.263	4276
857.397	4363
857.53	4272
857.664	4348
857.797	4413
857.931	4398
858.064	4402
858.197	4451
858.331	4405
858.464	4360
858.597	4341
858.731	4424
858.864	4466
858.997	4440
859.13	4523
859.263	4569
859.396	4603
859.529	4512
859.662	4535
859.795	4508
859.928	4615
860.061	4645
860.194	4729
860.327	4645
860.46	4664
860.592	4725
860.725	4782
860.858	4744
860.99	4679
861.123	4725
861.256	4668
861.388	4782
861.521	5554
861.653	4706
861.786	4717
861.918	4740
862.05	4771
862.183	4866
862.315	4896
862.447	4949
862.58	4858
862.712	4778
862.844	4763
862.976	4862
863.108	4843
863.24	5265
863.372	4870
863.504	4824
863.636	4889
863.768	4984
863.9	4991
864.032	4908
864.164	4946
864.296	5006
864.428	5060
864.559	5090
864.691	5094
864.823	5098
864.954	5105
865.086	5128
865.217	5121
865.349	5128
865.48	5155
865.612	5201
865.743	5299
865.875	5201
866.006	5216
866.137	5220
866.269	5239
866.4	5208
866.531	5269
866.662	5227
866.793	5288
866.924	5265
867.055	5326
867.186	5341
867.317	5296
867.448	5307
867.579	5349
867.71	5398
867.841	5364
867.972	5387
868.103	5463
868.233	5501
868.364	5486
868.495	5509
868.625	5611
868.756	5764
868.886	5657
869.017	5729
869.147	5912
869.278	5813
869.408	5893
869.539	5828
869.669	5916
869.799	5942
869.929	5954
870.06	6030
870.19	6213
870.32	6209
870.45	6228
870.58	6353
870.71	6403
870.84	6464
870.97	6441
871.1	6467
871.23	6608
871.36	6707
871.489	6711
871.619	6764
871.749	6791
871.879	6966
872.008	6973
872.138	6954
872.267	7038
872.397	6973
872.526	6996
872.656	7065
872.785	7187
872.915	7312
873.044	7506
873.173	7544
873.303	7662
873.432	7738
873.561	7887
873.69	7868
873.819	8050
873.948	8206
874.077	8237
874.206	8271
874.335	8427
874.464	8693
874.593	8830
874.722	8979
874.851	9093
874.979	9245
875.108	9351
875.237	9443
875.365	9401
875.494	9675
875.623	9785
875.751	9873
875.88	10032
876.008	10185
876.136	10215
876.265	10459
876.393	10702
876.521	10736
876.65	10816
876.778	10843
876.906	10957
877.034	11052
877.162	11140
877.29	11113
877.418	11227
877.546	11322
877.674	11493
877.802	11474
877.93	11452
878.058	11623
878.185	11532
878.313	11672
878.441	11684
878.568	11695
878.696	11840
878.824	11866
878.951	11988
879.079	11973
879.206	12121
879.333	11931
879.461	11969
879.588	12060
879.715	12053
879.842	12205
879.97	12030
880.097	11893
880.224	11828
880.351	11863
880.478	11851
880.605	11863
880.732	11771
880.859	11939
880.986	11874
881.112	11779
881.239	11775
881.366	11748
881.493	11577
881.619	11516
881.746	11592
881.872	11524
881.999	11501
882.125	11414
882.252	11471
882.378	11551
882.505	11577
882.631	11318
882.757	11360
882.883	11292
883.01	11311
883.136	11143
883.262	11147
883.388	11166
883.514	11132
883.64	11170
883.766	11170
883.892	10942
884.018	10980
884.143	11056
884.269	11132
884.395	10934
884.52	10725
884.646	10835
884.772	10702
884.897	10698
885.023	10752
885.148	10736
885.274	10717
885.399	10649
885.524	10546
885.65	10645
885.775	10550
885.9	10519
886.025	10580
886.15	10497
886.275	10504
886.4	10451
886.525	10405
886.65	10371
886.775	10337
886.9	10459
887.025	10550
887.149	10356
887.274	10325
887.399	10230
887.523	10166
887.648	10158
887.773	10093
887.897	10253
888.021	10276
888.146	10116
888.27	10211
888.395	10154
888.519	10280
888.643	10211
888.767	10249
888.891	10086
889.015	10002
889.139	10032
889.263	9953
889.387	10051
889.511	10131
889.635	9983
889.759	9899
889.883	10040
890.006	10002
890.13	10135
890.254	10010
890.377	9991
890.501	9850
890.624	9850
890.748	9873
890.871	9804
890.995	9789
891.118	9732
891.241	9671
891.364	9759
891.488	9797
891.611	9747
891.734	9762
891.857	9751
891.98	9694
892.103	9789
892.226	9747
892.349	9675
892.471	9507
892.594	9606
892.717	9644
892.839	9561
892.962	9652
893.085	9720
893.207	9629
893.33	9481
893.452	9622
893.575	9610
893.697	9526
893.819	9549
893.941	9637
894.064	9599
894.186	9450
894.308	9424
894.43	9488
894.552	9557
894.674	9534
894.796	9416
894.918	9386
895.04	9382
895.161	9382
895.283	9382
895.405	9237
895.526	9298
895.648	9256
895.769	9245
895.891	9226
896.012	9283
896.134	9203
896.255	9169
896.376	9154
896.498	9150
896.619	9127
896.74	9028
896.861	9142
896.982	9249
897.103	9283
897.224	9157
897.345	9017
897.466	9039
897.587	9062
897.708	9116
897.828	9051
897.949	8910
898.07	8845
898.19	8937
898.311	9036
898.431	8941
898.552	8944
898.672	9001
898.792	8986
898.913	8880
899.033	8857
899.153	8853
899.273	8708
899.393	8766
899.513	8708
899.633	8716
899.753	8758
899.873	8815
899.993	8708
900.113	8697
900.232	8648
900.352	8651
900.472	8568
900.591	8602
900.711	8602
900.83	8594
900.95	8621
901.069	8667
901.189	8522
901.308	8488
901.427	8438
901.546	8454
901.665	8480
901.784	8514
901.904	8377
902.023	8290
902.141	8263
902.26	8267
902.379	8279
902.498	8206
902.617	8218
902.735	8290
902.854	8324
902.973	8279
903.091	8138
903.21	8176
903.328	8111
903.446	8134
903.565	8096
903.683	8077
903.801	7997
903.919	8191
904.038	8153
904.156	8084
904.274	8119
904.392	8062
904.51	8043
904.627	8107
904.745	8153
904.863	8111
904.981	7925
905.098	7947
905.216	7822
905.334	7917
905.451	7921
905.569	7894
905.686	7909
905.803	7890
905.921	7761
906.038	7871
906.155	7822
906.272	7742
906.389	7746
906.506	7666
906.623	7647
906.74	7677
906.857	7578
906.974	7578
907.091	7696
907.208	7746
907.324	7696
907.441	7594
907.557	7468
907.674	7449
907.79	7392
907.907	7468
908.023	7491
908.139	7358
908.256	7407
908.372	7449
908.488	7343
908.604	7278
908.72	7202
908.836	7331
908.952	7206
909.068	7236
909.184	7308
909.3	7282
909.415	7221
909.531	7285
909.647	7145
909.762	7171
909.878	7149
909.993	7160
910.108	7091
910.224	7084
910.339	7091
910.454	7050
910.57	6977
910.685	6985
910.8	7190
910.915	7129
911.03	6932
911.145	6951
911.259	6886
911.374	6920
911.489	6928
911.604	6856
911.718	6684
911.833	6726
911.947	6642
912.062	6566
912.176	6703
912.291	6779
912.405	6696
912.519	6829
912.633	6905
912.748	6753
912.862	6662
912.976	6597
913.09	6547
913.204	6563
913.318	6593
913.431	6696
913.545	6681
913.659	6749
913.772	6646
913.886	6563
914	6532
914.113	6631
914.226	6616
914.34	6627
914.453	6521
914.566	6585
914.68	6460
914.793	6471
914.906	6433
915.019	6292
915.132	6380
915.245	6422
915.358	6422
915.47	6422
915.583	6452
915.696	6464
915.809	6490
915.921	6597
916.034	6407
916.146	6452
916.259	6448
916.371	6448
916.483	6422
916.595	6391
916.708	6418
916.82	6384
916.932	6422
917.044	6388
917.156	6388
917.268	6258
917.38	6327
917.491	6304
917.603	6308
917.715	6422
917.826	6410
917.938	6308
918.049	6258
918.161	6308
918.272	6422
918.384	6460
918.495	6365
918.606	6262
918.717	6220
918.828	6251
918.939	6311
919.05	6205
919.161	6266
919.272	6117
919.383	6171
919.494	6300
919.604	6403
919.715	6331
919.826	6197
919.936	6232
920.047	6292
920.157	6281
920.267	6471
920.378	6247
920.488	6270
920.598	6448
920.708	6551
920.818	6452
920.928	6498
921.038	6593
921.148	6612
921.258	6304
921.368	6243
921.477	6182
921.587	6186
921.697	6129
921.806	6148
921.916	6155
922.025	5973
922.134	5927
922.244	5844
922.353	5950
922.462	5885
922.571	5809
922.68	5676
922.789	5672
922.898	5729
923.007	5589
923.116	5668
923.224	5634
923.333	5638
923.442	5653
923.55	5596
923.659	5581
923.767	5661
923.876	5505
923.984	5573
924.092	5474
924.201	5562
924.309	5524
924.417	5551
924.525	5440
924.633	5524
924.741	6171
924.849	5337
924.956	5497
925.064	5334
925.172	5337
925.279	5360
925.387	5383
925.494	5299
925.602	5425
925.709	5349
925.816	5330
925.924	5307
926.031	5372
926.138	5345
926.245	5326
926.352	5250
926.459	5307
926.566	5322
926.673	5227
926.779	5113
926.886	5151
926.993	5060
927.099	4995
927.206	4953
927.312	4972
927.419	5045
927.525	4984
927.631	4987
927.737	4915
927.843	4877
927.95	4778
928.056	4809
928.162	4866
928.267	4854
928.373	5353
928.479	4854
928.585	4706
928.69	4774
928.796	4763
928.901	4683
929.007	4596
929.112	4744
929.218	4637
929.323	4584
929.428	4546
929.533	4687
929.638	4474
929.743	4569
929.848	4584
929.953	4481
930.058	4417
930.163	4337
930.267	4314
930.372	4462
930.477	4291
930.581	4466
930.685	4363
930.79	4276
930.894	4295
930.998	4253
931.103	4356
931.207	4120
931.311	4090
931.415	4029
931.519	3941
931.623	3930
