Data from glass_V78500241_1463.txt Node
Date: Wed Sep 01 19:24:38 CST 2021
User: usil
Spectrometer: V785-0024
Trigger mode: 0
Integration Time (sec): 4.000000E-1
Scans to average: 1
Nonlinearity correction enabled: false
Boxcar width: 0
Storing dark spectrum: false
XAxis mode: Wavelengths
Number of Pixels in Spectrum: 1024
>>>>>Begin Spectral Data<<<<<
801.071	3740
801.214	3762
801.356	3694
801.499	3766
801.641	3698
801.783	3762
801.926	3865
802.068	3812
802.211	3827
802.353	3869
802.496	3819
802.638	3861
802.78	3903
802.923	3911
803.065	3896
803.208	3823
803.35	3896
803.492	3922
803.635	3899
803.777	3831
803.919	3930
804.061	4185
804.204	3979
804.346	3979
804.488	3941
804.63	4074
804.773	3975
804.915	4044
805.057	4188
805.199	4036
805.341	4128
805.483	4135
805.626	4154
805.768	4128
805.91	4185
806.052	4234
806.194	4196
806.336	4363
806.478	4207
806.62	4185
806.762	4227
806.904	4287
807.046	4325
807.188	4242
807.33	4185
807.472	4253
807.614	4188
807.756	4306
807.898	4211
808.04	4219
808.182	4310
808.324	4325
808.465	4402
808.607	4443
808.749	4417
808.891	4481
809.033	4508
809.174	4424
809.316	4306
809.458	4227
809.6	4124
809.741	4150
809.883	4131
810.025	4192
810.166	4246
810.308	4200
810.45	4272
810.591	4272
810.733	4310
810.875	4542
811.016	4797
811.158	5136
811.299	5258
811.441	5254
811.582	5029
811.724	4733
811.865	4466
812.007	4500
812.148	4417
812.29	4371
812.431	4421
812.573	4386
812.714	4367
812.855	4386
812.997	4447
813.138	4489
813.279	4371
813.421	4390
813.562	4413
813.703	4318
813.845	4344
813.986	4246
814.127	4253
814.268	4230
814.41	4276
814.551	4284
814.692	4402
814.833	4253
814.974	4341
815.115	4367
815.256	4249
815.397	4249
815.539	4257
815.68	4215
815.821	4192
815.962	4291
816.103	4249
816.244	4230
816.385	4238
816.526	4276
816.666	4185
816.807	4090
816.948	4150
817.089	4207
817.23	4090
817.371	4071
817.512	4029
817.653	4112
817.793	4082
817.934	4029
818.075	4082
818.216	4101
818.356	4124
818.497	3991
818.638	3930
818.778	3922
818.919	3915
819.06	3846
819.2	3903
819.341	3850
819.481	3823
819.622	3880
819.762	3953
819.903	3960
820.043	3861
820.184	3857
820.324	3823
820.465	3903
820.605	3922
820.746	3899
820.886	3819
821.026	3915
821.167	3903
821.307	3975
821.447	3960
821.588	3960
821.728	3956
821.868	3949
822.008	3865
822.149	3903
822.289	3918
822.429	3793
822.569	3755
822.709	3800
822.849	3717
822.99	3717
823.13	3785
823.27	3827
823.41	3736
823.55	3743
823.69	3679
823.83	3717
823.97	3671
824.11	3633
824.25	3614
824.389	3637
824.529	3698
824.669	3656
824.809	3690
824.949	3747
825.089	3701
825.228	3679
825.368	3606
825.508	3545
825.648	3545
825.787	3561
825.927	3652
826.067	3618
826.206	3629
826.346	3789
826.485	3804
826.625	3869
826.765	3975
826.904	3850
827.044	3675
827.183	3530
827.323	3447
827.462	3500
827.601	3416
827.741	3416
827.88	3458
828.02	3397
828.159	3454
828.298	3462
828.437	3500
828.577	3485
828.716	3603
828.855	3485
828.994	3416
829.134	3420
829.273	3367
829.412	3340
829.551	3325
829.69	3378
829.829	3458
829.968	3481
830.107	3435
830.246	3469
830.385	3359
830.524	3359
830.663	3325
830.802	3272
830.941	3188
831.08	3195
831.219	3237
831.357	3256
831.496	3363
831.635	3233
831.774	3165
831.913	3195
832.051	3104
832.19	3127
832.329	3211
832.467	3146
832.606	3089
832.744	3176
832.883	3169
833.022	3207
833.16	3249
833.299	3287
833.437	3351
833.576	3386
833.714	3431
833.852	3401
833.991	3428
834.129	3477
834.267	3473
834.406	3367
834.544	3439
834.682	3416
834.821	3439
834.959	3553
835.097	3428
835.235	3557
835.373	3477
835.511	3485
835.65	3485
835.788	3496
835.926	3401
836.064	3382
836.202	3393
836.34	3576
836.478	3610
836.615	3564
836.753	3622
836.891	3637
837.029	3622
837.167	3599
837.305	3534
837.443	3549
837.58	3488
837.718	3603
837.856	3530
837.993	3549
838.131	3648
838.269	3576
838.406	3614
838.544	3599
838.681	3462
838.819	3462
838.956	3374
839.094	3428
839.231	3435
839.369	3469
839.506	3762
839.643	3629
839.781	3549
839.918	3466
840.055	3526
840.193	3523
840.33	3538
840.467	3606
840.604	3584
840.742	3774
840.879	3584
841.016	3549
841.153	3603
841.29	3800
841.427	3698
841.564	3686
841.701	3751
841.838	3717
841.975	3663
842.112	3705
842.249	3671
842.385	3629
842.522	3819
842.659	3701
842.796	3656
842.933	3713
843.069	3709
843.206	3732
843.343	3827
843.479	3736
843.616	3850
843.752	3690
843.889	3679
844.025	3884
844.162	3698
844.298	3854
844.435	3812
844.571	3774
844.708	3876
844.844	3975
844.98	4048
845.117	4029
845.253	3964
845.389	3926
845.525	3968
845.661	4013
845.798	3888
845.934	3994
846.07	3964
846.206	4082
846.342	4086
846.478	4055
846.614	3987
846.75	4017
846.886	3922
847.022	4059
847.158	3964
847.294	3968
847.429	4006
847.565	3998
847.701	4219
847.837	3854
847.972	3873
848.108	4010
848.244	3994
848.379	3842
848.515	3823
848.65	3808
848.786	3865
848.921	3857
849.057	3903
849.192	3972
849.328	3930
849.463	3899
849.598	3838
849.734	3911
849.869	3816
850.004	3797
850.14	3804
850.275	3774
850.41	3728
850.545	3728
850.68	3747
850.815	3785
850.95	3850
851.085	3934
851.22	3861
851.355	3876
851.49	3759
851.625	3785
851.76	3793
851.895	3743
852.03	3717
852.165	3831
852.299	3865
852.434	3899
852.569	3857
852.703	3911
852.838	3892
852.973	3983
853.107	3991
853.242	3873
853.376	3835
853.511	3717
853.645	3850
853.78	3941
853.914	3892
854.048	3884
854.183	3884
854.317	3972
854.451	4044
854.585	3949
854.72	3964
854.854	4029
854.988	3968
855.122	4002
855.256	3956
855.39	3987
855.524	4086
855.658	4112
855.792	4063
855.926	4128
856.06	4173
856.194	4215
856.327	4112
856.461	4143
856.595	4154
856.729	4207
856.862	4295
856.996	4257
857.13	4257
857.263	4333
857.397	4379
857.53	4265
857.664	4333
857.797	4363
857.931	4413
858.064	4390
858.197	4421
858.331	4409
858.464	4383
858.597	4333
858.731	4432
858.864	4455
858.997	4443
859.13	4489
859.263	4569
859.396	4569
859.529	4550
859.662	4519
859.795	4531
859.928	4596
860.061	4729
860.194	4752
860.327	4664
860.46	4664
860.592	4759
860.725	4740
860.858	4782
860.99	4721
861.123	4691
861.256	4691
861.388	4752
861.521	5334
861.653	4710
861.786	4687
861.918	4767
862.05	4786
862.183	4881
862.315	4850
862.447	4934
862.58	4896
862.712	4782
862.844	4793
862.976	4839
863.108	4889
863.24	5223
863.372	4873
863.504	4866
863.636	4904
863.768	4976
863.9	4968
864.032	4942
864.164	4961
864.296	5067
864.428	5083
864.559	5067
864.691	5124
864.823	5121
864.954	5060
865.086	5147
865.217	5155
865.349	5117
865.48	5155
865.612	5128
865.743	5353
865.875	5220
866.006	5174
866.137	5223
866.269	5246
866.4	5246
866.531	5220
866.662	5250
866.793	5292
866.924	5296
867.055	5360
867.186	5349
867.317	5349
867.448	5307
867.579	5330
867.71	5334
867.841	5402
867.972	5444
868.103	5501
868.233	5497
868.364	5482
868.495	5520
868.625	5695
868.756	5764
868.886	5684
869.017	5752
869.147	5870
869.278	5904
869.408	5889
869.539	5802
869.669	5939
869.799	5923
869.929	5969
870.06	6076
870.19	6178
870.32	6201
870.45	6182
870.58	6323
870.71	6498
870.84	6494
870.97	6422
871.1	6498
871.23	6612
871.36	6696
871.489	6658
871.619	6730
871.749	6787
871.879	6863
872.008	6981
872.138	6935
872.267	6996
872.397	6966
872.526	7046
872.656	7122
872.785	7149
872.915	7373
873.044	7563
873.173	7502
873.303	7651
873.432	7826
873.561	7826
873.69	7811
873.819	7947
873.948	8187
874.077	8229
874.206	8279
874.335	8419
874.464	8621
874.593	8796
874.722	8967
874.851	9157
874.979	9249
875.108	9408
875.237	9469
875.365	9454
875.494	9663
875.623	9831
875.751	9812
875.88	9956
876.008	10109
876.136	10253
876.265	10508
876.393	10691
876.521	10691
876.65	10843
876.778	10881
876.906	10923
877.034	11003
877.162	11064
877.29	11204
877.418	11265
877.546	11326
877.674	11444
877.802	11474
877.93	11524
878.058	11596
878.185	11558
878.313	11619
878.441	11779
878.568	11657
878.696	11786
878.824	11855
878.951	11904
879.079	11984
879.206	12125
879.333	12064
879.461	12049
879.588	12091
879.715	12072
879.842	12258
879.97	12053
880.097	11874
880.224	11920
880.351	11840
880.478	11904
880.605	11908
880.732	11809
880.859	12068
880.986	11863
881.112	11885
881.239	11779
881.366	11726
881.493	11611
881.619	11600
881.746	11558
881.872	11509
881.999	11436
882.125	11505
882.252	11577
882.378	11547
882.505	11512
882.631	11356
882.757	11280
882.883	11288
883.01	11288
883.136	11242
883.262	11136
883.388	11124
883.514	11280
883.64	11162
883.766	11109
883.892	10999
884.018	10976
884.143	11079
884.269	11136
884.395	10793
884.52	10835
884.646	10736
884.772	10675
884.897	10687
885.023	10691
885.148	10752
885.274	10736
885.399	10679
885.524	10607
885.65	10615
885.775	10542
885.9	10584
886.025	10596
886.15	10519
886.275	10436
886.4	10341
886.525	10322
886.65	10375
886.775	10306
886.9	10512
887.025	10558
887.149	10363
887.274	10261
887.399	10158
887.523	10185
887.648	10063
887.773	10162
887.897	10227
888.021	10268
888.146	10177
888.27	10188
888.395	10204
888.519	10207
888.643	10181
888.767	10166
888.891	10090
889.015	9987
889.139	10067
889.263	10029
889.387	10044
889.511	10078
889.635	10112
889.759	9983
889.883	9983
890.006	10032
890.13	10032
890.254	9949
890.377	10025
890.501	9926
890.624	9930
890.748	9831
890.871	9766
890.995	9717
891.118	9724
891.241	9740
891.364	9675
891.488	9854
891.611	9717
891.734	9709
891.857	9774
891.98	9732
892.103	9781
892.226	9835
892.349	9671
892.471	9568
892.594	9580
892.717	9644
892.839	9614
892.962	9595
893.085	9690
893.207	9526
893.33	9572
893.452	9485
893.575	9637
893.697	9519
893.819	9606
893.941	9614
894.064	9545
894.186	9420
894.308	9336
894.43	9523
894.552	9564
894.674	9538
894.796	9336
894.918	9382
895.04	9344
895.161	9389
895.283	9386
895.405	9222
895.526	9249
895.648	9256
895.769	9241
895.891	9291
896.012	9283
896.134	9230
896.255	9203
896.376	9104
896.498	9146
896.619	9104
896.74	9123
896.861	9077
896.982	9237
897.103	9260
897.224	9180
897.345	9097
897.466	8960
897.587	8979
897.708	9097
897.828	9051
897.949	8975
898.07	8895
898.19	8872
898.311	9001
898.431	8887
898.552	8876
898.672	8944
898.792	8952
898.913	8883
899.033	8785
899.153	8788
899.273	8632
899.393	8731
899.513	8743
899.633	8781
899.753	8746
899.873	8678
899.993	8750
900.113	8667
900.232	8701
900.352	8678
900.472	8663
900.591	8530
900.711	8621
900.83	8590
900.95	8670
901.069	8678
901.189	8613
901.308	8431
901.427	8355
901.546	8431
901.665	8442
901.784	8495
901.904	8351
902.023	8370
902.141	8180
902.26	8271
902.379	8317
902.498	8279
902.617	8199
902.735	8263
902.854	8271
902.973	8225
903.091	8115
903.21	8180
903.328	8111
903.446	8199
903.565	8043
903.683	8111
903.801	8073
903.919	8149
904.038	8103
904.156	8027
904.274	8096
904.392	8031
904.51	8084
904.627	8149
904.745	8020
904.863	8134
904.981	7928
905.098	7928
905.216	7917
905.334	7928
905.451	7967
905.569	7864
905.686	7887
905.803	7959
905.921	7772
906.038	7864
906.155	7772
906.272	7658
906.389	7666
906.506	7658
906.623	7651
906.74	7575
906.857	7518
906.974	7597
907.091	7655
907.208	7715
907.324	7613
907.441	7616
907.557	7480
907.674	7457
907.79	7426
907.907	7441
908.023	7430
908.139	7472
908.256	7396
908.372	7438
908.488	7400
908.604	7285
908.72	7274
908.836	7312
908.952	7305
909.068	7187
909.184	7305
909.3	7266
909.415	7312
909.531	7270
909.647	7137
909.762	7061
909.878	7088
909.993	7099
910.108	7065
910.224	7053
910.339	7088
910.454	6954
910.57	7015
910.685	6932
910.8	7152
910.915	7057
911.03	7080
911.145	6905
911.259	6913
911.374	6844
911.489	6814
911.604	6818
911.718	6726
911.833	6798
911.947	6623
912.062	6544
912.176	6688
912.291	6730
912.405	6616
912.519	6867
912.633	6821
912.748	6711
912.862	6707
912.976	6604
913.09	6563
913.204	6623
913.318	6642
913.431	6696
913.545	6753
913.659	6776
913.772	6635
913.886	6597
914	6559
914.113	6608
914.226	6612
914.34	6608
914.453	6471
914.566	6585
914.68	6483
914.793	6517
914.906	6464
915.019	6365
915.132	6296
915.245	6399
915.358	6422
915.47	6410
915.583	6429
915.696	6456
915.809	6471
915.921	6585
916.034	6448
916.146	6414
916.259	6433
916.371	6509
916.483	6414
916.595	6369
916.708	6380
916.82	6414
916.932	6388
917.044	6407
917.156	6376
917.268	6365
917.38	6414
917.491	6346
917.603	6407
917.715	6399
917.826	6357
917.938	6384
918.049	6262
918.161	6300
918.272	6429
918.384	6429
918.495	6365
918.606	6243
918.717	6262
918.828	6270
918.939	6270
919.05	6201
919.161	6262
919.272	6114
919.383	6167
919.494	6266
919.604	6475
919.715	6285
919.826	6254
919.936	6281
920.047	6357
920.157	6300
920.267	6445
920.378	6292
920.488	6308
920.598	6464
920.708	6540
920.818	6426
920.928	6464
921.038	6601
921.148	6559
921.258	6323
921.368	6311
921.477	6235
921.587	6205
921.697	6106
921.806	6213
921.916	6091
922.025	5935
922.134	5965
922.244	5851
922.353	5927
922.462	5847
922.571	5809
922.68	5729
922.789	5707
922.898	5707
923.007	5657
923.116	5699
923.224	5653
923.333	5699
923.442	5570
923.55	5581
923.659	5592
923.767	5653
923.876	5524
923.984	5638
924.092	5532
924.201	5558
924.309	5573
924.417	5547
924.525	5524
924.633	5497
924.741	6136
924.849	5376
924.956	5486
925.064	5360
925.172	5296
925.279	5303
925.387	5341
925.494	5364
925.602	5417
925.709	5383
925.816	5254
925.924	5307
926.031	5372
926.138	5315
926.245	5345
926.352	5231
926.459	5337
926.566	5353
926.673	5185
926.779	5147
926.886	5109
926.993	5067
927.099	5010
927.206	5003
927.312	4923
927.419	5010
927.525	4976
927.631	4980
927.737	4911
927.843	4919
927.95	4793
928.056	4820
928.162	4850
928.267	4843
928.373	5284
928.479	4831
928.585	4710
928.69	4744
928.796	4774
928.901	4694
929.007	4577
929.112	4664
929.218	4603
929.323	4588
929.428	4588
929.533	4599
929.638	4489
929.743	4592
929.848	4573
929.953	4508
930.058	4428
930.163	4310
930.267	4314
930.372	4413
930.477	4318
930.581	4462
930.685	4344
930.79	4272
930.894	4314
930.998	4287
931.103	4348
931.207	4147
931.311	4093
931.415	4040
931.519	3941
931.623	3968
