Data from glass_V78500241_1076.txt Node
Date: Wed Sep 01 19:21:57 CST 2021
User: usil
Spectrometer: V785-0024
Trigger mode: 0
Integration Time (sec): 4.000000E-1
Scans to average: 1
Nonlinearity correction enabled: false
Boxcar width: 0
Storing dark spectrum: false
XAxis mode: Wavelengths
Number of Pixels in Spectrum: 1024
>>>>>Begin Spectral Data<<<<<
801.071	3724
801.214	3793
801.356	3732
801.499	3728
801.641	3743
801.783	3838
801.926	3842
802.068	3861
802.211	3857
802.353	3892
802.496	3831
802.638	3857
802.78	3873
802.923	3945
803.065	3876
803.208	3884
803.35	3934
803.492	3915
803.635	3949
803.777	3808
803.919	3911
804.061	4158
804.204	3934
804.346	3956
804.488	3930
804.63	4074
804.773	4002
804.915	4040
805.057	4131
805.199	4025
805.341	4074
805.483	4143
805.626	4150
805.768	4086
805.91	4211
806.052	4253
806.194	4249
806.336	4352
806.478	4211
806.62	4215
806.762	4238
806.904	4322
807.046	4337
807.188	4234
807.33	4181
807.472	4200
807.614	4204
807.756	4314
807.898	4219
808.04	4223
808.182	4276
808.324	4341
808.465	4348
808.607	4436
808.749	4455
808.891	4424
809.033	4527
809.174	4409
809.316	4246
809.458	4265
809.6	4139
809.741	4173
809.883	4185
810.025	4192
810.166	4246
810.308	4230
810.45	4246
810.591	4242
810.733	4314
810.875	4542
811.016	4824
811.158	5121
811.299	5235
811.441	5315
811.582	5064
811.724	4687
811.865	4470
812.007	4447
812.148	4383
812.29	4455
812.431	4398
812.573	4390
812.714	4405
812.855	4459
812.997	4462
813.138	4531
813.279	4440
813.421	4383
813.562	4390
813.703	4329
813.845	4352
813.986	4318
814.127	4242
814.268	4268
814.41	4295
814.551	4261
814.692	4390
814.833	4318
814.974	4337
815.115	4356
815.256	4268
815.397	4265
815.539	4223
815.68	4166
815.821	4238
815.962	4329
816.103	4291
816.244	4230
816.385	4265
816.526	4341
816.666	4200
816.807	4109
816.948	4181
817.089	4246
817.23	4086
817.371	4078
817.512	4093
817.653	4036
817.793	4006
817.934	4090
818.075	4105
818.216	4086
818.356	4105
818.497	4002
818.638	3975
818.778	3922
818.919	3899
819.06	3876
819.2	3926
819.341	3831
819.481	3880
819.622	3869
819.762	4067
819.903	3953
820.043	3846
820.184	3865
820.324	3831
820.465	3880
820.605	3880
820.746	3861
820.886	3854
821.026	3941
821.167	3926
821.307	3983
821.447	4036
821.588	3983
821.728	3941
821.868	3945
822.008	3865
822.149	3953
822.289	3915
822.429	3793
822.569	3831
822.709	3793
822.849	3736
822.99	3717
823.13	3816
823.27	3781
823.41	3743
823.55	3743
823.69	3762
823.83	3778
823.97	3694
824.11	3572
824.25	3629
824.389	3618
824.529	3644
824.669	3679
824.809	3694
824.949	3759
825.089	3751
825.228	3698
825.368	3542
825.508	3568
825.648	3553
825.787	3622
825.927	3644
826.067	3618
826.206	3682
826.346	3812
826.485	3854
826.625	3854
826.765	3922
826.904	3873
827.044	3656
827.183	3538
827.323	3443
827.462	3496
827.601	3420
827.741	3435
827.88	3504
828.02	3386
828.159	3420
828.298	3519
828.437	3519
828.577	3450
828.716	3622
828.855	3564
828.994	3374
829.134	3374
829.273	3374
829.412	3363
829.551	3336
829.69	3310
829.829	3492
829.968	3519
830.107	3382
830.246	3492
830.385	3428
830.524	3351
830.663	3325
830.802	3272
830.941	3230
831.08	3180
831.219	3283
831.357	3256
831.496	3485
831.635	3253
831.774	3203
831.913	3245
832.051	3123
832.19	3150
832.329	3195
832.467	3123
832.606	3097
832.744	3180
832.883	3180
833.022	3203
833.16	3264
833.299	3313
833.437	3363
833.576	3370
833.714	3416
833.852	3409
833.991	3435
834.129	3458
834.267	3389
834.406	3412
834.544	3416
834.682	3409
834.821	3378
834.959	3587
835.097	3416
835.235	3526
835.373	3542
835.511	3485
835.65	3450
835.788	3504
835.926	3469
836.064	3424
836.202	3420
836.34	3572
836.478	3606
836.615	3519
836.753	3656
836.891	3656
837.029	3603
837.167	3603
837.305	3557
837.443	3500
837.58	3515
837.718	3633
837.856	3542
837.993	3553
838.131	3576
838.269	3584
838.406	3584
838.544	3545
838.681	3443
838.819	3420
838.956	3363
839.094	3389
839.231	3435
839.369	3530
839.506	3797
839.643	3644
839.781	3519
839.918	3469
840.055	3511
840.193	3545
840.33	3488
840.467	3538
840.604	3625
840.742	3823
840.879	3557
841.016	3576
841.153	3599
841.29	3740
841.427	3724
841.564	3717
841.701	3781
841.838	3736
841.975	3724
842.112	3732
842.249	3637
842.385	3679
842.522	3819
842.659	3690
842.796	3633
842.933	3709
843.069	3717
843.206	3751
843.343	3819
843.479	3842
843.616	3854
843.752	3663
843.889	3637
844.025	3861
844.162	3709
844.298	3835
844.435	3804
844.571	3778
844.708	3888
844.844	3979
844.98	4055
845.117	3998
845.253	3937
845.389	3896
845.525	3956
845.661	3968
845.798	3960
845.934	3998
846.07	3949
846.206	4010
846.342	4150
846.478	4090
846.614	4036
846.75	3926
846.886	3930
847.022	4036
847.158	4017
847.294	4017
847.429	4002
847.565	3968
847.701	4265
847.837	3876
847.972	3903
848.108	3979
848.244	3972
848.379	3876
848.515	3808
848.65	3812
848.786	3884
848.921	3846
849.057	3960
849.192	3960
849.328	3907
849.463	3941
849.598	3888
849.734	3869
849.869	3873
850.004	3823
850.14	3835
850.275	3774
850.41	3781
850.545	3785
850.68	3732
850.815	3766
850.95	3808
851.085	3941
851.22	3865
851.355	3823
851.49	3808
851.625	3781
851.76	3812
851.895	3740
852.03	3747
852.165	3797
852.299	3819
852.434	3922
852.569	3884
852.703	3915
852.838	3945
852.973	4036
853.107	4063
853.242	3884
853.376	3842
853.511	3743
853.645	3846
853.78	3960
853.914	3922
854.048	3915
854.183	3915
854.317	3972
854.451	4154
854.585	3972
854.72	3979
854.854	4048
854.988	4006
855.122	4006
855.256	3926
855.39	4021
855.524	4128
855.658	4101
855.792	4120
855.926	4166
856.06	4185
856.194	4211
856.327	4169
856.461	4090
856.595	4139
856.729	4204
856.862	4390
856.996	4234
857.13	4291
857.263	4337
857.397	4390
857.53	4287
857.664	4337
857.797	4383
857.931	4443
858.064	4394
858.197	4455
858.331	4402
858.464	4440
858.597	4352
858.731	4459
858.864	4432
858.997	4428
859.13	4577
859.263	4546
859.396	4656
859.529	4500
859.662	4523
859.795	4538
859.928	4607
860.061	4694
860.194	4725
860.327	4691
860.46	4679
860.592	4744
860.725	4790
860.858	4828
860.99	4763
861.123	4725
861.256	4733
861.388	4771
861.521	5414
861.653	4740
861.786	4694
861.918	4771
862.05	4797
862.183	4805
862.315	4900
862.447	4949
862.58	4858
862.712	4801
862.844	4774
862.976	4896
863.108	4896
863.24	5296
863.372	4858
863.504	4862
863.636	4908
863.768	4987
863.9	5037
864.032	4908
864.164	4957
864.296	5052
864.428	5045
864.559	5064
864.691	5083
864.823	5102
864.954	5143
865.086	5166
865.217	5208
865.349	5155
865.48	5193
865.612	5174
865.743	5315
865.875	5220
866.006	5197
866.137	5280
866.269	5261
866.4	5242
866.531	5322
866.662	5178
866.793	5227
866.924	5307
867.055	5372
867.186	5303
867.317	5353
867.448	5353
867.579	5429
867.71	5376
867.841	5395
867.972	5478
868.103	5520
868.233	5532
868.364	5497
868.495	5520
868.625	5661
868.756	5794
868.886	5680
869.017	5748
869.147	5828
869.278	5847
869.408	5855
869.539	5840
869.669	5920
869.799	5920
869.929	6015
870.06	5999
870.19	6178
870.32	6136
870.45	6239
870.58	6369
870.71	6456
870.84	6521
870.97	6494
871.1	6437
871.23	6673
871.36	6692
871.489	6631
871.619	6757
871.749	6837
871.879	6901
872.008	7069
872.138	6977
872.267	7004
872.397	6947
872.526	7000
872.656	7160
872.785	7228
872.915	7362
873.044	7510
873.173	7540
873.303	7544
873.432	7769
873.561	7921
873.69	7928
873.819	8054
873.948	8191
874.077	8263
874.206	8355
874.335	8450
874.464	8659
874.593	8921
874.722	8925
874.851	9203
874.979	9222
875.108	9367
875.237	9435
875.365	9530
875.494	9633
875.623	9835
875.751	9915
875.88	10040
876.008	10169
876.136	10246
876.265	10523
876.393	10790
876.521	10767
876.65	10786
876.778	10866
876.906	10869
877.034	11056
877.162	11155
877.29	11204
877.418	11277
877.546	11398
877.674	11402
877.802	11444
877.93	11551
878.058	11566
878.185	11627
878.313	11653
878.441	11741
878.568	11600
878.696	11783
878.824	11874
878.951	11836
879.079	12026
879.206	12098
879.333	12015
879.461	12064
879.588	12045
879.715	12144
879.842	12224
879.97	12178
880.097	11870
880.224	11908
880.351	11859
880.478	11866
880.605	11824
880.732	11805
880.859	11927
880.986	11805
881.112	11882
881.239	11707
881.366	11668
881.493	11634
881.619	11554
881.746	11661
881.872	11543
881.999	11547
882.125	11471
882.252	11512
882.378	11577
882.505	11543
882.631	11455
882.757	11318
882.883	11337
883.01	11246
883.136	11189
883.262	11128
883.388	11113
883.514	11197
883.64	11132
883.766	11086
883.892	10972
884.018	11014
884.143	11124
884.269	11079
884.395	10938
884.52	10752
884.646	10793
884.772	10694
884.897	10687
885.023	10733
885.148	10828
885.274	10854
885.399	10694
885.524	10618
885.65	10592
885.775	10519
885.9	10584
886.025	10535
886.15	10611
886.275	10451
886.4	10398
886.525	10367
886.65	10421
886.775	10421
886.9	10451
887.025	10588
887.149	10367
887.274	10227
887.399	10192
887.523	10135
887.648	10139
887.773	10211
887.897	10227
888.021	10268
888.146	10143
888.27	10158
888.395	10207
888.519	10215
888.643	10169
888.767	10147
888.891	10135
889.015	9964
889.139	10074
889.263	10036
889.387	10025
889.511	10093
889.635	10063
889.759	9994
889.883	9945
890.006	9975
890.13	10112
890.254	9983
890.377	9918
890.501	9850
890.624	9827
890.748	9907
890.871	9770
890.995	9747
891.118	9781
891.241	9736
891.364	9759
891.488	9903
891.611	9751
891.734	9835
891.857	9751
891.98	9713
892.103	9766
892.226	9705
892.349	9682
892.471	9507
892.594	9610
892.717	9584
892.839	9591
892.962	9603
893.085	9644
893.207	9553
893.33	9477
893.452	9485
893.575	9641
893.697	9428
893.819	9644
893.941	9618
894.064	9610
894.186	9416
894.308	9435
894.43	9504
894.552	9557
894.674	9523
894.796	9466
894.918	9435
895.04	9386
895.161	9382
895.283	9370
895.405	9233
895.526	9253
895.648	9237
895.769	9237
895.891	9336
896.012	9325
896.134	9237
896.255	9222
896.376	9116
896.498	9230
896.619	9154
896.74	9138
896.861	9112
896.982	9214
897.103	9294
897.224	9169
897.345	9112
897.466	9043
897.587	9020
897.708	9135
897.828	9017
897.949	8861
898.07	8883
898.19	8895
898.311	9005
898.431	8918
898.552	8902
898.672	8967
898.792	8948
898.913	8830
899.033	8746
899.153	8743
899.273	8701
899.393	8735
899.513	8804
899.633	8766
899.753	8731
899.873	8731
899.993	8746
900.113	8651
900.232	8705
900.352	8739
900.472	8598
900.591	8594
900.711	8651
900.83	8602
900.95	8686
901.069	8712
901.189	8564
901.308	8427
901.427	8434
901.546	8431
901.665	8465
901.784	8518
901.904	8408
902.023	8358
902.141	8252
902.26	8244
902.379	8275
902.498	8225
902.617	8256
902.735	8313
902.854	8286
902.973	8263
903.091	8172
903.21	8123
903.328	8172
903.446	8058
903.565	8084
903.683	8073
903.801	8050
903.919	8126
904.038	8161
904.156	8077
904.274	8073
904.392	8016
904.51	8050
904.627	8001
904.745	8092
904.863	8031
904.981	7963
905.098	7925
905.216	7936
905.334	7921
905.451	7925
905.569	7887
905.686	7909
905.803	7932
905.921	7765
906.038	7860
906.155	7765
906.272	7681
906.389	7723
906.506	7658
906.623	7636
906.74	7590
906.857	7578
906.974	7540
907.091	7719
907.208	7719
907.324	7609
907.441	7563
907.557	7480
907.674	7438
907.79	7419
907.907	7358
908.023	7381
908.139	7419
908.256	7388
908.372	7320
908.488	7358
908.604	7308
908.72	7289
908.836	7316
908.952	7251
909.068	7270
909.184	7293
909.3	7297
909.415	7251
909.531	7293
909.647	7133
909.762	7160
909.878	7107
909.993	7118
910.108	7103
910.224	7061
910.339	7080
910.454	7034
910.57	6996
910.685	7004
910.8	7160
910.915	7091
911.03	7042
911.145	6905
911.259	6871
911.374	6970
911.489	6833
911.604	6791
911.718	6707
911.833	6768
911.947	6627
912.062	6608
912.176	6711
912.291	6726
912.405	6703
912.519	6840
912.633	6829
912.748	6787
912.862	6681
912.976	6616
913.09	6582
913.204	6658
913.318	6608
913.431	6616
913.545	6662
913.659	6722
913.772	6631
913.886	6604
914	6597
914.113	6642
914.226	6662
914.34	6612
914.453	6521
914.566	6612
914.68	6578
914.793	6517
914.906	6372
915.019	6376
915.132	6414
915.245	6433
915.358	6437
915.47	6437
915.583	6525
915.696	6445
915.809	6544
915.921	6525
916.034	6475
916.146	6464
916.259	6426
916.371	6475
916.483	6513
916.595	6471
916.708	6395
916.82	6365
916.932	6410
917.044	6327
917.156	6422
917.268	6296
917.38	6372
917.491	6323
917.603	6315
917.715	6361
917.826	6418
917.938	6311
918.049	6247
918.161	6334
918.272	6391
918.384	6506
918.495	6410
918.606	6251
918.717	6232
918.828	6216
918.939	6308
919.05	6228
919.161	6235
919.272	6167
919.383	6209
919.494	6285
919.604	6486
919.715	6350
919.826	6155
919.936	6216
920.047	6346
920.157	6266
920.267	6418
920.378	6311
920.488	6323
920.598	6422
920.708	6544
920.818	6456
920.928	6410
921.038	6623
921.148	6589
921.258	6361
921.368	6270
921.477	6205
921.587	6201
921.697	6106
921.806	6182
921.916	6102
922.025	5908
922.134	5893
922.244	5923
922.353	5923
922.462	5874
922.571	5817
922.68	5741
922.789	5638
922.898	5710
923.007	5627
923.116	5733
923.224	5722
923.333	5661
923.442	5668
923.55	5573
923.659	5619
923.767	5623
923.876	5619
923.984	5638
924.092	5551
924.201	5627
924.309	5558
924.417	5592
924.525	5486
924.633	5516
924.741	6258
924.849	5410
924.956	5509
925.064	5360
925.172	5349
925.279	5296
925.387	5379
925.494	5330
925.602	5391
925.709	5402
925.816	5273
925.924	5357
926.031	5311
926.138	5296
926.245	5341
926.352	5269
926.459	5345
926.566	5273
926.673	5220
926.779	5140
926.886	5117
926.993	5064
927.099	5033
927.206	4987
927.312	4961
927.419	5041
927.525	4999
927.631	4965
927.737	4904
927.843	4835
927.95	4816
928.056	4793
928.162	4835
928.267	4877
928.373	5334
928.479	4866
928.585	4679
928.69	4786
928.796	4778
928.901	4668
929.007	4664
929.112	4649
929.218	4668
929.323	4596
929.428	4577
929.533	4668
929.638	4542
929.743	4561
929.848	4603
929.953	4531
930.058	4466
930.163	4379
930.267	4371
930.372	4447
930.477	4341
930.581	4481
930.685	4379
930.79	4253
930.894	4333
930.998	4246
931.103	4394
931.207	4162
931.311	4074
931.415	4048
931.519	3941
931.623	3949
