Data from glass_V78500241_2247.txt Node
Date: Wed Sep 01 19:30:04 CST 2021
User: usil
Spectrometer: V785-0024
Trigger mode: 0
Integration Time (sec): 4.000000E-1
Scans to average: 1
Nonlinearity correction enabled: false
Boxcar width: 0
Storing dark spectrum: false
XAxis mode: Wavelengths
Number of Pixels in Spectrum: 1024
>>>>>Begin Spectral Data<<<<<
801.071	3717
801.214	3724
801.356	3698
801.499	3724
801.641	3728
801.783	3789
801.926	3827
802.068	3842
802.211	3888
802.353	3835
802.496	3831
802.638	3869
802.78	3888
802.923	3918
803.065	3918
803.208	3873
803.35	3888
803.492	3869
803.635	3915
803.777	3789
803.919	3873
804.061	4135
804.204	3953
804.346	3937
804.488	3861
804.63	4021
804.773	3979
804.915	3998
805.057	4120
805.199	4029
805.341	4071
805.483	4097
805.626	4101
805.768	4105
805.91	4200
806.052	4234
806.194	4234
806.336	4386
806.478	4249
806.62	4188
806.762	4112
806.904	4287
807.046	4333
807.188	4246
807.33	4196
807.472	4223
807.614	4154
807.756	4280
807.898	4238
808.04	4238
808.182	4234
808.324	4329
808.465	4428
808.607	4508
808.749	4413
808.891	4516
809.033	4500
809.174	4371
809.316	4276
809.458	4238
809.6	4112
809.741	4154
809.883	4120
810.025	4166
810.166	4219
810.308	4196
810.45	4280
810.591	4265
810.733	4249
810.875	4519
811.016	4809
811.158	5098
811.299	5235
811.441	5273
811.582	5037
811.724	4717
811.865	4462
812.007	4512
812.148	4447
812.29	4421
812.431	4367
812.573	4451
812.714	4394
812.855	4379
812.997	4447
813.138	4474
813.279	4379
813.421	4436
813.562	4352
813.703	4314
813.845	4337
813.986	4303
814.127	4204
814.268	4280
814.41	4268
814.551	4284
814.692	4299
814.833	4249
814.974	4287
815.115	4352
815.256	4291
815.397	4215
815.539	4234
815.68	4166
815.821	4204
815.962	4322
816.103	4268
816.244	4242
816.385	4207
816.526	4291
816.666	4257
816.807	4124
816.948	4147
817.089	4185
817.23	4124
817.371	4032
817.512	4059
817.653	4067
817.793	4032
817.934	4040
818.075	4093
818.216	4067
818.356	4048
818.497	3991
818.638	3899
818.778	3930
818.919	3873
819.06	3838
819.2	3869
819.341	3869
819.481	3846
819.622	3945
819.762	4032
819.903	3945
820.043	3842
820.184	3869
820.324	3793
820.465	3816
820.605	3854
820.746	3827
820.886	3785
821.026	3949
821.167	3937
821.307	3994
821.447	3991
821.588	3953
821.728	3949
821.868	3899
822.008	3876
822.149	3937
822.289	3880
822.429	3736
822.569	3743
822.709	3743
822.849	3679
822.99	3732
823.13	3740
823.27	3743
823.41	3660
823.55	3717
823.69	3732
823.83	3728
823.97	3686
824.11	3610
824.25	3549
824.389	3637
824.529	3690
824.669	3629
824.809	3694
824.949	3770
825.089	3717
825.228	3698
825.368	3580
825.508	3564
825.648	3564
825.787	3618
825.927	3644
826.067	3633
826.206	3660
826.346	3755
826.485	3842
826.625	3808
826.765	3922
826.904	3876
827.044	3614
827.183	3511
827.323	3447
827.462	3473
827.601	3416
827.741	3412
827.88	3454
828.02	3393
828.159	3450
828.298	3496
828.437	3564
828.577	3511
828.716	3564
828.855	3488
828.994	3409
829.134	3389
829.273	3386
829.412	3351
829.551	3351
829.69	3348
829.829	3439
829.968	3542
830.107	3469
830.246	3454
830.385	3424
830.524	3370
830.663	3291
830.802	3245
830.941	3184
831.08	3142
831.219	3264
831.357	3291
831.496	3431
831.635	3218
831.774	3214
831.913	3180
832.051	3131
832.19	3165
832.329	3218
832.467	3127
832.606	3112
832.744	3138
832.883	3203
833.022	3184
833.16	3264
833.299	3313
833.437	3306
833.576	3363
833.714	3367
833.852	3435
833.991	3405
834.129	3492
834.267	3409
834.406	3374
834.544	3420
834.682	3370
834.821	3409
834.959	3587
835.097	3409
835.235	3492
835.373	3477
835.511	3500
835.65	3431
835.788	3485
835.926	3397
836.064	3382
836.202	3393
836.34	3564
836.478	3591
836.615	3557
836.753	3603
836.891	3625
837.029	3614
837.167	3587
837.305	3507
837.443	3504
837.58	3485
837.718	3618
837.856	3591
837.993	3534
838.131	3610
838.269	3542
838.406	3572
838.544	3557
838.681	3439
838.819	3412
838.956	3393
839.094	3393
839.231	3405
839.369	3515
839.506	3720
839.643	3610
839.781	3439
839.918	3462
840.055	3526
840.193	3538
840.33	3538
840.467	3545
840.604	3587
840.742	3808
840.879	3580
841.016	3553
841.153	3606
841.29	3766
841.427	3675
841.564	3740
841.701	3743
841.838	3682
841.975	3652
842.112	3720
842.249	3603
842.385	3637
842.522	3819
842.659	3675
842.796	3652
842.933	3671
843.069	3713
843.206	3720
843.343	3766
843.479	3766
843.616	3774
843.752	3652
843.889	3686
844.025	3896
844.162	3686
844.298	3842
844.435	3789
844.571	3831
844.708	3869
844.844	3975
844.98	4029
845.117	4044
845.253	3915
845.389	3873
845.525	3960
845.661	3972
845.798	3899
845.934	3975
846.07	3964
846.206	4078
846.342	4090
846.478	4063
846.614	3922
846.75	3907
846.886	3930
847.022	4055
847.158	3964
847.294	3968
847.429	3987
847.565	3983
847.701	4246
847.837	3869
847.972	3842
848.108	3975
848.244	3949
848.379	3876
848.515	3838
848.65	3800
848.786	3812
848.921	3838
849.057	3896
849.192	3930
849.328	3880
849.463	3880
849.598	3854
849.734	3823
849.869	3781
850.004	3789
850.14	3804
850.275	3827
850.41	3751
850.545	3778
850.68	3797
850.815	3793
850.95	3804
851.085	3918
851.22	3835
851.355	3800
851.49	3800
851.625	3816
851.76	3804
851.895	3785
852.03	3717
852.165	3816
852.299	3842
852.434	3922
852.569	3873
852.703	3857
852.838	3899
852.973	4025
853.107	3968
853.242	3903
853.376	3819
853.511	3740
853.645	3846
853.78	3979
853.914	3907
854.048	3880
854.183	3869
854.317	3903
854.451	4040
854.585	3930
854.72	3915
854.854	4071
854.988	3983
855.122	3991
855.256	3922
855.39	4002
855.524	4101
855.658	4097
855.792	4116
855.926	4101
856.06	4143
856.194	4207
856.327	4173
856.461	4086
856.595	4185
856.729	4154
856.862	4284
856.996	4204
857.13	4303
857.263	4314
857.397	4341
857.53	4284
857.664	4348
857.797	4394
857.931	4398
858.064	4394
858.197	4436
858.331	4352
858.464	4383
858.597	4306
858.731	4402
858.864	4413
858.997	4413
859.13	4516
859.263	4538
859.396	4561
859.529	4478
859.662	4493
859.795	4481
859.928	4611
860.061	4687
860.194	4759
860.327	4611
860.46	4660
860.592	4698
860.725	4748
860.858	4774
860.99	4683
861.123	4634
861.256	4664
861.388	4763
861.521	5299
861.653	4698
861.786	4679
861.918	4725
862.05	4767
862.183	4824
862.315	4877
862.447	4915
862.58	4850
862.712	4774
862.844	4752
862.976	4873
863.108	4866
863.24	5155
863.372	4843
863.504	4870
863.636	4900
863.768	4953
863.9	4930
864.032	4949
864.164	5003
864.296	4991
864.428	5113
864.559	5075
864.691	5136
864.823	5105
864.954	5090
865.086	5128
865.217	5079
865.349	5128
865.48	5136
865.612	5239
865.743	5311
865.875	5181
866.006	5208
866.137	5265
866.269	5250
866.4	5258
866.531	5197
866.662	5239
866.793	5212
866.924	5307
867.055	5296
867.186	5353
867.317	5307
867.448	5349
867.579	5383
867.71	5410
867.841	5357
867.972	5433
868.103	5444
868.233	5516
868.364	5436
868.495	5551
868.625	5710
868.756	5783
868.886	5653
869.017	5733
869.147	5878
869.278	5821
869.408	5794
869.539	5786
869.669	5927
869.799	5904
869.929	5935
870.06	6068
870.19	6178
870.32	6171
870.45	6251
870.58	6357
870.71	6410
870.84	6486
870.97	6391
871.1	6422
871.23	6597
871.36	6726
871.489	6612
871.619	6734
871.749	6848
871.879	6875
872.008	6962
872.138	7015
872.267	6989
872.397	6920
872.526	6966
872.656	7103
872.785	7187
872.915	7388
873.044	7480
873.173	7567
873.303	7586
873.432	7655
873.561	7906
873.69	7921
873.819	8020
873.948	8157
874.077	8263
874.206	8332
874.335	8434
874.464	8712
874.593	8872
874.722	8899
874.851	9123
874.979	9268
875.108	9340
875.237	9382
875.365	9416
875.494	9557
875.623	9819
875.751	9895
875.88	9934
876.008	10036
876.136	10276
876.265	10440
876.393	10740
876.521	10664
876.65	10755
876.778	10923
876.906	10908
877.034	11018
877.162	11071
877.29	11117
877.418	11277
877.546	11337
877.674	11376
877.802	11360
877.93	11512
878.058	11535
878.185	11490
878.313	11573
878.441	11665
878.568	11596
878.696	11794
878.824	11874
878.951	11923
879.079	11969
879.206	12068
879.333	12011
879.461	11980
879.588	12057
879.715	12106
879.842	12232
879.97	11946
880.097	11851
880.224	11836
880.351	11828
880.478	11980
880.605	11809
880.732	11790
880.859	11969
880.986	11752
881.112	11802
881.239	11684
881.366	11695
881.493	11623
881.619	11520
881.746	11573
881.872	11471
881.999	11478
882.125	11474
882.252	11573
882.378	11520
882.505	11524
882.631	11246
882.757	11239
882.883	11364
883.01	11189
883.136	11147
883.262	11121
883.388	11079
883.514	11140
883.64	11166
883.766	11128
883.892	10995
884.018	10965
884.143	10984
884.269	11010
884.395	10862
884.52	10744
884.646	10710
884.772	10694
884.897	10653
885.023	10660
885.148	10679
885.274	10771
885.399	10698
885.524	10653
885.65	10569
885.775	10580
885.9	10550
886.025	10565
886.15	10577
886.275	10402
886.4	10356
886.525	10356
886.65	10402
886.775	10348
886.9	10459
887.025	10443
887.149	10432
887.274	10177
887.399	10169
887.523	10169
887.648	10101
887.773	10063
887.897	10249
888.021	10166
888.146	10147
888.27	10215
888.395	10120
888.519	10169
888.643	10234
888.767	10196
888.891	10025
889.015	10006
889.139	10109
889.263	10017
889.387	10097
889.511	10101
889.635	10082
889.759	10006
889.883	9975
890.006	10051
890.13	10082
890.254	9968
890.377	9953
890.501	9800
890.624	9857
890.748	9907
890.871	9846
890.995	9724
891.118	9717
891.241	9743
891.364	9732
891.488	9823
891.611	9778
891.734	9694
891.857	9682
891.98	9793
892.103	9797
892.226	9732
892.349	9701
892.471	9530
892.594	9564
892.717	9584
892.839	9614
892.962	9629
893.085	9610
893.207	9644
893.33	9515
893.452	9523
893.575	9584
893.697	9485
893.819	9603
893.941	9576
894.064	9568
894.186	9443
894.308	9439
894.43	9507
894.552	9561
894.674	9481
894.796	9374
894.918	9428
895.04	9310
895.161	9382
895.283	9348
895.405	9256
895.526	9264
895.648	9226
895.769	9272
895.891	9233
896.012	9272
896.134	9157
896.255	9138
896.376	9135
896.498	9142
896.619	9100
896.74	8990
896.861	9020
896.982	9241
897.103	9355
897.224	9199
897.345	9074
897.466	8944
897.587	9085
897.708	9131
897.828	8975
897.949	9001
898.07	8880
898.19	8891
898.311	9013
898.431	8906
898.552	8948
898.672	8967
898.792	8925
898.913	8883
899.033	8766
899.153	8754
899.273	8617
899.393	8659
899.513	8731
899.633	8731
899.753	8754
899.873	8735
899.993	8674
900.113	8659
900.232	8651
900.352	8648
900.472	8598
900.591	8617
900.711	8587
900.83	8503
900.95	8636
901.069	8705
901.189	8552
901.308	8442
901.427	8377
901.546	8393
901.665	8480
901.784	8431
901.904	8400
902.023	8381
902.141	8256
902.26	8237
902.379	8275
902.498	8199
902.617	8149
902.735	8336
902.854	8229
902.973	8271
903.091	8142
903.21	8069
903.328	8100
903.446	8008
903.565	8107
903.683	8077
903.801	8012
903.919	8088
904.038	8100
904.156	8058
904.274	8107
904.392	8016
904.51	8092
904.627	8058
904.745	8001
904.863	8153
904.981	7936
905.098	7868
905.216	7856
905.334	7871
905.451	7845
905.569	7852
905.686	7917
905.803	7940
905.921	7814
906.038	7814
906.155	7822
906.272	7723
906.389	7708
906.506	7590
906.623	7647
906.74	7605
906.857	7552
906.974	7533
907.091	7628
907.208	7685
907.324	7601
907.441	7540
907.557	7472
907.674	7430
907.79	7339
907.907	7316
908.023	7354
908.139	7460
908.256	7354
908.372	7327
908.488	7308
908.604	7301
908.72	7270
908.836	7324
908.952	7255
909.068	7202
909.184	7384
909.3	7255
909.415	7308
909.531	7282
909.647	7168
909.762	7099
909.878	7061
909.993	7107
910.108	7107
910.224	7023
910.339	7034
910.454	7050
910.57	7000
910.685	6996
910.8	7129
910.915	7099
911.03	7069
911.145	6928
911.259	6878
911.374	6939
911.489	6829
911.604	6760
911.718	6715
911.833	6719
911.947	6662
912.062	6585
912.176	6719
912.291	6722
912.405	6650
912.519	6802
912.633	6791
912.748	6719
912.862	6608
912.976	6623
913.09	6532
913.204	6566
913.318	6585
913.431	6650
913.545	6719
913.659	6696
913.772	6662
913.886	6623
914	6544
914.113	6623
914.226	6616
914.34	6547
914.453	6490
914.566	6532
914.68	6502
914.793	6429
914.906	6380
915.019	6380
915.132	6372
915.245	6323
915.358	6418
915.47	6448
915.583	6475
915.696	6464
915.809	6547
915.921	6593
916.034	6403
916.146	6410
916.259	6357
916.371	6456
916.483	6479
916.595	6388
916.708	6407
916.82	6350
916.932	6388
917.044	6350
917.156	6441
917.268	6350
917.38	6296
917.491	6342
917.603	6365
917.715	6445
917.826	6418
917.938	6285
918.049	6296
918.161	6353
918.272	6426
918.384	6498
918.495	6334
918.606	6304
918.717	6216
918.828	6235
918.939	6311
919.05	6194
919.161	6243
919.272	6125
919.383	6144
919.494	6315
919.604	6327
919.715	6285
919.826	6190
919.936	6175
920.047	6315
920.157	6235
920.267	6410
920.378	6350
920.488	6201
920.598	6471
920.708	6525
920.818	6441
920.928	6467
921.038	6654
921.148	6585
921.258	6369
921.368	6327
921.477	6155
921.587	6129
921.697	6148
921.806	6152
921.916	6064
922.025	5893
922.134	5927
922.244	5920
922.353	5984
922.462	5836
922.571	5775
922.68	5726
922.789	5680
922.898	5672
923.007	5649
923.116	5760
923.224	5684
923.333	5623
923.442	5570
923.55	5592
923.659	5566
923.767	5665
923.876	5551
923.984	5577
924.092	5482
924.201	5566
924.309	5566
924.417	5551
924.525	5490
924.633	5493
924.741	6209
924.849	5322
924.956	5482
925.064	5322
925.172	5322
925.279	5273
925.387	5315
925.494	5326
925.602	5471
925.709	5357
925.816	5269
925.924	5299
926.031	5379
926.138	5284
926.245	5326
926.352	5231
926.459	5334
926.566	5341
926.673	5208
926.779	5083
926.886	5086
926.993	5014
927.099	5045
927.206	4938
927.312	4980
927.419	4984
927.525	4949
927.631	4980
927.737	4900
927.843	4843
927.95	4759
928.056	4831
928.162	4809
928.267	4828
928.373	5318
928.479	4812
928.585	4679
928.69	4778
928.796	4793
928.901	4687
929.007	4561
929.112	4634
929.218	4668
929.323	4588
929.428	4558
929.533	4664
929.638	4577
929.743	4508
929.848	4573
929.953	4504
930.058	4436
930.163	4337
930.267	4344
930.372	4485
930.477	4310
930.581	4440
930.685	4348
930.79	4284
930.894	4310
930.998	4284
931.103	4383
931.207	4131
931.311	4071
931.415	4021
931.519	3934
931.623	3949
