Data from glass_V78500241_2380.txt Node
Date: Wed Sep 01 19:30:59 CST 2021
User: usil
Spectrometer: V785-0024
Trigger mode: 0
Integration Time (sec): 4.000000E-1
Scans to average: 1
Nonlinearity correction enabled: false
Boxcar width: 0
Storing dark spectrum: false
XAxis mode: Wavelengths
Number of Pixels in Spectrum: 1024
>>>>>Begin Spectral Data<<<<<
801.071	3751
801.214	3759
801.356	3698
801.499	3709
801.641	3747
801.783	3755
801.926	3896
802.068	3842
802.211	3873
802.353	3903
802.496	3842
802.638	3854
802.78	3907
802.923	3953
803.065	3861
803.208	3835
803.35	3835
803.492	3907
803.635	3873
803.777	3816
803.919	3869
804.061	4105
804.204	3903
804.346	3968
804.488	3899
804.63	4029
804.773	3975
804.915	4032
805.057	4131
805.199	4044
805.341	4078
805.483	4162
805.626	4071
805.768	4086
805.91	4200
806.052	4219
806.194	4181
806.336	4337
806.478	4207
806.62	4154
806.762	4200
806.904	4234
807.046	4352
807.188	4185
807.33	4169
807.472	4246
807.614	4143
807.756	4242
807.898	4257
808.04	4215
808.182	4253
808.324	4295
808.465	4314
808.607	4466
808.749	4421
808.891	4432
809.033	4478
809.174	4379
809.316	4265
809.458	4234
809.6	4166
809.741	4128
809.883	4135
810.025	4204
810.166	4192
810.308	4177
810.45	4185
810.591	4219
810.733	4261
810.875	4485
811.016	4771
811.158	5151
811.299	5269
811.441	5296
811.582	5098
811.724	4714
811.865	4455
812.007	4516
812.148	4462
812.29	4405
812.431	4386
812.573	4440
812.714	4352
812.855	4421
812.997	4428
813.138	4447
813.279	4421
813.421	4303
813.562	4360
813.703	4341
813.845	4303
813.986	4253
814.127	4204
814.268	4249
814.41	4276
814.551	4257
814.692	4322
814.833	4276
814.974	4272
815.115	4363
815.256	4230
815.397	4257
815.539	4227
815.68	4200
815.821	4215
815.962	4329
816.103	4295
816.244	4268
816.385	4223
816.526	4314
816.666	4207
816.807	4086
816.948	4188
817.089	4181
817.23	4135
817.371	4063
817.512	4074
817.653	4093
817.793	4048
817.934	4017
818.075	4074
818.216	4051
818.356	4051
818.497	3987
818.638	3930
818.778	3888
818.919	3880
819.06	3892
819.2	3892
819.341	3846
819.481	3880
819.622	3907
819.762	4055
819.903	3956
820.043	3850
820.184	3793
820.324	3865
820.465	3880
820.605	3869
820.746	3857
820.886	3793
821.026	3960
821.167	3941
821.307	3964
821.447	4025
821.588	3922
821.728	3968
821.868	3956
822.008	3850
822.149	3884
822.289	3903
822.429	3797
822.569	3816
822.709	3759
822.849	3698
822.99	3705
823.13	3743
823.27	3755
823.41	3690
823.55	3732
823.69	3694
823.83	3789
823.97	3694
824.11	3637
824.25	3568
824.389	3656
824.529	3637
824.669	3591
824.809	3686
824.949	3705
825.089	3713
825.228	3690
825.368	3591
825.508	3538
825.648	3515
825.787	3618
825.927	3625
826.067	3625
826.206	3667
826.346	3759
826.485	3816
826.625	3838
826.765	3915
826.904	3774
827.044	3580
827.183	3519
827.323	3435
827.462	3481
827.601	3405
827.741	3443
827.88	3412
828.02	3340
828.159	3409
828.298	3485
828.437	3545
828.577	3481
828.716	3614
828.855	3469
828.994	3359
829.134	3363
829.273	3378
829.412	3359
829.551	3348
829.69	3351
829.829	3401
829.968	3496
830.107	3462
830.246	3412
830.385	3363
830.524	3336
830.663	3272
830.802	3230
830.941	3218
831.08	3195
831.219	3272
831.357	3253
831.496	3389
831.635	3211
831.774	3195
831.913	3169
832.051	3097
832.19	3154
832.329	3214
832.467	3146
832.606	3127
832.744	3203
832.883	3146
833.022	3176
833.16	3253
833.299	3291
833.437	3332
833.576	3389
833.714	3412
833.852	3447
833.991	3462
834.129	3473
834.267	3416
834.406	3382
834.544	3405
834.682	3431
834.821	3435
834.959	3530
835.097	3382
835.235	3561
835.373	3500
835.511	3492
835.65	3473
835.788	3450
835.926	3325
836.064	3393
836.202	3382
836.34	3530
836.478	3614
836.615	3545
836.753	3568
836.891	3641
837.029	3606
837.167	3595
837.305	3515
837.443	3519
837.58	3481
837.718	3591
837.856	3538
837.993	3530
838.131	3603
838.269	3564
838.406	3572
838.544	3572
838.681	3450
838.819	3462
838.956	3389
839.094	3370
839.231	3450
839.369	3523
839.506	3724
839.643	3641
839.781	3473
839.918	3447
840.055	3515
840.193	3549
840.33	3488
840.467	3534
840.604	3591
840.742	3816
840.879	3526
841.016	3553
841.153	3618
841.29	3766
841.427	3701
841.564	3701
841.701	3713
841.838	3701
841.975	3671
842.112	3694
842.249	3648
842.385	3671
842.522	3816
842.659	3713
842.796	3610
842.933	3732
843.069	3694
843.206	3705
843.343	3816
843.479	3781
843.616	3812
843.752	3633
843.889	3679
844.025	3876
844.162	3717
844.298	3838
844.435	3762
844.571	3770
844.708	3888
844.844	3964
844.98	4010
845.117	3987
845.253	3953
845.389	3918
845.525	3896
845.661	3964
845.798	3899
845.934	3964
846.07	3968
846.206	3994
846.342	4093
846.478	4025
846.614	3926
846.75	3930
846.886	3892
847.022	4029
847.158	3949
847.294	4017
847.429	3979
847.565	3949
847.701	4211
847.837	3899
847.972	3869
848.108	3949
848.244	3945
848.379	3838
848.515	3793
848.65	3804
848.786	3819
848.921	3865
849.057	3918
849.192	3903
849.328	3876
849.463	3922
849.598	3888
849.734	3903
849.869	3835
850.004	3789
850.14	3770
850.275	3789
850.41	3713
850.545	3720
850.68	3804
850.815	3785
850.95	3823
851.085	3922
851.22	3812
851.355	3854
851.49	3720
851.625	3774
851.76	3781
851.895	3774
852.03	3747
852.165	3808
852.299	3827
852.434	3880
852.569	3842
852.703	3896
852.838	3945
852.973	3949
853.107	3991
853.242	3857
853.376	3808
853.511	3732
853.645	3793
853.78	3918
853.914	3896
854.048	3884
854.183	3873
854.317	3983
854.451	4036
854.585	3918
854.72	3930
854.854	4029
854.988	3892
855.122	3975
855.256	3937
855.39	3994
855.524	4124
855.658	4078
855.792	4131
855.926	4097
856.06	4188
856.194	4227
856.327	4105
856.461	4128
856.595	4154
856.729	4150
856.862	4272
856.996	4230
857.13	4310
857.263	4287
857.397	4352
857.53	4337
857.664	4295
857.797	4375
857.931	4398
858.064	4371
858.197	4462
858.331	4405
858.464	4417
858.597	4341
858.731	4417
858.864	4466
858.997	4451
859.13	4489
859.263	4550
859.396	4584
859.529	4519
859.662	4516
859.795	4504
859.928	4584
860.061	4675
860.194	4733
860.327	4656
860.46	4607
860.592	4748
860.725	4736
860.858	4759
860.99	4698
861.123	4687
861.256	4675
861.388	4710
861.521	5448
861.653	4733
861.786	4675
861.918	4793
862.05	4793
862.183	4839
862.315	4847
862.447	4968
862.58	4831
862.712	4812
862.844	4744
862.976	4915
863.108	4866
863.24	5273
863.372	4847
863.504	4870
863.636	4877
863.768	4968
863.9	4972
864.032	4908
864.164	4949
864.296	5033
864.428	5067
864.559	5064
864.691	5109
864.823	5162
864.954	5132
865.086	5147
865.217	5143
865.349	5083
865.48	5197
865.612	5185
865.743	5269
865.875	5159
866.006	5166
866.137	5220
866.269	5162
866.4	5239
866.531	5181
866.662	5223
866.793	5284
866.924	5269
867.055	5368
867.186	5345
867.317	5360
867.448	5341
867.579	5372
867.71	5402
867.841	5364
867.972	5425
868.103	5429
868.233	5452
868.364	5433
868.495	5532
868.625	5680
868.756	5737
868.886	5638
869.017	5710
869.147	5844
869.278	5851
869.408	5779
869.539	5760
869.669	5946
869.799	5882
869.929	5999
870.06	6041
870.19	6232
870.32	6129
870.45	6228
870.58	6327
870.71	6380
870.84	6452
870.97	6448
871.1	6426
871.23	6654
871.36	6692
871.489	6642
871.619	6738
871.749	6810
871.879	6833
872.008	6985
872.138	6924
872.267	6970
872.397	7012
872.526	7000
872.656	7118
872.785	7179
872.915	7316
873.044	7468
873.173	7628
873.303	7567
873.432	7731
873.561	7772
873.69	7932
873.819	7989
873.948	8123
874.077	8294
874.206	8358
874.335	8507
874.464	8590
874.593	8838
874.722	8937
874.851	9165
874.979	9256
875.108	9287
875.237	9386
875.365	9526
875.494	9580
875.623	9831
875.751	9842
875.88	10025
876.008	10173
876.136	10234
876.265	10481
876.393	10630
876.521	10714
876.65	10881
876.778	10805
876.906	10923
877.034	10946
877.162	11041
877.29	11113
877.418	11299
877.546	11383
877.674	11391
877.802	11547
877.93	11524
878.058	11581
878.185	11474
878.313	11581
878.441	11722
878.568	11691
878.696	11786
878.824	11805
878.951	11920
879.079	11992
879.206	12091
879.333	12015
879.461	11927
879.588	12133
879.715	12106
879.842	12155
879.97	12117
880.097	11843
880.224	11866
880.351	11916
880.478	11874
880.605	11809
880.732	11786
880.859	11988
880.986	11794
881.112	11847
881.239	11741
881.366	11619
881.493	11524
881.619	11623
881.746	11592
881.872	11532
881.999	11467
882.125	11459
882.252	11581
882.378	11474
882.505	11535
882.631	11410
882.757	11311
882.883	11364
883.01	11208
883.136	11140
883.262	11166
883.388	11006
883.514	11220
883.64	11136
883.766	11109
883.892	10995
884.018	11025
884.143	11045
884.269	11113
884.395	10965
884.52	10771
884.646	10843
884.772	10744
884.897	10736
885.023	10637
885.148	10763
885.274	10691
885.399	10637
885.524	10653
885.65	10493
885.775	10561
885.9	10542
886.025	10596
886.15	10592
886.275	10421
886.4	10379
886.525	10371
886.65	10322
886.775	10333
886.9	10485
887.025	10504
887.149	10417
887.274	10211
887.399	10219
887.523	10120
887.648	10158
887.773	10071
887.897	10196
888.021	10173
888.146	10120
888.27	10192
888.395	10242
888.519	10169
888.643	10215
888.767	10242
888.891	10112
889.015	9953
889.139	10063
889.263	9895
889.387	10086
889.511	10139
889.635	10105
889.759	9930
889.883	9903
890.006	9975
890.13	10021
890.254	9937
890.377	10036
890.501	9838
890.624	9797
890.748	9876
890.871	9793
890.995	9740
891.118	9797
891.241	9785
891.364	9728
891.488	9861
891.611	9736
891.734	9759
891.857	9789
891.98	9656
892.103	9759
892.226	9740
892.349	9652
892.471	9492
892.594	9614
892.717	9614
892.839	9629
892.962	9599
893.085	9671
893.207	9507
893.33	9492
893.452	9473
893.575	9625
893.697	9530
893.819	9584
893.941	9660
894.064	9553
894.186	9405
894.308	9393
894.43	9458
894.552	9584
894.674	9523
894.796	9378
894.918	9386
895.04	9329
895.161	9272
895.283	9298
895.405	9203
895.526	9237
895.648	9272
895.769	9226
895.891	9268
896.012	9226
896.134	9249
896.255	9142
896.376	9161
896.498	9142
896.619	9081
896.74	9070
896.861	9138
896.982	9253
897.103	9317
897.224	9142
897.345	9085
897.466	8994
897.587	9024
897.708	9070
897.828	9017
897.949	8956
898.07	8838
898.19	8918
898.311	9058
898.431	8895
898.552	8914
898.672	9001
898.792	8937
898.913	8941
899.033	8883
899.153	8746
899.273	8701
899.393	8727
899.513	8724
899.633	8708
899.753	8727
899.873	8727
899.993	8785
900.113	8651
900.232	8686
900.352	8674
900.472	8564
900.591	8568
900.711	8560
900.83	8537
900.95	8644
901.069	8670
901.189	8602
901.308	8442
901.427	8408
901.546	8446
901.665	8457
901.784	8507
901.904	8355
902.023	8290
902.141	8183
902.26	8210
902.379	8313
902.498	8172
902.617	8214
902.735	8328
902.854	8336
902.973	8218
903.091	8119
903.21	8107
903.328	8107
903.446	8107
903.565	8077
903.683	8092
903.801	8027
903.919	8115
904.038	8157
904.156	8081
904.274	8046
904.392	8005
904.51	8111
904.627	8123
904.745	8077
904.863	8130
904.981	7951
905.098	7887
905.216	7875
905.334	7894
905.451	7917
905.569	7807
905.686	7925
905.803	7887
905.921	7784
906.038	7833
906.155	7769
906.272	7734
906.389	7681
906.506	7632
906.623	7636
906.74	7662
906.857	7563
906.974	7563
907.091	7689
907.208	7776
907.324	7639
907.441	7639
907.557	7415
907.674	7453
907.79	7407
907.907	7362
908.023	7480
908.139	7419
908.256	7312
908.372	7350
908.488	7384
908.604	7259
908.72	7194
908.836	7293
908.952	7251
909.068	7240
909.184	7305
909.3	7255
909.415	7255
909.531	7259
909.647	7099
909.762	7038
909.878	7103
909.993	7107
910.108	7114
910.224	7061
910.339	7133
910.454	7034
910.57	6996
910.685	6981
910.8	7080
910.915	7046
911.03	7031
911.145	6913
911.259	6909
911.374	6859
911.489	6829
911.604	6897
911.718	6719
911.833	6715
911.947	6635
912.062	6646
912.176	6650
912.291	6688
912.405	6700
912.519	6859
912.633	6776
912.748	6719
912.862	6715
912.976	6696
913.09	6509
913.204	6570
913.318	6604
913.431	6681
913.545	6631
913.659	6677
913.772	6616
913.886	6555
914	6494
914.113	6673
914.226	6639
914.34	6601
914.453	6506
914.566	6582
914.68	6513
914.793	6502
914.906	6471
915.019	6372
915.132	6407
915.245	6426
915.358	6452
915.47	6418
915.583	6422
915.696	6528
915.809	6452
915.921	6521
916.034	6365
916.146	6380
916.259	6395
916.371	6506
916.483	6437
916.595	6361
916.708	6357
916.82	6338
916.932	6372
917.044	6422
917.156	6380
917.268	6327
917.38	6308
917.491	6346
917.603	6399
917.715	6372
917.826	6399
917.938	6342
918.049	6292
918.161	6361
918.272	6414
918.384	6418
918.495	6334
918.606	6289
918.717	6190
918.828	6251
918.939	6243
919.05	6171
919.161	6266
919.272	6155
919.383	6171
919.494	6277
919.604	6395
919.715	6243
919.826	6224
919.936	6216
920.047	6296
920.157	6258
920.267	6452
920.378	6254
920.488	6281
920.598	6506
920.708	6551
920.818	6460
920.928	6448
921.038	6547
921.148	6574
921.258	6372
921.368	6296
921.477	6194
921.587	6163
921.697	6110
921.806	6175
921.916	6034
922.025	5916
922.134	5893
922.244	5821
922.353	5992
922.462	5809
922.571	5813
922.68	5699
922.789	5646
922.898	5707
923.007	5695
923.116	5710
923.224	5653
923.333	5642
923.442	5547
923.55	5558
923.659	5570
923.767	5634
923.876	5497
923.984	5581
924.092	5501
924.201	5589
924.309	5512
924.417	5543
924.525	5452
924.633	5452
924.741	6270
924.849	5345
924.956	5429
925.064	5345
925.172	5311
925.279	5360
925.387	5372
925.494	5307
925.602	5357
925.709	5318
925.816	5349
925.924	5250
926.031	5303
926.138	5345
926.245	5337
926.352	5231
926.459	5315
926.566	5265
926.673	5216
926.779	5102
926.886	5136
926.993	5018
927.099	5010
927.206	4972
927.312	4995
927.419	5033
927.525	5022
927.631	4953
927.737	4930
927.843	4839
927.95	4736
928.056	4774
928.162	4797
928.267	4805
928.373	5258
928.479	4820
928.585	4672
928.69	4786
928.796	4774
928.901	4668
929.007	4596
929.112	4694
929.218	4634
929.323	4603
929.428	4580
929.533	4660
929.638	4493
929.743	4516
929.848	4561
929.953	4497
930.058	4436
930.163	4325
930.267	4329
930.372	4432
930.477	4299
930.581	4451
930.685	4356
930.79	4223
930.894	4348
930.998	4234
931.103	4375
931.207	4128
931.311	4071
931.415	4013
931.519	3892
931.623	3941
