Data from glass_V78500241_67.txt Node
Date: Wed Sep 01 19:14:57 CST 2021
User: usil
Spectrometer: V785-0024
Trigger mode: 0
Integration Time (sec): 4.000000E-1
Scans to average: 1
Nonlinearity correction enabled: false
Boxcar width: 0
Storing dark spectrum: false
XAxis mode: Wavelengths
Number of Pixels in Spectrum: 1024
>>>>>Begin Spectral Data<<<<<
801.071	3736
801.214	3789
801.356	3740
801.499	3774
801.641	3724
801.783	3778
801.926	3884
802.068	3854
802.211	3899
802.353	3915
802.496	3884
802.638	3854
802.78	3926
802.923	3975
803.065	3918
803.208	3884
803.35	3880
803.492	3937
803.635	3956
803.777	3800
803.919	3922
804.061	4143
804.204	3956
804.346	3941
804.488	3930
804.63	4006
804.773	3991
804.915	4029
805.057	4116
805.199	4105
805.341	4109
805.483	4162
805.626	4169
805.768	4143
805.91	4204
806.052	4249
806.194	4211
806.336	4341
806.478	4219
806.62	4196
806.762	4211
806.904	4291
807.046	4405
807.188	4246
807.33	4200
807.472	4287
807.614	4207
807.756	4261
807.898	4246
808.04	4207
808.182	4299
808.324	4318
808.465	4398
808.607	4489
808.749	4489
808.891	4493
809.033	4497
809.174	4421
809.316	4284
809.458	4234
809.6	4185
809.741	4112
809.883	4143
810.025	4234
810.166	4242
810.308	4238
810.45	4246
810.591	4257
810.733	4402
810.875	4497
811.016	4839
811.158	5132
811.299	5307
811.441	5254
811.582	5086
811.724	4668
811.865	4485
812.007	4535
812.148	4451
812.29	4417
812.431	4413
812.573	4424
812.714	4352
812.855	4455
812.997	4432
813.138	4489
813.279	4421
813.421	4360
813.562	4375
813.703	4360
813.845	4360
813.986	4257
814.127	4204
814.268	4287
814.41	4261
814.551	4261
814.692	4329
814.833	4272
814.974	4284
815.115	4344
815.256	4272
815.397	4257
815.539	4272
815.68	4234
815.821	4223
815.962	4303
816.103	4280
816.244	4234
816.385	4219
816.526	4299
816.666	4227
816.807	4086
816.948	4192
817.089	4200
817.23	4139
817.371	4086
817.512	4071
817.653	4040
817.793	4071
817.934	4036
818.075	4131
818.216	4086
818.356	4097
818.497	4059
818.638	3953
818.778	3930
818.919	3930
819.06	3827
819.2	3960
819.341	3850
819.481	3865
819.622	3930
819.762	4078
819.903	3968
820.043	3896
820.184	3873
820.324	3861
820.465	3888
820.605	3876
820.746	3857
820.886	3812
821.026	3964
821.167	3884
821.307	4006
821.447	3994
821.588	3983
821.728	3968
821.868	3991
822.008	3918
822.149	3949
822.289	3972
822.429	3812
822.569	3755
822.709	3808
822.849	3720
822.99	3766
823.13	3781
823.27	3774
823.41	3785
823.55	3747
823.69	3717
823.83	3766
823.97	3648
824.11	3633
824.25	3633
824.389	3675
824.529	3660
824.669	3629
824.809	3759
824.949	3759
825.089	3747
825.228	3698
825.368	3595
825.508	3610
825.648	3625
825.787	3633
825.927	3633
826.067	3622
826.206	3732
826.346	3789
826.485	3857
826.625	3930
826.765	3937
826.904	3831
827.044	3618
827.183	3523
827.323	3424
827.462	3530
827.601	3458
827.741	3458
827.88	3500
828.02	3382
828.159	3477
828.298	3504
828.437	3580
828.577	3526
828.716	3606
828.855	3526
828.994	3367
829.134	3386
829.273	3401
829.412	3359
829.551	3363
829.69	3412
829.829	3416
829.968	3553
830.107	3469
830.246	3466
830.385	3378
830.524	3348
830.663	3294
830.802	3268
830.941	3176
831.08	3169
831.219	3275
831.357	3264
831.496	3397
831.635	3275
831.774	3233
831.913	3211
832.051	3123
832.19	3157
832.329	3222
832.467	3154
832.606	3157
832.744	3173
832.883	3218
833.022	3192
833.16	3298
833.299	3310
833.437	3359
833.576	3389
833.714	3431
833.852	3435
833.991	3462
834.129	3488
834.267	3473
834.406	3420
834.544	3431
834.682	3405
834.821	3447
834.959	3576
835.097	3431
835.235	3580
835.373	3530
835.511	3481
835.65	3485
835.788	3469
835.926	3397
836.064	3416
836.202	3439
836.34	3564
836.478	3618
836.615	3584
836.753	3629
836.891	3656
837.029	3625
837.167	3610
837.305	3549
837.443	3526
837.58	3530
837.718	3610
837.856	3603
837.993	3534
838.131	3606
838.269	3610
838.406	3637
838.544	3557
838.681	3496
838.819	3485
838.956	3409
839.094	3389
839.231	3462
839.369	3530
839.506	3740
839.643	3637
839.781	3511
839.918	3450
840.055	3530
840.193	3538
840.33	3561
840.467	3576
840.604	3599
840.742	3842
840.879	3564
841.016	3622
841.153	3599
841.29	3747
841.427	3743
841.564	3736
841.701	3762
841.838	3705
841.975	3698
842.112	3736
842.249	3675
842.385	3625
842.522	3869
842.659	3694
842.796	3698
842.933	3724
843.069	3717
843.206	3698
843.343	3857
843.479	3759
843.616	3846
843.752	3682
843.889	3736
844.025	3854
844.162	3698
844.298	3873
844.435	3831
844.571	3819
844.708	3926
844.844	4040
844.98	3994
845.117	3979
845.253	3964
845.389	3922
845.525	4013
845.661	4010
845.798	3934
845.934	4036
846.07	3979
846.206	4032
846.342	4135
846.478	4097
846.614	3991
846.75	3968
846.886	3960
847.022	4040
847.158	4021
847.294	4021
847.429	4063
847.565	4025
847.701	4227
847.837	3945
847.972	3850
848.108	4002
848.244	3991
848.379	3846
848.515	3827
848.65	3823
848.786	3896
848.921	3896
849.057	3918
849.192	3930
849.328	3907
849.463	3956
849.598	3922
849.734	3865
849.869	3831
850.004	3774
850.14	3793
850.275	3800
850.41	3736
850.545	3778
850.68	3816
850.815	3831
850.95	3823
851.085	3968
851.22	3930
851.355	3835
851.49	3797
851.625	3808
851.76	3770
851.895	3747
852.03	3717
852.165	3835
852.299	3854
852.434	3945
852.569	3869
852.703	3884
852.838	3918
852.973	4055
853.107	4040
853.242	3903
853.376	3827
853.511	3823
853.645	3865
853.78	3972
853.914	3915
854.048	3903
854.183	3945
854.317	3972
854.451	4078
854.585	3975
854.72	3953
854.854	4055
854.988	3926
855.122	4040
855.256	3934
855.39	4010
855.524	4128
855.658	4090
855.792	4078
855.926	4139
856.06	4181
856.194	4192
856.327	4162
856.461	4139
856.595	4131
856.729	4188
856.862	4314
856.996	4314
857.13	4314
857.263	4337
857.397	4383
857.53	4333
857.664	4318
857.797	4421
857.931	4451
858.064	4424
858.197	4432
858.331	4421
858.464	4390
858.597	4337
858.731	4421
858.864	4459
858.997	4462
859.13	4527
859.263	4558
859.396	4592
859.529	4531
859.662	4535
859.795	4561
859.928	4630
860.061	4755
860.194	4752
860.327	4679
860.46	4649
860.592	4786
860.725	4748
860.858	4778
860.99	4694
861.123	4656
861.256	4721
861.388	4759
861.521	5452
861.653	4729
861.786	4698
861.918	4771
862.05	4824
862.183	4862
862.315	4949
862.447	4938
862.58	4885
862.712	4831
862.844	4790
862.976	4934
863.108	4900
863.24	5246
863.372	4889
863.504	4934
863.636	4896
863.768	4984
863.9	4976
864.032	4961
864.164	4999
864.296	5102
864.428	5113
864.559	5109
864.691	5109
864.823	5159
864.954	5174
865.086	5193
865.217	5140
865.349	5140
865.48	5174
865.612	5181
865.743	5315
865.875	5227
866.006	5261
866.137	5204
866.269	5269
866.4	5201
866.531	5280
866.662	5201
866.793	5239
866.924	5261
867.055	5318
867.186	5379
867.317	5326
867.448	5334
867.579	5391
867.71	5398
867.841	5391
867.972	5417
868.103	5455
868.233	5497
868.364	5474
868.495	5581
868.625	5653
868.756	5840
868.886	5646
869.017	5741
869.147	5855
869.278	5946
869.408	5828
869.539	5851
869.669	5969
869.799	5958
869.929	6022
870.06	5950
870.19	6178
870.32	6144
870.45	6304
870.58	6403
870.71	6445
870.84	6467
870.97	6437
871.1	6426
871.23	6662
871.36	6703
871.489	6650
871.619	6791
871.749	6802
871.879	6924
872.008	6966
872.138	7019
872.267	6996
872.397	6958
872.526	7076
872.656	7145
872.785	7244
872.915	7377
873.044	7521
873.173	7548
873.303	7643
873.432	7772
873.561	7864
873.69	7856
873.819	7993
873.948	8210
874.077	8279
874.206	8317
874.335	8473
874.464	8720
874.593	8823
874.722	8994
874.851	9089
874.979	9249
875.108	9382
875.237	9492
875.365	9462
875.494	9705
875.623	9854
875.751	9816
875.88	10013
876.008	10109
876.136	10337
876.265	10504
876.393	10668
876.521	10778
876.65	10786
876.778	10904
876.906	10881
877.034	11003
877.162	11041
877.29	11223
877.418	11341
877.546	11284
877.674	11471
877.802	11509
877.93	11592
878.058	11505
878.185	11566
878.313	11608
878.441	11786
878.568	11733
878.696	11733
878.824	11836
878.951	12015
879.079	11961
879.206	12201
879.333	12102
879.461	12030
879.588	12095
879.715	12060
879.842	12300
879.97	12041
880.097	11893
880.224	11783
880.351	11874
880.478	11893
880.605	11824
880.732	11901
880.859	12015
880.986	11885
881.112	11882
881.239	11783
881.366	11680
881.493	11676
881.619	11581
881.746	11577
881.872	11471
881.999	11547
882.125	11444
882.252	11592
882.378	11543
882.505	11532
882.631	11459
882.757	11265
882.883	11307
883.01	11337
883.136	11280
883.262	11132
883.388	11037
883.514	11242
883.64	11216
883.766	11052
883.892	11060
884.018	11064
884.143	11117
884.269	11102
884.395	10900
884.52	10767
884.646	10771
884.772	10767
884.897	10656
885.023	10626
885.148	10672
885.274	10755
885.399	10748
885.524	10656
885.65	10584
885.775	10637
885.9	10615
886.025	10611
886.15	10493
886.275	10440
886.4	10459
886.525	10348
886.65	10333
886.775	10367
886.9	10504
887.025	10603
887.149	10421
887.274	10249
887.399	10223
887.523	10150
887.648	10135
887.773	10105
887.897	10181
888.021	10242
888.146	10147
888.27	10196
888.395	10188
888.519	10219
888.643	10242
888.767	10196
888.891	10120
889.015	9983
889.139	10067
889.263	9998
889.387	10048
889.511	10101
889.635	10036
889.759	9930
889.883	10006
890.006	10105
890.13	10128
890.254	9998
890.377	10029
890.501	9827
890.624	9945
890.748	9915
890.871	9800
890.995	9835
891.118	9679
891.241	9797
891.364	9743
891.488	9880
891.611	9766
891.734	9660
891.857	9732
891.98	9694
892.103	9835
892.226	9732
892.349	9698
892.471	9500
892.594	9580
892.717	9660
892.839	9618
892.962	9603
893.085	9701
893.207	9576
893.33	9549
893.452	9557
893.575	9591
893.697	9485
893.819	9637
893.941	9629
894.064	9614
894.186	9424
894.308	9515
894.43	9538
894.552	9553
894.674	9542
894.796	9405
894.918	9397
895.04	9363
895.161	9412
895.283	9370
895.405	9317
895.526	9298
895.648	9275
895.769	9222
895.891	9291
896.012	9317
896.134	9275
896.255	9188
896.376	9127
896.498	9135
896.619	9112
896.74	9135
896.861	9058
896.982	9329
897.103	9340
897.224	9241
897.345	9135
897.466	8975
897.587	9028
897.708	9146
897.828	9051
897.949	8941
898.07	8872
898.19	8914
898.311	9009
898.431	8918
898.552	9001
898.672	8982
898.792	8941
898.913	8880
899.033	8788
899.153	8689
899.273	8629
899.393	8678
899.513	8697
899.633	8781
899.753	8804
899.873	8758
899.993	8750
900.113	8807
900.232	8735
900.352	8659
900.472	8625
900.591	8587
900.711	8545
900.83	8533
900.95	8659
901.069	8716
901.189	8602
901.308	8461
901.427	8313
901.546	8457
901.665	8473
901.784	8492
901.904	8389
902.023	8313
902.141	8256
902.26	8263
902.379	8294
902.498	8259
902.617	8237
902.735	8358
902.854	8252
902.973	8332
903.091	8161
903.21	8119
903.328	8214
903.446	8088
903.565	8107
903.683	8103
903.801	8054
903.919	8119
904.038	8130
904.156	8039
904.274	8100
904.392	8081
904.51	8111
904.627	8149
904.745	8107
904.863	8168
904.981	7963
905.098	7864
905.216	7921
905.334	7940
905.451	7898
905.569	7879
905.686	7898
905.803	7982
905.921	7841
906.038	7890
906.155	7811
906.272	7681
906.389	7731
906.506	7639
906.623	7613
906.74	7586
906.857	7590
906.974	7674
907.091	7700
907.208	7795
907.324	7639
907.441	7609
907.557	7514
907.674	7438
907.79	7430
907.907	7415
908.023	7460
908.139	7441
908.256	7381
908.372	7384
908.488	7358
908.604	7282
908.72	7297
908.836	7335
908.952	7240
909.068	7251
909.184	7282
909.3	7213
909.415	7263
909.531	7305
909.647	7050
909.762	7137
909.878	7072
909.993	7171
910.108	7084
910.224	7118
910.339	7133
910.454	7122
910.57	7031
910.685	6897
910.8	7225
910.915	7133
911.03	7110
911.145	6973
911.259	6875
911.374	6886
911.489	6837
911.604	6783
911.718	6745
911.833	6700
911.947	6700
912.062	6665
912.176	6764
912.291	6719
912.405	6730
912.519	6825
912.633	6791
912.748	6707
912.862	6749
912.976	6642
913.09	6604
913.204	6585
913.318	6593
913.431	6673
913.545	6642
913.659	6684
913.772	6681
913.886	6555
914	6589
914.113	6597
914.226	6639
914.34	6582
914.453	6559
914.566	6612
914.68	6486
914.793	6536
914.906	6437
915.019	6456
915.132	6369
915.245	6479
915.358	6445
915.47	6448
915.583	6456
915.696	6494
915.809	6532
915.921	6589
916.034	6426
916.146	6418
916.259	6395
916.371	6471
916.483	6506
916.595	6414
916.708	6422
916.82	6433
916.932	6346
917.044	6399
917.156	6388
917.268	6331
917.38	6331
917.491	6323
917.603	6304
917.715	6479
917.826	6452
917.938	6342
918.049	6251
918.161	6388
918.272	6410
918.384	6540
918.495	6376
918.606	6273
918.717	6292
918.828	6270
918.939	6266
919.05	6159
919.161	6319
919.272	6144
919.383	6247
919.494	6323
919.604	6445
919.715	6270
919.826	6205
919.936	6277
920.047	6342
920.157	6296
920.267	6441
920.378	6357
920.488	6311
920.598	6452
920.708	6631
920.818	6509
920.928	6532
921.038	6623
921.148	6612
921.258	6410
921.368	6273
921.477	6205
921.587	6182
921.697	6098
921.806	6175
921.916	6148
922.025	5977
922.134	5927
922.244	5874
922.353	5958
922.462	5897
922.571	5824
922.68	5718
922.789	5729
922.898	5710
923.007	5657
923.116	5748
923.224	5699
923.333	5665
923.442	5608
923.55	5570
923.659	5589
923.767	5581
923.876	5543
923.984	5627
924.092	5471
924.201	5566
924.309	5596
924.417	5570
924.525	5524
924.633	5497
924.741	6289
924.849	5444
924.956	5474
925.064	5364
925.172	5372
925.279	5277
925.387	5414
925.494	5341
925.602	5391
925.709	5349
925.816	5341
925.924	5360
926.031	5364
926.138	5326
926.245	5315
926.352	5265
926.459	5318
926.566	5345
926.673	5269
926.779	5204
926.886	5136
926.993	5029
927.099	4991
927.206	4980
927.312	4938
927.419	5060
927.525	4961
927.631	5010
927.737	4930
927.843	4900
927.95	4771
928.056	4809
928.162	4870
928.267	4881
928.373	5368
928.479	4877
928.585	4717
928.69	4767
928.796	4793
928.901	4702
929.007	4603
929.112	4714
929.218	4679
929.323	4634
929.428	4615
929.533	4687
929.638	4565
929.743	4558
929.848	4569
929.953	4481
930.058	4424
930.163	4341
930.267	4390
930.372	4424
930.477	4341
930.581	4474
930.685	4371
930.79	4253
930.894	4303
930.998	4310
931.103	4363
931.207	4139
931.311	4078
931.415	4082
931.519	3930
931.623	3956
