Data from glass_V78500241_100.txt Node
Date: Wed Sep 01 19:15:11 CST 2021
User: usil
Spectrometer: V785-0024
Trigger mode: 0
Integration Time (sec): 4.000000E-1
Scans to average: 1
Nonlinearity correction enabled: false
Boxcar width: 0
Storing dark spectrum: false
XAxis mode: Wavelengths
Number of Pixels in Spectrum: 1024
>>>>>Begin Spectral Data<<<<<
801.071	3759
801.214	3797
801.356	3713
801.499	3743
801.641	3732
801.783	3766
801.926	3838
802.068	3880
802.211	3865
802.353	3903
802.496	3865
802.638	3888
802.78	3880
802.923	3911
803.065	3896
803.208	3865
803.35	3880
803.492	3922
803.635	3968
803.777	3823
803.919	3903
804.061	4154
804.204	3975
804.346	3979
804.488	3896
804.63	4071
804.773	3998
804.915	4017
805.057	4162
805.199	4090
805.341	4112
805.483	4097
805.626	4120
805.768	4150
805.91	4211
806.052	4276
806.194	4230
806.336	4363
806.478	4223
806.62	4204
806.762	4238
806.904	4268
807.046	4375
807.188	4207
807.33	4192
807.472	4234
807.614	4234
807.756	4238
807.898	4200
808.04	4249
808.182	4306
808.324	4371
808.465	4424
808.607	4470
808.749	4447
808.891	4478
809.033	4504
809.174	4386
809.316	4291
809.458	4234
809.6	4139
809.741	4139
809.883	4158
810.025	4246
810.166	4249
810.308	4261
810.45	4257
810.591	4253
810.733	4272
810.875	4569
811.016	4873
811.158	5147
811.299	5315
811.441	5322
811.582	5090
811.724	4759
811.865	4459
812.007	4455
812.148	4455
812.29	4394
812.431	4409
812.573	4398
812.714	4398
812.855	4421
812.997	4455
813.138	4519
813.279	4421
813.421	4417
813.562	4402
813.703	4318
813.845	4352
813.986	4272
814.127	4211
814.268	4265
814.41	4322
814.551	4295
814.692	4352
814.833	4238
814.974	4322
815.115	4379
815.256	4272
815.397	4253
815.539	4314
815.68	4219
815.821	4219
815.962	4310
816.103	4276
816.244	4253
816.385	4265
816.526	4287
816.666	4219
816.807	4131
816.948	4207
817.089	4158
817.23	4124
817.371	4059
817.512	4067
817.653	4082
817.793	4051
817.934	4029
818.075	4131
818.216	4063
818.356	4078
818.497	4021
818.638	3930
818.778	3941
818.919	3896
819.06	3911
819.2	3945
819.341	3884
819.481	3861
819.622	3915
819.762	3964
819.903	3964
820.043	3888
820.184	3842
820.324	3850
820.465	3907
820.605	3873
820.746	3884
820.886	3789
821.026	3945
821.167	3941
821.307	3964
821.447	4010
821.588	3941
821.728	3930
821.868	3960
822.008	3892
822.149	3983
822.289	3941
822.429	3774
822.569	3804
822.709	3816
822.849	3705
822.99	3682
823.13	3781
823.27	3800
823.41	3724
823.55	3766
823.69	3713
823.83	3724
823.97	3679
824.11	3622
824.25	3633
824.389	3682
824.529	3656
824.669	3648
824.809	3720
824.949	3747
825.089	3698
825.228	3701
825.368	3603
825.508	3576
825.648	3591
825.787	3610
825.927	3641
826.067	3663
826.206	3713
826.346	3789
826.485	3876
826.625	3869
826.765	3930
826.904	3892
827.044	3637
827.183	3526
827.323	3420
827.462	3515
827.601	3485
827.741	3473
827.88	3469
828.02	3416
828.159	3504
828.298	3515
828.437	3576
828.577	3469
828.716	3614
828.855	3530
828.994	3428
829.134	3382
829.273	3374
829.412	3397
829.551	3325
829.69	3374
829.829	3458
829.968	3545
830.107	3435
830.246	3485
830.385	3374
830.524	3386
830.663	3302
830.802	3233
830.941	3226
831.08	3207
831.219	3272
831.357	3287
831.496	3409
831.635	3260
831.774	3203
831.913	3214
832.051	3131
832.19	3173
832.329	3218
832.467	3142
832.606	3104
832.744	3150
832.883	3195
833.022	3211
833.16	3313
833.299	3313
833.437	3367
833.576	3386
833.714	3416
833.852	3439
833.991	3492
834.129	3492
834.267	3458
834.406	3450
834.544	3447
834.682	3424
834.821	3405
834.959	3572
835.097	3428
835.235	3538
835.373	3526
835.511	3526
835.65	3504
835.788	3534
835.926	3401
836.064	3412
836.202	3412
836.34	3599
836.478	3618
836.615	3576
836.753	3587
836.891	3694
837.029	3633
837.167	3625
837.305	3553
837.443	3542
837.58	3523
837.718	3595
837.856	3561
837.993	3557
838.131	3648
838.269	3625
838.406	3580
838.544	3549
838.681	3477
838.819	3504
838.956	3389
839.094	3409
839.231	3439
839.369	3523
839.506	3755
839.643	3660
839.781	3534
839.918	3481
840.055	3542
840.193	3549
840.33	3572
840.467	3568
840.604	3637
840.742	3808
840.879	3538
841.016	3633
841.153	3595
841.29	3755
841.427	3762
841.564	3785
841.701	3728
841.838	3682
841.975	3740
842.112	3728
842.249	3637
842.385	3648
842.522	3865
842.659	3698
842.796	3667
842.933	3717
843.069	3724
843.206	3705
843.343	3808
843.479	3823
843.616	3789
843.752	3720
843.889	3694
844.025	3888
844.162	3755
844.298	3857
844.435	3842
844.571	3800
844.708	3922
844.844	3968
844.98	4010
845.117	4013
845.253	3968
845.389	3911
845.525	3987
845.661	3930
845.798	3918
845.934	4017
846.07	3937
846.206	4082
846.342	4154
846.478	4082
846.614	3994
846.75	3964
846.886	3896
847.022	4055
847.158	3972
847.294	4048
847.429	4044
847.565	3991
847.701	4257
847.837	3876
847.972	3842
848.108	3991
848.244	3975
848.379	3861
848.515	3846
848.65	3838
848.786	3831
848.921	3876
849.057	3945
849.192	3930
849.328	3911
849.463	3956
849.598	3865
849.734	3880
849.869	3808
850.004	3793
850.14	3842
850.275	3793
850.41	3755
850.545	3728
850.68	3808
850.815	3808
850.95	3793
851.085	3972
851.22	3846
851.355	3827
851.49	3812
851.625	3781
851.76	3816
851.895	3755
852.03	3762
852.165	3789
852.299	3850
852.434	3949
852.569	3884
852.703	3873
852.838	3964
852.973	3994
853.107	4032
853.242	3949
853.376	3835
853.511	3800
853.645	3865
853.78	3994
853.914	3926
854.048	3873
854.183	3911
854.317	3949
854.451	4093
854.585	3968
854.72	3983
854.854	3991
854.988	3907
855.122	4006
855.256	3934
855.39	4044
855.524	4105
855.658	4135
855.792	4109
855.926	4188
856.06	4207
856.194	4215
856.327	4185
856.461	4135
856.595	4185
856.729	4169
856.862	4314
856.996	4223
857.13	4306
857.263	4314
857.397	4394
857.53	4333
857.664	4344
857.797	4466
857.931	4466
858.064	4402
858.197	4459
858.331	4428
858.464	4398
858.597	4383
858.731	4443
858.864	4417
858.997	4481
859.13	4512
859.263	4554
859.396	4580
859.529	4546
859.662	4577
859.795	4573
859.928	4637
860.061	4729
860.194	4763
860.327	4664
860.46	4641
860.592	4793
860.725	4782
860.858	4767
860.99	4717
861.123	4687
861.256	4755
861.388	4809
861.521	5570
861.653	4763
861.786	4702
861.918	4744
862.05	4767
862.183	4908
862.315	4885
862.447	4991
862.58	4904
862.712	4774
862.844	4782
862.976	4957
863.108	4866
863.24	5261
863.372	4816
863.504	4900
863.636	4930
863.768	5029
863.9	4957
864.032	4980
864.164	4930
864.296	5086
864.428	5060
864.559	5117
864.691	5132
864.823	5121
864.954	5102
865.086	5117
865.217	5185
865.349	5140
865.48	5181
865.612	5212
865.743	5280
865.875	5197
866.006	5159
866.137	5277
866.269	5220
866.4	5322
866.531	5277
866.662	5284
866.793	5307
866.924	5284
867.055	5368
867.186	5288
867.317	5417
867.448	5326
867.579	5387
867.71	5364
867.841	5402
867.972	5486
868.103	5455
868.233	5524
868.364	5566
868.495	5539
868.625	5672
868.756	5866
868.886	5688
869.017	5737
869.147	5908
869.278	5813
869.408	5745
869.539	5790
869.669	5935
869.799	6030
869.929	6015
870.06	5988
870.19	6167
870.32	6171
870.45	6308
870.58	6315
870.71	6357
870.84	6452
870.97	6414
871.1	6437
871.23	6654
871.36	6700
871.489	6707
871.619	6749
871.749	6783
871.879	6970
872.008	6966
872.138	6989
872.267	7008
872.397	6977
872.526	7069
872.656	7061
872.785	7179
872.915	7407
873.044	7480
873.173	7525
873.303	7666
873.432	7784
873.561	7856
873.69	7936
873.819	8069
873.948	8206
874.077	8248
874.206	8351
874.335	8442
874.464	8648
874.593	8868
874.722	8921
874.851	9138
874.979	9249
875.108	9447
875.237	9359
875.365	9557
875.494	9732
875.623	9831
875.751	9835
875.88	9956
876.008	10116
876.136	10318
876.265	10565
876.393	10694
876.521	10729
876.65	10797
876.778	10843
876.906	10930
877.034	10938
877.162	11006
877.29	11174
877.418	11349
877.546	11322
877.674	11353
877.802	11395
877.93	11547
878.058	11566
878.185	11585
878.313	11630
878.441	11836
878.568	11737
878.696	11809
878.824	11843
878.951	11965
879.079	11927
879.206	12159
879.333	12038
879.461	12026
879.588	12049
879.715	12019
879.842	12277
879.97	12098
880.097	11885
880.224	11935
880.351	11767
880.478	11904
880.605	11870
880.732	11882
880.859	12121
880.986	11802
881.112	11855
881.239	11722
881.366	11760
881.493	11554
881.619	11630
881.746	11509
881.872	11528
881.999	11554
882.125	11490
882.252	11649
882.378	11558
882.505	11551
882.631	11429
882.757	11311
882.883	11315
883.01	11227
883.136	11208
883.262	11105
883.388	11083
883.514	11132
883.64	11162
883.766	11136
883.892	10980
884.018	11003
884.143	11064
884.269	11128
884.395	10812
884.52	10847
884.646	10763
884.772	10725
884.897	10740
885.023	10702
885.148	10790
885.274	10755
885.399	10736
885.524	10611
885.65	10580
885.775	10569
885.9	10637
886.025	10645
886.15	10618
886.275	10459
886.4	10417
886.525	10455
886.65	10398
886.775	10356
886.9	10447
887.025	10504
887.149	10246
887.274	10291
887.399	10192
887.523	10185
887.648	10196
887.773	10109
887.897	10223
888.021	10227
888.146	10090
888.27	10257
888.395	10128
888.519	10082
888.643	10147
888.767	10211
888.891	10040
889.015	10029
889.139	10044
889.263	10067
889.387	10093
889.511	10204
889.635	10071
889.759	9972
889.883	10093
890.006	9953
890.13	10150
890.254	9964
890.377	9994
890.501	9850
890.624	9789
890.748	9888
890.871	9816
890.995	9732
891.118	9720
891.241	9797
891.364	9774
891.488	9846
891.611	9743
891.734	9720
891.857	9785
891.98	9709
892.103	9793
892.226	9713
892.349	9698
892.471	9545
892.594	9637
892.717	9652
892.839	9633
892.962	9584
893.085	9682
893.207	9572
893.33	9500
893.452	9511
893.575	9587
893.697	9519
893.819	9629
893.941	9690
894.064	9660
894.186	9485
894.308	9454
894.43	9545
894.552	9595
894.674	9576
894.796	9359
894.918	9363
895.04	9351
895.161	9401
895.283	9355
895.405	9241
895.526	9272
895.648	9264
895.769	9199
895.891	9249
896.012	9275
896.134	9226
896.255	9268
896.376	9135
896.498	9173
896.619	9154
896.74	9055
896.861	9058
896.982	9294
897.103	9302
897.224	9226
897.345	9043
897.466	9066
897.587	9081
897.708	9135
897.828	9009
897.949	9013
898.07	8887
898.19	8918
898.311	8998
898.431	8876
898.552	8891
898.672	8971
898.792	9013
898.913	8876
899.033	8853
899.153	8804
899.273	8720
899.393	8674
899.513	8750
899.633	8777
899.753	8826
899.873	8670
899.993	8804
900.113	8689
900.232	8724
900.352	8648
900.472	8655
900.591	8522
900.711	8632
900.83	8568
900.95	8632
901.069	8613
901.189	8560
901.308	8480
901.427	8347
901.546	8450
901.665	8438
901.784	8492
901.904	8393
902.023	8358
902.141	8263
902.26	8221
902.379	8298
902.498	8206
902.617	8229
902.735	8317
902.854	8271
902.973	8267
903.091	8157
903.21	8138
903.328	8145
903.446	8138
903.565	8008
903.683	8191
903.801	8077
903.919	8187
904.038	8111
904.156	8046
904.274	8130
904.392	8058
904.51	8012
904.627	8077
904.745	8065
904.863	8092
904.981	7970
905.098	7852
905.216	7883
905.334	7883
905.451	7917
905.569	7856
905.686	7940
905.803	7906
905.921	7776
906.038	7898
906.155	7799
906.272	7734
906.389	7761
906.506	7636
906.623	7609
906.74	7647
906.857	7578
906.974	7578
907.091	7670
907.208	7727
907.324	7590
907.441	7662
907.557	7457
907.674	7460
907.79	7377
907.907	7381
908.023	7483
908.139	7407
908.256	7373
908.372	7346
908.488	7384
908.604	7316
908.72	7285
908.836	7297
908.952	7285
909.068	7293
909.184	7327
909.3	7297
909.415	7320
909.531	7251
909.647	7168
909.762	7160
909.878	7168
909.993	7149
910.108	7129
910.224	7072
910.339	7156
910.454	7057
910.57	7046
910.685	6989
910.8	7236
910.915	7110
911.03	7076
911.145	6916
911.259	6894
911.374	6890
911.489	6859
911.604	6844
911.718	6741
911.833	6719
911.947	6658
912.062	6620
912.176	6681
912.291	6772
912.405	6722
912.519	6875
912.633	6871
912.748	6741
912.862	6711
912.976	6604
913.09	6578
913.204	6597
913.318	6658
913.431	6707
913.545	6700
913.659	6772
913.772	6688
913.886	6563
914	6566
914.113	6662
914.226	6688
914.34	6715
914.453	6532
914.566	6631
914.68	6566
914.793	6540
914.906	6403
915.019	6433
915.132	6391
915.245	6475
915.358	6429
915.47	6448
915.583	6410
915.696	6486
915.809	6589
915.921	6604
916.034	6437
916.146	6414
916.259	6399
916.371	6502
916.483	6475
916.595	6467
916.708	6422
916.82	6418
916.932	6418
917.044	6403
917.156	6418
917.268	6327
917.38	6357
917.491	6300
917.603	6350
917.715	6429
917.826	6475
917.938	6372
918.049	6232
918.161	6331
918.272	6407
918.384	6464
918.495	6380
918.606	6270
918.717	6216
918.828	6338
918.939	6338
919.05	6152
919.161	6308
919.272	6121
919.383	6140
919.494	6308
919.604	6395
919.715	6281
919.826	6258
919.936	6292
920.047	6350
920.157	6262
920.267	6509
920.378	6304
920.488	6311
920.598	6433
920.708	6540
920.818	6486
920.928	6506
921.038	6646
921.148	6612
921.258	6365
921.368	6292
921.477	6209
921.587	6213
921.697	6110
921.806	6220
921.916	6102
922.025	5980
922.134	6011
922.244	5939
922.353	5988
922.462	5844
922.571	5767
922.68	5726
922.789	5680
922.898	5680
923.007	5615
923.116	5680
923.224	5699
923.333	5634
923.442	5600
923.55	5653
923.659	5627
923.767	5668
923.876	5520
923.984	5649
924.092	5501
924.201	5566
924.309	5596
924.417	5585
924.525	5535
924.633	5471
924.741	6292
924.849	5379
924.956	5486
925.064	5387
925.172	5334
925.279	5311
925.387	5372
925.494	5334
925.602	5436
925.709	5425
925.816	5326
925.924	5334
926.031	5372
926.138	5341
926.245	5246
926.352	5220
926.459	5296
926.566	5372
926.673	5197
926.779	5162
926.886	5136
926.993	5006
927.099	4987
927.206	5018
927.312	4980
927.419	5025
927.525	4961
927.631	4968
927.737	4885
927.843	4873
927.95	4786
928.056	4850
928.162	4839
928.267	4847
928.373	5379
928.479	4866
928.585	4717
928.69	4831
928.796	4809
928.901	4740
929.007	4630
929.112	4717
929.218	4668
929.323	4618
929.428	4603
929.533	4717
929.638	4558
929.743	4603
929.848	4615
929.953	4512
930.058	4413
930.163	4322
930.267	4333
930.372	4474
930.477	4268
930.581	4493
930.685	4383
930.79	4291
930.894	4318
930.998	4265
931.103	4371
931.207	4150
931.311	4074
931.415	4097
931.519	3972
931.623	3922
