Data from glass_V78500241_966.txt Node
Date: Wed Sep 01 19:21:11 CST 2021
User: usil
Spectrometer: V785-0024
Trigger mode: 0
Integration Time (sec): 4.000000E-1
Scans to average: 1
Nonlinearity correction enabled: false
Boxcar width: 0
Storing dark spectrum: false
XAxis mode: Wavelengths
Number of Pixels in Spectrum: 1024
>>>>>Begin Spectral Data<<<<<
801.071	3762
801.214	3774
801.356	3713
801.499	3736
801.641	3781
801.783	3751
801.926	3854
802.068	3854
802.211	3884
802.353	3907
802.496	3823
802.638	3857
802.78	3873
802.923	3953
803.065	3941
803.208	3835
803.35	3888
803.492	3892
803.635	3953
803.777	3816
803.919	3888
804.061	4200
804.204	3983
804.346	3972
804.488	3922
804.63	4059
804.773	3983
804.915	4006
805.057	4139
805.199	4036
805.341	4044
805.483	4154
805.626	4086
805.768	4169
805.91	4207
806.052	4234
806.194	4177
806.336	4386
806.478	4200
806.62	4223
806.762	4204
806.904	4268
807.046	4352
807.188	4223
807.33	4128
807.472	4284
807.614	4215
807.756	4246
807.898	4257
808.04	4227
808.182	4287
808.324	4303
808.465	4363
808.607	4497
808.749	4462
808.891	4478
809.033	4542
809.174	4379
809.316	4306
809.458	4227
809.6	4185
809.741	4192
809.883	4131
810.025	4177
810.166	4227
810.308	4204
810.45	4246
810.591	4207
810.733	4314
810.875	4561
811.016	4831
811.158	5170
811.299	5277
811.441	5246
811.582	5064
811.724	4714
811.865	4428
812.007	4497
812.148	4481
812.29	4443
812.431	4398
812.573	4443
812.714	4379
812.855	4383
812.997	4451
813.138	4512
813.279	4443
813.421	4428
813.562	4405
813.703	4356
813.845	4318
813.986	4261
814.127	4227
814.268	4257
814.41	4276
814.551	4287
814.692	4367
814.833	4329
814.974	4272
815.115	4352
815.256	4268
815.397	4261
815.539	4276
815.68	4207
815.821	4196
815.962	4314
816.103	4287
816.244	4230
816.385	4223
816.526	4287
816.666	4234
816.807	4078
816.948	4185
817.089	4188
817.23	4124
817.371	4078
817.512	4063
817.653	4101
817.793	4036
817.934	4090
818.075	4090
818.216	4090
818.356	4112
818.497	4002
818.638	3922
818.778	3873
818.919	3896
819.06	3831
819.2	3907
819.341	3869
819.481	3827
819.622	3930
819.762	4006
819.903	3972
820.043	3888
820.184	3865
820.324	3819
820.465	3880
820.605	3869
820.746	3869
820.886	3842
821.026	3937
821.167	3949
821.307	3979
821.447	3998
821.588	3960
821.728	3934
821.868	3945
822.008	3842
822.149	3934
822.289	3934
822.429	3804
822.569	3774
822.709	3793
822.849	3724
822.99	3732
823.13	3770
823.27	3808
823.41	3747
823.55	3778
823.69	3720
823.83	3759
823.97	3671
824.11	3622
824.25	3595
824.389	3690
824.529	3682
824.669	3671
824.809	3709
824.949	3770
825.089	3743
825.228	3679
825.368	3610
825.508	3606
825.648	3564
825.787	3660
825.927	3610
826.067	3652
826.206	3724
826.346	3804
826.485	3873
826.625	3835
826.765	3972
826.904	3880
827.044	3648
827.183	3542
827.323	3439
827.462	3507
827.601	3405
827.741	3428
827.88	3485
828.02	3374
828.159	3435
828.298	3507
828.437	3576
828.577	3504
828.716	3610
828.855	3504
828.994	3389
829.134	3401
829.273	3370
829.412	3378
829.551	3355
829.69	3393
829.829	3401
829.968	3549
830.107	3462
830.246	3405
830.385	3374
830.524	3359
830.663	3321
830.802	3264
830.941	3165
831.08	3211
831.219	3253
831.357	3253
831.496	3435
831.635	3233
831.774	3226
831.913	3211
832.051	3116
832.19	3138
832.329	3222
832.467	3184
832.606	3112
832.744	3188
832.883	3199
833.022	3199
833.16	3264
833.299	3279
833.437	3325
833.576	3401
833.714	3401
833.852	3496
833.991	3431
834.129	3500
834.267	3458
834.406	3378
834.544	3412
834.682	3428
834.821	3393
834.959	3553
835.097	3443
835.235	3557
835.373	3492
835.511	3500
835.65	3462
835.788	3473
835.926	3416
836.064	3389
836.202	3443
836.34	3549
836.478	3644
836.615	3557
836.753	3606
836.891	3637
837.029	3667
837.167	3568
837.305	3526
837.443	3568
837.58	3477
837.718	3618
837.856	3610
837.993	3591
838.131	3606
838.269	3599
838.406	3564
838.544	3591
838.681	3526
838.819	3454
838.956	3397
839.094	3378
839.231	3454
839.369	3515
839.506	3743
839.643	3644
839.781	3500
839.918	3492
840.055	3561
840.193	3549
840.33	3538
840.467	3534
840.604	3614
840.742	3816
840.879	3572
841.016	3549
841.153	3584
841.29	3770
841.427	3705
841.564	3709
841.701	3743
841.838	3709
841.975	3698
842.112	3736
842.249	3663
842.385	3629
842.522	3846
842.659	3728
842.796	3675
842.933	3701
843.069	3705
843.206	3694
843.343	3797
843.479	3781
843.616	3838
843.752	3717
843.889	3652
844.025	3857
844.162	3713
844.298	3857
844.435	3766
844.571	3804
844.708	3918
844.844	4021
844.98	4025
845.117	3987
845.253	3907
845.389	3949
845.525	3991
845.661	3953
845.798	3953
845.934	4051
846.07	3945
846.206	4055
846.342	4139
846.478	4082
846.614	4059
846.75	3896
846.886	3918
847.022	4048
847.158	3949
847.294	3960
847.429	4029
847.565	4029
847.701	4219
847.837	3869
847.972	3861
848.108	3968
848.244	3956
848.379	3899
848.515	3827
848.65	3827
848.786	3865
848.921	3854
849.057	3956
849.192	3979
849.328	3945
849.463	3911
849.598	3922
849.734	3873
849.869	3850
850.004	3755
850.14	3838
850.275	3827
850.41	3781
850.545	3781
850.68	3808
850.815	3785
850.95	3842
851.085	3960
851.22	3888
851.355	3835
851.49	3804
851.625	3854
851.76	3808
851.895	3751
852.03	3774
852.165	3819
852.299	3827
852.434	3899
852.569	3842
852.703	3888
852.838	3930
852.973	4010
853.107	3991
853.242	3899
853.376	3907
853.511	3819
853.645	3850
853.78	4002
853.914	3899
854.048	3915
854.183	3892
854.317	3941
854.451	4090
854.585	3956
854.72	3949
854.854	4078
854.988	4002
855.122	4025
855.256	3922
855.39	4044
855.524	4128
855.658	4071
855.792	4105
855.926	4150
856.06	4150
856.194	4227
856.327	4143
856.461	4139
856.595	4204
856.729	4200
856.862	4268
856.996	4261
857.13	4276
857.263	4306
857.397	4383
857.53	4280
857.664	4375
857.797	4409
857.931	4428
858.064	4379
858.197	4440
858.331	4409
858.464	4390
858.597	4367
858.731	4516
858.864	4470
858.997	4443
859.13	4512
859.263	4546
859.396	4561
859.529	4504
859.662	4550
859.795	4592
859.928	4561
860.061	4702
860.194	4759
860.327	4687
860.46	4668
860.592	4744
860.725	4771
860.858	4782
860.99	4679
861.123	4691
861.256	4694
861.388	4778
861.521	5497
861.653	4710
861.786	4729
861.918	4725
862.05	4809
862.183	4839
862.315	4873
862.447	4889
862.58	4892
862.712	4809
862.844	4736
862.976	4927
863.108	4866
863.24	5273
863.372	4816
863.504	4923
863.636	4919
863.768	4927
863.9	5018
864.032	4953
864.164	4923
864.296	5033
864.428	5075
864.559	5029
864.691	5128
864.823	5128
864.954	5151
865.086	5117
865.217	5140
865.349	5067
865.48	5178
865.612	5197
865.743	5337
865.875	5223
866.006	5162
866.137	5284
866.269	5288
866.4	5265
866.531	5269
866.662	5242
866.793	5349
866.924	5288
867.055	5345
867.186	5337
867.317	5322
867.448	5357
867.579	5448
867.71	5406
867.841	5368
867.972	5486
868.103	5474
868.233	5528
868.364	5512
868.495	5585
868.625	5661
868.756	5790
868.886	5718
869.017	5775
869.147	5798
869.278	5878
869.408	5863
869.539	5836
869.669	5939
869.799	5904
869.929	6011
870.06	5973
870.19	6239
870.32	6136
870.45	6331
870.58	6346
870.71	6437
870.84	6498
870.97	6410
871.1	6479
871.23	6635
871.36	6726
871.489	6681
871.619	6753
871.749	6821
871.879	6863
872.008	6993
872.138	7000
872.267	6966
872.397	7050
872.526	7004
872.656	7133
872.785	7209
872.915	7365
873.044	7544
873.173	7597
873.303	7628
873.432	7792
873.561	7849
873.69	7871
873.819	8077
873.948	8126
874.077	8240
874.206	8339
874.335	8457
874.464	8689
874.593	8849
874.722	8948
874.851	9142
874.979	9241
875.108	9294
875.237	9397
875.365	9443
875.494	9671
875.623	9831
875.751	9831
875.88	10006
876.008	10101
876.136	10318
876.265	10485
876.393	10656
876.521	10702
876.65	10744
876.778	10908
876.906	10923
877.034	10991
877.162	11136
877.29	11174
877.418	11345
877.546	11395
877.674	11452
877.802	11429
877.93	11528
878.058	11611
878.185	11680
878.313	11699
878.441	11790
878.568	11707
878.696	11741
878.824	11870
878.951	11954
879.079	11958
879.206	12155
879.333	11969
879.461	11969
879.588	12117
879.715	12083
879.842	12197
879.97	11969
880.097	11901
880.224	11874
880.351	11969
880.478	11950
880.605	11828
880.732	11779
880.859	12060
880.986	11874
881.112	11851
881.239	11722
881.366	11665
881.493	11627
881.619	11478
881.746	11604
881.872	11589
881.999	11551
882.125	11512
882.252	11520
882.378	11493
882.505	11547
882.631	11220
882.757	11349
882.883	11330
883.01	11299
883.136	11185
883.262	11117
883.388	11117
883.514	11212
883.64	11231
883.766	11075
883.892	10999
884.018	10949
884.143	11105
884.269	11071
884.395	10866
884.52	10748
884.646	10767
884.772	10710
884.897	10717
885.023	10725
885.148	10664
885.274	10694
885.399	10774
885.524	10687
885.65	10603
885.775	10675
885.9	10516
886.025	10744
886.15	10538
886.275	10466
886.4	10386
886.525	10413
886.65	10409
886.775	10432
886.9	10390
887.025	10592
887.149	10360
887.274	10207
887.399	10204
887.523	10154
887.648	10169
887.773	10105
887.897	10261
888.021	10257
888.146	10135
888.27	10223
888.395	10207
888.519	10246
888.643	10173
888.767	10276
888.891	10166
889.015	9991
889.139	10013
889.263	10029
889.387	10105
889.511	10124
889.635	10090
889.759	10025
889.883	9953
890.006	10048
890.13	10124
890.254	9979
890.377	9937
890.501	9911
890.624	9930
890.748	9861
890.871	9804
890.995	9759
891.118	9709
891.241	9755
891.364	9823
891.488	9831
891.611	9766
891.734	9770
891.857	9827
891.98	9804
892.103	9789
892.226	9732
892.349	9637
892.471	9519
892.594	9591
892.717	9595
892.839	9633
892.962	9629
893.085	9682
893.207	9622
893.33	9500
893.452	9530
893.575	9614
893.697	9599
893.819	9652
893.941	9614
894.064	9572
894.186	9412
894.308	9447
894.43	9553
894.552	9534
894.674	9545
894.796	9420
894.918	9355
895.04	9283
895.161	9329
895.283	9443
895.405	9344
895.526	9291
895.648	9245
895.769	9272
895.891	9264
896.012	9260
896.134	9233
896.255	9176
896.376	9119
896.498	9146
896.619	9154
896.74	9051
896.861	9047
896.982	9275
897.103	9287
897.224	9154
897.345	9104
897.466	9058
897.587	9020
897.708	9093
897.828	9077
897.949	8963
898.07	8902
898.19	8952
898.311	9009
898.431	8944
898.552	9020
898.672	8921
898.792	9009
898.913	8979
899.033	8815
899.153	8796
899.273	8697
899.393	8746
899.513	8766
899.633	8754
899.753	8781
899.873	8758
899.993	8785
900.113	8708
900.232	8716
900.352	8621
900.472	8610
900.591	8568
900.711	8663
900.83	8511
900.95	8678
901.069	8746
901.189	8568
901.308	8438
901.427	8317
901.546	8446
901.665	8465
901.784	8579
901.904	8438
902.023	8370
902.141	8225
902.26	8206
902.379	8259
902.498	8187
902.617	8244
902.735	8290
902.854	8282
902.973	8259
903.091	8123
903.21	8225
903.328	8180
903.446	8130
903.565	8096
903.683	8123
903.801	8062
903.919	8126
904.038	8164
904.156	8058
904.274	8092
904.392	8073
904.51	8050
904.627	8008
904.745	8115
904.863	8119
904.981	7925
905.098	7875
905.216	7909
905.334	7902
905.451	7932
905.569	7963
905.686	7887
905.803	7936
905.921	7868
906.038	7925
906.155	7841
906.272	7780
906.389	7700
906.506	7662
906.623	7639
906.74	7601
906.857	7506
906.974	7548
907.091	7677
907.208	7677
907.324	7624
907.441	7578
907.557	7476
907.674	7419
907.79	7457
907.907	7434
908.023	7521
908.139	7438
908.256	7384
908.372	7373
908.488	7301
908.604	7263
908.72	7232
908.836	7270
908.952	7217
909.068	7270
909.184	7308
909.3	7259
909.415	7343
909.531	7301
909.647	7095
909.762	7084
909.878	7103
909.993	7107
910.108	7149
910.224	7038
910.339	7057
910.454	7042
910.57	6939
910.685	6928
910.8	7194
910.915	7160
911.03	7034
911.145	6935
911.259	6966
911.374	6939
911.489	6863
911.604	6867
911.718	6738
911.833	6719
911.947	6616
912.062	6635
912.176	6753
912.291	6776
912.405	6738
912.519	6867
912.633	6878
912.748	6745
912.862	6707
912.976	6665
913.09	6509
913.204	6597
913.318	6677
913.431	6692
913.545	6631
913.659	6776
913.772	6631
913.886	6555
914	6483
914.113	6642
914.226	6688
914.34	6593
914.453	6506
914.566	6604
914.68	6517
914.793	6547
914.906	6422
915.019	6376
915.132	6410
915.245	6395
915.358	6464
915.47	6456
915.583	6509
915.696	6475
915.809	6563
915.921	6566
916.034	6448
916.146	6422
916.259	6433
916.371	6464
916.483	6448
916.595	6391
916.708	6418
916.82	6414
916.932	6399
917.044	6414
917.156	6452
917.268	6304
917.38	6350
917.491	6338
917.603	6338
917.715	6414
917.826	6422
917.938	6296
918.049	6228
918.161	6304
918.272	6433
918.384	6471
918.495	6296
918.606	6292
918.717	6289
918.828	6319
918.939	6315
919.05	6228
919.161	6285
919.272	6133
919.383	6121
919.494	6311
919.604	6437
919.715	6292
919.826	6232
919.936	6247
920.047	6334
920.157	6327
920.267	6471
920.378	6292
920.488	6327
920.598	6506
920.708	6585
920.818	6509
920.928	6509
921.038	6544
921.148	6608
921.258	6357
921.368	6331
921.477	6232
921.587	6167
921.697	6167
921.806	6201
921.916	6087
922.025	5988
922.134	5893
922.244	5904
922.353	5920
922.462	5847
922.571	5809
922.68	5775
922.789	5646
922.898	5714
923.007	5627
923.116	5676
923.224	5688
923.333	5676
923.442	5615
923.55	5604
923.659	5604
923.767	5619
923.876	5516
923.984	5657
924.092	5539
924.201	5581
924.309	5600
924.417	5623
924.525	5486
924.633	5520
924.741	6110
924.849	5414
924.956	5505
925.064	5353
925.172	5349
925.279	5322
925.387	5379
925.494	5326
925.602	5421
925.709	5376
925.816	5250
925.924	5318
926.031	5372
926.138	5322
926.245	5387
926.352	5261
926.459	5330
926.566	5307
926.673	5197
926.779	5181
926.886	5124
926.993	5048
927.099	4972
927.206	4942
927.312	4965
927.419	5018
927.525	4999
927.631	5048
927.737	4953
927.843	4908
927.95	4793
928.056	4828
928.162	4828
928.267	4858
928.373	5337
928.479	4885
928.585	4656
928.69	4744
928.796	4778
928.901	4660
929.007	4618
929.112	4668
929.218	4679
929.323	4622
929.428	4588
929.533	4675
929.638	4527
929.743	4516
929.848	4538
929.953	4538
930.058	4443
930.163	4322
930.267	4325
930.372	4447
930.477	4341
930.581	4516
930.685	4398
930.79	4268
930.894	4310
930.998	4268
931.103	4436
931.207	4181
931.311	4101
931.415	4059
931.519	3911
931.623	3975
