Data from glass_V78500241_1374.txt Node
Date: Wed Sep 01 19:24:01 CST 2021
User: usil
Spectrometer: V785-0024
Trigger mode: 0
Integration Time (sec): 4.000000E-1
Scans to average: 1
Nonlinearity correction enabled: false
Boxcar width: 0
Storing dark spectrum: false
XAxis mode: Wavelengths
Number of Pixels in Spectrum: 1024
>>>>>Begin Spectral Data<<<<<
801.071	3701
801.214	3766
801.356	3743
801.499	3736
801.641	3736
801.783	3785
801.926	3899
802.068	3800
802.211	3846
802.353	3850
802.496	3816
802.638	3876
802.78	3899
802.923	3949
803.065	3903
803.208	3854
803.35	3850
803.492	3937
803.635	3937
803.777	3835
803.919	3926
804.061	4154
804.204	3987
804.346	3975
804.488	3922
804.63	4032
804.773	4055
804.915	4036
805.057	4154
805.199	3979
805.341	4078
805.483	4124
805.626	4139
805.768	4090
805.91	4268
806.052	4257
806.194	4227
806.336	4383
806.478	4173
806.62	4200
806.762	4158
806.904	4219
807.046	4303
807.188	4227
807.33	4185
807.472	4257
807.614	4211
807.756	4242
807.898	4196
808.04	4238
808.182	4295
808.324	4341
808.465	4344
808.607	4436
808.749	4451
808.891	4531
809.033	4508
809.174	4421
809.316	4265
809.458	4284
809.6	4124
809.741	4147
809.883	4135
810.025	4223
810.166	4207
810.308	4192
810.45	4227
810.591	4223
810.733	4303
810.875	4508
811.016	4831
811.158	5098
811.299	5273
811.441	5326
811.582	5056
811.724	4694
811.865	4485
812.007	4493
812.148	4493
812.29	4440
812.431	4417
812.573	4398
812.714	4367
812.855	4421
812.997	4417
813.138	4474
813.279	4386
813.421	4375
813.562	4383
813.703	4333
813.845	4363
813.986	4246
814.127	4257
814.268	4280
814.41	4303
814.551	4276
814.692	4329
814.833	4284
814.974	4295
815.115	4394
815.256	4272
815.397	4242
815.539	4268
815.68	4234
815.821	4177
815.962	4344
816.103	4314
816.244	4242
816.385	4219
816.526	4242
816.666	4230
816.807	4109
816.948	4215
817.089	4158
817.23	4131
817.371	4055
817.512	4051
817.653	4074
817.793	4025
817.934	4040
818.075	4063
818.216	4051
818.356	4078
818.497	3983
818.638	3979
818.778	3918
818.919	3903
819.06	3880
819.2	3911
819.341	3876
819.481	3827
819.622	3907
819.762	4040
819.903	3918
820.043	3865
820.184	3835
820.324	3835
820.465	3915
820.605	3850
820.746	3846
820.886	3816
821.026	3941
821.167	3930
821.307	3972
821.447	4025
821.588	3922
821.728	3930
821.868	3922
822.008	3865
822.149	3949
822.289	3918
822.429	3800
822.569	3736
822.709	3800
822.849	3690
822.99	3720
823.13	3755
823.27	3823
823.41	3698
823.55	3774
823.69	3713
823.83	3774
823.97	3701
824.11	3637
824.25	3591
824.389	3648
824.529	3682
824.669	3591
824.809	3720
824.949	3774
825.089	3736
825.228	3694
825.368	3564
825.508	3572
825.648	3587
825.787	3595
825.927	3644
826.067	3663
826.206	3637
826.346	3778
826.485	3846
826.625	3876
826.765	3960
826.904	3797
827.044	3641
827.183	3500
827.323	3462
827.462	3526
827.601	3424
827.741	3405
827.88	3439
828.02	3393
828.159	3462
828.298	3477
828.437	3515
828.577	3462
828.716	3564
828.855	3485
828.994	3367
829.134	3367
829.273	3386
829.412	3382
829.551	3313
829.69	3378
829.829	3412
829.968	3534
830.107	3458
830.246	3450
830.385	3386
830.524	3378
830.663	3344
830.802	3260
830.941	3226
831.08	3192
831.219	3291
831.357	3294
831.496	3397
831.635	3253
831.774	3222
831.913	3180
832.051	3138
832.19	3119
832.329	3207
832.467	3207
832.606	3104
832.744	3169
832.883	3169
833.022	3230
833.16	3268
833.299	3310
833.437	3313
833.576	3344
833.714	3416
833.852	3462
833.991	3462
834.129	3492
834.267	3431
834.406	3382
834.544	3431
834.682	3401
834.821	3401
834.959	3523
835.097	3405
835.235	3538
835.373	3504
835.511	3481
835.65	3485
835.788	3492
835.926	3378
836.064	3359
836.202	3405
836.34	3603
836.478	3618
836.615	3545
836.753	3606
836.891	3663
837.029	3587
837.167	3591
837.305	3553
837.443	3542
837.58	3492
837.718	3595
837.856	3564
837.993	3542
838.131	3576
838.269	3564
838.406	3580
838.544	3591
838.681	3477
838.819	3454
838.956	3367
839.094	3386
839.231	3485
839.369	3519
839.506	3720
839.643	3625
839.781	3515
839.918	3458
840.055	3549
840.193	3572
840.33	3507
840.467	3526
840.604	3599
840.742	3816
840.879	3534
841.016	3549
841.153	3633
841.29	3770
841.427	3713
841.564	3709
841.701	3720
841.838	3724
841.975	3671
842.112	3720
842.249	3625
842.385	3644
842.522	3831
842.659	3698
842.796	3675
842.933	3701
843.069	3682
843.206	3736
843.343	3778
843.479	3785
843.616	3838
843.752	3679
843.889	3694
844.025	3876
844.162	3713
844.298	3812
844.435	3789
844.571	3800
844.708	3876
844.844	3998
844.98	4059
845.117	4002
845.253	3949
845.389	3918
845.525	3937
845.661	3949
845.798	3964
845.934	4017
846.07	3941
846.206	4063
846.342	4158
846.478	4048
846.614	3953
846.75	3968
846.886	3907
847.022	4036
847.158	3994
847.294	4044
847.429	4055
847.565	3998
847.701	4257
847.837	3899
847.972	3838
848.108	3960
848.244	3979
848.379	3876
848.515	3804
848.65	3816
848.786	3903
848.921	3880
849.057	3941
849.192	3953
849.328	3930
849.463	3934
849.598	3865
849.734	3892
849.869	3861
850.004	3770
850.14	3804
850.275	3789
850.41	3751
850.545	3743
850.68	3785
850.815	3812
850.95	3808
851.085	3968
851.22	3888
851.355	3888
851.49	3819
851.625	3800
851.76	3778
851.895	3717
852.03	3743
852.165	3793
852.299	3823
852.434	3926
852.569	3865
852.703	3854
852.838	3979
852.973	3983
853.107	4021
853.242	3922
853.376	3861
853.511	3740
853.645	3850
853.78	3987
853.914	3915
854.048	3922
854.183	3922
854.317	3949
854.451	4048
854.585	3975
854.72	3949
854.854	4032
854.988	3934
855.122	4051
855.256	3922
855.39	4021
855.524	4097
855.658	4124
855.792	4124
855.926	4139
856.06	4169
856.194	4207
856.327	4154
856.461	4112
856.595	4150
856.729	4192
856.862	4249
856.996	4215
857.13	4295
857.263	4325
857.397	4344
857.53	4310
857.664	4344
857.797	4383
857.931	4432
858.064	4428
858.197	4443
858.331	4436
858.464	4386
858.597	4325
858.731	4474
858.864	4474
858.997	4459
859.13	4459
859.263	4500
859.396	4592
859.529	4523
859.662	4535
859.795	4485
859.928	4607
860.061	4778
860.194	4729
860.327	4706
860.46	4679
860.592	4748
860.725	4759
860.858	4771
860.99	4675
861.123	4717
861.256	4721
861.388	4801
861.521	5322
861.653	4706
861.786	4687
861.918	4790
862.05	4835
862.183	4824
862.315	4904
862.447	4942
862.58	4923
862.712	4790
862.844	4736
862.976	4900
863.108	4866
863.24	5185
863.372	4801
863.504	4862
863.636	4870
863.768	4961
863.9	5018
864.032	4896
864.164	4919
864.296	5014
864.428	5086
864.559	5109
864.691	5109
864.823	5155
864.954	5132
865.086	5140
865.217	5136
865.349	5136
865.48	5174
865.612	5181
865.743	5284
865.875	5189
866.006	5174
866.137	5208
866.269	5265
866.4	5189
866.531	5246
866.662	5223
866.793	5296
866.924	5341
867.055	5345
867.186	5334
867.317	5357
867.448	5303
867.579	5368
867.71	5425
867.841	5379
867.972	5433
868.103	5433
868.233	5505
868.364	5512
868.495	5532
868.625	5615
868.756	5783
868.886	5699
869.017	5726
869.147	5851
869.278	5855
869.408	5794
869.539	5794
869.669	5920
869.799	5935
869.929	5969
870.06	6045
870.19	6201
870.32	6175
870.45	6262
870.58	6342
870.71	6471
870.84	6395
870.97	6521
871.1	6486
871.23	6654
871.36	6696
871.489	6658
871.619	6719
871.749	6814
871.879	6939
872.008	6951
872.138	7038
872.267	6996
872.397	6996
872.526	6989
872.656	7088
872.785	7225
872.915	7373
873.044	7556
873.173	7537
873.303	7609
873.432	7746
873.561	7830
873.69	7921
873.819	8027
873.948	8271
874.077	8252
874.206	8313
874.335	8469
874.464	8655
874.593	8849
874.722	8937
874.851	9176
874.979	9218
875.108	9344
875.237	9424
875.365	9485
875.494	9644
875.623	9857
875.751	9907
875.88	10055
876.008	10173
876.136	10234
876.265	10538
876.393	10733
876.521	10721
876.65	10889
876.778	10877
876.906	10873
877.034	10938
877.162	11090
877.29	11029
877.418	11277
877.546	11307
877.674	11406
877.802	11448
877.93	11493
878.058	11543
878.185	11581
878.313	11722
878.441	11722
878.568	11649
878.696	11809
878.824	11863
878.951	11977
879.079	11999
879.206	12087
879.333	12087
879.461	12076
879.588	12117
879.715	12178
879.842	12239
879.97	12095
880.097	11870
880.224	11901
880.351	11859
880.478	11885
880.605	11889
880.732	11882
880.859	11992
880.986	11904
881.112	11836
881.239	11665
881.366	11653
881.493	11638
881.619	11608
881.746	11573
881.872	11642
881.999	11509
882.125	11509
882.252	11528
882.378	11433
882.505	11528
882.631	11421
882.757	11292
882.883	11337
883.01	11337
883.136	11208
883.262	11102
883.388	11117
883.514	11216
883.64	11204
883.766	11094
883.892	11003
884.018	10999
884.143	11204
884.269	11128
884.395	10820
884.52	10805
884.646	10748
884.772	10733
884.897	10698
885.023	10664
885.148	10729
885.274	10706
885.399	10698
885.524	10637
885.65	10577
885.775	10618
885.9	10584
886.025	10626
886.15	10634
886.275	10360
886.4	10341
886.525	10382
886.65	10371
886.775	10318
886.9	10474
887.025	10508
887.149	10363
887.274	10219
887.399	10158
887.523	10150
887.648	10116
887.773	10120
887.897	10276
888.021	10196
888.146	10116
888.27	10207
888.395	10238
888.519	10181
888.643	10246
888.767	10196
888.891	10059
889.015	10040
889.139	10055
889.263	10071
889.387	10109
889.511	10078
889.635	10051
889.759	9949
889.883	10002
890.006	10017
890.13	10147
890.254	9941
890.377	10006
890.501	9823
890.624	9846
890.748	9892
890.871	9751
890.995	9751
891.118	9724
891.241	9755
891.364	9732
891.488	9819
891.611	9713
891.734	9789
891.857	9789
891.98	9705
892.103	9778
892.226	9713
892.349	9633
892.471	9557
892.594	9580
892.717	9625
892.839	9682
892.962	9637
893.085	9648
893.207	9625
893.33	9538
893.452	9599
893.575	9648
893.697	9473
893.819	9622
893.941	9610
894.064	9720
894.186	9454
894.308	9424
894.43	9515
894.552	9576
894.674	9538
894.796	9317
894.918	9405
895.04	9332
895.161	9405
895.283	9351
895.405	9253
895.526	9214
895.648	9272
895.769	9321
895.891	9317
896.012	9275
896.134	9275
896.255	9077
896.376	9135
896.498	9176
896.619	9097
896.74	9097
896.861	9173
896.982	9302
897.103	9332
897.224	9222
897.345	9058
897.466	9017
897.587	8979
897.708	9081
897.828	9028
897.949	8963
898.07	8906
898.19	8937
898.311	9013
898.431	8849
898.552	8982
898.672	8944
898.792	8921
898.913	8887
899.033	8807
899.153	8804
899.273	8644
899.393	8762
899.513	8739
899.633	8712
899.753	8697
899.873	8731
899.993	8769
900.113	8689
900.232	8667
900.352	8659
900.472	8583
900.591	8575
900.711	8625
900.83	8541
900.95	8708
901.069	8735
901.189	8507
901.308	8499
901.427	8389
901.546	8400
901.665	8556
901.784	8446
901.904	8393
902.023	8366
902.141	8233
902.26	8279
902.379	8347
902.498	8218
902.617	8210
902.735	8271
902.854	8275
902.973	8301
903.091	8096
903.21	8142
903.328	8221
903.446	8142
903.565	8077
903.683	8115
903.801	8005
903.919	8088
904.038	8123
904.156	8031
904.274	8107
904.392	8065
904.51	8054
904.627	8031
904.745	8130
904.863	8092
904.981	7894
905.098	7898
905.216	7890
905.334	7909
905.451	7917
905.569	7890
905.686	7856
905.803	7928
905.921	7772
906.038	7887
906.155	7784
906.272	7712
906.389	7715
906.506	7719
906.623	7624
906.74	7563
906.857	7605
906.974	7632
907.091	7658
907.208	7742
907.324	7655
907.441	7624
907.557	7430
907.674	7487
907.79	7400
907.907	7346
908.023	7483
908.139	7415
908.256	7346
908.372	7350
908.488	7365
908.604	7285
908.72	7217
908.836	7209
908.952	7266
909.068	7206
909.184	7312
909.3	7228
909.415	7320
909.531	7350
909.647	7103
909.762	7118
909.878	7091
909.993	7084
910.108	7137
910.224	7099
910.339	7091
910.454	7050
910.57	7008
910.685	6928
910.8	7202
910.915	7076
911.03	7027
911.145	6867
911.259	6886
911.374	6867
911.489	6852
911.604	6844
911.718	6787
911.833	6719
911.947	6650
912.062	6601
912.176	6734
912.291	6764
912.405	6722
912.519	6856
912.633	6848
912.748	6741
912.862	6669
912.976	6620
913.09	6547
913.204	6604
913.318	6578
913.431	6665
913.545	6684
913.659	6688
913.772	6620
913.886	6574
914	6578
914.113	6608
914.226	6555
914.34	6646
914.453	6486
914.566	6612
914.68	6551
914.793	6521
914.906	6403
915.019	6391
915.132	6323
915.245	6399
915.358	6494
915.47	6460
915.583	6452
915.696	6422
915.809	6536
915.921	6566
916.034	6441
916.146	6353
916.259	6372
916.371	6513
916.483	6467
916.595	6391
916.708	6429
916.82	6410
916.932	6327
917.044	6414
917.156	6418
917.268	6342
917.38	6369
917.491	6353
917.603	6353
917.715	6350
917.826	6369
917.938	6315
918.049	6201
918.161	6311
918.272	6407
918.384	6471
918.495	6334
918.606	6277
918.717	6239
918.828	6270
918.939	6270
919.05	6216
919.161	6270
919.272	6178
919.383	6152
919.494	6350
919.604	6414
919.715	6296
919.826	6224
919.936	6232
920.047	6327
920.157	6266
920.267	6509
920.378	6342
920.488	6300
920.598	6448
920.708	6623
920.818	6502
920.928	6494
921.038	6513
921.148	6536
921.258	6429
921.368	6315
921.477	6201
921.587	6155
921.697	6098
921.806	6167
921.916	6102
922.025	5954
922.134	5992
922.244	5897
922.353	6026
922.462	5866
922.571	5771
922.68	5718
922.789	5611
922.898	5790
923.007	5642
923.116	5691
923.224	5653
923.333	5661
923.442	5649
923.55	5551
923.659	5528
923.767	5604
923.876	5524
923.984	5573
924.092	5440
924.201	5554
924.309	5573
924.417	5581
924.525	5497
924.633	5474
924.741	6277
924.849	5364
924.956	5459
925.064	5330
925.172	5277
925.279	5318
925.387	5395
925.494	5334
925.602	5455
925.709	5383
925.816	5273
925.924	5284
926.031	5383
926.138	5318
926.245	5288
926.352	5220
926.459	5318
926.566	5334
926.673	5220
926.779	5155
926.886	5117
926.993	5083
927.099	4987
927.206	4965
927.312	4972
927.419	5045
927.525	4968
927.631	4984
927.737	4904
927.843	4866
927.95	4782
928.056	4790
928.162	4862
928.267	4877
928.373	5261
928.479	4927
928.585	4687
928.69	4763
928.796	4774
928.901	4736
929.007	4550
929.112	4664
929.218	4634
929.323	4550
929.428	4546
929.533	4675
929.638	4512
929.743	4550
929.848	4523
929.953	4546
930.058	4421
930.163	4341
930.267	4333
930.372	4436
930.477	4329
930.581	4497
930.685	4344
930.79	4287
930.894	4299
930.998	4306
931.103	4394
931.207	4112
931.311	4097
931.415	4002
931.519	3926
931.623	3922
