Data from glass_V78500241_2855.txt Node
Date: Wed Sep 01 19:34:17 CST 2021
User: usil
Spectrometer: V785-0024
Trigger mode: 0
Integration Time (sec): 4.000000E-1
Scans to average: 1
Nonlinearity correction enabled: false
Boxcar width: 0
Storing dark spectrum: false
XAxis mode: Wavelengths
Number of Pixels in Spectrum: 1024
>>>>>Begin Spectral Data<<<<<
801.071	3709
801.214	3709
801.356	3717
801.499	3743
801.641	3690
801.783	3720
801.926	3850
802.068	3838
802.211	3823
802.353	3835
802.496	3789
802.638	3846
802.78	3896
802.923	3907
803.065	3861
803.208	3823
803.35	3865
803.492	3869
803.635	3876
803.777	3797
803.919	3831
804.061	4128
804.204	3922
804.346	3915
804.488	3892
804.63	3983
804.773	3998
804.915	4006
805.057	4131
805.199	3979
805.341	4097
805.483	4128
805.626	4143
805.768	4067
805.91	4162
806.052	4223
806.194	4173
806.336	4360
806.478	4158
806.62	4158
806.762	4166
806.904	4223
807.046	4329
807.188	4185
807.33	4162
807.472	4227
807.614	4162
807.756	4211
807.898	4223
808.04	4185
808.182	4337
808.324	4303
808.465	4352
808.607	4432
808.749	4432
808.891	4474
809.033	4462
809.174	4379
809.316	4249
809.458	4295
809.6	4128
809.741	4120
809.883	4101
810.025	4188
810.166	4196
810.308	4207
810.45	4242
810.591	4196
810.733	4257
810.875	4481
811.016	4835
811.158	5136
811.299	5265
811.441	5273
811.582	4999
811.724	4717
811.865	4424
812.007	4489
812.148	4405
812.29	4379
812.431	4402
812.573	4428
812.714	4337
812.855	4390
812.997	4405
813.138	4451
813.279	4383
813.421	4329
813.562	4367
813.703	4284
813.845	4344
813.986	4253
814.127	4234
814.268	4265
814.41	4276
814.551	4265
814.692	4276
814.833	4204
814.974	4291
815.115	4310
815.256	4234
815.397	4204
815.539	4223
815.68	4166
815.821	4204
815.962	4295
816.103	4268
816.244	4211
816.385	4276
816.526	4284
816.666	4166
816.807	4090
816.948	4128
817.089	4173
817.23	4116
817.371	4067
817.512	4025
817.653	4078
817.793	4025
817.934	4036
818.075	4071
818.216	4048
818.356	4017
818.497	3998
818.638	3892
818.778	3884
818.919	3880
819.06	3804
819.2	3865
819.341	3888
819.481	3797
819.622	3907
819.762	4006
819.903	3934
820.043	3838
820.184	3857
820.324	3812
820.465	3869
820.605	3827
820.746	3865
820.886	3709
821.026	3922
821.167	3907
821.307	3888
821.447	3998
821.588	3888
821.728	3926
821.868	3915
822.008	3869
822.149	3831
822.289	3892
822.429	3774
822.569	3724
822.709	3804
822.849	3675
822.99	3686
823.13	3766
823.27	3759
823.41	3701
823.55	3751
823.69	3709
823.83	3720
823.97	3663
824.11	3580
824.25	3580
824.389	3637
824.529	3629
824.669	3595
824.809	3671
824.949	3701
825.089	3724
825.228	3682
825.368	3500
825.508	3561
825.648	3534
825.787	3549
825.927	3599
826.067	3610
826.206	3652
826.346	3743
826.485	3812
826.625	3831
826.765	3960
826.904	3800
827.044	3603
827.183	3515
827.323	3401
827.462	3420
827.601	3412
827.741	3435
827.88	3469
828.02	3332
828.159	3409
828.298	3443
828.437	3500
828.577	3424
828.716	3603
828.855	3481
828.994	3355
829.134	3367
829.273	3367
829.412	3336
829.551	3294
829.69	3340
829.829	3412
829.968	3492
830.107	3412
830.246	3450
830.385	3374
830.524	3359
830.663	3306
830.802	3253
830.941	3150
831.08	3146
831.219	3230
831.357	3253
831.496	3428
831.635	3214
831.774	3157
831.913	3173
832.051	3112
832.19	3116
832.329	3211
832.467	3119
832.606	3074
832.744	3146
832.883	3207
833.022	3184
833.16	3195
833.299	3294
833.437	3336
833.576	3325
833.714	3397
833.852	3428
833.991	3439
834.129	3466
834.267	3428
834.406	3389
834.544	3420
834.682	3409
834.821	3416
834.959	3553
835.097	3416
835.235	3519
835.373	3447
835.511	3450
835.65	3454
835.788	3496
835.926	3397
836.064	3367
836.202	3363
836.34	3568
836.478	3606
836.615	3523
836.753	3553
836.891	3656
837.029	3599
837.167	3584
837.305	3500
837.443	3504
837.58	3458
837.718	3538
837.856	3568
837.993	3542
838.131	3587
838.269	3549
838.406	3545
838.544	3557
838.681	3431
838.819	3450
838.956	3370
839.094	3378
839.231	3428
839.369	3504
839.506	3705
839.643	3584
839.781	3488
839.918	3431
840.055	3519
840.193	3530
840.33	3458
840.467	3507
840.604	3553
840.742	3804
840.879	3515
841.016	3557
841.153	3538
841.29	3755
841.427	3690
841.564	3686
841.701	3690
841.838	3717
841.975	3682
842.112	3679
842.249	3633
842.385	3599
842.522	3778
842.659	3675
842.796	3652
842.933	3671
843.069	3679
843.206	3686
843.343	3827
843.479	3774
843.616	3781
843.752	3671
843.889	3667
844.025	3831
844.162	3675
844.298	3797
844.435	3781
844.571	3774
844.708	3880
844.844	3934
844.98	4013
845.117	3972
845.253	3926
845.389	3892
845.525	3968
845.661	3937
845.798	3876
845.934	3998
846.07	3899
846.206	4044
846.342	4074
846.478	4048
846.614	3975
846.75	3922
846.886	3907
847.022	4010
847.158	3937
847.294	3949
847.429	4025
847.565	3945
847.701	4234
847.837	3873
847.972	3857
848.108	3956
848.244	3968
848.379	3819
848.515	3819
848.65	3838
848.786	3835
848.921	3819
849.057	3922
849.192	3861
849.328	3884
849.463	3934
849.598	3861
849.734	3816
849.869	3831
850.004	3740
850.14	3816
850.275	3759
850.41	3717
850.545	3728
850.68	3762
850.815	3785
850.95	3785
851.085	3876
851.22	3873
851.355	3857
851.49	3728
851.625	3793
851.76	3785
851.895	3732
852.03	3740
852.165	3759
852.299	3816
852.434	3857
852.569	3816
852.703	3888
852.838	3926
852.973	3972
853.107	4010
853.242	3888
853.376	3819
853.511	3766
853.645	3854
853.78	3949
853.914	3918
854.048	3850
854.183	3884
854.317	3945
854.451	4063
854.585	3991
854.72	3918
854.854	3979
854.988	3892
855.122	3991
855.256	3911
855.39	4025
855.524	4090
855.658	4082
855.792	4105
855.926	4120
856.06	4166
856.194	4188
856.327	4139
856.461	4097
856.595	4128
856.729	4185
856.862	4249
856.996	4246
857.13	4291
857.263	4306
857.397	4371
857.53	4238
857.664	4287
857.797	4386
857.931	4375
858.064	4379
858.197	4432
858.331	4356
858.464	4371
858.597	4337
858.731	4421
858.864	4424
858.997	4421
859.13	4470
859.263	4527
859.396	4550
859.529	4489
859.662	4470
859.795	4481
859.928	4599
860.061	4630
860.194	4778
860.327	4649
860.46	4584
860.592	4710
860.725	4736
860.858	4736
860.99	4683
861.123	4694
861.256	4637
861.388	4744
861.521	5303
861.653	4694
861.786	4694
861.918	4748
862.05	4831
862.183	4847
862.315	4873
862.447	4919
862.58	4858
862.712	4839
862.844	4755
862.976	4862
863.108	4877
863.24	5265
863.372	4805
863.504	4911
863.636	4870
863.768	4957
863.9	4930
864.032	4908
864.164	4987
864.296	5006
864.428	4999
864.559	5067
864.691	5121
864.823	5090
864.954	5079
865.086	5109
865.217	5159
865.349	5060
865.48	5162
865.612	5181
865.743	5178
865.875	5151
866.006	5174
866.137	5220
866.269	5220
866.4	5181
866.531	5223
866.662	5201
866.793	5292
866.924	5273
867.055	5334
867.186	5345
867.317	5357
867.448	5292
867.579	5360
867.71	5360
867.841	5299
867.972	5421
868.103	5501
868.233	5455
868.364	5509
868.495	5509
868.625	5710
868.756	5695
868.886	5661
869.017	5741
869.147	5847
869.278	5866
869.408	5771
869.539	5783
869.669	5912
869.799	5939
869.929	5988
870.06	5999
870.19	6171
870.32	6171
870.45	6270
870.58	6296
870.71	6361
870.84	6448
870.97	6422
871.1	6441
871.23	6616
871.36	6722
871.489	6654
871.619	6650
871.749	6825
871.879	6791
872.008	6894
872.138	6916
872.267	6973
872.397	7004
872.526	7038
872.656	7061
872.785	7171
872.915	7339
873.044	7548
873.173	7533
873.303	7620
873.432	7693
873.561	7852
873.69	7921
873.819	7959
873.948	8168
874.077	8176
874.206	8324
874.335	8480
874.464	8587
874.593	8849
874.722	8826
874.851	9142
874.979	9241
875.108	9397
875.237	9431
875.365	9428
875.494	9576
875.623	9812
875.751	9789
875.88	10002
876.008	10139
876.136	10230
876.265	10409
876.393	10634
876.521	10668
876.65	10782
876.778	10908
876.906	10885
877.034	10908
877.162	11086
877.29	11098
877.418	11284
877.546	11360
877.674	11387
877.802	11455
877.93	11471
878.058	11474
878.185	11505
878.313	11627
878.441	11718
878.568	11638
878.696	11707
878.824	11855
878.951	11927
879.079	11950
879.206	12053
879.333	11969
879.461	11893
879.588	12117
879.715	12026
879.842	12247
879.97	11927
880.097	11847
880.224	11832
880.351	11840
880.478	11855
880.605	11794
880.732	11866
880.859	11920
880.986	11821
881.112	11779
881.239	11668
881.366	11653
881.493	11554
881.619	11596
881.746	11585
881.872	11463
881.999	11566
882.125	11391
882.252	11592
882.378	11478
882.505	11543
882.631	11360
882.757	11303
882.883	11326
883.01	11227
883.136	11143
883.262	11056
883.388	11003
883.514	11140
883.64	11105
883.766	11079
883.892	10968
884.018	10976
884.143	10980
884.269	11094
884.395	10942
884.52	10725
884.646	10721
884.772	10672
884.897	10656
885.023	10694
885.148	10736
885.274	10752
885.399	10618
885.524	10611
885.65	10607
885.775	10668
885.9	10512
886.025	10573
886.15	10504
886.275	10493
886.4	10310
886.525	10375
886.65	10394
886.775	10314
886.9	10470
887.025	10561
887.149	10424
887.274	10207
887.399	10215
887.523	10128
887.648	10112
887.773	10051
887.897	10219
888.021	10253
888.146	10158
888.27	10249
888.395	10181
888.519	10150
888.643	10120
888.767	10185
888.891	10112
889.015	10044
889.139	10128
889.263	9983
889.387	10078
889.511	10082
889.635	9994
889.759	9926
889.883	9991
890.006	9892
890.13	10131
890.254	9972
890.377	9983
890.501	9831
890.624	9854
890.748	9960
890.871	9793
890.995	9724
891.118	9717
891.241	9793
891.364	9705
891.488	9740
891.611	9781
891.734	9705
891.857	9720
891.98	9679
892.103	9774
892.226	9671
892.349	9614
892.471	9477
892.594	9519
892.717	9648
892.839	9595
892.962	9629
893.085	9614
893.207	9576
893.33	9469
893.452	9500
893.575	9629
893.697	9435
893.819	9603
893.941	9633
894.064	9584
894.186	9382
894.308	9363
894.43	9572
894.552	9603
894.674	9530
894.796	9355
894.918	9416
895.04	9321
895.161	9393
895.283	9355
895.405	9184
895.526	9207
895.648	9268
895.769	9302
895.891	9306
896.012	9245
896.134	9184
896.255	9211
896.376	9195
896.498	9127
896.619	9074
896.74	9017
896.861	9032
896.982	9176
897.103	9310
897.224	9142
897.345	9039
897.466	9001
897.587	9013
897.708	9116
897.828	9074
897.949	8902
898.07	8823
898.19	8921
898.311	8971
898.431	8857
898.552	8937
898.672	8944
898.792	8864
898.913	8990
899.033	8842
899.153	8678
899.273	8648
899.393	8632
899.513	8781
899.633	8648
899.753	8708
899.873	8686
899.993	8716
900.113	8655
900.232	8667
900.352	8648
900.472	8606
900.591	8537
900.711	8564
900.83	8503
900.95	8613
901.069	8735
901.189	8549
901.308	8434
901.427	8259
901.546	8423
901.665	8423
901.784	8495
901.904	8347
902.023	8320
902.141	8191
902.26	8168
902.379	8259
902.498	8168
902.617	8244
902.735	8290
902.854	8282
902.973	8252
903.091	8092
903.21	8172
903.328	8168
903.446	8126
903.565	8016
903.683	8168
903.801	8039
903.919	8058
904.038	8138
904.156	8020
904.274	8054
904.392	7982
904.51	7928
904.627	8008
904.745	8050
904.863	8103
904.981	7894
905.098	7864
905.216	7833
905.334	7932
905.451	7811
905.569	7883
905.686	7883
905.803	7890
905.921	7765
906.038	7837
906.155	7750
906.272	7715
906.389	7685
906.506	7700
906.623	7632
906.74	7609
906.857	7525
906.974	7590
907.091	7681
907.208	7677
907.324	7624
907.441	7567
907.557	7468
907.674	7403
907.79	7358
907.907	7403
908.023	7388
908.139	7438
908.256	7369
908.372	7384
908.488	7297
908.604	7183
908.72	7244
908.836	7259
908.952	7289
909.068	7213
909.184	7346
909.3	7183
909.415	7339
909.531	7263
909.647	7076
909.762	7084
909.878	7038
909.993	7080
910.108	7118
910.224	6996
910.339	7129
910.454	6897
910.57	7012
910.685	6962
910.8	7129
910.915	7072
911.03	7008
911.145	6932
911.259	6833
911.374	6882
911.489	6837
911.604	6787
911.718	6669
911.833	6715
911.947	6597
912.062	6585
912.176	6642
912.291	6688
912.405	6711
912.519	6776
912.633	6738
912.748	6688
912.862	6665
912.976	6582
913.09	6509
913.204	6528
913.318	6604
913.431	6673
913.545	6662
913.659	6707
913.772	6616
913.886	6563
914	6521
914.113	6620
914.226	6597
914.34	6578
914.453	6517
914.566	6601
914.68	6509
914.793	6479
914.906	6429
915.019	6391
915.132	6350
915.245	6315
915.358	6429
915.47	6456
915.583	6365
915.696	6467
915.809	6403
915.921	6494
916.034	6433
916.146	6395
916.259	6315
916.371	6441
916.483	6429
916.595	6357
916.708	6391
916.82	6350
916.932	6331
917.044	6395
917.156	6338
917.268	6292
917.38	6251
917.491	6258
917.603	6281
917.715	6403
917.826	6372
917.938	6281
918.049	6201
918.161	6338
918.272	6407
918.384	6445
918.495	6323
918.606	6311
918.717	6171
918.828	6247
918.939	6213
919.05	6209
919.161	6239
919.272	6098
919.383	6190
919.494	6239
919.604	6372
919.715	6281
919.826	6197
919.936	6197
920.047	6270
920.157	6205
920.267	6448
920.378	6243
920.488	6251
920.598	6388
920.708	6563
920.818	6445
920.928	6452
921.038	6540
921.148	6517
921.258	6327
921.368	6235
921.477	6155
921.587	6148
921.697	6079
921.806	6152
921.916	6034
922.025	5977
922.134	5851
922.244	5866
922.353	5939
922.462	5767
922.571	5775
922.68	5699
922.789	5657
922.898	5680
923.007	5596
923.116	5688
923.224	5684
923.333	5630
923.442	5543
923.55	5558
923.659	5585
923.767	5604
923.876	5535
923.984	5509
924.092	5490
924.201	5543
924.309	5547
924.417	5482
924.525	5493
924.633	5516
924.741	6140
924.849	5261
924.956	5471
925.064	5311
925.172	5315
925.279	5288
925.387	5334
925.494	5322
925.602	5448
925.709	5337
925.816	5265
925.924	5292
926.031	5349
926.138	5292
926.245	5315
926.352	5258
926.459	5261
926.566	5280
926.673	5235
926.779	5151
926.886	5086
926.993	5041
927.099	4919
927.206	5022
927.312	4957
927.419	4995
927.525	4946
927.631	4968
927.737	4854
927.843	4816
927.95	4782
928.056	4805
928.162	4816
928.267	4854
928.373	5197
928.479	4862
928.585	4656
928.69	4740
928.796	4759
928.901	4653
929.007	4611
929.112	4649
929.218	4645
929.323	4554
929.428	4561
929.533	4641
929.638	4485
929.743	4535
929.848	4531
929.953	4478
930.058	4402
930.163	4268
930.267	4371
930.372	4398
930.477	4261
930.581	4451
930.685	4356
930.79	4215
930.894	4284
930.998	4249
931.103	4348
931.207	4086
931.311	4074
931.415	4006
931.519	3922
931.623	3930
