Data from glass_V78500241_2404.txt Node
Date: Wed Sep 01 19:31:09 CST 2021
User: usil
Spectrometer: V785-0024
Trigger mode: 0
Integration Time (sec): 4.000000E-1
Scans to average: 1
Nonlinearity correction enabled: false
Boxcar width: 0
Storing dark spectrum: false
XAxis mode: Wavelengths
Number of Pixels in Spectrum: 1024
>>>>>Begin Spectral Data<<<<<
801.071	3717
801.214	3736
801.356	3698
801.499	3694
801.641	3724
801.783	3770
801.926	3861
802.068	3835
802.211	3835
802.353	3869
802.496	3854
802.638	3911
802.78	3892
802.923	3960
803.065	3873
803.208	3823
803.35	3884
803.492	3922
803.635	3922
803.777	3838
803.919	3873
804.061	4139
804.204	3991
804.346	3941
804.488	3911
804.63	4021
804.773	3964
804.915	4010
805.057	4109
805.199	4044
805.341	4059
805.483	4116
805.626	4112
805.768	4120
805.91	4234
806.052	4280
806.194	4207
806.336	4325
806.478	4200
806.62	4173
806.762	4169
806.904	4234
807.046	4295
807.188	4230
807.33	4162
807.472	4215
807.614	4154
807.756	4249
807.898	4238
808.04	4276
808.182	4314
808.324	4322
808.465	4337
808.607	4500
808.749	4462
808.891	4462
809.033	4504
809.174	4405
809.316	4215
809.458	4227
809.6	4128
809.741	4154
809.883	4150
810.025	4162
810.166	4211
810.308	4211
810.45	4261
810.591	4246
810.733	4299
810.875	4542
811.016	4812
811.158	5094
811.299	5235
811.441	5273
811.582	5056
811.724	4687
811.865	4527
812.007	4462
812.148	4383
812.29	4367
812.431	4409
812.573	4375
812.714	4386
812.855	4402
812.997	4405
813.138	4493
813.279	4398
813.421	4337
813.562	4394
813.703	4363
813.845	4306
813.986	4268
814.127	4200
814.268	4276
814.41	4268
814.551	4196
814.692	4333
814.833	4306
814.974	4287
815.115	4310
815.256	4261
815.397	4200
815.539	4242
815.68	4188
815.821	4207
815.962	4299
816.103	4284
816.244	4200
816.385	4200
816.526	4223
816.666	4215
816.807	4040
816.948	4185
817.089	4150
817.23	4093
817.371	4067
817.512	4078
817.653	4082
817.793	4032
817.934	4040
818.075	4063
818.216	4063
818.356	4109
818.497	3983
818.638	3876
818.778	3922
818.919	3861
819.06	3835
819.2	3880
819.341	3827
819.481	3800
819.622	3918
819.762	3991
819.903	3968
820.043	3854
820.184	3819
820.324	3857
820.465	3861
820.605	3857
820.746	3804
820.886	3831
821.026	3884
821.167	3907
821.307	3937
821.447	3979
821.588	3915
821.728	3918
821.868	3956
822.008	3873
822.149	3865
822.289	3899
822.429	3793
822.569	3785
822.709	3785
822.849	3705
822.99	3675
823.13	3766
823.27	3759
823.41	3686
823.55	3732
823.69	3686
823.83	3736
823.97	3675
824.11	3641
824.25	3568
824.389	3622
824.529	3679
824.669	3625
824.809	3740
824.949	3686
825.089	3736
825.228	3694
825.368	3568
825.508	3568
825.648	3557
825.787	3606
825.927	3652
826.067	3618
826.206	3660
826.346	3766
826.485	3793
826.625	3865
826.765	3941
826.904	3823
827.044	3599
827.183	3534
827.323	3496
827.462	3496
827.601	3424
827.741	3443
827.88	3439
828.02	3382
828.159	3397
828.298	3416
828.437	3515
828.577	3454
828.716	3610
828.855	3458
828.994	3336
829.134	3363
829.273	3378
829.412	3367
829.551	3344
829.69	3310
829.829	3447
829.968	3492
830.107	3443
830.246	3485
830.385	3412
830.524	3378
830.663	3313
830.802	3253
830.941	3203
831.08	3253
831.219	3291
831.357	3260
831.496	3401
831.635	3214
831.774	3195
831.913	3199
832.051	3116
832.19	3138
832.329	3180
832.467	3112
832.606	3116
832.744	3165
832.883	3195
833.022	3211
833.16	3287
833.299	3310
833.437	3313
833.576	3370
833.714	3420
833.852	3428
833.991	3435
834.129	3481
834.267	3443
834.406	3393
834.544	3378
834.682	3409
834.821	3378
834.959	3542
835.097	3454
835.235	3542
835.373	3477
835.511	3511
835.65	3439
835.788	3428
835.926	3378
836.064	3389
836.202	3386
836.34	3530
836.478	3610
836.615	3496
836.753	3549
836.891	3633
837.029	3599
837.167	3591
837.305	3549
837.443	3545
837.58	3507
837.718	3622
837.856	3564
837.993	3530
838.131	3591
838.269	3572
838.406	3564
838.544	3580
838.681	3492
838.819	3473
838.956	3397
839.094	3389
839.231	3424
839.369	3496
839.506	3728
839.643	3618
839.781	3477
839.918	3469
840.055	3561
840.193	3504
840.33	3534
840.467	3568
840.604	3587
840.742	3812
840.879	3572
841.016	3545
841.153	3614
841.29	3717
841.427	3732
841.564	3705
841.701	3728
841.838	3675
841.975	3633
842.112	3671
842.249	3660
842.385	3610
842.522	3778
842.659	3660
842.796	3663
842.933	3671
843.069	3671
843.206	3690
843.343	3831
843.479	3751
843.616	3812
843.752	3625
843.889	3648
844.025	3819
844.162	3720
844.298	3831
844.435	3759
844.571	3774
844.708	3876
844.844	3998
844.98	4032
845.117	4059
845.253	3930
845.389	3899
845.525	3956
845.661	3991
845.798	3926
845.934	3983
846.07	3960
846.206	4055
846.342	4055
846.478	4105
846.614	3972
846.75	3934
846.886	3907
847.022	4078
847.158	3964
847.294	4017
847.429	4013
847.565	3956
847.701	4207
847.837	3850
847.972	3903
848.108	3949
848.244	3964
848.379	3831
848.515	3804
848.65	3808
848.786	3854
848.921	3869
849.057	3926
849.192	3934
849.328	3880
849.463	3915
849.598	3930
849.734	3854
849.869	3850
850.004	3778
850.14	3785
850.275	3800
850.41	3709
850.545	3736
850.68	3778
850.815	3785
850.95	3766
851.085	3930
851.22	3873
851.355	3861
851.49	3743
851.625	3778
851.76	3793
851.895	3755
852.03	3740
852.165	3793
852.299	3854
852.434	3876
852.569	3846
852.703	3835
852.838	3911
852.973	3953
853.107	3972
853.242	3873
853.376	3846
853.511	3736
853.645	3823
853.78	3968
853.914	3884
854.048	3876
854.183	3899
854.317	3972
854.451	4055
854.585	3949
854.72	3926
854.854	4071
854.988	3922
855.122	3979
855.256	3915
855.39	4021
855.524	4074
855.658	4071
855.792	4120
855.926	4128
856.06	4154
856.194	4204
856.327	4109
856.461	4143
856.595	4169
856.729	4150
856.862	4265
856.996	4204
857.13	4303
857.263	4299
857.397	4356
857.53	4234
857.664	4291
857.797	4375
857.931	4405
858.064	4417
858.197	4424
858.331	4424
858.464	4348
858.597	4386
858.731	4462
858.864	4424
858.997	4447
859.13	4478
859.263	4504
859.396	4573
859.529	4504
859.662	4512
859.795	4527
859.928	4584
860.061	4710
860.194	4733
860.327	4634
860.46	4653
860.592	4744
860.725	4801
860.858	4763
860.99	4664
861.123	4626
861.256	4740
861.388	4759
861.521	5566
861.653	4702
861.786	4771
861.918	4725
862.05	4771
862.183	4767
862.315	4873
862.447	4911
862.58	4900
862.712	4793
862.844	4755
862.976	4870
863.108	4877
863.24	5162
863.372	4820
863.504	4881
863.636	4915
863.768	4972
863.9	4980
864.032	4919
864.164	4953
864.296	5033
864.428	5056
864.559	5033
864.691	5052
864.823	5147
864.954	5094
865.086	5143
865.217	5143
865.349	5083
865.48	5181
865.612	5181
865.743	5341
865.875	5151
866.006	5166
866.137	5239
866.269	5220
866.4	5235
866.531	5239
866.662	5204
866.793	5315
866.924	5288
867.055	5349
867.186	5311
867.317	5250
867.448	5311
867.579	5383
867.71	5417
867.841	5372
867.972	5433
868.103	5493
868.233	5516
868.364	5463
868.495	5543
868.625	5657
868.756	5794
868.886	5646
869.017	5703
869.147	5805
869.278	5805
869.408	5847
869.539	5821
869.669	5916
869.799	5882
869.929	5935
870.06	5992
870.19	6197
870.32	6194
870.45	6277
870.58	6414
870.71	6426
870.84	6429
870.97	6388
871.1	6410
871.23	6673
871.36	6635
871.489	6662
871.619	6719
871.749	6783
871.879	6814
872.008	7012
872.138	6954
872.267	6981
872.397	6977
872.526	6966
872.656	7031
872.785	7282
872.915	7285
873.044	7491
873.173	7544
873.303	7616
873.432	7833
873.561	7833
873.69	7890
873.819	7947
873.948	8149
874.077	8240
874.206	8290
874.335	8492
874.464	8629
874.593	8880
874.722	8861
874.851	9127
874.979	9279
875.108	9428
875.237	9435
875.365	9424
875.494	9705
875.623	9861
875.751	9785
875.88	9972
876.008	10124
876.136	10227
876.265	10569
876.393	10637
876.521	10820
876.65	10828
876.778	10771
876.906	10957
877.034	10968
877.162	11113
877.29	11181
877.418	11239
877.546	11379
877.674	11448
877.802	11395
877.93	11547
878.058	11509
878.185	11615
878.313	11608
878.441	11745
878.568	11680
878.696	11840
878.824	11870
878.951	11878
879.079	12049
879.206	12178
879.333	12045
879.461	11961
879.588	12019
879.715	12129
879.842	12178
879.97	12110
880.097	11882
880.224	11847
880.351	11809
880.478	11855
880.605	11802
880.732	11813
880.859	12079
880.986	11821
881.112	11836
881.239	11710
881.366	11596
881.493	11630
881.619	11524
881.746	11543
881.872	11585
881.999	11520
882.125	11463
882.252	11436
882.378	11444
882.505	11501
882.631	11334
882.757	11296
882.883	11360
883.01	11235
883.136	11223
883.262	11102
883.388	11025
883.514	11212
883.64	11128
883.766	11162
883.892	10881
884.018	10976
884.143	11155
884.269	10987
884.395	10873
884.52	10797
884.646	10740
884.772	10714
884.897	10653
885.023	10687
885.148	10786
885.274	10733
885.399	10660
885.524	10565
885.65	10622
885.775	10546
885.9	10523
886.025	10596
886.15	10546
886.275	10455
886.4	10413
886.525	10382
886.65	10337
886.775	10337
886.9	10417
887.025	10577
887.149	10356
887.274	10238
887.399	10238
887.523	10185
887.648	10101
887.773	10082
887.897	10200
888.021	10253
888.146	10097
888.27	10166
888.395	10166
888.519	10192
888.643	10166
888.767	10181
888.891	10074
889.015	10097
889.139	10071
889.263	9991
889.387	10059
889.511	10074
889.635	10032
889.759	9949
889.883	9968
890.006	10010
890.13	10051
890.254	9922
890.377	9983
890.501	9876
890.624	9899
890.748	9823
890.871	9797
890.995	9732
891.118	9690
891.241	9713
891.364	9770
891.488	9785
891.611	9724
891.734	9701
891.857	9709
891.98	9781
892.103	9762
892.226	9705
892.349	9663
892.471	9485
892.594	9572
892.717	9576
892.839	9614
892.962	9538
893.085	9629
893.207	9652
893.33	9477
893.452	9496
893.575	9599
893.697	9458
893.819	9576
893.941	9606
894.064	9629
894.186	9412
894.308	9439
894.43	9553
894.552	9504
894.674	9523
894.796	9370
894.918	9382
895.04	9363
895.161	9317
895.283	9329
895.405	9169
895.526	9165
895.648	9245
895.769	9291
895.891	9230
896.012	9291
896.134	9195
896.255	9085
896.376	9131
896.498	9150
896.619	9157
896.74	9043
896.861	9188
896.982	9241
897.103	9275
897.224	9173
897.345	9112
897.466	8952
897.587	9001
897.708	9119
897.828	9001
897.949	8921
898.07	8883
898.19	8826
898.311	8952
898.431	8880
898.552	8895
898.672	8963
898.792	8963
898.913	8914
899.033	8762
899.153	8746
899.273	8663
899.393	8682
899.513	8739
899.633	8716
899.753	8746
899.873	8712
899.993	8705
900.113	8644
900.232	8724
900.352	8655
900.472	8587
900.591	8659
900.711	8594
900.83	8575
900.95	8587
901.069	8735
901.189	8625
901.308	8434
901.427	8404
901.546	8465
901.665	8404
901.784	8492
901.904	8385
902.023	8400
902.141	8153
902.26	8218
902.379	8298
902.498	8275
902.617	8164
902.735	8298
902.854	8290
902.973	8298
903.091	8088
903.21	8111
903.328	8115
903.446	8088
903.565	8062
903.683	8092
903.801	8065
903.919	8142
904.038	8096
904.156	8016
904.274	8096
904.392	8046
904.51	8031
904.627	8012
904.745	8115
904.863	8062
904.981	7898
905.098	7894
905.216	7833
905.334	7860
905.451	7909
905.569	7833
905.686	7921
905.803	7921
905.921	7753
906.038	7868
906.155	7784
906.272	7723
906.389	7746
906.506	7632
906.623	7670
906.74	7552
906.857	7525
906.974	7613
907.091	7689
907.208	7647
907.324	7616
907.441	7582
907.557	7449
907.674	7419
907.79	7358
907.907	7434
908.023	7434
908.139	7396
908.256	7392
908.372	7365
908.488	7403
908.604	7255
908.72	7217
908.836	7278
908.952	7244
909.068	7316
909.184	7362
909.3	7266
909.415	7312
909.531	7266
909.647	7129
909.762	7110
909.878	7110
909.993	7110
910.108	7069
910.224	7065
910.339	7099
910.454	7050
910.57	7008
910.685	6958
910.8	7133
910.915	7084
911.03	6962
911.145	6916
911.259	6844
911.374	6913
911.489	6768
911.604	6802
911.718	6696
911.833	6692
911.947	6559
912.062	6559
912.176	6734
912.291	6692
912.405	6700
912.519	6806
912.633	6825
912.748	6681
912.862	6722
912.976	6585
913.09	6513
913.204	6563
913.318	6578
913.431	6608
913.545	6635
913.659	6738
913.772	6601
913.886	6570
914	6540
914.113	6654
914.226	6570
914.34	6620
914.453	6563
914.566	6574
914.68	6498
914.793	6547
914.906	6456
915.019	6403
915.132	6391
915.245	6391
915.358	6456
915.47	6429
915.583	6494
915.696	6528
915.809	6517
915.921	6528
916.034	6410
916.146	6426
916.259	6338
916.371	6452
916.483	6452
916.595	6422
916.708	6422
916.82	6407
916.932	6353
917.044	6380
917.156	6399
917.268	6308
917.38	6342
917.491	6292
917.603	6338
917.715	6388
917.826	6403
917.938	6292
918.049	6289
918.161	6308
918.272	6407
918.384	6471
918.495	6304
918.606	6254
918.717	6220
918.828	6213
918.939	6270
919.05	6182
919.161	6270
919.272	6106
919.383	6129
919.494	6304
919.604	6395
919.715	6285
919.826	6216
919.936	6247
920.047	6334
920.157	6209
920.267	6452
920.378	6270
920.488	6296
920.598	6456
920.708	6593
920.818	6395
920.928	6422
921.038	6559
921.148	6525
921.258	6376
921.368	6273
921.477	6224
921.587	6167
921.697	6057
921.806	6216
921.916	6053
922.025	5977
922.134	5908
922.244	5844
922.353	5889
922.462	5828
922.571	5786
922.68	5695
922.789	5680
922.898	5741
923.007	5596
923.116	5764
923.224	5642
923.333	5672
923.442	5589
923.55	5592
923.659	5615
923.767	5589
923.876	5528
923.984	5577
924.092	5543
924.201	5539
924.309	5528
924.417	5570
924.525	5520
924.633	5474
924.741	6296
924.849	5406
924.956	5406
925.064	5395
925.172	5299
925.279	5330
925.387	5395
925.494	5341
925.602	5395
925.709	5372
925.816	5242
925.924	5288
926.031	5429
926.138	5311
926.245	5284
926.352	5231
926.459	5334
926.566	5322
926.673	5197
926.779	5105
926.886	5132
926.993	4976
927.099	4965
927.206	4949
927.312	4911
927.419	5029
927.525	4999
927.631	4995
927.737	4881
927.843	4847
927.95	4740
928.056	4816
928.162	4850
928.267	4896
928.373	5181
928.479	4831
928.585	4710
928.69	4725
928.796	4725
928.901	4641
929.007	4588
929.112	4641
929.218	4615
929.323	4573
929.428	4561
929.533	4634
929.638	4440
929.743	4516
929.848	4497
929.953	4500
930.058	4417
930.163	4295
930.267	4398
930.372	4459
930.477	4322
930.581	4489
930.685	4356
930.79	4219
930.894	4299
930.998	4306
931.103	4352
931.207	4124
931.311	4032
931.415	4010
931.519	3907
931.623	3926
