Data from glass_V78500241_2606.txt Node
Date: Wed Sep 01 19:32:33 CST 2021
User: usil
Spectrometer: V785-0024
Trigger mode: 0
Integration Time (sec): 4.000000E-1
Scans to average: 1
Nonlinearity correction enabled: false
Boxcar width: 0
Storing dark spectrum: false
XAxis mode: Wavelengths
Number of Pixels in Spectrum: 1024
>>>>>Begin Spectral Data<<<<<
801.071	3713
801.214	3743
801.356	3648
801.499	3694
801.641	3671
801.783	3797
801.926	3873
802.068	3831
802.211	3865
802.353	3861
802.496	3808
802.638	3857
802.78	3884
802.923	3922
803.065	3857
803.208	3861
803.35	3857
803.492	3926
803.635	3926
803.777	3838
803.919	3854
804.061	4116
804.204	3979
804.346	3922
804.488	3949
804.63	4059
804.773	3945
804.915	4025
805.057	4139
805.199	4040
805.341	4029
805.483	4131
805.626	4097
805.768	4097
805.91	4181
806.052	4249
806.194	4169
806.336	4363
806.478	4188
806.62	4185
806.762	4185
806.904	4227
807.046	4310
807.188	4162
807.33	4147
807.472	4280
807.614	4166
807.756	4276
807.898	4223
808.04	4173
808.182	4299
808.324	4318
808.465	4348
808.607	4417
808.749	4413
808.891	4443
809.033	4478
809.174	4375
809.316	4265
809.458	4234
809.6	4154
809.741	4128
809.883	4147
810.025	4196
810.166	4192
810.308	4185
810.45	4242
810.591	4215
810.733	4291
810.875	4527
811.016	4809
811.158	5105
811.299	5284
811.441	5242
811.582	5018
811.724	4691
811.865	4440
812.007	4447
812.148	4451
812.29	4390
812.431	4402
812.573	4402
812.714	4394
812.855	4428
812.997	4398
813.138	4466
813.279	4360
813.421	4322
813.562	4348
813.703	4314
813.845	4295
813.986	4268
814.127	4196
814.268	4272
814.41	4299
814.551	4246
814.692	4276
814.833	4257
814.974	4284
815.115	4341
815.256	4242
815.397	4200
815.539	4219
815.68	4242
815.821	4173
815.962	4265
816.103	4344
816.244	4227
816.385	4207
816.526	4257
816.666	4185
816.807	4082
816.948	4166
817.089	4185
817.23	4086
817.371	4048
817.512	4048
817.653	4071
817.793	4032
817.934	4017
818.075	4071
818.216	4040
818.356	4055
818.497	4002
818.638	3880
818.778	3941
818.919	3857
819.06	3823
819.2	3926
819.341	3823
819.481	3869
819.622	3854
819.762	4040
819.903	3941
820.043	3816
820.184	3854
820.324	3785
820.465	3842
820.605	3861
820.746	3835
820.886	3774
821.026	3888
821.167	3918
821.307	3956
821.447	3956
821.588	3937
821.728	3899
821.868	3941
822.008	3835
822.149	3884
822.289	3937
822.429	3732
822.569	3774
822.709	3816
822.849	3663
822.99	3675
823.13	3705
823.27	3778
823.41	3720
823.55	3717
823.69	3698
823.83	3698
823.97	3663
824.11	3603
824.25	3614
824.389	3603
824.529	3637
824.669	3644
824.809	3709
824.949	3766
825.089	3732
825.228	3652
825.368	3614
825.508	3549
825.648	3511
825.787	3603
825.927	3652
826.067	3614
826.206	3641
826.346	3808
826.485	3766
826.625	3854
826.765	3937
826.904	3808
827.044	3648
827.183	3538
827.323	3393
827.462	3447
827.601	3424
827.741	3428
827.88	3454
828.02	3363
828.159	3473
828.298	3443
828.437	3538
828.577	3450
828.716	3557
828.855	3496
828.994	3367
829.134	3321
829.273	3378
829.412	3351
829.551	3329
829.69	3382
829.829	3428
829.968	3485
830.107	3454
830.246	3416
830.385	3359
830.524	3317
830.663	3298
830.802	3253
830.941	3192
831.08	3173
831.219	3279
831.357	3241
831.496	3374
831.635	3214
831.774	3199
831.913	3184
832.051	3112
832.19	3131
832.329	3226
832.467	3085
832.606	3089
832.744	3146
832.883	3165
833.022	3176
833.16	3256
833.299	3298
833.437	3306
833.576	3370
833.714	3386
833.852	3416
833.991	3435
834.129	3462
834.267	3466
834.406	3409
834.544	3424
834.682	3374
834.821	3386
834.959	3561
835.097	3367
835.235	3526
835.373	3507
835.511	3504
835.65	3424
835.788	3485
835.926	3367
836.064	3378
836.202	3374
836.34	3557
836.478	3603
836.615	3534
836.753	3557
836.891	3629
837.029	3610
837.167	3564
837.305	3549
837.443	3534
837.58	3450
837.718	3542
837.856	3534
837.993	3500
838.131	3591
838.269	3610
838.406	3599
838.544	3553
838.681	3488
838.819	3450
838.956	3367
839.094	3370
839.231	3424
839.369	3507
839.506	3720
839.643	3618
839.781	3462
839.918	3412
840.055	3473
840.193	3523
840.33	3515
840.467	3549
840.604	3591
840.742	3838
840.879	3523
841.016	3561
841.153	3572
841.29	3751
841.427	3740
841.564	3701
841.701	3701
841.838	3717
841.975	3682
842.112	3709
842.249	3614
842.385	3595
842.522	3827
842.659	3679
842.796	3705
842.933	3736
843.069	3690
843.206	3717
843.343	3816
843.479	3785
843.616	3835
843.752	3667
843.889	3690
844.025	3827
844.162	3705
844.298	3861
844.435	3804
844.571	3785
844.708	3934
844.844	4006
844.98	3987
845.117	3975
845.253	3907
845.389	3926
845.525	4017
845.661	3960
845.798	3956
845.934	3994
846.07	3926
846.206	4040
846.342	4109
846.478	4097
846.614	3968
846.75	3930
846.886	3873
847.022	4010
847.158	3930
847.294	4010
847.429	3991
847.565	4006
847.701	4238
847.837	3865
847.972	3812
848.108	3975
848.244	3983
848.379	3808
848.515	3774
848.65	3816
848.786	3857
848.921	3869
849.057	3926
849.192	3930
849.328	3896
849.463	3953
849.598	3846
849.734	3896
849.869	3808
850.004	3785
850.14	3755
850.275	3770
850.41	3736
850.545	3728
850.68	3766
850.815	3762
850.95	3766
851.085	3953
851.22	3873
851.355	3827
851.49	3743
851.625	3781
851.76	3770
851.895	3694
852.03	3717
852.165	3774
852.299	3831
852.434	3899
852.569	3869
852.703	3892
852.838	3915
852.973	3975
853.107	3911
853.242	3827
853.376	3842
853.511	3759
853.645	3827
853.78	3968
853.914	3911
854.048	3930
854.183	3846
854.317	3915
854.451	4059
854.585	3953
854.72	3934
854.854	4063
854.988	3907
855.122	3987
855.256	3892
855.39	4021
855.524	4082
855.658	4109
855.792	4067
855.926	4124
856.06	4150
856.194	4196
856.327	4135
856.461	4105
856.595	4093
856.729	4131
856.862	4276
856.996	4204
857.13	4265
857.263	4310
857.397	4375
857.53	4219
857.664	4314
857.797	4383
857.931	4436
858.064	4341
858.197	4440
858.331	4360
858.464	4360
858.597	4356
858.731	4436
858.864	4398
858.997	4481
859.13	4485
859.263	4519
859.396	4546
859.529	4523
859.662	4546
859.795	4535
859.928	4577
860.061	4687
860.194	4706
860.327	4668
860.46	4618
860.592	4759
860.725	4759
860.858	4801
860.99	4694
861.123	4672
861.256	4679
861.388	4774
861.521	5318
861.653	4702
861.786	4736
861.918	4740
862.05	4801
862.183	4790
862.315	4908
862.447	4919
862.58	4889
862.712	4774
862.844	4771
862.976	4862
863.108	4858
863.24	5140
863.372	4797
863.504	4881
863.636	4873
863.768	4927
863.9	4957
864.032	4885
864.164	4968
864.296	5029
864.428	5048
864.559	5064
864.691	5083
864.823	5159
864.954	5124
865.086	5132
865.217	5136
865.349	5090
865.48	5170
865.612	5113
865.743	5242
865.875	5159
866.006	5151
866.137	5223
866.269	5288
866.4	5227
866.531	5261
866.662	5216
866.793	5269
866.924	5315
867.055	5299
867.186	5322
867.317	5307
867.448	5299
867.579	5318
867.71	5421
867.841	5372
867.972	5452
868.103	5463
868.233	5421
868.364	5497
868.495	5543
868.625	5627
868.756	5798
868.886	5615
869.017	5783
869.147	5844
869.278	5874
869.408	5805
869.539	5863
869.669	5935
869.799	5901
869.929	5969
870.06	6015
870.19	6129
870.32	6155
870.45	6285
870.58	6357
870.71	6353
870.84	6475
870.97	6418
871.1	6445
871.23	6639
871.36	6692
871.489	6578
871.619	6719
871.749	6791
871.879	6848
872.008	6996
872.138	6947
872.267	6951
872.397	6989
872.526	7019
872.656	7061
872.785	7160
872.915	7377
873.044	7422
873.173	7601
873.303	7655
873.432	7700
873.561	7822
873.69	7913
873.819	8001
873.948	8206
874.077	8218
874.206	8351
874.335	8461
874.464	8636
874.593	8845
874.722	8956
874.851	9123
874.979	9268
875.108	9348
875.237	9359
875.365	9420
875.494	9591
875.623	9819
875.751	9888
875.88	9987
876.008	10162
876.136	10287
876.265	10493
876.393	10740
876.521	10816
876.65	10831
876.778	10828
876.906	10866
877.034	11006
877.162	11075
877.29	11109
877.418	11360
877.546	11334
877.674	11448
877.802	11478
877.93	11505
878.058	11566
878.185	11554
878.313	11577
878.441	11847
878.568	11745
878.696	11775
878.824	11916
878.951	11878
879.079	11923
879.206	12076
879.333	12003
879.461	11977
879.588	12034
879.715	12102
879.842	12178
879.97	12030
880.097	11866
880.224	11870
880.351	11942
880.478	11855
880.605	11866
880.732	11798
880.859	11984
880.986	11840
881.112	11885
881.239	11680
881.366	11703
881.493	11627
881.619	11501
881.746	11539
881.872	11577
881.999	11463
882.125	11444
882.252	11539
882.378	11543
882.505	11554
882.631	11379
882.757	11216
882.883	11258
883.01	11254
883.136	11235
883.262	11151
883.388	11037
883.514	11265
883.64	11143
883.766	11151
883.892	11071
884.018	10999
884.143	11083
884.269	11071
884.395	10835
884.52	10767
884.646	10759
884.772	10702
884.897	10630
885.023	10744
885.148	10637
885.274	10767
885.399	10672
885.524	10611
885.65	10561
885.775	10542
885.9	10596
886.025	10569
886.15	10554
886.275	10386
886.4	10356
886.525	10363
886.65	10268
886.775	10322
886.9	10493
887.025	10500
887.149	10280
887.274	10223
887.399	10166
887.523	10181
887.648	10093
887.773	10090
887.897	10219
888.021	10196
888.146	10154
888.27	10230
888.395	10253
888.519	10177
888.643	10181
888.767	10162
888.891	9998
889.015	9941
889.139	10090
889.263	9968
889.387	10017
889.511	10090
889.635	10021
889.759	9937
889.883	9949
890.006	10025
890.13	10048
890.254	9911
890.377	9949
890.501	9907
890.624	9911
890.748	9812
890.871	9842
890.995	9743
891.118	9682
891.241	9766
891.364	9705
891.488	9804
891.611	9774
891.734	9728
891.857	9789
891.98	9774
892.103	9698
892.226	9686
892.349	9637
892.471	9454
892.594	9629
892.717	9663
892.839	9526
892.962	9584
893.085	9629
893.207	9572
893.33	9515
893.452	9504
893.575	9595
893.697	9477
893.819	9606
893.941	9591
894.064	9614
894.186	9469
894.308	9428
894.43	9515
894.552	9652
894.674	9477
894.796	9367
894.918	9424
895.04	9317
895.161	9321
895.283	9302
895.405	9214
895.526	9188
895.648	9199
895.769	9211
895.891	9298
896.012	9317
896.134	9161
896.255	9119
896.376	9131
896.498	9146
896.619	9108
896.74	9058
896.861	9089
896.982	9188
897.103	9253
897.224	9112
897.345	9032
897.466	8956
897.587	8948
897.708	9070
897.828	8986
897.949	8986
898.07	8872
898.19	8948
898.311	9077
898.431	8880
898.552	8929
898.672	9020
898.792	8948
898.913	8876
899.033	8800
899.153	8712
899.273	8667
899.393	8708
899.513	8781
899.633	8693
899.753	8670
899.873	8705
899.993	8716
900.113	8697
900.232	8644
900.352	8689
900.472	8610
900.591	8545
900.711	8587
900.83	8480
900.95	8659
901.069	8670
901.189	8545
901.308	8370
901.427	8412
901.546	8370
901.665	8393
901.784	8415
901.904	8404
902.023	8389
902.141	8202
902.26	8164
902.379	8324
902.498	8183
902.617	8229
902.735	8195
902.854	8328
902.973	8168
903.091	8069
903.21	8107
903.328	8142
903.446	8092
903.565	8031
903.683	8039
903.801	8088
903.919	8126
904.038	8123
904.156	8012
904.274	8077
904.392	8039
904.51	7955
904.627	8077
904.745	8027
904.863	8168
904.981	7822
905.098	7913
905.216	7849
905.334	7811
905.451	7871
905.569	7830
905.686	7944
905.803	7925
905.921	7750
906.038	7871
906.155	7780
906.272	7712
906.389	7731
906.506	7655
906.623	7620
906.74	7529
906.857	7529
906.974	7552
907.091	7647
907.208	7677
907.324	7582
907.441	7510
907.557	7472
907.674	7533
907.79	7392
907.907	7365
908.023	7468
908.139	7407
908.256	7339
908.372	7365
908.488	7263
908.604	7266
908.72	7232
908.836	7259
908.952	7217
909.068	7187
909.184	7278
909.3	7270
909.415	7301
909.531	7240
909.647	7046
909.762	7069
909.878	7137
909.993	7084
910.108	7088
910.224	7034
910.339	7061
910.454	7008
910.57	6966
910.685	6977
910.8	7149
910.915	7084
911.03	6996
911.145	6916
911.259	6852
911.374	6863
911.489	6905
911.604	6760
911.718	6772
911.833	6764
911.947	6650
912.062	6574
912.176	6684
912.291	6719
912.405	6673
912.519	6798
912.633	6825
912.748	6760
912.862	6681
912.976	6616
913.09	6452
913.204	6566
913.318	6601
913.431	6696
913.545	6658
913.659	6798
913.772	6597
913.886	6623
914	6525
914.113	6623
914.226	6593
914.34	6578
914.453	6517
914.566	6582
914.68	6456
914.793	6483
914.906	6418
915.019	6365
915.132	6365
915.245	6410
915.358	6407
915.47	6437
915.583	6460
915.696	6410
915.809	6498
915.921	6490
916.034	6410
916.146	6407
916.259	6376
916.371	6422
916.483	6467
916.595	6372
916.708	6414
916.82	6407
916.932	6365
917.044	6372
917.156	6395
917.268	6251
917.38	6311
917.491	6273
917.603	6277
917.715	6388
917.826	6350
917.938	6251
918.049	6209
918.161	6350
918.272	6380
918.384	6410
918.495	6331
918.606	6216
918.717	6197
918.828	6251
918.939	6273
919.05	6216
919.161	6190
919.272	6098
919.383	6121
919.494	6285
919.604	6456
919.715	6235
919.826	6178
919.936	6205
920.047	6338
920.157	6235
920.267	6475
920.378	6315
920.488	6262
920.598	6460
920.708	6513
920.818	6471
920.928	6422
921.038	6662
921.148	6513
921.258	6285
921.368	6304
921.477	6235
921.587	6194
921.697	6076
921.806	6220
921.916	6064
922.025	5897
922.134	5874
922.244	5874
922.353	5912
922.462	5748
922.571	5798
922.68	5707
922.789	5688
922.898	5710
923.007	5619
923.116	5707
923.224	5688
923.333	5668
923.442	5615
923.55	5615
923.659	5634
923.767	5623
923.876	5551
923.984	5562
924.092	5497
924.201	5566
924.309	5608
924.417	5554
924.525	5452
924.633	5478
924.741	6205
924.849	5277
924.956	5440
925.064	5349
925.172	5364
925.279	5299
925.387	5364
925.494	5315
925.602	5372
925.709	5383
925.816	5299
925.924	5254
926.031	5330
926.138	5311
926.245	5296
926.352	5185
926.459	5368
926.566	5284
926.673	5178
926.779	5105
926.886	5121
926.993	5037
927.099	5041
927.206	4972
927.312	4965
927.419	5033
927.525	4923
927.631	4991
927.737	4892
927.843	4801
927.95	4786
928.056	4854
928.162	4816
928.267	4824
928.373	5231
928.479	4850
928.585	4698
928.69	4740
928.796	4691
928.901	4725
929.007	4561
929.112	4664
929.218	4596
929.323	4615
929.428	4538
929.533	4653
929.638	4504
929.743	4519
929.848	4542
929.953	4466
930.058	4428
930.163	4325
930.267	4318
930.372	4405
930.477	4276
930.581	4447
930.685	4421
930.79	4276
930.894	4257
930.998	4223
931.103	4348
931.207	4150
931.311	4048
931.415	4013
931.519	3945
931.623	3953
