Data from glass_V78500241_2781.txt Node
Date: Wed Sep 01 19:33:46 CST 2021
User: usil
Spectrometer: V785-0024
Trigger mode: 0
Integration Time (sec): 4.000000E-1
Scans to average: 1
Nonlinearity correction enabled: false
Boxcar width: 0
Storing dark spectrum: false
XAxis mode: Wavelengths
Number of Pixels in Spectrum: 1024
>>>>>Begin Spectral Data<<<<<
801.071	3682
801.214	3743
801.356	3686
801.499	3705
801.641	3720
801.783	3797
801.926	3838
802.068	3804
802.211	3831
802.353	3846
802.496	3827
802.638	3819
802.78	3949
802.923	3907
803.065	3876
803.208	3838
803.35	3838
803.492	3880
803.635	3926
803.777	3778
803.919	3915
804.061	4143
804.204	3979
804.346	3915
804.488	3880
804.63	4025
804.773	3964
804.915	4040
805.057	4162
805.199	4036
805.341	4067
805.483	4131
805.626	4090
805.768	4105
805.91	4147
806.052	4207
806.194	4188
806.336	4318
806.478	4196
806.62	4188
806.762	4131
806.904	4242
807.046	4344
807.188	4181
807.33	4196
807.472	4200
807.614	4150
807.756	4249
807.898	4192
808.04	4223
808.182	4234
808.324	4280
808.465	4413
808.607	4451
808.749	4459
808.891	4485
809.033	4531
809.174	4367
809.316	4261
809.458	4257
809.6	4162
809.741	4105
809.883	4128
810.025	4249
810.166	4207
810.308	4181
810.45	4234
810.591	4249
810.733	4287
810.875	4485
811.016	4820
811.158	5128
811.299	5220
811.441	5265
811.582	5003
811.724	4736
811.865	4421
812.007	4455
812.148	4363
812.29	4413
812.431	4367
812.573	4356
812.714	4344
812.855	4417
812.997	4421
813.138	4474
813.279	4379
813.421	4356
813.562	4383
813.703	4322
813.845	4318
813.986	4185
814.127	4242
814.268	4219
814.41	4238
814.551	4257
814.692	4310
814.833	4276
814.974	4276
815.115	4322
815.256	4246
815.397	4230
815.539	4223
815.68	4204
815.821	4196
815.962	4291
816.103	4261
816.244	4173
816.385	4188
816.526	4295
816.666	4227
816.807	4086
816.948	4147
817.089	4177
817.23	4158
817.371	4032
817.512	4063
817.653	4059
817.793	4002
817.934	4032
818.075	4105
818.216	4074
818.356	4135
818.497	3972
818.638	3926
818.778	3926
818.919	3896
819.06	3869
819.2	3899
819.341	3865
819.481	3835
819.622	3888
819.762	4006
819.903	3903
820.043	3857
820.184	3789
820.324	3800
820.465	3873
820.605	3808
820.746	3804
820.886	3797
821.026	3903
821.167	3907
821.307	3949
821.447	3941
821.588	3991
821.728	3911
821.868	3911
822.008	3857
822.149	3911
822.289	3899
822.429	3728
822.569	3713
822.709	3747
822.849	3705
822.99	3705
823.13	3770
823.27	3774
823.41	3751
823.55	3728
823.69	3743
823.83	3740
823.97	3644
824.11	3610
824.25	3576
824.389	3625
824.529	3618
824.669	3606
824.809	3652
824.949	3713
825.089	3732
825.228	3701
825.368	3580
825.508	3549
825.648	3549
825.787	3622
825.927	3618
826.067	3618
826.206	3652
826.346	3762
826.485	3766
826.625	3812
826.765	3899
826.904	3816
827.044	3633
827.183	3519
827.323	3409
827.462	3511
827.601	3420
827.741	3409
827.88	3397
828.02	3348
828.159	3405
828.298	3473
828.437	3488
828.577	3515
828.716	3530
828.855	3439
828.994	3325
829.134	3344
829.273	3355
829.412	3336
829.551	3332
829.69	3336
829.829	3382
829.968	3504
830.107	3435
830.246	3420
830.385	3370
830.524	3329
830.663	3283
830.802	3245
830.941	3176
831.08	3161
831.219	3253
831.357	3245
831.496	3401
831.635	3233
831.774	3203
831.913	3154
832.051	3100
832.19	3154
832.329	3222
832.467	3154
832.606	3100
832.744	3184
832.883	3188
833.022	3180
833.16	3207
833.299	3264
833.437	3302
833.576	3344
833.714	3378
833.852	3389
833.991	3424
834.129	3435
834.267	3420
834.406	3389
834.544	3435
834.682	3401
834.821	3416
834.959	3545
835.097	3428
835.235	3538
835.373	3481
835.511	3515
835.65	3454
835.788	3496
835.926	3374
836.064	3351
836.202	3424
836.34	3515
836.478	3553
836.615	3523
836.753	3591
836.891	3625
837.029	3618
837.167	3580
837.305	3542
837.443	3492
837.58	3504
837.718	3568
837.856	3542
837.993	3545
838.131	3572
838.269	3557
838.406	3545
838.544	3545
838.681	3477
838.819	3428
838.956	3386
839.094	3405
839.231	3458
839.369	3473
839.506	3717
839.643	3591
839.781	3435
839.918	3466
840.055	3511
840.193	3523
840.33	3542
840.467	3542
840.604	3618
840.742	3797
840.879	3492
841.016	3549
841.153	3587
841.29	3740
841.427	3656
841.564	3679
841.701	3709
841.838	3690
841.975	3660
842.112	3740
842.249	3622
842.385	3591
842.522	3808
842.659	3660
842.796	3663
842.933	3679
843.069	3656
843.206	3717
843.343	3770
843.479	3755
843.616	3812
843.752	3660
843.889	3644
844.025	3850
844.162	3667
844.298	3793
844.435	3781
844.571	3740
844.708	3861
844.844	3937
844.98	4002
845.117	3983
845.253	3937
845.389	3888
845.525	3922
845.661	3937
845.798	3892
845.934	4025
846.07	3896
846.206	4051
846.342	4097
846.478	4040
846.614	3949
846.75	3911
846.886	3945
847.022	4006
847.158	3941
847.294	4002
847.429	3960
847.565	4013
847.701	4227
847.837	3816
847.972	3857
848.108	3991
848.244	3945
848.379	3823
848.515	3835
848.65	3842
848.786	3850
848.921	3838
849.057	3869
849.192	3918
849.328	3842
849.463	3903
849.598	3854
849.734	3819
849.869	3800
850.004	3770
850.14	3781
850.275	3770
850.41	3740
850.545	3728
850.68	3755
850.815	3800
850.95	3793
851.085	3918
851.22	3846
851.355	3812
851.49	3774
851.625	3778
851.76	3770
851.895	3732
852.03	3709
852.165	3778
852.299	3831
852.434	3861
852.569	3816
852.703	3846
852.838	3869
852.973	4021
853.107	3949
853.242	3907
853.376	3850
853.511	3740
853.645	3812
853.78	3918
853.914	3884
854.048	3842
854.183	3884
854.317	3896
854.451	4048
854.585	3922
854.72	3903
854.854	4051
854.988	3941
855.122	3994
855.256	3884
855.39	4013
855.524	4059
855.658	4063
855.792	4097
855.926	4143
856.06	4150
856.194	4173
856.327	4082
856.461	4128
856.595	4139
856.729	4143
856.862	4238
856.996	4215
857.13	4265
857.263	4325
857.397	4352
857.53	4322
857.664	4329
857.797	4356
857.931	4421
858.064	4329
858.197	4447
858.331	4398
858.464	4379
858.597	4352
858.731	4417
858.864	4455
858.997	4409
859.13	4500
859.263	4497
859.396	4550
859.529	4569
859.662	4535
859.795	4538
859.928	4580
860.061	4687
860.194	4729
860.327	4637
860.46	4668
860.592	4698
860.725	4702
860.858	4755
860.99	4725
861.123	4698
861.256	4687
861.388	4759
861.521	5250
861.653	4721
861.786	4641
861.918	4759
862.05	4774
862.183	4870
862.315	4816
862.447	4908
862.58	4873
862.712	4793
862.844	4786
862.976	4843
863.108	4873
863.24	5235
863.372	4771
863.504	4866
863.636	4839
863.768	4984
863.9	4870
864.032	4908
864.164	4934
864.296	4999
864.428	5098
864.559	5098
864.691	5155
864.823	5048
864.954	5067
865.086	5124
865.217	5109
865.349	5128
865.48	5117
865.612	5181
865.743	5246
865.875	5250
866.006	5159
866.137	5227
866.269	5231
866.4	5235
866.531	5170
866.662	5204
866.793	5273
866.924	5303
867.055	5337
867.186	5299
867.317	5296
867.448	5318
867.579	5391
867.71	5414
867.841	5395
867.972	5433
868.103	5440
868.233	5455
868.364	5444
868.495	5589
868.625	5627
868.756	5805
868.886	5649
869.017	5748
869.147	5828
869.278	5866
869.408	5798
869.539	5840
869.669	5920
869.799	5889
869.929	5920
870.06	5958
870.19	6171
870.32	6155
870.45	6292
870.58	6342
870.71	6380
870.84	6475
870.97	6410
871.1	6437
871.23	6635
871.36	6719
871.489	6612
871.619	6711
871.749	6741
871.879	6818
872.008	6962
872.138	6954
872.267	6943
872.397	6970
872.526	6970
872.656	6993
872.785	7217
872.915	7331
873.044	7468
873.173	7514
873.303	7655
873.432	7792
873.561	7818
873.69	7864
873.819	7970
873.948	8142
874.077	8240
874.206	8320
874.335	8393
874.464	8598
874.593	8792
874.722	8880
874.851	9192
874.979	9199
875.108	9302
875.237	9408
875.365	9458
875.494	9641
875.623	9724
875.751	9850
875.88	10063
876.008	10124
876.136	10276
876.265	10493
876.393	10649
876.521	10717
876.65	10755
876.778	10892
876.906	10854
877.034	10942
877.162	11170
877.29	11117
877.418	11311
877.546	11334
877.674	11433
877.802	11501
877.93	11455
878.058	11539
878.185	11589
878.313	11623
878.441	11756
878.568	11699
878.696	11771
878.824	11847
878.951	11996
879.079	12038
879.206	12083
879.333	12125
879.461	11988
879.588	12049
879.715	11988
879.842	12186
879.97	11977
880.097	11908
880.224	11901
880.351	11836
880.478	11783
880.605	11821
880.732	11817
880.859	12064
880.986	11824
881.112	11824
881.239	11710
881.366	11676
881.493	11646
881.619	11566
881.746	11547
881.872	11562
881.999	11535
882.125	11535
882.252	11581
882.378	11429
882.505	11478
882.631	11284
882.757	11353
882.883	11337
883.01	11296
883.136	11094
883.262	11083
883.388	11037
883.514	11155
883.64	11178
883.766	11045
883.892	11060
884.018	10915
884.143	10999
884.269	11079
884.395	10892
884.52	10793
884.646	10759
884.772	10717
884.897	10607
885.023	10672
885.148	10694
885.274	10740
885.399	10664
885.524	10554
885.65	10546
885.775	10615
885.9	10577
886.025	10615
886.15	10500
886.275	10440
886.4	10390
886.525	10398
886.65	10333
886.775	10367
886.9	10390
887.025	10508
887.149	10333
887.274	10246
887.399	10143
887.523	10166
887.648	10143
887.773	10120
887.897	10207
888.021	10147
888.146	10055
888.27	10192
888.395	10196
888.519	10139
888.643	10185
888.767	10158
888.891	10048
889.015	10036
889.139	10032
889.263	9979
889.387	10105
889.511	10078
889.635	10055
889.759	10021
889.883	9979
890.006	9998
890.13	10109
890.254	9915
890.377	9918
890.501	9827
890.624	9903
890.748	9895
890.871	9800
890.995	9770
891.118	9686
891.241	9781
891.364	9785
891.488	9816
891.611	9660
891.734	9720
891.857	9720
891.98	9713
892.103	9781
892.226	9671
892.349	9633
892.471	9549
892.594	9599
892.717	9572
892.839	9507
892.962	9595
893.085	9637
893.207	9618
893.33	9504
893.452	9492
893.575	9595
893.697	9526
893.819	9610
893.941	9614
894.064	9656
894.186	9477
894.308	9462
894.43	9450
894.552	9595
894.674	9473
894.796	9431
894.918	9492
895.04	9367
895.161	9329
895.283	9344
895.405	9207
895.526	9180
895.648	9165
895.769	9211
895.891	9226
896.012	9256
896.134	9230
896.255	9180
896.376	9081
896.498	9116
896.619	9047
896.74	8982
896.861	9043
896.982	9169
897.103	9264
897.224	9150
897.345	9043
897.466	8986
897.587	9066
897.708	8948
897.828	8960
897.949	8975
898.07	8804
898.19	8910
898.311	8998
898.431	8887
898.552	8876
898.672	8994
898.792	8929
898.913	8914
899.033	8826
899.153	8731
899.273	8716
899.393	8731
899.513	8773
899.633	8739
899.753	8731
899.873	8720
899.993	8689
900.113	8632
900.232	8659
900.352	8644
900.472	8644
900.591	8598
900.711	8568
900.83	8488
900.95	8701
901.069	8621
901.189	8552
901.308	8434
901.427	8298
901.546	8427
901.665	8461
901.784	8507
901.904	8385
902.023	8301
902.141	8225
902.26	8149
902.379	8229
902.498	8176
902.617	8218
902.735	8317
902.854	8282
902.973	8237
903.091	8081
903.21	8092
903.328	8221
903.446	8081
903.565	8039
903.683	8012
903.801	8077
903.919	8103
904.038	8126
904.156	8058
904.274	8115
904.392	8043
904.51	8035
904.627	8088
904.745	8077
904.863	8088
904.981	7955
905.098	7894
905.216	7894
905.334	7856
905.451	7913
905.569	7860
905.686	7959
905.803	7887
905.921	7746
906.038	7841
906.155	7799
906.272	7719
906.389	7719
906.506	7674
906.623	7586
906.74	7582
906.857	7537
906.974	7567
907.091	7632
907.208	7674
907.324	7681
907.441	7552
907.557	7388
907.674	7426
907.79	7396
907.907	7415
908.023	7426
908.139	7419
908.256	7400
908.372	7350
908.488	7312
908.604	7251
908.72	7206
908.836	7225
908.952	7263
909.068	7240
909.184	7346
909.3	7190
909.415	7236
909.531	7320
909.647	7072
909.762	7095
909.878	7065
909.993	7129
910.108	7061
910.224	7038
910.339	7034
910.454	7015
910.57	7000
910.685	6901
910.8	7190
910.915	7080
911.03	7038
911.145	6875
911.259	6867
911.374	6878
911.489	6852
911.604	6783
911.718	6738
911.833	6639
911.947	6669
912.062	6582
912.176	6715
912.291	6722
912.405	6707
912.519	6810
912.633	6741
912.748	6734
912.862	6700
912.976	6536
913.09	6486
913.204	6551
913.318	6566
913.431	6662
913.545	6669
913.659	6684
913.772	6593
913.886	6544
914	6471
914.113	6559
914.226	6673
914.34	6620
914.453	6513
914.566	6536
914.68	6582
914.793	6536
914.906	6410
915.019	6399
915.132	6350
915.245	6437
915.358	6441
915.47	6372
915.583	6441
915.696	6384
915.809	6471
915.921	6525
916.034	6445
916.146	6403
916.259	6414
916.371	6445
916.483	6475
916.595	6384
916.708	6327
916.82	6361
916.932	6361
917.044	6350
917.156	6410
917.268	6292
917.38	6334
917.491	6292
917.603	6353
917.715	6429
917.826	6399
917.938	6315
918.049	6232
918.161	6315
918.272	6414
918.384	6429
918.495	6327
918.606	6209
918.717	6163
918.828	6300
918.939	6304
919.05	6209
919.161	6197
919.272	6091
919.383	6129
919.494	6235
919.604	6429
919.715	6289
919.826	6201
919.936	6251
920.047	6304
920.157	6266
920.267	6433
920.378	6369
920.488	6292
920.598	6426
920.708	6521
920.818	6399
920.928	6422
921.038	6616
921.148	6540
921.258	6350
921.368	6262
921.477	6178
921.587	6182
921.697	6053
921.806	6125
921.916	6057
922.025	5889
922.134	5885
922.244	5870
922.353	5958
922.462	5805
922.571	5779
922.68	5741
922.789	5649
922.898	5688
923.007	5638
923.116	5649
923.224	5638
923.333	5638
923.442	5535
923.55	5539
923.659	5585
923.767	5596
923.876	5551
923.984	5558
924.092	5589
924.201	5486
924.309	5535
924.417	5554
924.525	5539
924.633	5436
924.741	6254
924.849	5341
924.956	5482
925.064	5349
925.172	5315
925.279	5292
925.387	5364
925.494	5357
925.602	5398
925.709	5368
925.816	5216
925.924	5296
926.031	5315
926.138	5337
926.245	5341
926.352	5197
926.459	5296
926.566	5284
926.673	5223
926.779	5140
926.886	5105
926.993	5003
927.099	4961
927.206	4927
927.312	4923
927.419	4984
927.525	4976
927.631	4927
927.737	4847
927.843	4858
927.95	4752
928.056	4820
928.162	4820
928.267	4828
928.373	5299
928.479	4866
928.585	4729
928.69	4771
928.796	4752
928.901	4717
929.007	4546
929.112	4618
929.218	4653
929.323	4588
929.428	4558
929.533	4641
929.638	4489
929.743	4493
929.848	4504
929.953	4455
930.058	4417
930.163	4322
930.267	4325
930.372	4383
930.477	4295
930.581	4455
930.685	4363
930.79	4238
930.894	4238
930.998	4261
931.103	4352
931.207	4128
931.311	4013
931.415	4063
931.519	3926
931.623	3884
