Data from glass_V78500241_1977.txt Node
Date: Wed Sep 01 19:28:12 CST 2021
User: usil
Spectrometer: V785-0024
Trigger mode: 0
Integration Time (sec): 4.000000E-1
Scans to average: 1
Nonlinearity correction enabled: false
Boxcar width: 0
Storing dark spectrum: false
XAxis mode: Wavelengths
Number of Pixels in Spectrum: 1024
>>>>>Begin Spectral Data<<<<<
801.071	3732
801.214	3755
801.356	3698
801.499	3709
801.641	3705
801.783	3804
801.926	3842
802.068	3816
802.211	3861
802.353	3896
802.496	3816
802.638	3842
802.78	3884
802.923	3922
803.065	3922
803.208	3857
803.35	3899
803.492	3903
803.635	3903
803.777	3778
803.919	3888
804.061	4143
804.204	3968
804.346	3949
804.488	3918
804.63	3998
804.773	3983
804.915	4002
805.057	4177
805.199	4017
805.341	4067
805.483	4143
805.626	4097
805.768	4124
805.91	4200
806.052	4238
806.194	4192
806.336	4329
806.478	4215
806.62	4185
806.762	4166
806.904	4219
807.046	4322
807.188	4173
807.33	4188
807.472	4227
807.614	4196
807.756	4211
807.898	4185
808.04	4196
808.182	4257
808.324	4280
808.465	4383
808.607	4459
808.749	4421
808.891	4474
809.033	4470
809.174	4398
809.316	4265
809.458	4196
809.6	4154
809.741	4128
809.883	4162
810.025	4223
810.166	4230
810.308	4242
810.45	4230
810.591	4249
810.733	4276
810.875	4493
811.016	4828
811.158	5113
811.299	5318
811.441	5227
811.582	5048
811.724	4714
811.865	4432
812.007	4466
812.148	4413
812.29	4390
812.431	4386
812.573	4402
812.714	4379
812.855	4394
812.997	4440
813.138	4504
813.279	4409
813.421	4379
813.562	4371
813.703	4325
813.845	4352
813.986	4246
814.127	4185
814.268	4223
814.41	4272
814.551	4238
814.692	4360
814.833	4230
814.974	4299
815.115	4337
815.256	4219
815.397	4249
815.539	4249
815.68	4181
815.821	4215
815.962	4272
816.103	4272
816.244	4196
816.385	4268
816.526	4207
816.666	4188
816.807	4112
816.948	4177
817.089	4181
817.23	4109
817.371	4021
817.512	4059
817.653	4082
817.793	4021
817.934	4013
818.075	4105
818.216	4093
818.356	4112
818.497	4025
818.638	3934
818.778	3896
818.919	3884
819.06	3857
819.2	3907
819.341	3827
819.481	3838
819.622	3896
819.762	4002
819.903	3918
820.043	3857
820.184	3835
820.324	3816
820.465	3888
820.605	3850
820.746	3884
820.886	3812
821.026	3907
821.167	3903
821.307	3941
821.447	3994
821.588	3945
821.728	3911
821.868	3945
822.008	3880
822.149	3846
822.289	3953
822.429	3774
822.569	3797
822.709	3800
822.849	3686
822.99	3728
823.13	3724
823.27	3789
823.41	3705
823.55	3732
823.69	3701
823.83	3762
823.97	3682
824.11	3618
824.25	3545
824.389	3652
824.529	3679
824.669	3576
824.809	3751
824.949	3781
825.089	3740
825.228	3682
825.368	3595
825.508	3519
825.648	3519
825.787	3576
825.927	3667
826.067	3614
826.206	3656
826.346	3785
826.485	3842
826.625	3854
826.765	3892
826.904	3838
827.044	3648
827.183	3523
827.323	3424
827.462	3500
827.601	3409
827.741	3428
827.88	3473
828.02	3382
828.159	3443
828.298	3488
828.437	3538
828.577	3469
828.716	3564
828.855	3496
828.994	3344
829.134	3412
829.273	3374
829.412	3313
829.551	3336
829.69	3363
829.829	3435
829.968	3519
830.107	3439
830.246	3477
830.385	3336
830.524	3317
830.663	3321
830.802	3279
830.941	3180
831.08	3218
831.219	3226
831.357	3268
831.496	3389
831.635	3268
831.774	3195
831.913	3176
832.051	3119
832.19	3161
832.329	3188
832.467	3108
832.606	3104
832.744	3176
832.883	3195
833.022	3180
833.16	3268
833.299	3294
833.437	3298
833.576	3378
833.714	3393
833.852	3401
833.991	3462
834.129	3462
834.267	3439
834.406	3386
834.544	3447
834.682	3401
834.821	3386
834.959	3576
835.097	3416
835.235	3511
835.373	3496
835.511	3496
835.65	3420
835.788	3458
835.926	3386
836.064	3355
836.202	3450
836.34	3557
836.478	3584
836.615	3542
836.753	3610
836.891	3644
837.029	3595
837.167	3606
837.305	3526
837.443	3530
837.58	3519
837.718	3610
837.856	3530
837.993	3545
838.131	3610
838.269	3584
838.406	3595
838.544	3549
838.681	3435
838.819	3424
838.956	3367
839.094	3397
839.231	3458
839.369	3496
839.506	3755
839.643	3648
839.781	3511
839.918	3481
840.055	3507
840.193	3557
840.33	3523
840.467	3538
840.604	3584
840.742	3789
840.879	3553
841.016	3545
841.153	3564
841.29	3747
841.427	3686
841.564	3724
841.701	3743
841.838	3698
841.975	3698
842.112	3740
842.249	3656
842.385	3603
842.522	3778
842.659	3660
842.796	3637
842.933	3694
843.069	3713
843.206	3717
843.343	3812
843.479	3812
843.616	3804
843.752	3648
843.889	3652
844.025	3850
844.162	3705
844.298	3812
844.435	3793
844.571	3755
844.708	3896
844.844	3983
844.98	3960
845.117	3968
845.253	3937
845.389	3880
845.525	3953
845.661	3941
845.798	3922
845.934	3994
846.07	3949
846.206	4074
846.342	4139
846.478	4093
846.614	3956
846.75	3956
846.886	3922
847.022	4006
847.158	3991
847.294	3975
847.429	4029
847.565	3994
847.701	4249
847.837	3888
847.972	3869
848.108	3945
848.244	3945
848.379	3823
848.515	3816
848.65	3842
848.786	3827
848.921	3804
849.057	3930
849.192	3945
849.328	3888
849.463	3899
849.598	3884
849.734	3876
849.869	3827
850.004	3808
850.14	3797
850.275	3743
850.41	3747
850.545	3759
850.68	3812
850.815	3770
850.95	3759
851.085	3918
851.22	3869
851.355	3800
851.49	3732
851.625	3785
851.76	3789
851.895	3743
852.03	3720
852.165	3816
852.299	3816
852.434	3915
852.569	3854
852.703	3884
852.838	3964
852.973	4006
853.107	4010
853.242	3892
853.376	3846
853.511	3747
853.645	3816
853.78	3953
853.914	3911
854.048	3934
854.183	3865
854.317	3960
854.451	4044
854.585	3941
854.72	3873
854.854	4040
854.988	3892
855.122	4021
855.256	3934
855.39	4002
855.524	4135
855.658	4097
855.792	4093
855.926	4169
856.06	4185
856.194	4200
856.327	4128
856.461	4124
856.595	4101
856.729	4173
856.862	4257
856.996	4238
857.13	4272
857.263	4363
857.397	4348
857.53	4322
857.664	4325
857.797	4413
857.931	4402
858.064	4363
858.197	4428
858.331	4413
858.464	4379
858.597	4344
858.731	4409
858.864	4474
858.997	4409
859.13	4569
859.263	4512
859.396	4596
859.529	4508
859.662	4519
859.795	4531
859.928	4607
860.061	4675
860.194	4721
860.327	4630
860.46	4672
860.592	4744
860.725	4725
860.858	4752
860.99	4664
861.123	4637
861.256	4683
861.388	4809
861.521	5379
861.653	4729
861.786	4706
861.918	4725
862.05	4828
862.183	4797
862.315	4881
862.447	4904
862.58	4870
862.712	4778
862.844	4744
862.976	4797
863.108	4885
863.24	5189
863.372	4831
863.504	4866
863.636	4881
863.768	4957
863.9	4946
864.032	4942
864.164	4946
864.296	5041
864.428	5052
864.559	5140
864.691	5121
864.823	5143
864.954	5090
865.086	5117
865.217	5132
865.349	5067
865.48	5140
865.612	5227
865.743	5265
865.875	5185
866.006	5147
866.137	5216
866.269	5220
866.4	5261
866.531	5231
866.662	5235
866.793	5208
866.924	5269
867.055	5398
867.186	5345
867.317	5353
867.448	5288
867.579	5410
867.71	5364
867.841	5379
867.972	5414
868.103	5421
868.233	5505
868.364	5524
868.495	5562
868.625	5729
868.756	5779
868.886	5703
869.017	5699
869.147	5828
869.278	5824
869.408	5889
869.539	5866
869.669	5893
869.799	5847
869.929	5973
870.06	6007
870.19	6190
870.32	6243
870.45	6262
870.58	6350
870.71	6346
870.84	6422
870.97	6399
871.1	6407
871.23	6616
871.36	6631
871.489	6589
871.619	6745
871.749	6818
871.879	6818
872.008	6958
872.138	6947
872.267	6996
872.397	6966
872.526	7027
872.656	7015
872.785	7171
872.915	7377
873.044	7544
873.173	7563
873.303	7643
873.432	7780
873.561	7913
873.69	7890
873.819	8046
873.948	8180
874.077	8229
874.206	8279
874.335	8396
874.464	8659
874.593	8880
874.722	8967
874.851	9081
874.979	9176
875.108	9355
875.237	9325
875.365	9447
875.494	9625
875.623	9808
875.751	9892
875.88	10036
876.008	10139
876.136	10291
876.265	10474
876.393	10668
876.521	10721
876.65	10786
876.778	10900
876.906	10889
877.034	10911
877.162	10991
877.29	11140
877.418	11318
877.546	11315
877.674	11459
877.802	11402
877.93	11551
878.058	11577
878.185	11600
878.313	11657
878.441	11703
878.568	11718
878.696	11813
878.824	11882
878.951	12019
879.079	11958
879.206	12060
879.333	12019
879.461	12106
879.588	12110
879.715	12034
879.842	12136
879.97	12117
880.097	11942
880.224	11889
880.351	11916
880.478	11996
880.605	11779
880.732	11828
880.859	11984
880.986	11817
881.112	11790
881.239	11676
881.366	11646
881.493	11547
881.619	11535
881.746	11554
881.872	11615
881.999	11455
882.125	11474
882.252	11505
882.378	11471
882.505	11532
882.631	11349
882.757	11299
882.883	11349
883.01	11284
883.136	11242
883.262	11083
883.388	11159
883.514	11155
883.64	11162
883.766	11102
883.892	10991
884.018	10930
884.143	11083
884.269	11060
884.395	10820
884.52	10771
884.646	10820
884.772	10637
884.897	10607
885.023	10706
885.148	10717
885.274	10767
885.399	10653
885.524	10565
885.65	10622
885.775	10599
885.9	10580
886.025	10588
886.15	10550
886.275	10493
886.4	10337
886.525	10356
886.65	10295
886.775	10310
886.9	10371
887.025	10542
887.149	10344
887.274	10238
887.399	10230
887.523	10131
887.648	10063
887.773	10188
887.897	10242
888.021	10242
888.146	10128
888.27	10249
888.395	10192
888.519	10219
888.643	10177
888.767	10204
888.891	10063
889.015	9975
889.139	10116
889.263	9926
889.387	10101
889.511	10097
889.635	10055
889.759	9953
889.883	9998
890.006	9987
890.13	10048
890.254	9987
890.377	9972
890.501	9812
890.624	9812
890.748	9880
890.871	9789
890.995	9728
891.118	9682
891.241	9800
891.364	9660
891.488	9778
891.611	9724
891.734	9701
891.857	9743
891.98	9667
892.103	9720
892.226	9671
892.349	9644
892.471	9469
892.594	9587
892.717	9538
892.839	9564
892.962	9671
893.085	9599
893.207	9568
893.33	9561
893.452	9526
893.575	9564
893.697	9511
893.819	9568
893.941	9561
894.064	9591
894.186	9454
894.308	9477
894.43	9488
894.552	9511
894.674	9553
894.796	9412
894.918	9302
895.04	9329
895.161	9378
895.283	9359
895.405	9180
895.526	9264
895.648	9203
895.769	9207
895.891	9249
896.012	9233
896.134	9180
896.255	9173
896.376	9108
896.498	9089
896.619	9036
896.74	9074
896.861	9089
896.982	9256
897.103	9275
897.224	9150
897.345	9058
897.466	9055
897.587	9081
897.708	9116
897.828	9013
897.949	8948
898.07	8842
898.19	9017
898.311	9017
898.431	8876
898.552	8918
898.672	8921
898.792	8979
898.913	8845
899.033	8811
899.153	8727
899.273	8708
899.393	8682
899.513	8724
899.633	8705
899.753	8689
899.873	8648
899.993	8785
900.113	8674
900.232	8727
900.352	8712
900.472	8644
900.591	8537
900.711	8598
900.83	8564
900.95	8610
901.069	8716
901.189	8530
901.308	8431
901.427	8412
901.546	8465
901.665	8495
901.784	8495
901.904	8400
902.023	8343
902.141	8320
902.26	8161
902.379	8229
902.498	8214
902.617	8172
902.735	8317
902.854	8301
902.973	8248
903.091	8172
903.21	8103
903.328	8183
903.446	8100
903.565	8096
903.683	8062
903.801	8043
903.919	8081
904.038	8149
904.156	8005
904.274	8081
904.392	7997
904.51	8103
904.627	8001
904.745	8123
904.863	8119
904.981	7875
905.098	7879
905.216	7830
905.334	7868
905.451	7830
905.569	7913
905.686	7879
905.803	7913
905.921	7841
906.038	7807
906.155	7818
906.272	7776
906.389	7696
906.506	7613
906.623	7647
906.74	7620
906.857	7556
906.974	7529
907.091	7651
907.208	7677
907.324	7616
907.441	7537
907.557	7434
907.674	7457
907.79	7411
907.907	7415
908.023	7411
908.139	7422
908.256	7354
908.372	7354
908.488	7324
908.604	7270
908.72	7179
908.836	7266
908.952	7297
909.068	7297
909.184	7289
909.3	7259
909.415	7285
909.531	7274
909.647	7137
909.762	7095
909.878	7099
909.993	7126
910.108	7129
910.224	7050
910.339	7114
910.454	7023
910.57	6943
910.685	6985
910.8	7110
910.915	7057
911.03	6966
911.145	6913
911.259	6863
911.374	6886
911.489	6821
911.604	6783
911.718	6665
911.833	6798
911.947	6677
912.062	6555
912.176	6650
912.291	6738
912.405	6726
912.519	6818
912.633	6791
912.748	6802
912.862	6654
912.976	6620
913.09	6544
913.204	6646
913.318	6608
913.431	6646
913.545	6654
913.659	6719
913.772	6654
913.886	6585
914	6555
914.113	6616
914.226	6593
914.34	6601
914.453	6479
914.566	6570
914.68	6506
914.793	6547
914.906	6445
915.019	6429
915.132	6315
915.245	6376
915.358	6376
915.47	6448
915.583	6452
915.696	6433
915.809	6559
915.921	6578
916.034	6403
916.146	6456
916.259	6369
916.371	6509
916.483	6391
916.595	6452
916.708	6369
916.82	6334
916.932	6338
917.044	6369
917.156	6391
917.268	6365
917.38	6361
917.491	6300
917.603	6331
917.715	6441
917.826	6361
917.938	6266
918.049	6232
918.161	6395
918.272	6388
918.384	6448
918.495	6311
918.606	6232
918.717	6136
918.828	6304
918.939	6216
919.05	6175
919.161	6292
919.272	6144
919.383	6140
919.494	6270
919.604	6490
919.715	6273
919.826	6220
919.936	6258
920.047	6289
920.157	6224
920.267	6410
920.378	6308
920.488	6292
920.598	6441
920.708	6578
920.818	6525
920.928	6528
921.038	6604
921.148	6559
921.258	6353
921.368	6315
921.477	6182
921.587	6178
921.697	6152
921.806	6190
921.916	6095
922.025	5916
922.134	5927
922.244	5870
922.353	5920
922.462	5832
922.571	5756
922.68	5695
922.789	5611
922.898	5691
923.007	5649
923.116	5691
923.224	5623
923.333	5688
923.442	5619
923.55	5570
923.659	5596
923.767	5592
923.876	5551
923.984	5543
924.092	5520
924.201	5558
924.309	5558
924.417	5577
924.525	5535
924.633	5490
924.741	6258
924.849	5383
924.956	5455
925.064	5372
925.172	5330
925.279	5360
925.387	5322
925.494	5322
925.602	5440
925.709	5402
925.816	5223
925.924	5364
926.031	5395
926.138	5303
926.245	5379
926.352	5227
926.459	5322
926.566	5364
926.673	5181
926.779	5136
926.886	5121
926.993	5060
927.099	5006
927.206	5006
927.312	4987
927.419	5029
927.525	5006
927.631	4999
927.737	4911
927.843	4843
927.95	4816
928.056	4805
928.162	4820
928.267	4870
928.373	5315
928.479	4877
928.585	4698
928.69	4702
928.796	4850
928.901	4656
929.007	4596
929.112	4668
929.218	4607
929.323	4603
929.428	4512
929.533	4637
929.638	4489
929.743	4596
929.848	4550
929.953	4504
930.058	4424
930.163	4310
930.267	4322
930.372	4432
930.477	4295
930.581	4466
930.685	4363
930.79	4215
930.894	4257
930.998	4306
931.103	4417
931.207	4124
931.311	4090
931.415	4013
931.519	3922
931.623	3915
