Data from glass_V78500241_1566.txt Node
Date: Wed Sep 01 19:25:21 CST 2021
User: usil
Spectrometer: V785-0024
Trigger mode: 0
Integration Time (sec): 4.000000E-1
Scans to average: 1
Nonlinearity correction enabled: false
Boxcar width: 0
Storing dark spectrum: false
XAxis mode: Wavelengths
Number of Pixels in Spectrum: 1024
>>>>>Begin Spectral Data<<<<<
801.071	3720
801.214	3720
801.356	3728
801.499	3766
801.641	3770
801.783	3800
801.926	3884
802.068	3850
802.211	3869
802.353	3869
802.496	3880
802.638	3857
802.78	3911
802.923	3956
803.065	3873
803.208	3876
803.35	3842
803.492	3873
803.635	3934
803.777	3781
803.919	3903
804.061	4162
804.204	3956
804.346	4006
804.488	3972
804.63	4032
804.773	3945
804.915	4006
805.057	4143
805.199	4036
805.341	4063
805.483	4112
805.626	4109
805.768	4090
805.91	4215
806.052	4284
806.194	4196
806.336	4390
806.478	4223
806.62	4200
806.762	4162
806.904	4291
807.046	4337
807.188	4249
807.33	4120
807.472	4223
807.614	4181
807.756	4284
807.898	4181
808.04	4188
808.182	4295
808.324	4280
808.465	4371
808.607	4447
808.749	4455
808.891	4489
809.033	4478
809.174	4413
809.316	4280
809.458	4257
809.6	4116
809.741	4158
809.883	4128
810.025	4215
810.166	4219
810.308	4230
810.45	4272
810.591	4223
810.733	4310
810.875	4565
811.016	4835
811.158	5124
811.299	5273
811.441	5311
811.582	5083
811.724	4717
811.865	4417
812.007	4504
812.148	4451
812.29	4386
812.431	4451
812.573	4371
812.714	4405
812.855	4394
812.997	4386
813.138	4497
813.279	4402
813.421	4398
813.562	4398
813.703	4287
813.845	4344
813.986	4295
814.127	4223
814.268	4265
814.41	4325
814.551	4272
814.692	4318
814.833	4272
814.974	4329
815.115	4325
815.256	4280
815.397	4268
815.539	4261
815.68	4215
815.821	4230
815.962	4299
816.103	4360
816.244	4230
816.385	4185
816.526	4314
816.666	4215
816.807	4124
816.948	4181
817.089	4181
817.23	4086
817.371	4093
817.512	4090
817.653	4112
817.793	4048
817.934	4036
818.075	4059
818.216	4093
818.356	4071
818.497	3987
818.638	3876
818.778	3888
818.919	3876
819.06	3873
819.2	3941
819.341	3884
819.481	3880
819.622	3937
819.762	3991
819.903	3964
820.043	3861
820.184	3819
820.324	3854
820.465	3873
820.605	3869
820.746	3869
820.886	3789
821.026	3896
821.167	3937
821.307	3983
821.447	3983
821.588	3922
821.728	3960
821.868	3892
822.008	3861
822.149	3930
822.289	3922
822.429	3827
822.569	3823
822.709	3804
822.849	3682
822.99	3713
823.13	3732
823.27	3831
823.41	3675
823.55	3705
823.69	3701
823.83	3759
823.97	3694
824.11	3595
824.25	3584
824.389	3587
824.529	3686
824.669	3633
824.809	3728
824.949	3720
825.089	3728
825.228	3682
825.368	3603
825.508	3557
825.648	3580
825.787	3637
825.927	3648
826.067	3580
826.206	3671
826.346	3762
826.485	3838
826.625	3892
826.765	3983
826.904	3865
827.044	3606
827.183	3557
827.323	3420
827.462	3466
827.601	3454
827.741	3469
827.88	3477
828.02	3374
828.159	3431
828.298	3466
828.437	3553
828.577	3504
828.716	3603
828.855	3458
828.994	3409
829.134	3348
829.273	3382
829.412	3351
829.551	3321
829.69	3405
829.829	3450
829.968	3507
830.107	3431
830.246	3428
830.385	3409
830.524	3340
830.663	3329
830.802	3275
830.941	3203
831.08	3169
831.219	3230
831.357	3253
831.496	3397
831.635	3226
831.774	3192
831.913	3230
832.051	3112
832.19	3108
832.329	3203
832.467	3116
832.606	3100
832.744	3173
832.883	3203
833.022	3218
833.16	3264
833.299	3321
833.437	3340
833.576	3359
833.714	3431
833.852	3458
833.991	3443
834.129	3477
834.267	3450
834.406	3386
834.544	3401
834.682	3424
834.821	3443
834.959	3561
835.097	3409
835.235	3542
835.373	3488
835.511	3504
835.65	3450
835.788	3511
835.926	3405
836.064	3367
836.202	3428
836.34	3591
836.478	3587
836.615	3530
836.753	3618
836.891	3629
837.029	3625
837.167	3591
837.305	3496
837.443	3553
837.58	3542
837.718	3584
837.856	3557
837.993	3523
838.131	3618
838.269	3591
838.406	3591
838.544	3584
838.681	3496
838.819	3469
838.956	3401
839.094	3409
839.231	3454
839.369	3500
839.506	3755
839.643	3652
839.781	3481
839.918	3500
840.055	3519
840.193	3549
840.33	3549
840.467	3564
840.604	3606
840.742	3812
840.879	3580
841.016	3553
841.153	3629
841.29	3789
841.427	3732
841.564	3705
841.701	3720
841.838	3709
841.975	3656
842.112	3701
842.249	3625
842.385	3656
842.522	3850
842.659	3720
842.796	3660
842.933	3720
843.069	3682
843.206	3717
843.343	3812
843.479	3774
843.616	3812
843.752	3648
843.889	3663
844.025	3884
844.162	3751
844.298	3880
844.435	3797
844.571	3751
844.708	3880
844.844	3994
844.98	4013
845.117	4029
845.253	3930
845.389	3873
845.525	3991
845.661	3953
845.798	3865
845.934	3972
846.07	3998
846.206	4048
846.342	4116
846.478	4063
846.614	3964
846.75	3945
846.886	3956
847.022	4059
847.158	3983
847.294	3960
847.429	4002
847.565	3994
847.701	4303
847.837	3884
847.972	3865
848.108	3987
848.244	3964
848.379	3903
848.515	3873
848.65	3831
848.786	3781
848.921	3876
849.057	3968
849.192	3960
849.328	3911
849.463	3915
849.598	3869
849.734	3838
849.869	3846
850.004	3781
850.14	3785
850.275	3770
850.41	3743
850.545	3762
850.68	3762
850.815	3755
850.95	3759
851.085	3903
851.22	3861
851.355	3804
851.49	3835
851.625	3781
851.76	3781
851.895	3770
852.03	3747
852.165	3835
852.299	3838
852.434	3911
852.569	3865
852.703	3854
852.838	3934
852.973	3956
853.107	3983
853.242	3876
853.376	3865
853.511	3781
853.645	3778
853.78	4021
853.914	3949
854.048	3884
854.183	3842
854.317	3983
854.451	4109
854.585	3964
854.72	3937
854.854	4044
854.988	3915
855.122	3994
855.256	3899
855.39	3983
855.524	4067
855.658	4101
855.792	4109
855.926	4128
856.06	4185
856.194	4204
856.327	4169
856.461	4101
856.595	4154
856.729	4154
856.862	4246
856.996	4242
857.13	4246
857.263	4318
857.397	4329
857.53	4291
857.664	4314
857.797	4363
857.931	4390
858.064	4379
858.197	4432
858.331	4432
858.464	4348
858.597	4337
858.731	4432
858.864	4436
858.997	4447
859.13	4512
859.263	4500
859.396	4542
859.529	4512
859.662	4569
859.795	4512
859.928	4622
860.061	4691
860.194	4729
860.327	4626
860.46	4660
860.592	4721
860.725	4744
860.858	4740
860.99	4675
861.123	4721
861.256	4694
861.388	4786
861.521	5558
861.653	4740
861.786	4637
861.918	4729
862.05	4824
862.183	4843
862.315	4877
862.447	4946
862.58	4904
862.712	4782
862.844	4767
862.976	4885
863.108	4900
863.24	5239
863.372	4858
863.504	4934
863.636	4911
863.768	4961
863.9	4949
864.032	4953
864.164	4991
864.296	5041
864.428	5128
864.559	5094
864.691	5204
864.823	5109
864.954	5124
865.086	5162
865.217	5117
865.349	5071
865.48	5174
865.612	5170
865.743	5235
865.875	5231
866.006	5162
866.137	5258
866.269	5212
866.4	5231
866.531	5258
866.662	5227
866.793	5288
866.924	5326
867.055	5364
867.186	5330
867.317	5284
867.448	5261
867.579	5414
867.71	5360
867.841	5402
867.972	5455
868.103	5429
868.233	5512
868.364	5501
868.495	5558
868.625	5680
868.756	5783
868.886	5695
869.017	5741
869.147	5832
869.278	5882
869.408	5832
869.539	5798
869.669	5904
869.799	5893
869.929	5950
870.06	6007
870.19	6167
870.32	6148
870.45	6285
870.58	6342
870.71	6414
870.84	6479
870.97	6483
871.1	6380
871.23	6631
871.36	6654
871.489	6635
871.619	6711
871.749	6825
871.879	6848
872.008	6985
872.138	6943
872.267	7122
872.397	6928
872.526	7095
872.656	7031
872.785	7206
872.915	7407
873.044	7521
873.173	7563
873.303	7624
873.432	7719
873.561	7833
873.69	7940
873.819	7959
873.948	8176
874.077	8275
874.206	8351
874.335	8438
874.464	8659
874.593	8887
874.722	8876
874.851	9176
874.979	9249
875.108	9401
875.237	9389
875.365	9511
875.494	9660
875.623	9770
875.751	9865
875.88	9994
876.008	10162
876.136	10325
876.265	10489
876.393	10733
876.521	10809
876.65	10816
876.778	10812
876.906	10889
877.034	10991
877.162	11071
877.29	11162
877.418	11326
877.546	11353
877.674	11440
877.802	11543
877.93	11516
878.058	11547
878.185	11592
878.313	11676
878.441	11752
878.568	11661
878.696	11870
878.824	11851
878.951	11870
879.079	11977
879.206	12182
879.333	12076
879.461	12038
879.588	12083
879.715	12015
879.842	12190
879.97	11992
880.097	11836
880.224	11863
880.351	11847
880.478	11923
880.605	11821
880.732	11714
880.859	11916
880.986	11832
881.112	11874
881.239	11680
881.366	11672
881.493	11627
881.619	11467
881.746	11524
881.872	11452
881.999	11505
882.125	11478
882.252	11528
882.378	11535
882.505	11551
882.631	11356
882.757	11307
882.883	11349
883.01	11341
883.136	11147
883.262	11155
883.388	11121
883.514	11220
883.64	11220
883.766	11109
883.892	10953
884.018	11022
884.143	11083
884.269	11140
884.395	10896
884.52	10767
884.646	10740
884.772	10740
884.897	10675
885.023	10611
885.148	10744
885.274	10843
885.399	10763
885.524	10611
885.65	10577
885.775	10675
885.9	10546
886.025	10664
886.15	10546
886.275	10409
886.4	10398
886.525	10337
886.65	10371
886.775	10306
886.9	10481
887.025	10485
887.149	10314
887.274	10131
887.399	10257
887.523	10306
887.648	10181
887.773	10169
887.897	10227
888.021	10230
888.146	10223
888.27	10200
888.395	10143
888.519	10204
888.643	10200
888.767	10162
888.891	10067
889.015	10013
889.139	10120
889.263	9975
889.387	10093
889.511	10063
889.635	10078
889.759	10029
889.883	9945
890.006	9937
890.13	10109
890.254	9960
890.377	9941
890.501	9854
890.624	9876
890.748	9911
890.871	9804
890.995	9667
891.118	9709
891.241	9781
891.364	9709
891.488	9781
891.611	9747
891.734	9720
891.857	9728
891.98	9781
892.103	9766
892.226	9709
892.349	9629
892.471	9500
892.594	9526
892.717	9610
892.839	9542
892.962	9584
893.085	9663
893.207	9625
893.33	9538
893.452	9469
893.575	9629
893.697	9576
893.819	9694
893.941	9641
894.064	9618
894.186	9416
894.308	9447
894.43	9473
894.552	9606
894.674	9443
894.796	9340
894.918	9370
895.04	9340
895.161	9374
895.283	9405
895.405	9233
895.526	9317
895.648	9245
895.769	9230
895.891	9237
896.012	9287
896.134	9256
896.255	9199
896.376	9100
896.498	9112
896.619	9100
896.74	9043
896.861	9131
896.982	9237
897.103	9291
897.224	9146
897.345	9066
897.466	8998
897.587	9017
897.708	9097
897.828	8990
897.949	8982
898.07	8887
898.19	8902
898.311	9013
898.431	8861
898.552	8906
898.672	8925
898.792	8914
898.913	8902
899.033	8781
899.153	8750
899.273	8644
899.393	8724
899.513	8724
899.633	8754
899.753	8781
899.873	8735
899.993	8670
900.113	8621
900.232	8720
900.352	8701
900.472	8617
900.591	8526
900.711	8556
900.83	8522
900.95	8636
901.069	8705
901.189	8598
901.308	8427
901.427	8419
901.546	8328
901.665	8389
901.784	8503
901.904	8396
902.023	8339
902.141	8267
902.26	8248
902.379	8233
902.498	8259
902.617	8195
902.735	8317
902.854	8271
902.973	8206
903.091	8115
903.21	8164
903.328	8164
903.446	8107
903.565	8096
903.683	8161
903.801	8138
903.919	8145
904.038	8229
904.156	8050
904.274	8103
904.392	8035
904.51	8039
904.627	8123
904.745	8096
904.863	8157
904.981	7898
905.098	7868
905.216	7902
905.334	7868
905.451	7906
905.569	7849
905.686	7898
905.803	7902
905.921	7792
906.038	7868
906.155	7841
906.272	7674
906.389	7700
906.506	7689
906.623	7666
906.74	7647
906.857	7582
906.974	7632
907.091	7704
907.208	7719
907.324	7537
907.441	7616
907.557	7441
907.674	7491
907.79	7362
907.907	7407
908.023	7464
908.139	7438
908.256	7487
908.372	7411
908.488	7335
908.604	7194
908.72	7217
908.836	7247
908.952	7236
909.068	7175
909.184	7320
909.3	7179
909.415	7305
909.531	7232
909.647	7129
909.762	7156
909.878	7065
909.993	7152
910.108	7152
910.224	7057
910.339	7110
910.454	7076
910.57	7027
910.685	6993
910.8	7160
910.915	7145
911.03	7038
911.145	6882
911.259	6871
911.374	6920
911.489	6901
911.604	6825
911.718	6707
911.833	6772
911.947	6627
912.062	6589
912.176	6684
912.291	6722
912.405	6684
912.519	6795
912.633	6833
912.748	6757
912.862	6665
912.976	6616
913.09	6544
913.204	6589
913.318	6608
913.431	6688
913.545	6665
913.659	6745
913.772	6665
913.886	6585
914	6566
914.113	6658
914.226	6597
914.34	6608
914.453	6525
914.566	6540
914.68	6521
914.793	6498
914.906	6464
915.019	6422
915.132	6407
915.245	6429
915.358	6464
915.47	6399
915.583	6441
915.696	6418
915.809	6544
915.921	6582
916.034	6486
916.146	6464
916.259	6426
916.371	6498
916.483	6479
916.595	6410
916.708	6399
916.82	6452
916.932	6350
917.044	6391
917.156	6327
917.268	6323
917.38	6323
917.491	6289
917.603	6304
917.715	6391
917.826	6407
917.938	6327
918.049	6239
918.161	6350
918.272	6384
918.384	6365
918.495	6346
918.606	6254
918.717	6239
918.828	6285
918.939	6327
919.05	6190
919.161	6171
919.272	6144
919.383	6121
919.494	6285
919.604	6456
919.715	6262
919.826	6254
919.936	6273
920.047	6365
920.157	6277
920.267	6490
920.378	6334
920.488	6258
920.598	6464
920.708	6574
920.818	6445
920.928	6460
921.038	6616
921.148	6639
921.258	6342
921.368	6281
921.477	6232
921.587	6171
921.697	6098
921.806	6175
921.916	6076
922.025	5942
922.134	5859
922.244	5844
922.353	5866
922.462	5828
922.571	5821
922.68	5745
922.789	5714
922.898	5707
923.007	5638
923.116	5657
923.224	5627
923.333	5676
923.442	5596
923.55	5604
923.659	5604
923.767	5630
923.876	5509
923.984	5646
924.092	5505
924.201	5554
924.309	5547
924.417	5524
924.525	5528
924.633	5509
924.741	6110
924.849	5391
924.956	5490
925.064	5311
925.172	5311
925.279	5311
925.387	5391
925.494	5410
925.602	5387
925.709	5341
925.816	5280
925.924	5337
926.031	5376
926.138	5299
926.245	5318
926.352	5185
926.459	5318
926.566	5311
926.673	5250
926.779	5166
926.886	5140
926.993	5083
927.099	5010
927.206	5003
927.312	4949
927.419	4991
927.525	4972
927.631	5010
927.737	4915
927.843	4858
927.95	4755
928.056	4824
928.162	4839
928.267	4870
928.373	5280
928.479	4843
928.585	4725
928.69	4767
928.796	4839
928.901	4679
929.007	4580
929.112	4679
929.218	4641
929.323	4577
929.428	4535
929.533	4664
929.638	4519
929.743	4504
929.848	4546
929.953	4493
930.058	4466
930.163	4314
930.267	4322
930.372	4390
930.477	4284
930.581	4489
930.685	4371
930.79	4276
930.894	4261
930.998	4246
931.103	4394
931.207	4120
931.311	4097
931.415	4010
931.519	3968
931.623	3941
