Data from glass_V78500241_2026.txt Node
Date: Wed Sep 01 19:28:32 CST 2021
User: usil
Spectrometer: V785-0024
Trigger mode: 0
Integration Time (sec): 4.000000E-1
Scans to average: 1
Nonlinearity correction enabled: false
Boxcar width: 0
Storing dark spectrum: false
XAxis mode: Wavelengths
Number of Pixels in Spectrum: 1024
>>>>>Begin Spectral Data<<<<<
801.071	3713
801.214	3713
801.356	3740
801.499	3717
801.641	3728
801.783	3766
801.926	3892
802.068	3838
802.211	3857
802.353	3918
802.496	3861
802.638	3857
802.78	3797
802.923	3956
803.065	3896
803.208	3850
803.35	3896
803.492	3937
803.635	3903
803.777	3838
803.919	3918
804.061	4158
804.204	3930
804.346	4010
804.488	3888
804.63	4059
804.773	3960
804.915	4055
805.057	4112
805.199	4010
805.341	4124
805.483	4112
805.626	4150
805.768	4120
805.91	4204
806.052	4253
806.194	4223
806.336	4341
806.478	4227
806.62	4150
806.762	4211
806.904	4238
807.046	4322
807.188	4200
807.33	4147
807.472	4219
807.614	4215
807.756	4280
807.898	4200
808.04	4196
808.182	4276
808.324	4348
808.465	4375
808.607	4440
808.749	4443
808.891	4409
809.033	4493
809.174	4386
809.316	4268
809.458	4223
809.6	4128
809.741	4116
809.883	4112
810.025	4192
810.166	4169
810.308	4173
810.45	4204
810.591	4204
810.733	4337
810.875	4516
811.016	4809
811.158	5113
811.299	5261
811.441	5223
811.582	5041
811.724	4729
811.865	4474
812.007	4432
812.148	4390
812.29	4402
812.431	4428
812.573	4379
812.714	4417
812.855	4386
812.997	4413
813.138	4489
813.279	4428
813.421	4360
813.562	4371
813.703	4348
813.845	4318
813.986	4242
814.127	4249
814.268	4280
814.41	4268
814.551	4234
814.692	4329
814.833	4249
814.974	4280
815.115	4303
815.256	4234
815.397	4188
815.539	4188
815.68	4200
815.821	4234
815.962	4371
816.103	4261
816.244	4242
816.385	4257
816.526	4257
816.666	4207
816.807	4105
816.948	4158
817.089	4169
817.23	4105
817.371	4036
817.512	4040
817.653	4059
817.793	4002
817.934	4010
818.075	4086
818.216	4059
818.356	4109
818.497	3972
818.638	3899
818.778	3892
818.919	3873
819.06	3846
819.2	3953
819.341	3865
819.481	3797
819.622	3907
819.762	4006
819.903	3945
820.043	3899
820.184	3797
820.324	3800
820.465	3907
820.605	3812
820.746	3857
820.886	3823
821.026	3922
821.167	3968
821.307	4002
821.447	3998
821.588	3968
821.728	3956
821.868	3941
822.008	3911
822.149	3922
822.289	3930
822.429	3755
822.569	3759
822.709	3793
822.849	3690
822.99	3717
823.13	3747
823.27	3755
823.41	3709
823.55	3713
823.69	3743
823.83	3747
823.97	3679
824.11	3595
824.25	3584
824.389	3637
824.529	3667
824.669	3618
824.809	3717
824.949	3713
825.089	3740
825.228	3679
825.368	3595
825.508	3549
825.648	3606
825.787	3614
825.927	3637
826.067	3610
826.206	3656
826.346	3770
826.485	3793
826.625	3854
826.765	3983
826.904	3793
827.044	3584
827.183	3511
827.323	3401
827.462	3477
827.601	3469
827.741	3397
827.88	3450
828.02	3355
828.159	3466
828.298	3515
828.437	3542
828.577	3469
828.716	3572
828.855	3504
828.994	3382
829.134	3378
829.273	3363
829.412	3348
829.551	3340
829.69	3359
829.829	3431
829.968	3515
830.107	3477
830.246	3405
830.385	3386
830.524	3355
830.663	3291
830.802	3260
830.941	3222
831.08	3176
831.219	3214
831.357	3203
831.496	3397
831.635	3230
831.774	3188
831.913	3203
832.051	3127
832.19	3112
832.329	3214
832.467	3131
832.606	3093
832.744	3173
832.883	3192
833.022	3188
833.16	3203
833.299	3283
833.437	3306
833.576	3374
833.714	3367
833.852	3389
833.991	3454
834.129	3477
834.267	3409
834.406	3363
834.544	3424
834.682	3420
834.821	3435
834.959	3561
835.097	3412
835.235	3530
835.373	3488
835.511	3492
835.65	3428
835.788	3504
835.926	3370
836.064	3378
836.202	3397
836.34	3584
836.478	3584
836.615	3534
836.753	3625
836.891	3637
837.029	3625
837.167	3614
837.305	3549
837.443	3549
837.58	3500
837.718	3587
837.856	3553
837.993	3549
838.131	3595
838.269	3587
838.406	3576
838.544	3549
838.681	3416
838.819	3435
838.956	3344
839.094	3367
839.231	3409
839.369	3485
839.506	3751
839.643	3637
839.781	3507
839.918	3443
840.055	3534
840.193	3523
840.33	3500
840.467	3549
840.604	3606
840.742	3812
840.879	3549
841.016	3553
841.153	3595
841.29	3770
841.427	3686
841.564	3675
841.701	3736
841.838	3686
841.975	3682
842.112	3709
842.249	3637
842.385	3633
842.522	3846
842.659	3656
842.796	3682
842.933	3698
843.069	3705
843.206	3690
843.343	3778
843.479	3793
843.616	3846
843.752	3675
843.889	3705
844.025	3865
844.162	3686
844.298	3880
844.435	3797
844.571	3774
844.708	3869
844.844	3998
844.98	4021
845.117	4002
845.253	3930
845.389	3876
845.525	3972
845.661	3930
845.798	3926
845.934	3991
846.07	3975
846.206	4040
846.342	4131
846.478	4055
846.614	3979
846.75	3953
846.886	3915
847.022	4017
847.158	3975
847.294	3987
847.429	4010
847.565	4017
847.701	4287
847.837	3899
847.972	3911
848.108	3968
848.244	3956
848.379	3861
848.515	3781
848.65	3770
848.786	3838
848.921	3850
849.057	3918
849.192	3911
849.328	3865
849.463	3876
849.598	3892
849.734	3857
849.869	3789
850.004	3785
850.14	3770
850.275	3774
850.41	3720
850.545	3732
850.68	3774
850.815	3804
850.95	3766
851.085	3911
851.22	3861
851.355	3823
851.49	3762
851.625	3789
851.76	3838
851.895	3747
852.03	3720
852.165	3800
852.299	3854
852.434	3903
852.569	3819
852.703	3937
852.838	3880
852.973	3964
853.107	3972
853.242	3880
853.376	3823
853.511	3800
853.645	3831
853.78	3953
853.914	3888
854.048	3926
854.183	3915
854.317	3949
854.451	4055
854.585	3941
854.72	3896
854.854	4044
854.988	3964
855.122	3983
855.256	3937
855.39	4002
855.524	4116
855.658	4071
855.792	4082
855.926	4150
856.06	4169
856.194	4200
856.327	4097
856.461	4090
856.595	4154
856.729	4124
856.862	4265
856.996	4261
857.13	4257
857.263	4303
857.397	4341
857.53	4306
857.664	4333
857.797	4383
857.931	4398
858.064	4398
858.197	4462
858.331	4363
858.464	4367
858.597	4322
858.731	4405
858.864	4466
858.997	4462
859.13	4519
859.263	4535
859.396	4580
859.529	4497
859.662	4527
859.795	4531
859.928	4615
860.061	4672
860.194	4694
860.327	4630
860.46	4607
860.592	4687
860.725	4755
860.858	4748
860.99	4660
861.123	4710
861.256	4653
861.388	4801
861.521	5391
861.653	4694
861.786	4668
861.918	4740
862.05	4801
862.183	4786
862.315	4892
862.447	4915
862.58	4892
862.712	4786
862.844	4752
862.976	4843
863.108	4873
863.24	5204
863.372	4824
863.504	4873
863.636	4870
863.768	4946
863.9	4911
864.032	4900
864.164	4953
864.296	4987
864.428	5098
864.559	5105
864.691	5105
864.823	5083
864.954	5124
865.086	5155
865.217	5159
865.349	5140
865.48	5143
865.612	5216
865.743	5296
865.875	5216
866.006	5216
866.137	5189
866.269	5235
866.4	5273
866.531	5246
866.662	5235
866.793	5261
866.924	5265
867.055	5341
867.186	5284
867.317	5337
867.448	5349
867.579	5360
867.71	5391
867.841	5383
867.972	5433
868.103	5474
868.233	5471
868.364	5497
868.495	5512
868.625	5649
868.756	5832
868.886	5661
869.017	5737
869.147	5802
869.278	5802
869.408	5866
869.539	5840
869.669	5897
869.799	5942
869.929	5977
870.06	5958
870.19	6213
870.32	6216
870.45	6258
870.58	6361
870.71	6437
870.84	6467
870.97	6391
871.1	6445
871.23	6673
871.36	6654
871.489	6700
871.619	6684
871.749	6772
871.879	6840
872.008	6962
872.138	6962
872.267	6939
872.397	6962
872.526	7038
872.656	7156
872.785	7190
872.915	7365
873.044	7620
873.173	7529
873.303	7578
873.432	7681
873.561	7803
873.69	7925
873.819	8046
873.948	8126
874.077	8240
874.206	8301
874.335	8408
874.464	8670
874.593	8883
874.722	8975
874.851	9108
874.979	9237
875.108	9348
875.237	9466
875.365	9450
875.494	9591
875.623	9804
875.751	9816
875.88	9968
876.008	10204
876.136	10268
876.265	10535
876.393	10660
876.521	10656
876.65	10759
876.778	10793
876.906	10812
877.034	10934
877.162	11178
877.29	11166
877.418	11231
877.546	11311
877.674	11356
877.802	11501
877.93	11490
878.058	11577
878.185	11566
878.313	11672
878.441	11737
878.568	11604
878.696	11828
878.824	11836
878.951	11920
879.079	12102
879.206	12121
879.333	12019
879.461	12011
879.588	12076
879.715	12064
879.842	12175
879.97	12129
880.097	11836
880.224	11893
880.351	11847
880.478	11885
880.605	11882
880.732	11832
880.859	12003
880.986	11779
881.112	11885
881.239	11707
881.366	11627
881.493	11604
881.619	11535
881.746	11493
881.872	11535
881.999	11520
882.125	11467
882.252	11493
882.378	11414
882.505	11585
882.631	11337
882.757	11288
882.883	11337
883.01	11212
883.136	11204
883.262	11197
883.388	11067
883.514	11098
883.64	11102
883.766	11109
883.892	11045
884.018	11006
884.143	11025
884.269	11113
884.395	10816
884.52	10866
884.646	10717
884.772	10706
884.897	10561
885.023	10687
885.148	10675
885.274	10793
885.399	10675
885.524	10611
885.65	10607
885.775	10573
885.9	10645
886.025	10573
886.15	10561
886.275	10512
886.4	10432
886.525	10428
886.65	10421
886.775	10402
886.9	10443
887.025	10527
887.149	10348
887.274	10257
887.399	10246
887.523	10162
887.648	10112
887.773	10097
887.897	10185
888.021	10215
888.146	10166
888.27	10211
888.395	10219
888.519	10280
888.643	10158
888.767	10169
888.891	10055
889.015	9911
889.139	10093
889.263	10048
889.387	10074
889.511	10036
889.635	10093
889.759	10002
889.883	9998
890.006	9991
890.13	10101
890.254	9937
890.377	10002
890.501	9808
890.624	9804
890.748	9850
890.871	9778
890.995	9736
891.118	9740
891.241	9728
891.364	9720
891.488	9873
891.611	9698
891.734	9732
891.857	9698
891.98	9785
892.103	9701
892.226	9717
892.349	9618
892.471	9542
892.594	9534
892.717	9584
892.839	9606
892.962	9584
893.085	9648
893.207	9629
893.33	9492
893.452	9507
893.575	9564
893.697	9443
893.819	9603
893.941	9679
894.064	9603
894.186	9450
894.308	9374
894.43	9469
894.552	9557
894.674	9614
894.796	9336
894.918	9382
895.04	9363
895.161	9340
895.283	9348
895.405	9272
895.526	9268
895.648	9226
895.769	9268
895.891	9203
896.012	9222
896.134	9214
896.255	9146
896.376	9081
896.498	9131
896.619	9131
896.74	9089
896.861	9131
896.982	9253
897.103	9359
897.224	9150
897.345	9024
897.466	8963
897.587	9001
897.708	9074
897.828	9036
897.949	8933
898.07	8823
898.19	8902
898.311	8937
898.431	8883
898.552	8933
898.672	8990
898.792	8921
898.913	8872
899.033	8804
899.153	8712
899.273	8720
899.393	8674
899.513	8754
899.633	8667
899.753	8743
899.873	8701
899.993	8788
900.113	8678
900.232	8697
900.352	8720
900.472	8598
900.591	8480
900.711	8590
900.83	8549
900.95	8629
901.069	8701
901.189	8640
901.308	8438
901.427	8431
901.546	8442
901.665	8434
901.784	8488
901.904	8377
902.023	8358
902.141	8244
902.26	8210
902.379	8259
902.498	8275
902.617	8180
902.735	8328
902.854	8301
902.973	8248
903.091	8111
903.21	8119
903.328	8153
903.446	8081
903.565	8005
903.683	8065
903.801	8035
903.919	8111
904.038	8153
904.156	8073
904.274	8103
904.392	7963
904.51	8050
904.627	8065
904.745	8069
904.863	8103
904.981	7902
905.098	7883
905.216	7883
905.334	7868
905.451	7894
905.569	7898
905.686	7913
905.803	7864
905.921	7780
906.038	7852
906.155	7837
906.272	7712
906.389	7696
906.506	7613
906.623	7674
906.74	7616
906.857	7552
906.974	7544
907.091	7712
907.208	7719
907.324	7674
907.441	7613
907.557	7422
907.674	7453
907.79	7403
907.907	7419
908.023	7468
908.139	7430
908.256	7350
908.372	7369
908.488	7316
908.604	7263
908.72	7240
908.836	7293
908.952	7236
909.068	7236
909.184	7297
909.3	7209
909.415	7255
909.531	7305
909.647	7133
909.762	7141
909.878	7103
909.993	7164
910.108	7076
910.224	7061
910.339	7046
910.454	7012
910.57	7023
910.685	6928
910.8	7129
910.915	7053
911.03	7046
911.145	6913
911.259	6882
911.374	6886
911.489	6798
911.604	6787
911.718	6745
911.833	6738
911.947	6642
912.062	6604
912.176	6745
912.291	6696
912.405	6700
912.519	6825
912.633	6753
912.748	6688
912.862	6738
912.976	6658
913.09	6578
913.204	6551
913.318	6582
913.431	6669
913.545	6669
913.659	6726
913.772	6662
913.886	6540
914	6551
914.113	6688
914.226	6635
914.34	6582
914.453	6498
914.566	6578
914.68	6490
914.793	6563
914.906	6410
915.019	6429
915.132	6353
915.245	6426
915.358	6399
915.47	6376
915.583	6437
915.696	6437
915.809	6540
915.921	6604
916.034	6426
916.146	6414
916.259	6384
916.371	6429
916.483	6456
916.595	6437
916.708	6380
916.82	6422
916.932	6391
917.044	6353
917.156	6384
917.268	6353
917.38	6391
917.491	6357
917.603	6311
917.715	6346
917.826	6391
917.938	6426
918.049	6251
918.161	6319
918.272	6391
918.384	6429
918.495	6334
918.606	6213
918.717	6197
918.828	6243
918.939	6205
919.05	6163
919.161	6239
919.272	6072
919.383	6186
919.494	6304
919.604	6357
919.715	6254
919.826	6182
919.936	6209
920.047	6311
920.157	6247
920.267	6422
920.378	6308
920.488	6331
920.598	6429
920.708	6559
920.818	6517
920.928	6456
921.038	6582
921.148	6532
921.258	6304
921.368	6281
921.477	6232
921.587	6144
921.697	6072
921.806	6117
921.916	6041
922.025	5942
922.134	5908
922.244	5859
922.353	5946
922.462	5805
922.571	5870
922.68	5710
922.789	5657
922.898	5714
923.007	5615
923.116	5733
923.224	5676
923.333	5676
923.442	5543
923.55	5585
923.659	5581
923.767	5649
923.876	5524
923.984	5577
924.092	5501
924.201	5558
924.309	5615
924.417	5547
924.525	5471
924.633	5440
924.741	6266
924.849	5326
924.956	5532
925.064	5398
925.172	5326
925.279	5299
925.387	5330
925.494	5311
925.602	5436
925.709	5372
925.816	5258
925.924	5303
926.031	5349
926.138	5330
926.245	5353
926.352	5204
926.459	5318
926.566	5318
926.673	5208
926.779	5143
926.886	5113
926.993	5018
927.099	5037
927.206	4972
927.312	4938
927.419	4938
927.525	5003
927.631	4995
927.737	4892
927.843	4835
927.95	4790
928.056	4847
928.162	4877
928.267	4858
928.373	5201
928.479	4877
928.585	4698
928.69	4786
928.796	4721
928.901	4645
929.007	4611
929.112	4672
929.218	4672
929.323	4588
929.428	4546
929.533	4691
929.638	4535
929.743	4497
929.848	4554
929.953	4500
930.058	4436
930.163	4322
930.267	4344
930.372	4428
930.477	4295
930.581	4493
930.685	4333
930.79	4234
930.894	4268
930.998	4261
931.103	4337
931.207	4082
931.311	4059
931.415	4025
931.519	3911
931.623	3918
