Data from glass_V78500241_1165.txt Node
Date: Wed Sep 01 19:22:34 CST 2021
User: usil
Spectrometer: V785-0024
Trigger mode: 0
Integration Time (sec): 4.000000E-1
Scans to average: 1
Nonlinearity correction enabled: false
Boxcar width: 0
Storing dark spectrum: false
XAxis mode: Wavelengths
Number of Pixels in Spectrum: 1024
>>>>>Begin Spectral Data<<<<<
801.071	3766
801.214	3774
801.356	3713
801.499	3755
801.641	3724
801.783	3778
801.926	3865
802.068	3903
802.211	3865
802.353	3949
802.496	3850
802.638	3869
802.78	3930
802.923	3930
803.065	3922
803.208	3854
803.35	3876
803.492	3892
803.635	3911
803.777	3835
803.919	3880
804.061	4181
804.204	3953
804.346	3907
804.488	3968
804.63	4025
804.773	3964
804.915	4002
805.057	4204
805.199	4071
805.341	4109
805.483	4135
805.626	4150
805.768	4166
805.91	4188
806.052	4234
806.194	4150
806.336	4375
806.478	4215
806.62	4200
806.762	4196
806.904	4276
807.046	4379
807.188	4200
807.33	4188
807.472	4303
807.614	4207
807.756	4306
807.898	4219
808.04	4230
808.182	4303
808.324	4325
808.465	4386
808.607	4443
808.749	4436
808.891	4500
809.033	4519
809.174	4398
809.316	4303
809.458	4242
809.6	4173
809.741	4135
809.883	4147
810.025	4249
810.166	4204
810.308	4246
810.45	4261
810.591	4253
810.733	4303
810.875	4546
811.016	4854
811.158	5147
811.299	5277
811.441	5307
811.582	5079
811.724	4637
811.865	4493
812.007	4478
812.148	4451
812.29	4466
812.431	4451
812.573	4428
812.714	4379
812.855	4451
812.997	4424
813.138	4470
813.279	4390
813.421	4413
813.562	4413
813.703	4348
813.845	4341
813.986	4272
814.127	4200
814.268	4291
814.41	4280
814.551	4268
814.692	4356
814.833	4234
814.974	4268
815.115	4352
815.256	4234
815.397	4230
815.539	4246
815.68	4200
815.821	4234
815.962	4295
816.103	4276
816.244	4223
816.385	4246
816.526	4299
816.666	4196
816.807	4093
816.948	4185
817.089	4177
817.23	4093
817.371	4055
817.512	4032
817.653	4101
817.793	4059
817.934	4074
818.075	4116
818.216	4112
818.356	4082
818.497	3994
818.638	3956
818.778	3937
818.919	3884
819.06	3892
819.2	3899
819.341	3835
819.481	3850
819.622	3888
819.762	4040
819.903	3975
820.043	3857
820.184	3808
820.324	3800
820.465	3861
820.605	3903
820.746	3888
820.886	3808
821.026	3953
821.167	3896
821.307	3983
821.447	3998
821.588	3983
821.728	3941
821.868	3926
822.008	3876
822.149	3937
822.289	3968
822.429	3800
822.569	3770
822.709	3789
822.849	3717
822.99	3743
823.13	3736
823.27	3816
823.41	3698
823.55	3781
823.69	3759
823.83	3751
823.97	3705
824.11	3637
824.25	3648
824.389	3652
824.529	3690
824.669	3625
824.809	3717
824.949	3762
825.089	3747
825.228	3679
825.368	3633
825.508	3561
825.648	3587
825.787	3584
825.927	3641
826.067	3622
826.206	3679
826.346	3823
826.485	3888
826.625	3827
826.765	3945
826.904	3827
827.044	3644
827.183	3507
827.323	3473
827.462	3496
827.601	3450
827.741	3443
827.88	3462
828.02	3359
828.159	3496
828.298	3511
828.437	3587
828.577	3492
828.716	3618
828.855	3519
828.994	3332
829.134	3344
829.273	3386
829.412	3332
829.551	3340
829.69	3397
829.829	3428
829.968	3507
830.107	3420
830.246	3435
830.385	3416
830.524	3313
830.663	3317
830.802	3294
830.941	3218
831.08	3222
831.219	3279
831.357	3237
831.496	3439
831.635	3253
831.774	3199
831.913	3222
832.051	3104
832.19	3119
832.329	3222
832.467	3161
832.606	3104
832.744	3135
832.883	3180
833.022	3188
833.16	3237
833.299	3321
833.437	3310
833.576	3348
833.714	3397
833.852	3439
833.991	3469
834.129	3515
834.267	3462
834.406	3428
834.544	3405
834.682	3450
834.821	3424
834.959	3584
835.097	3428
835.235	3530
835.373	3500
835.511	3526
835.65	3431
835.788	3492
835.926	3382
836.064	3397
836.202	3439
836.34	3599
836.478	3614
836.615	3553
836.753	3622
836.891	3614
837.029	3679
837.167	3610
837.305	3553
837.443	3553
837.58	3538
837.718	3606
837.856	3614
837.993	3557
838.131	3610
838.269	3568
838.406	3549
838.544	3576
838.681	3469
838.819	3420
838.956	3409
839.094	3393
839.231	3450
839.369	3515
839.506	3728
839.643	3610
839.781	3507
839.918	3500
840.055	3553
840.193	3523
840.33	3519
840.467	3618
840.604	3603
840.742	3842
840.879	3603
841.016	3572
841.153	3637
841.29	3762
841.427	3701
841.564	3755
841.701	3778
841.838	3751
841.975	3675
842.112	3759
842.249	3648
842.385	3625
842.522	3854
842.659	3690
842.796	3671
842.933	3698
843.069	3679
843.206	3713
843.343	3812
843.479	3785
843.616	3835
843.752	3682
843.889	3667
844.025	3819
844.162	3713
844.298	3842
844.435	3797
844.571	3789
844.708	3888
844.844	3994
844.98	4040
845.117	3991
845.253	3949
845.389	3884
845.525	4013
845.661	3953
845.798	3941
845.934	4036
846.07	3975
846.206	4044
846.342	4124
846.478	4055
846.614	3991
846.75	3949
846.886	3884
847.022	4048
847.158	4010
847.294	4002
847.429	4017
847.565	3991
847.701	4242
847.837	3896
847.972	3842
848.108	3972
848.244	4002
848.379	3899
848.515	3835
848.65	3888
848.786	3865
848.921	3846
849.057	3930
849.192	3949
849.328	3892
849.463	3896
849.598	3911
849.734	3922
849.869	3869
850.004	3800
850.14	3831
850.275	3800
850.41	3713
850.545	3747
850.68	3766
850.815	3827
850.95	3785
851.085	3922
851.22	3857
851.355	3842
851.49	3838
851.625	3789
851.76	3778
851.895	3751
852.03	3732
852.165	3846
852.299	3892
852.434	3937
852.569	3873
852.703	3873
852.838	3945
852.973	4029
853.107	3998
853.242	3896
853.376	3880
853.511	3781
853.645	3812
853.78	3979
853.914	3911
854.048	3915
854.183	3911
854.317	3964
854.451	4105
854.585	3956
854.72	3975
854.854	4105
854.988	3975
855.122	4025
855.256	3975
855.39	4048
855.524	4120
855.658	4150
855.792	4097
855.926	4143
856.06	4207
856.194	4219
856.327	4158
856.461	4109
856.595	4135
856.729	4196
856.862	4280
856.996	4261
857.13	4314
857.263	4329
857.397	4314
857.53	4322
857.664	4325
857.797	4352
857.931	4417
858.064	4360
858.197	4428
858.331	4451
858.464	4383
858.597	4363
858.731	4481
858.864	4462
858.997	4455
859.13	4519
859.263	4500
859.396	4603
859.529	4523
859.662	4550
859.795	4508
859.928	4615
860.061	4767
860.194	4710
860.327	4588
860.46	4668
860.592	4755
860.725	4755
860.858	4801
860.99	4733
861.123	4706
861.256	4736
861.388	4797
861.521	5402
861.653	4717
861.786	4717
861.918	4748
862.05	4885
862.183	4850
862.315	4965
862.447	4938
862.58	4911
862.712	4843
862.844	4782
862.976	4904
863.108	4866
863.24	5132
863.372	4839
863.504	4870
863.636	4889
863.768	5003
863.9	4976
864.032	4946
864.164	4942
864.296	4976
864.428	5102
864.559	5105
864.691	5136
864.823	5151
864.954	5113
865.086	5170
865.217	5121
865.349	5155
865.48	5189
865.612	5170
865.743	5337
865.875	5204
866.006	5204
866.137	5216
866.269	5273
866.4	5254
866.531	5288
866.662	5254
866.793	5269
866.924	5280
867.055	5337
867.186	5307
867.317	5315
867.448	5364
867.579	5357
867.71	5372
867.841	5395
867.972	5444
868.103	5444
868.233	5486
868.364	5490
868.495	5547
868.625	5646
868.756	5824
868.886	5623
869.017	5745
869.147	5889
869.278	5866
869.408	5832
869.539	5855
869.669	5908
869.799	5889
869.929	5961
870.06	6019
870.19	6152
870.32	6194
870.45	6247
870.58	6365
870.71	6391
870.84	6429
870.97	6448
871.1	6426
871.23	6662
871.36	6604
871.489	6665
871.619	6741
871.749	6802
871.879	6886
872.008	6973
872.138	7023
872.267	7012
872.397	6958
872.526	7099
872.656	7145
872.785	7236
872.915	7354
873.044	7495
873.173	7590
873.303	7685
873.432	7769
873.561	7830
873.69	7883
873.819	8012
873.948	8248
874.077	8225
874.206	8320
874.335	8431
874.464	8682
874.593	8842
874.722	8895
874.851	9123
874.979	9237
875.108	9374
875.237	9435
875.365	9557
875.494	9641
875.623	9861
875.751	9846
875.88	9987
876.008	10215
876.136	10325
876.265	10508
876.393	10668
876.521	10759
876.65	10812
876.778	10820
876.906	10946
877.034	11045
877.162	11113
877.29	11204
877.418	11231
877.546	11356
877.674	11433
877.802	11528
877.93	11528
878.058	11566
878.185	11543
878.313	11619
878.441	11779
878.568	11722
878.696	11729
878.824	11878
878.951	11946
879.079	11977
879.206	12152
879.333	12049
879.461	11977
879.588	12144
879.715	12091
879.842	12239
879.97	12076
880.097	11920
880.224	11927
880.351	11897
880.478	11817
880.605	11882
880.732	11802
880.859	11984
880.986	11794
881.112	11931
881.239	11680
881.366	11657
881.493	11501
881.619	11573
881.746	11570
881.872	11604
881.999	11482
882.125	11528
882.252	11596
882.378	11482
882.505	11505
882.631	11341
882.757	11280
882.883	11353
883.01	11212
883.136	11201
883.262	11121
883.388	11071
883.514	11201
883.64	11151
883.766	11197
883.892	10927
884.018	11010
884.143	11094
884.269	11140
884.395	10835
884.52	10763
884.646	10824
884.772	10771
884.897	10641
885.023	10771
885.148	10759
885.274	10793
885.399	10729
885.524	10641
885.65	10694
885.775	10622
885.9	10546
886.025	10527
886.15	10592
886.275	10447
886.4	10402
886.525	10421
886.65	10481
886.775	10268
886.9	10470
887.025	10550
887.149	10367
887.274	10287
887.399	10227
887.523	10158
887.648	10196
887.773	10097
887.897	10219
888.021	10207
888.146	10166
888.27	10272
888.395	10211
888.519	10196
888.643	10238
888.767	10227
888.891	10139
889.015	10051
889.139	10082
889.263	9987
889.387	10078
889.511	10093
889.635	10147
889.759	9956
889.883	10040
890.006	9926
890.13	10143
890.254	9979
890.377	9937
890.501	9838
890.624	9873
890.748	9857
890.871	9842
890.995	9762
891.118	9740
891.241	9816
891.364	9759
891.488	9816
891.611	9740
891.734	9747
891.857	9850
891.98	9755
892.103	9732
892.226	9686
892.349	9667
892.471	9553
892.594	9564
892.717	9660
892.839	9595
892.962	9641
893.085	9644
893.207	9561
893.33	9523
893.452	9511
893.575	9633
893.697	9534
893.819	9568
893.941	9660
894.064	9671
894.186	9435
894.308	9431
894.43	9450
894.552	9675
894.674	9557
894.796	9386
894.918	9458
895.04	9431
895.161	9412
895.283	9359
895.405	9268
895.526	9363
895.648	9230
895.769	9268
895.891	9272
896.012	9325
896.134	9241
896.255	9180
896.376	9131
896.498	9173
896.619	9188
896.74	9047
896.861	9116
896.982	9283
897.103	9317
897.224	9173
897.345	9066
897.466	8952
897.587	9058
897.708	9135
897.828	9085
897.949	8952
898.07	8861
898.19	8956
898.311	9066
898.431	8933
898.552	8895
898.672	8918
898.792	8933
898.913	8853
899.033	8796
899.153	8701
899.273	8670
899.393	8743
899.513	8735
899.633	8727
899.753	8724
899.873	8769
899.993	8796
900.113	8667
900.232	8731
900.352	8640
900.472	8610
900.591	8499
900.711	8541
900.83	8537
900.95	8590
901.069	8705
901.189	8629
901.308	8438
901.427	8473
901.546	8434
901.665	8480
901.784	8423
901.904	8362
902.023	8385
902.141	8290
902.26	8183
902.379	8221
902.498	8157
902.617	8199
902.735	8294
902.854	8328
902.973	8282
903.091	8084
903.21	8088
903.328	8161
903.446	8202
903.565	8027
903.683	8142
903.801	8027
903.919	8161
904.038	8100
904.156	8016
904.274	8103
904.392	8005
904.51	8119
904.627	8020
904.745	8069
904.863	8126
904.981	7959
905.098	7841
905.216	7837
905.334	7887
905.451	7925
905.569	7852
905.686	7887
905.803	7906
905.921	7734
906.038	7898
906.155	7822
906.272	7696
906.389	7750
906.506	7597
906.623	7613
906.74	7601
906.857	7525
906.974	7655
907.091	7693
907.208	7693
907.324	7605
907.441	7613
907.557	7483
907.674	7533
907.79	7403
907.907	7381
908.023	7419
908.139	7468
908.256	7407
908.372	7362
908.488	7308
908.604	7346
908.72	7244
908.836	7240
908.952	7285
909.068	7270
909.184	7346
909.3	7225
909.415	7301
909.531	7251
909.647	7160
909.762	7107
909.878	7080
909.993	7137
910.108	7152
910.224	7076
910.339	7152
910.454	7061
910.57	6993
910.685	6935
910.8	7137
910.915	7080
911.03	7031
911.145	6932
911.259	6844
911.374	6875
911.489	6882
911.604	6829
911.718	6741
911.833	6768
911.947	6593
912.062	6620
912.176	6757
912.291	6669
912.405	6696
912.519	6802
912.633	6867
912.748	6703
912.862	6620
912.976	6654
913.09	6525
913.204	6612
913.318	6677
913.431	6684
913.545	6688
913.659	6726
913.772	6692
913.886	6544
914	6540
914.113	6646
914.226	6623
914.34	6662
914.453	6555
914.566	6574
914.68	6540
914.793	6490
914.906	6418
915.019	6365
915.132	6426
915.245	6388
915.358	6471
915.47	6418
915.583	6433
915.696	6460
915.809	6555
915.921	6525
916.034	6437
916.146	6395
916.259	6376
916.371	6464
916.483	6403
916.595	6448
916.708	6445
916.82	6426
916.932	6380
917.044	6483
917.156	6384
917.268	6292
917.38	6338
917.491	6350
917.603	6323
917.715	6441
917.826	6460
917.938	6384
918.049	6262
918.161	6338
918.272	6479
918.384	6399
918.495	6346
918.606	6296
918.717	6224
918.828	6232
918.939	6281
919.05	6190
919.161	6285
919.272	6095
919.383	6205
919.494	6350
919.604	6464
919.715	6334
919.826	6270
919.936	6262
920.047	6338
920.157	6300
920.267	6448
920.378	6262
920.488	6281
920.598	6494
920.708	6589
920.818	6460
920.928	6448
921.038	6639
921.148	6563
921.258	6429
921.368	6319
921.477	6270
921.587	6114
921.697	6125
921.806	6194
921.916	6087
922.025	5935
922.134	5927
922.244	5859
922.353	6003
922.462	5851
922.571	5817
922.68	5760
922.789	5676
922.898	5737
923.007	5642
923.116	5646
923.224	5661
923.333	5668
923.442	5615
923.55	5585
923.659	5608
923.767	5608
923.876	5547
923.984	5577
924.092	5573
924.201	5554
924.309	5535
924.417	5581
924.525	5543
924.633	5493
924.741	6285
924.849	5334
924.956	5482
925.064	5364
925.172	5277
925.279	5303
925.387	5402
925.494	5299
925.602	5414
925.709	5402
925.816	5315
925.924	5311
926.031	5349
926.138	5345
926.245	5315
926.352	5231
926.459	5299
926.566	5292
926.673	5227
926.779	5102
926.886	5109
926.993	5071
927.099	5003
927.206	4976
927.312	4972
927.419	5018
927.525	4995
927.631	4972
927.737	4877
927.843	4858
927.95	4828
928.056	4831
928.162	4858
928.267	4873
928.373	5330
928.479	4885
928.585	4740
928.69	4767
928.796	4771
928.901	4694
929.007	4615
929.112	4656
929.218	4622
929.323	4599
929.428	4565
929.533	4672
929.638	4512
929.743	4535
929.848	4558
929.953	4542
930.058	4470
930.163	4367
930.267	4333
930.372	4432
930.477	4299
930.581	4462
930.685	4390
930.79	4284
930.894	4280
930.998	4246
931.103	4352
931.207	4112
931.311	4120
931.415	4059
931.519	3922
931.623	3964
