Data from glass_V78500241_2504.txt Node
Date: Wed Sep 01 19:31:51 CST 2021
User: usil
Spectrometer: V785-0024
Trigger mode: 0
Integration Time (sec): 4.000000E-1
Scans to average: 1
Nonlinearity correction enabled: false
Boxcar width: 0
Storing dark spectrum: false
XAxis mode: Wavelengths
Number of Pixels in Spectrum: 1024
>>>>>Begin Spectral Data<<<<<
801.071	3728
801.214	3705
801.356	3720
801.499	3759
801.641	3720
801.783	3751
801.926	3873
802.068	3835
802.211	3808
802.353	3869
802.496	3854
802.638	3880
802.78	3934
802.923	3915
803.065	3896
803.208	3831
803.35	3823
803.492	3869
803.635	3930
803.777	3797
803.919	3884
804.061	4109
804.204	3972
804.346	3949
804.488	3911
804.63	4032
804.773	3960
804.915	3998
805.057	4071
805.199	3991
805.341	4071
805.483	4147
805.626	4116
805.768	4036
805.91	4211
806.052	4227
806.194	4181
806.336	4299
806.478	4158
806.62	4143
806.762	4192
806.904	4188
807.046	4329
807.188	4223
807.33	4162
807.472	4204
807.614	4177
807.756	4227
807.898	4192
808.04	4192
808.182	4234
808.324	4318
808.465	4333
808.607	4485
808.749	4478
808.891	4485
809.033	4485
809.174	4394
809.316	4276
809.458	4238
809.6	4139
809.741	4143
809.883	4120
810.025	4207
810.166	4242
810.308	4227
810.45	4227
810.591	4265
810.733	4280
810.875	4500
811.016	4843
811.158	5128
811.299	5273
811.441	5250
811.582	5048
811.724	4702
811.865	4474
812.007	4512
812.148	4413
812.29	4402
812.431	4405
812.573	4405
812.714	4344
812.855	4390
812.997	4405
813.138	4481
813.279	4371
813.421	4394
813.562	4383
813.703	4295
813.845	4352
813.986	4246
814.127	4219
814.268	4242
814.41	4280
814.551	4276
814.692	4318
814.833	4303
814.974	4310
815.115	4363
815.256	4287
815.397	4207
815.539	4284
815.68	4207
815.821	4207
815.962	4261
816.103	4246
816.244	4227
816.385	4207
816.526	4238
816.666	4230
816.807	4090
816.948	4177
817.089	4150
817.23	4135
817.371	4036
817.512	4032
817.653	4101
817.793	4074
817.934	4013
818.075	4097
818.216	4040
818.356	4082
818.497	3979
818.638	3850
818.778	3907
818.919	3892
819.06	3857
819.2	3915
819.341	3865
819.481	3831
819.622	3873
819.762	4025
819.903	3945
820.043	3850
820.184	3876
820.324	3857
820.465	3857
820.605	3816
820.746	3865
820.886	3793
821.026	3896
821.167	3937
821.307	3937
821.447	3949
821.588	3975
821.728	3968
821.868	3941
822.008	3816
822.149	3888
822.289	3876
822.429	3774
822.569	3728
822.709	3793
822.849	3675
822.99	3682
823.13	3770
823.27	3781
823.41	3701
823.55	3682
823.69	3709
823.83	3705
823.97	3705
824.11	3587
824.25	3591
824.389	3637
824.529	3690
824.669	3595
824.809	3694
824.949	3717
825.089	3740
825.228	3671
825.368	3606
825.508	3534
825.648	3587
825.787	3599
825.927	3633
826.067	3591
826.206	3641
826.346	3823
826.485	3835
826.625	3842
826.765	3960
826.904	3808
827.044	3595
827.183	3507
827.323	3447
827.462	3488
827.601	3450
827.741	3416
827.88	3439
828.02	3386
828.159	3401
828.298	3443
828.437	3523
828.577	3477
828.716	3610
828.855	3504
828.994	3344
829.134	3329
829.273	3378
829.412	3344
829.551	3340
829.69	3351
829.829	3439
829.968	3477
830.107	3473
830.246	3435
830.385	3363
830.524	3325
830.663	3283
830.802	3237
830.941	3211
831.08	3169
831.219	3237
831.357	3268
831.496	3405
831.635	3184
831.774	3192
831.913	3180
832.051	3138
832.19	3169
832.329	3203
832.467	3154
832.606	3097
832.744	3146
832.883	3180
833.022	3203
833.16	3249
833.299	3306
833.437	3332
833.576	3367
833.714	3450
833.852	3420
833.991	3409
834.129	3462
834.267	3435
834.406	3386
834.544	3447
834.682	3443
834.821	3397
834.959	3557
835.097	3405
835.235	3538
835.373	3450
835.511	3504
835.65	3447
835.788	3496
835.926	3386
836.064	3370
836.202	3397
836.34	3545
836.478	3625
836.615	3515
836.753	3568
836.891	3648
837.029	3580
837.167	3580
837.305	3584
837.443	3553
837.58	3507
837.718	3584
837.856	3542
837.993	3526
838.131	3549
838.269	3557
838.406	3557
838.544	3587
838.681	3435
838.819	3420
838.956	3363
839.094	3355
839.231	3431
839.369	3504
839.506	3717
839.643	3625
839.781	3542
839.918	3466
840.055	3496
840.193	3500
840.33	3523
840.467	3523
840.604	3606
840.742	3800
840.879	3523
841.016	3530
841.153	3580
841.29	3743
841.427	3682
841.564	3724
841.701	3736
841.838	3705
841.975	3671
842.112	3724
842.249	3618
842.385	3625
842.522	3819
842.659	3644
842.796	3648
842.933	3705
843.069	3652
843.206	3709
843.343	3835
843.479	3781
843.616	3819
843.752	3648
843.889	3652
844.025	3857
844.162	3717
844.298	3819
844.435	3762
844.571	3778
844.708	3930
844.844	3960
844.98	4013
845.117	4017
845.253	3926
845.389	3892
845.525	3922
845.661	3934
845.798	3903
845.934	3987
846.07	3953
846.206	4006
846.342	4086
846.478	4055
846.614	3953
846.75	3937
846.886	3857
847.022	4002
847.158	3953
847.294	3960
847.429	3994
847.565	3934
847.701	4211
847.837	3892
847.972	3846
848.108	3922
848.244	3960
848.379	3831
848.515	3812
848.65	3831
848.786	3793
848.921	3831
849.057	3979
849.192	3956
849.328	3888
849.463	3922
849.598	3888
849.734	3865
849.869	3823
850.004	3781
850.14	3819
850.275	3743
850.41	3736
850.545	3751
850.68	3747
850.815	3743
850.95	3736
851.085	3937
851.22	3884
851.355	3804
851.49	3766
851.625	3770
851.76	3778
851.895	3736
852.03	3717
852.165	3762
852.299	3873
852.434	3899
852.569	3869
852.703	3861
852.838	3873
852.973	3968
853.107	4006
853.242	3903
853.376	3823
853.511	3785
853.645	3857
853.78	3968
853.914	3888
854.048	3869
854.183	3842
854.317	3945
854.451	4071
854.585	3937
854.72	3907
854.854	4013
854.988	3937
855.122	3983
855.256	3907
855.39	4013
855.524	4109
855.658	4078
855.792	4074
855.926	4112
856.06	4124
856.194	4147
856.327	4120
856.461	4109
856.595	4128
856.729	4192
856.862	4246
856.996	4268
857.13	4284
857.263	4284
857.397	4379
857.53	4303
857.664	4375
857.797	4390
857.931	4398
858.064	4413
858.197	4424
858.331	4394
858.464	4394
858.597	4325
858.731	4436
858.864	4451
858.997	4466
859.13	4474
859.263	4523
859.396	4596
859.529	4523
859.662	4466
859.795	4489
859.928	4554
860.061	4725
860.194	4740
860.327	4675
860.46	4634
860.592	4691
860.725	4740
860.858	4778
860.99	4660
861.123	4645
861.256	4702
861.388	4729
861.521	5482
861.653	4691
861.786	4725
861.918	4714
862.05	4714
862.183	4809
862.315	4877
862.447	4934
862.58	4862
862.712	4816
862.844	4752
862.976	4873
863.108	4866
863.24	5258
863.372	4809
863.504	4889
863.636	4812
863.768	4938
863.9	4934
864.032	4904
864.164	4968
864.296	4972
864.428	5060
864.559	5060
864.691	5117
864.823	5105
864.954	5086
865.086	5105
865.217	5098
865.349	5071
865.48	5174
865.612	5170
865.743	5246
865.875	5178
866.006	5204
866.137	5197
866.269	5250
866.4	5299
866.531	5250
866.662	5246
866.793	5242
866.924	5303
867.055	5345
867.186	5353
867.317	5345
867.448	5288
867.579	5330
867.71	5349
867.841	5345
867.972	5410
868.103	5452
868.233	5436
868.364	5467
868.495	5501
868.625	5604
868.756	5802
868.886	5619
869.017	5691
869.147	5809
869.278	5836
869.408	5798
869.539	5802
869.669	5878
869.799	5866
869.929	5942
870.06	5999
870.19	6152
870.32	6175
870.45	6262
870.58	6372
870.71	6426
870.84	6407
870.97	6395
871.1	6422
871.23	6608
871.36	6684
871.489	6662
871.619	6673
871.749	6798
871.879	6840
872.008	7019
872.138	6966
872.267	7015
872.397	6958
872.526	6993
872.656	7038
872.785	7164
872.915	7388
873.044	7468
873.173	7567
873.303	7658
873.432	7712
873.561	7875
873.69	7868
873.819	8020
873.948	8123
874.077	8252
874.206	8317
874.335	8492
874.464	8606
874.593	8807
874.722	8929
874.851	9089
874.979	9176
875.108	9325
875.237	9424
875.365	9447
875.494	9644
875.623	9831
875.751	9816
875.88	10010
876.008	10166
876.136	10287
876.265	10538
876.393	10702
876.521	10679
876.65	10812
876.778	10869
876.906	10889
877.034	11071
877.162	11155
877.29	11098
877.418	11284
877.546	11349
877.674	11372
877.802	11463
877.93	11532
878.058	11501
878.185	11611
878.313	11665
878.441	11707
878.568	11649
878.696	11760
878.824	11767
878.951	11969
879.079	11954
879.206	12155
879.333	12087
879.461	12083
879.588	12140
879.715	12060
879.842	12243
879.97	12060
880.097	11878
880.224	11866
880.351	11805
880.478	11866
880.605	11870
880.732	11783
880.859	11950
880.986	11794
881.112	11859
881.239	11748
881.366	11634
881.493	11596
881.619	11501
881.746	11592
881.872	11509
881.999	11490
882.125	11452
882.252	11471
882.378	11570
882.505	11509
882.631	11269
882.757	11254
882.883	11337
883.01	11303
883.136	11212
883.262	11181
883.388	11083
883.514	11174
883.64	11159
883.766	11037
883.892	11010
884.018	10984
884.143	11113
884.269	11018
884.395	10809
884.52	10782
884.646	10786
884.772	10687
884.897	10565
885.023	10729
885.148	10778
885.274	10744
885.399	10679
885.524	10664
885.65	10569
885.775	10664
885.9	10558
886.025	10538
886.15	10580
886.275	10405
886.4	10352
886.525	10447
886.65	10424
886.775	10382
886.9	10432
887.025	10443
887.149	10371
887.274	10223
887.399	10284
887.523	10211
887.648	10147
887.773	10101
887.897	10284
888.021	10242
888.146	10162
888.27	10223
888.395	10181
888.519	10128
888.643	10128
888.767	10162
888.891	9994
889.015	9937
889.139	10147
889.263	9972
889.387	10067
889.511	10002
889.635	10093
889.759	9994
889.883	9945
890.006	9953
890.13	10112
890.254	9903
890.377	9945
890.501	9880
890.624	9861
890.748	9918
890.871	9690
890.995	9778
891.118	9701
891.241	9808
891.364	9736
891.488	9823
891.611	9747
891.734	9732
891.857	9747
891.98	9804
892.103	9720
892.226	9694
892.349	9694
892.471	9477
892.594	9561
892.717	9557
892.839	9549
892.962	9542
893.085	9656
893.207	9530
893.33	9469
893.452	9557
893.575	9576
893.697	9435
893.819	9652
893.941	9701
894.064	9686
894.186	9458
894.308	9401
894.43	9584
894.552	9587
894.674	9473
894.796	9420
894.918	9336
895.04	9313
895.161	9294
895.283	9458
895.405	9313
895.526	9264
895.648	9214
895.769	9230
895.891	9253
896.012	9184
896.134	9176
896.255	9180
896.376	9074
896.498	9176
896.619	9108
896.74	8998
896.861	9150
896.982	9253
897.103	9287
897.224	9146
897.345	9081
897.466	8986
897.587	9032
897.708	9081
897.828	8990
897.949	8906
898.07	8880
898.19	8857
898.311	9013
898.431	8899
898.552	8883
898.672	8944
898.792	8876
898.913	8975
899.033	8750
899.153	8788
899.273	8705
899.393	8708
899.513	8746
899.633	8705
899.753	8739
899.873	8655
899.993	8670
900.113	8720
900.232	8720
900.352	8594
900.472	8590
900.591	8556
900.711	8659
900.83	8541
900.95	8606
901.069	8640
901.189	8613
901.308	8446
901.427	8454
901.546	8396
901.665	8457
901.784	8469
901.904	8393
902.023	8324
902.141	8164
902.26	8221
902.379	8271
902.498	8225
902.617	8252
902.735	8324
902.854	8282
902.973	8248
903.091	8153
903.21	8100
903.328	8130
903.446	8123
903.565	8073
903.683	8172
903.801	8107
903.919	8130
904.038	8130
904.156	7993
904.274	8008
904.392	7925
904.51	8088
904.627	8054
904.745	8149
904.863	8054
904.981	7894
905.098	7849
905.216	7879
905.334	7890
905.451	7879
905.569	7830
905.686	7864
905.803	7841
905.921	7780
906.038	7852
906.155	7685
906.272	7708
906.389	7727
906.506	7616
906.623	7658
906.74	7590
906.857	7552
906.974	7571
907.091	7597
907.208	7769
907.324	7582
907.441	7567
907.557	7468
907.674	7453
907.79	7377
907.907	7411
908.023	7396
908.139	7373
908.256	7422
908.372	7384
908.488	7411
908.604	7221
908.72	7198
908.836	7301
908.952	7305
909.068	7187
909.184	7285
909.3	7179
909.415	7354
909.531	7270
909.647	7126
909.762	7114
909.878	7057
909.993	7072
910.108	7080
910.224	7027
910.339	7027
910.454	7046
910.57	6977
910.685	6924
910.8	7221
910.915	7053
911.03	6977
911.145	6909
911.259	6840
911.374	6875
911.489	6871
911.604	6818
911.718	6722
911.833	6719
911.947	6639
912.062	6669
912.176	6684
912.291	6726
912.405	6646
912.519	6814
912.633	6814
912.748	6662
912.862	6696
912.976	6658
913.09	6490
913.204	6574
913.318	6597
913.431	6635
913.545	6677
913.659	6681
913.772	6673
913.886	6486
914	6506
914.113	6563
914.226	6635
914.34	6559
914.453	6483
914.566	6585
914.68	6578
914.793	6517
914.906	6407
915.019	6372
915.132	6422
915.245	6388
915.358	6426
915.47	6410
915.583	6422
915.696	6460
915.809	6555
915.921	6593
916.034	6372
916.146	6410
916.259	6376
916.371	6403
916.483	6448
916.595	6384
916.708	6380
916.82	6380
916.932	6376
917.044	6395
917.156	6395
917.268	6311
917.38	6327
917.491	6311
917.603	6369
917.715	6422
917.826	6410
917.938	6311
918.049	6228
918.161	6334
918.272	6414
918.384	6391
918.495	6308
918.606	6235
918.717	6220
918.828	6239
918.939	6224
919.05	6148
919.161	6254
919.272	6091
919.383	6140
919.494	6273
919.604	6410
919.715	6277
919.826	6197
919.936	6201
920.047	6304
920.157	6239
920.267	6464
920.378	6289
920.488	6273
920.598	6467
920.708	6528
920.818	6521
920.928	6494
921.038	6604
921.148	6601
921.258	6357
921.368	6311
921.477	6213
921.587	6133
921.697	6106
921.806	6152
921.916	6117
922.025	5920
922.134	5855
922.244	5851
922.353	5908
922.462	5878
922.571	5775
922.68	5745
922.789	5676
922.898	5752
923.007	5611
923.116	5710
923.224	5581
923.333	5676
923.442	5604
923.55	5577
923.659	5547
923.767	5627
923.876	5539
923.984	5551
924.092	5509
924.201	5535
924.309	5532
924.417	5528
924.525	5474
924.633	5459
924.741	6224
924.849	5410
924.956	5497
925.064	5334
925.172	5337
925.279	5280
925.387	5292
925.494	5299
925.602	5414
925.709	5379
925.816	5265
925.924	5307
926.031	5353
926.138	5280
926.245	5326
926.352	5246
926.459	5280
926.566	5330
926.673	5132
926.779	5128
926.886	5109
926.993	4980
927.099	4987
927.206	5003
927.312	4987
927.419	4987
927.525	4908
927.631	4980
927.737	4866
927.843	4862
927.95	4755
928.056	4824
928.162	4835
928.267	4835
928.373	5261
928.479	4854
928.585	4622
928.69	4717
928.796	4778
928.901	4675
929.007	4580
929.112	4668
929.218	4611
929.323	4538
929.428	4577
929.533	4664
929.638	4527
929.743	4523
929.848	4584
929.953	4504
930.058	4413
930.163	4356
930.267	4314
930.372	4443
930.477	4295
930.581	4474
930.685	4352
930.79	4249
930.894	4238
930.998	4253
931.103	4363
931.207	4067
931.311	4109
931.415	4010
931.519	3903
931.623	3930
