Data from glass_V78500241_1391.txt Node
Date: Wed Sep 01 19:24:08 CST 2021
User: usil
Spectrometer: V785-0024
Trigger mode: 0
Integration Time (sec): 4.000000E-1
Scans to average: 1
Nonlinearity correction enabled: false
Boxcar width: 0
Storing dark spectrum: false
XAxis mode: Wavelengths
Number of Pixels in Spectrum: 1024
>>>>>Begin Spectral Data<<<<<
801.071	3724
801.214	3766
801.356	3743
801.499	3762
801.641	3755
801.783	3793
801.926	3831
802.068	3850
802.211	3838
802.353	3884
802.496	3816
802.638	3926
802.78	3907
802.923	3899
803.065	3915
803.208	3842
803.35	3884
803.492	3869
803.635	3934
803.777	3793
803.919	3945
804.061	4116
804.204	4036
804.346	3979
804.488	3911
804.63	4017
804.773	3991
804.915	4074
805.057	4120
805.199	4093
805.341	4093
805.483	4173
805.626	4109
805.768	4059
805.91	4215
806.052	4257
806.194	4181
806.336	4352
806.478	4219
806.62	4169
806.762	4219
806.904	4261
807.046	4333
807.188	4242
807.33	4162
807.472	4234
807.614	4219
807.756	4295
807.898	4230
808.04	4158
808.182	4261
808.324	4325
808.465	4337
808.607	4478
808.749	4470
808.891	4481
809.033	4489
809.174	4390
809.316	4227
809.458	4284
809.6	4105
809.741	4139
809.883	4162
810.025	4200
810.166	4200
810.308	4234
810.45	4253
810.591	4227
810.733	4306
810.875	4508
811.016	4854
811.158	5159
811.299	5231
811.441	5254
811.582	5048
811.724	4714
811.865	4459
812.007	4478
812.148	4451
812.29	4447
812.431	4405
812.573	4428
812.714	4379
812.855	4451
812.997	4390
813.138	4481
813.279	4405
813.421	4363
813.562	4367
813.703	4352
813.845	4341
813.986	4238
814.127	4204
814.268	4253
814.41	4295
814.551	4219
814.692	4318
814.833	4261
814.974	4295
815.115	4379
815.256	4234
815.397	4227
815.539	4280
815.68	4215
815.821	4219
815.962	4322
816.103	4272
816.244	4196
816.385	4257
816.526	4284
816.666	4238
816.807	4086
816.948	4154
817.089	4166
817.23	4082
817.371	4074
817.512	4010
817.653	4097
817.793	4051
817.934	4006
818.075	4093
818.216	4082
818.356	4059
818.497	3983
818.638	3896
818.778	3949
818.919	3892
819.06	3880
819.2	3998
819.341	3854
819.481	3827
819.622	3949
819.762	4025
819.903	3941
820.043	3857
820.184	3846
820.324	3850
820.465	3861
820.605	3892
820.746	3911
820.886	3812
821.026	3945
821.167	3922
821.307	3934
821.447	3972
821.588	3926
821.728	3964
821.868	3934
822.008	3903
822.149	3922
822.289	3915
822.429	3800
822.569	3781
822.709	3793
822.849	3660
822.99	3709
823.13	3774
823.27	3781
823.41	3740
823.55	3694
823.69	3728
823.83	3762
823.97	3663
824.11	3629
824.25	3618
824.389	3663
824.529	3652
824.669	3625
824.809	3743
824.949	3724
825.089	3724
825.228	3694
825.368	3564
825.508	3572
825.648	3591
825.787	3625
825.927	3618
826.067	3625
826.206	3690
826.346	3793
826.485	3854
826.625	3892
826.765	3964
826.904	3842
827.044	3618
827.183	3504
827.323	3450
827.462	3488
827.601	3447
827.741	3466
827.88	3454
828.02	3378
828.159	3424
828.298	3500
828.437	3542
828.577	3450
828.716	3625
828.855	3511
828.994	3431
829.134	3367
829.273	3401
829.412	3344
829.551	3359
829.69	3348
829.829	3428
829.968	3523
830.107	3450
830.246	3466
830.385	3409
830.524	3344
830.663	3340
830.802	3264
830.941	3207
831.08	3226
831.219	3264
831.357	3275
831.496	3431
831.635	3211
831.774	3195
831.913	3195
832.051	3123
832.19	3165
832.329	3203
832.467	3150
832.606	3108
832.744	3192
832.883	3173
833.022	3199
833.16	3272
833.299	3325
833.437	3355
833.576	3386
833.714	3405
833.852	3450
833.991	3450
834.129	3454
834.267	3454
834.406	3382
834.544	3431
834.682	3401
834.821	3382
834.959	3576
835.097	3450
835.235	3538
835.373	3462
835.511	3500
835.65	3462
835.788	3454
835.926	3405
836.064	3424
836.202	3409
836.34	3561
836.478	3618
836.615	3523
836.753	3641
836.891	3629
837.029	3644
837.167	3576
837.305	3580
837.443	3504
837.58	3466
837.718	3584
837.856	3553
837.993	3530
838.131	3656
838.269	3587
838.406	3576
838.544	3557
838.681	3466
838.819	3458
838.956	3393
839.094	3416
839.231	3412
839.369	3507
839.506	3724
839.643	3641
839.781	3488
839.918	3443
840.055	3534
840.193	3538
840.33	3526
840.467	3591
840.604	3587
840.742	3789
840.879	3519
841.016	3561
841.153	3629
841.29	3747
841.427	3740
841.564	3690
841.701	3778
841.838	3709
841.975	3641
842.112	3717
842.249	3633
842.385	3584
842.522	3846
842.659	3694
842.796	3663
842.933	3698
843.069	3743
843.206	3736
843.343	3854
843.479	3793
843.616	3831
843.752	3682
843.889	3728
844.025	3823
844.162	3698
844.298	3854
844.435	3819
844.571	3797
844.708	3937
844.844	4006
844.98	4059
845.117	3994
845.253	3949
845.389	3911
845.525	3991
845.661	3964
845.798	3968
845.934	4010
846.07	3972
846.206	4044
846.342	4105
846.478	4059
846.614	3975
846.75	3930
846.886	3926
847.022	4063
847.158	3983
847.294	3998
847.429	4036
847.565	4029
847.701	4257
847.837	3861
847.972	3869
848.108	4017
848.244	3983
848.379	3888
848.515	3876
848.65	3831
848.786	3892
848.921	3884
849.057	3987
849.192	3945
849.328	3911
849.463	3899
849.598	3861
849.734	3842
849.869	3835
850.004	3793
850.14	3861
850.275	3751
850.41	3701
850.545	3766
850.68	3755
850.815	3812
850.95	3804
851.085	3956
851.22	3907
851.355	3842
851.49	3762
851.625	3800
851.76	3797
851.895	3728
852.03	3755
852.165	3755
852.299	3827
852.434	3926
852.569	3835
852.703	3907
852.838	3949
852.973	4010
853.107	3983
853.242	3899
853.376	3903
853.511	3804
853.645	3869
853.78	3991
853.914	3930
854.048	3865
854.183	3903
854.317	3998
854.451	4116
854.585	3941
854.72	3930
854.854	4063
854.988	3964
855.122	3991
855.256	3937
855.39	4006
855.524	4025
855.658	4116
855.792	4116
855.926	4169
856.06	4154
856.194	4219
856.327	4185
856.461	4139
856.595	4169
856.729	4128
856.862	4219
856.996	4246
857.13	4249
857.263	4337
857.397	4356
857.53	4299
857.664	4371
857.797	4394
857.931	4474
858.064	4436
858.197	4421
858.331	4356
858.464	4432
858.597	4383
858.731	4459
858.864	4481
858.997	4489
859.13	4550
859.263	4554
859.396	4618
859.529	4508
859.662	4558
859.795	4538
859.928	4641
860.061	4698
860.194	4744
860.327	4645
860.46	4714
860.592	4755
860.725	4752
860.858	4820
860.99	4675
861.123	4755
861.256	4694
861.388	4774
861.521	5341
861.653	4721
861.786	4687
861.918	4736
862.05	4782
862.183	4839
862.315	4946
862.447	4885
862.58	4866
862.712	4816
862.844	4763
862.976	4877
863.108	4900
863.24	5170
863.372	4835
863.504	4949
863.636	4904
863.768	4919
863.9	4972
864.032	4927
864.164	4968
864.296	5022
864.428	5079
864.559	5083
864.691	5140
864.823	5140
864.954	5086
865.086	5178
865.217	5121
865.349	5166
865.48	5159
865.612	5265
865.743	5307
865.875	5147
866.006	5204
866.137	5231
866.269	5242
866.4	5258
866.531	5269
866.662	5223
866.793	5280
866.924	5284
867.055	5368
867.186	5326
867.317	5337
867.448	5315
867.579	5467
867.71	5372
867.841	5398
867.972	5452
868.103	5467
868.233	5516
868.364	5452
868.495	5509
868.625	5661
868.756	5813
868.886	5653
869.017	5733
869.147	5870
869.278	5809
869.408	5805
869.539	5863
869.669	5942
869.799	5954
869.929	6015
870.06	5988
870.19	6182
870.32	6197
870.45	6258
870.58	6365
870.71	6467
870.84	6445
870.97	6429
871.1	6452
871.23	6635
871.36	6703
871.489	6646
871.619	6734
871.749	6829
871.879	6859
872.008	6993
872.138	6932
872.267	6973
872.397	6973
872.526	6989
872.656	7065
872.785	7206
872.915	7365
873.044	7510
873.173	7575
873.303	7647
873.432	7780
873.561	7883
873.69	7894
873.819	7978
873.948	8138
874.077	8237
874.206	8324
874.335	8393
874.464	8651
874.593	8845
874.722	8929
874.851	9100
874.979	9195
875.108	9374
875.237	9447
875.365	9568
875.494	9652
875.623	9747
875.751	9823
875.88	9964
876.008	10150
876.136	10227
876.265	10493
876.393	10744
876.521	10702
876.65	10767
876.778	10919
876.906	10908
877.034	10953
877.162	11090
877.29	11178
877.418	11330
877.546	11299
877.674	11433
877.802	11478
877.93	11471
878.058	11543
878.185	11547
878.313	11665
878.441	11718
878.568	11764
878.696	11718
878.824	11813
878.951	11954
879.079	11980
879.206	12129
879.333	12068
879.461	11969
879.588	12121
879.715	12022
879.842	12304
879.97	12053
880.097	11885
880.224	11821
880.351	11817
880.478	11904
880.605	11847
880.732	11786
880.859	12030
880.986	11786
881.112	11767
881.239	11722
881.366	11623
881.493	11642
881.619	11585
881.746	11554
881.872	11520
881.999	11547
882.125	11474
882.252	11505
882.378	11490
882.505	11611
882.631	11364
882.757	11303
882.883	11356
883.01	11242
883.136	11189
883.262	11105
883.388	11105
883.514	11284
883.64	11220
883.766	11083
883.892	11014
884.018	11022
884.143	10972
884.269	11136
884.395	10812
884.52	10809
884.646	10797
884.772	10687
884.897	10611
885.023	10687
885.148	10729
885.274	10694
885.399	10706
885.524	10546
885.65	10577
885.775	10554
885.9	10588
886.025	10683
886.15	10630
886.275	10470
886.4	10470
886.525	10337
886.65	10398
886.775	10371
886.9	10424
887.025	10523
887.149	10379
887.274	10185
887.399	10200
887.523	10173
887.648	10147
887.773	10101
887.897	10280
888.021	10268
888.146	10143
888.27	10249
888.395	10207
888.519	10173
888.643	10181
888.767	10230
888.891	10078
889.015	9975
889.139	10040
889.263	9960
889.387	10059
889.511	10071
889.635	10048
889.759	9911
889.883	9960
890.006	9956
890.13	10112
890.254	10006
890.377	9937
890.501	9861
890.624	9915
890.748	9850
890.871	9823
890.995	9789
891.118	9694
891.241	9819
891.364	9709
891.488	9892
891.611	9720
891.734	9713
891.857	9861
891.98	9755
892.103	9751
892.226	9766
892.349	9614
892.471	9504
892.594	9572
892.717	9656
892.839	9652
892.962	9606
893.085	9663
893.207	9591
893.33	9496
893.452	9534
893.575	9580
893.697	9576
893.819	9648
893.941	9618
894.064	9580
894.186	9355
894.308	9416
894.43	9481
894.552	9542
894.674	9519
894.796	9329
894.918	9397
895.04	9329
895.161	9389
895.283	9382
895.405	9287
895.526	9283
895.648	9275
895.769	9222
895.891	9195
896.012	9279
896.134	9195
896.255	9157
896.376	9100
896.498	9119
896.619	9100
896.74	9062
896.861	9093
896.982	9195
897.103	9321
897.224	9184
897.345	9043
897.466	8986
897.587	9020
897.708	9116
897.828	9005
897.949	8952
898.07	8910
898.19	8925
898.311	9039
898.431	8861
898.552	8883
898.672	8960
898.792	8975
898.913	8925
899.033	8811
899.153	8754
899.273	8625
899.393	8724
899.513	8804
899.633	8636
899.753	8804
899.873	8689
899.993	8792
900.113	8697
900.232	8708
900.352	8686
900.472	8571
900.591	8606
900.711	8640
900.83	8503
900.95	8629
901.069	8727
901.189	8617
901.308	8415
901.427	8431
901.546	8404
901.665	8454
901.784	8541
901.904	8351
902.023	8313
902.141	8301
902.26	8233
902.379	8294
902.498	8240
902.617	8229
902.735	8290
902.854	8305
902.973	8240
903.091	8145
903.21	8176
903.328	8202
903.446	8069
903.565	8062
903.683	8054
903.801	8012
903.919	8145
904.038	8164
904.156	8012
904.274	8088
904.392	8005
904.51	8088
904.627	8027
904.745	8153
904.863	8111
904.981	7849
905.098	7830
905.216	7864
905.334	7944
905.451	7925
905.569	7875
905.686	7993
905.803	7944
905.921	7860
906.038	7898
906.155	7822
906.272	7750
906.389	7742
906.506	7578
906.623	7578
906.74	7616
906.857	7521
906.974	7651
907.091	7731
907.208	7746
907.324	7624
907.441	7525
907.557	7533
907.674	7453
907.79	7400
907.907	7384
908.023	7426
908.139	7453
908.256	7343
908.372	7358
908.488	7320
908.604	7259
908.72	7209
908.836	7327
908.952	7285
909.068	7217
909.184	7346
909.3	7274
909.415	7278
909.531	7293
909.647	7145
909.762	7107
909.878	7126
909.993	7145
910.108	7061
910.224	7072
910.339	7107
910.454	7084
910.57	7023
910.685	7015
910.8	7190
910.915	7187
911.03	7061
911.145	6905
911.259	6886
911.374	6882
911.489	6798
911.604	6814
911.718	6745
911.833	6734
911.947	6650
912.062	6589
912.176	6734
912.291	6779
912.405	6669
912.519	6859
912.633	6829
912.748	6802
912.862	6696
912.976	6589
913.09	6570
913.204	6578
913.318	6620
913.431	6673
913.545	6681
913.659	6707
913.772	6654
913.886	6608
914	6498
914.113	6635
914.226	6669
914.34	6654
914.453	6467
914.566	6593
914.68	6528
914.793	6566
914.906	6429
915.019	6399
915.132	6350
915.245	6407
915.358	6388
915.47	6410
915.583	6441
915.696	6448
915.809	6513
915.921	6601
916.034	6407
916.146	6448
916.259	6388
916.371	6467
916.483	6452
916.595	6380
916.708	6384
916.82	6399
916.932	6448
917.044	6410
917.156	6391
917.268	6357
917.38	6338
917.491	6319
917.603	6407
917.715	6441
917.826	6414
917.938	6388
918.049	6300
918.161	6308
918.272	6422
918.384	6346
918.495	6323
918.606	6285
918.717	6205
918.828	6308
918.939	6281
919.05	6224
919.161	6277
919.272	6053
919.383	6106
919.494	6308
919.604	6399
919.715	6239
919.826	6235
919.936	6201
920.047	6365
920.157	6292
920.267	6498
920.378	6277
920.488	6266
920.598	6426
920.708	6604
920.818	6483
920.928	6452
921.038	6620
921.148	6585
921.258	6353
921.368	6338
921.477	6243
921.587	6144
921.697	6087
921.806	6232
921.916	6087
922.025	5988
922.134	5939
922.244	5916
922.353	5980
922.462	5844
922.571	5783
922.68	5691
922.789	5676
922.898	5771
923.007	5649
923.116	5726
923.224	5665
923.333	5703
923.442	5668
923.55	5539
923.659	5619
923.767	5585
923.876	5532
923.984	5589
924.092	5539
924.201	5615
924.309	5577
924.417	5532
924.525	5532
924.633	5433
924.741	6251
924.849	5357
924.956	5455
925.064	5421
925.172	5284
925.279	5345
925.387	5349
925.494	5311
925.602	5406
925.709	5349
925.816	5292
925.924	5311
926.031	5296
926.138	5273
926.245	5372
926.352	5269
926.459	5296
926.566	5315
926.673	5223
926.779	5159
926.886	5109
926.993	5033
927.099	5033
927.206	4991
927.312	4900
927.419	5014
927.525	4980
927.631	4972
927.737	4892
927.843	4847
927.95	4767
928.056	4805
928.162	4854
928.267	4862
928.373	5311
928.479	4877
928.585	4660
928.69	4778
928.796	4771
928.901	4710
929.007	4584
929.112	4744
929.218	4603
929.323	4550
929.428	4516
929.533	4615
929.638	4531
929.743	4569
929.848	4584
929.953	4512
930.058	4436
930.163	4371
930.267	4356
930.372	4413
930.477	4329
930.581	4481
930.685	4314
930.79	4230
930.894	4230
930.998	4303
931.103	4363
931.207	4116
931.311	4078
931.415	4040
931.519	3922
931.623	3937
