Data from glass_V78500241_1495.txt Node
Date: Wed Sep 01 19:24:51 CST 2021
User: usil
Spectrometer: V785-0024
Trigger mode: 0
Integration Time (sec): 4.000000E-1
Scans to average: 1
Nonlinearity correction enabled: false
Boxcar width: 0
Storing dark spectrum: false
XAxis mode: Wavelengths
Number of Pixels in Spectrum: 1024
>>>>>Begin Spectral Data<<<<<
801.071	3743
801.214	3770
801.356	3679
801.499	3743
801.641	3717
801.783	3823
801.926	3838
802.068	3823
802.211	3869
802.353	3903
802.496	3857
802.638	3884
802.78	3846
802.923	3956
803.065	3899
803.208	3884
803.35	3899
803.492	3892
803.635	3903
803.777	3789
803.919	3896
804.061	4135
804.204	3949
804.346	3930
804.488	3934
804.63	4029
804.773	3945
804.915	4029
805.057	4169
805.199	4032
805.341	4078
805.483	4120
805.626	4090
805.768	4086
805.91	4219
806.052	4257
806.194	4207
806.336	4333
806.478	4204
806.62	4188
806.762	4173
806.904	4261
807.046	4322
807.188	4219
807.33	4200
807.472	4257
807.614	4211
807.756	4234
807.898	4242
808.04	4261
808.182	4238
808.324	4341
808.465	4398
808.607	4451
808.749	4470
808.891	4432
809.033	4497
809.174	4409
809.316	4265
809.458	4261
809.6	4185
809.741	4143
809.883	4150
810.025	4230
810.166	4215
810.308	4234
810.45	4261
810.591	4253
810.733	4295
810.875	4508
811.016	4831
811.158	5086
811.299	5280
811.441	5284
811.582	5060
811.724	4755
811.865	4470
812.007	4512
812.148	4417
812.29	4405
812.431	4386
812.573	4383
812.714	4390
812.855	4417
812.997	4417
813.138	4459
813.279	4390
813.421	4417
813.562	4363
813.703	4303
813.845	4310
813.986	4234
814.127	4207
814.268	4265
814.41	4299
814.551	4284
814.692	4318
814.833	4291
814.974	4299
815.115	4417
815.256	4280
815.397	4310
815.539	4230
815.68	4207
815.821	4219
815.962	4337
816.103	4291
816.244	4223
816.385	4253
816.526	4318
816.666	4249
816.807	4116
816.948	4169
817.089	4150
817.23	4105
817.371	4055
817.512	3991
817.653	4021
817.793	4013
817.934	4051
818.075	4082
818.216	4063
818.356	4105
818.497	3979
818.638	3899
818.778	3915
818.919	3888
819.06	3884
819.2	3926
819.341	3835
819.481	3854
819.622	3880
819.762	4059
819.903	3998
820.043	3876
820.184	3819
820.324	3812
820.465	3842
820.605	3857
820.746	3918
820.886	3816
821.026	3922
821.167	3903
821.307	3911
821.447	3968
821.588	3998
821.728	3945
821.868	3949
822.008	3842
822.149	3876
822.289	3934
822.429	3819
822.569	3804
822.709	3736
822.849	3720
822.99	3713
823.13	3766
823.27	3797
823.41	3759
823.55	3740
823.69	3762
823.83	3762
823.97	3652
824.11	3633
824.25	3603
824.389	3625
824.529	3667
824.669	3629
824.809	3690
824.949	3766
825.089	3728
825.228	3720
825.368	3606
825.508	3599
825.648	3549
825.787	3606
825.927	3667
826.067	3622
826.206	3713
826.346	3816
826.485	3812
826.625	3869
826.765	3953
826.904	3793
827.044	3622
827.183	3549
827.323	3443
827.462	3485
827.601	3473
827.741	3386
827.88	3458
828.02	3344
828.159	3469
828.298	3485
828.437	3515
828.577	3473
828.716	3614
828.855	3496
828.994	3420
829.134	3351
829.273	3389
829.412	3313
829.551	3359
829.69	3374
829.829	3431
829.968	3511
830.107	3431
830.246	3443
830.385	3386
830.524	3416
830.663	3283
830.802	3241
830.941	3195
831.08	3195
831.219	3245
831.357	3249
831.496	3424
831.635	3249
831.774	3192
831.913	3173
832.051	3161
832.19	3127
832.329	3211
832.467	3123
832.606	3100
832.744	3165
832.883	3214
833.022	3195
833.16	3253
833.299	3306
833.437	3310
833.576	3367
833.714	3431
833.852	3450
833.991	3443
834.129	3447
834.267	3443
834.406	3393
834.544	3424
834.682	3397
834.821	3447
834.959	3584
835.097	3405
835.235	3561
835.373	3511
835.511	3481
835.65	3477
835.788	3477
835.926	3412
836.064	3359
836.202	3378
836.34	3561
836.478	3610
836.615	3545
836.753	3606
836.891	3629
837.029	3641
837.167	3599
837.305	3534
837.443	3572
837.58	3507
837.718	3622
837.856	3530
837.993	3545
838.131	3572
838.269	3591
838.406	3610
838.544	3595
838.681	3473
838.819	3458
838.956	3378
839.094	3401
839.231	3454
839.369	3485
839.506	3755
839.643	3614
839.781	3507
839.918	3428
840.055	3553
840.193	3523
840.33	3515
840.467	3580
840.604	3606
840.742	3793
840.879	3534
841.016	3530
841.153	3633
841.29	3781
841.427	3732
841.564	3698
841.701	3728
841.838	3656
841.975	3686
842.112	3709
842.249	3576
842.385	3644
842.522	3857
842.659	3648
842.796	3663
842.933	3728
843.069	3652
843.206	3755
843.343	3781
843.479	3781
843.616	3812
843.752	3625
843.889	3698
844.025	3835
844.162	3759
844.298	3861
844.435	3797
844.571	3797
844.708	3915
844.844	3991
844.98	4021
845.117	3979
845.253	3903
845.389	3888
845.525	3975
845.661	3960
845.798	3926
845.934	4013
846.07	3960
846.206	4048
846.342	4112
846.478	4086
846.614	3968
846.75	3922
846.886	3884
847.022	4082
847.158	3979
847.294	4044
847.429	4006
847.565	4029
847.701	4207
847.837	3888
847.972	3880
848.108	3945
848.244	3945
848.379	3896
848.515	3835
848.65	3838
848.786	3819
848.921	3854
849.057	3899
849.192	3918
849.328	3941
849.463	3926
849.598	3865
849.734	3911
849.869	3880
850.004	3770
850.14	3819
850.275	3793
850.41	3770
850.545	3751
850.68	3762
850.815	3800
850.95	3800
851.085	3953
851.22	3838
851.355	3827
851.49	3827
851.625	3827
851.76	3781
851.895	3755
852.03	3785
852.165	3770
852.299	3861
852.434	3907
852.569	3869
852.703	3880
852.838	3922
852.973	3991
853.107	3983
853.242	3911
853.376	3854
853.511	3793
853.645	3831
853.78	3953
853.914	3899
854.048	3945
854.183	3865
854.317	3937
854.451	4048
854.585	3937
854.72	3937
854.854	4036
854.988	3953
855.122	4010
855.256	3926
855.39	4006
855.524	4158
855.658	4101
855.792	4135
855.926	4150
856.06	4188
856.194	4219
856.327	4181
856.461	4131
856.595	4181
856.729	4188
856.862	4268
856.996	4280
857.13	4261
857.263	4295
857.397	4367
857.53	4287
857.664	4390
857.797	4394
857.931	4455
858.064	4360
858.197	4428
858.331	4405
858.464	4394
858.597	4360
858.731	4451
858.864	4447
858.997	4455
859.13	4497
859.263	4554
859.396	4615
859.529	4542
859.662	4535
859.795	4493
859.928	4649
860.061	4683
860.194	4725
860.327	4683
860.46	4645
860.592	4721
860.725	4801
860.858	4786
860.99	4683
861.123	4660
861.256	4687
861.388	4793
861.521	5402
861.653	4710
861.786	4759
861.918	4725
862.05	4831
862.183	4828
862.315	4877
862.447	4919
862.58	4866
862.712	4797
862.844	4767
862.976	4896
863.108	4892
863.24	5246
863.372	4824
863.504	4870
863.636	4911
863.768	4987
863.9	4915
864.032	4930
864.164	4965
864.296	4980
864.428	5079
864.559	5162
864.691	5132
864.823	5151
864.954	5109
865.086	5124
865.217	5102
865.349	5075
865.48	5162
865.612	5231
865.743	5292
865.875	5159
866.006	5155
866.137	5258
866.269	5303
866.4	5242
866.531	5208
866.662	5242
866.793	5250
866.924	5250
867.055	5353
867.186	5322
867.317	5330
867.448	5334
867.579	5372
867.71	5398
867.841	5379
867.972	5448
868.103	5478
868.233	5528
868.364	5509
868.495	5512
868.625	5665
868.756	5726
868.886	5646
869.017	5752
869.147	5783
869.278	5889
869.408	5874
869.539	5851
869.669	5931
869.799	5893
869.929	5988
870.06	6026
870.19	6205
870.32	6197
870.45	6262
870.58	6323
870.71	6426
870.84	6429
870.97	6376
871.1	6429
871.23	6654
871.36	6730
871.489	6650
871.619	6722
871.749	6856
871.879	6852
872.008	7038
872.138	6981
872.267	7042
872.397	7019
872.526	7019
872.656	7103
872.785	7160
872.915	7381
873.044	7468
873.173	7537
873.303	7636
873.432	7757
873.561	7902
873.69	7974
873.819	7997
873.948	8183
874.077	8237
874.206	8343
874.335	8484
874.464	8655
874.593	8845
874.722	8895
874.851	9104
874.979	9211
875.108	9355
875.237	9473
875.365	9458
875.494	9667
875.623	9823
875.751	9865
875.88	10040
876.008	10093
876.136	10295
876.265	10546
876.393	10717
876.521	10729
876.65	10809
876.778	10809
876.906	10869
877.034	11048
877.162	11124
877.29	11151
877.418	11315
877.546	11349
877.674	11478
877.802	11566
877.93	11543
878.058	11634
878.185	11558
878.313	11699
878.441	11703
878.568	11668
878.696	11870
878.824	11855
878.951	11893
879.079	12030
879.206	12155
879.333	12049
879.461	11958
879.588	12064
879.715	12015
879.842	12216
879.97	12019
880.097	11882
880.224	11855
880.351	11882
880.478	11988
880.605	11859
880.732	11885
880.859	11999
880.986	11813
881.112	11783
881.239	11672
881.366	11630
881.493	11577
881.619	11524
881.746	11562
881.872	11505
881.999	11478
882.125	11516
882.252	11562
882.378	11440
882.505	11558
882.631	11337
882.757	11254
882.883	11334
883.01	11216
883.136	11223
883.262	11079
883.388	11098
883.514	11216
883.64	11166
883.766	11147
883.892	11010
884.018	10991
884.143	11090
884.269	11018
884.395	10904
884.52	10790
884.646	10793
884.772	10668
884.897	10656
885.023	10687
885.148	10721
885.274	10683
885.399	10603
885.524	10565
885.65	10679
885.775	10645
885.9	10561
886.025	10573
886.15	10493
886.275	10512
886.4	10405
886.525	10367
886.65	10375
886.775	10386
886.9	10493
887.025	10447
887.149	10348
887.274	10215
887.399	10181
887.523	10166
887.648	10219
887.773	10154
887.897	10276
888.021	10192
888.146	10101
888.27	10261
888.395	10211
888.519	10166
888.643	10246
888.767	10154
888.891	10086
889.015	9964
889.139	10078
889.263	10029
889.387	10059
889.511	10093
889.635	10051
889.759	9975
889.883	9945
890.006	10021
890.13	10169
890.254	9994
890.377	9983
890.501	9915
890.624	9869
890.748	9850
890.871	9717
890.995	9701
891.118	9736
891.241	9770
891.364	9762
891.488	9755
891.611	9747
891.734	9755
891.857	9838
891.98	9747
892.103	9732
892.226	9762
892.349	9641
892.471	9488
892.594	9637
892.717	9587
892.839	9568
892.962	9504
893.085	9679
893.207	9587
893.33	9481
893.452	9488
893.575	9584
893.697	9504
893.819	9614
893.941	9637
894.064	9496
894.186	9485
894.308	9363
894.43	9584
894.552	9572
894.674	9603
894.796	9431
894.918	9370
895.04	9370
895.161	9378
895.283	9332
895.405	9249
895.526	9272
895.648	9256
895.769	9264
895.891	9253
896.012	9272
896.134	9279
896.255	9142
896.376	9161
896.498	9142
896.619	9077
896.74	9131
896.861	9058
896.982	9214
897.103	9237
897.224	9169
897.345	9070
897.466	9001
897.587	9024
897.708	9070
897.828	9066
897.949	8998
898.07	8849
898.19	8933
898.311	8998
898.431	8842
898.552	8929
898.672	8960
898.792	8918
898.913	8921
899.033	8830
899.153	8754
899.273	8640
899.393	8769
899.513	8735
899.633	8735
899.753	8720
899.873	8689
899.993	8712
900.113	8689
900.232	8693
900.352	8651
900.472	8560
900.591	8606
900.711	8594
900.83	8556
900.95	8659
901.069	8739
901.189	8621
901.308	8431
901.427	8377
901.546	8385
901.665	8499
901.784	8469
901.904	8381
902.023	8320
902.141	8256
902.26	8256
902.379	8252
902.498	8130
902.617	8233
902.735	8240
902.854	8229
902.973	8343
903.091	8142
903.21	8202
903.328	8096
903.446	8115
903.565	8073
903.683	8096
903.801	8050
903.919	8130
904.038	8145
904.156	8073
904.274	8145
904.392	8027
904.51	8065
904.627	8058
904.745	8054
904.863	8027
904.981	7974
905.098	7879
905.216	7841
905.334	7879
905.451	7852
905.569	7864
905.686	7959
905.803	7940
905.921	7814
906.038	7887
906.155	7757
906.272	7715
906.389	7799
906.506	7693
906.623	7666
906.74	7616
906.857	7578
906.974	7556
907.091	7636
907.208	7780
907.324	7647
907.441	7628
907.557	7453
907.674	7510
907.79	7407
907.907	7445
908.023	7392
908.139	7430
908.256	7354
908.372	7384
908.488	7324
908.604	7247
908.72	7297
908.836	7285
908.952	7240
909.068	7236
909.184	7350
909.3	7244
909.415	7293
909.531	7274
909.647	7095
909.762	7149
909.878	7050
909.993	7137
910.108	7114
910.224	7103
910.339	7126
910.454	7057
910.57	7023
910.685	6973
910.8	7126
910.915	7072
911.03	7099
911.145	6909
911.259	6825
911.374	6890
911.489	6863
911.604	6818
911.718	6798
911.833	6760
911.947	6677
912.062	6616
912.176	6692
912.291	6738
912.405	6669
912.519	6840
912.633	6791
912.748	6787
912.862	6738
912.976	6673
913.09	6551
913.204	6585
913.318	6623
913.431	6688
913.545	6654
913.659	6696
913.772	6642
913.886	6639
914	6585
914.113	6608
914.226	6612
914.34	6589
914.453	6547
914.566	6578
914.68	6532
914.793	6532
914.906	6422
915.019	6372
915.132	6395
915.245	6369
915.358	6441
915.47	6521
915.583	6448
915.696	6517
915.809	6547
915.921	6570
916.034	6395
916.146	6422
916.259	6353
916.371	6429
916.483	6525
916.595	6403
916.708	6426
916.82	6376
916.932	6376
917.044	6414
917.156	6319
917.268	6300
917.38	6346
917.491	6289
917.603	6277
917.715	6418
917.826	6422
917.938	6395
918.049	6254
918.161	6372
918.272	6433
918.384	6433
918.495	6361
918.606	6327
918.717	6228
918.828	6235
918.939	6277
919.05	6205
919.161	6247
919.272	6091
919.383	6140
919.494	6296
919.604	6395
919.715	6346
919.826	6190
919.936	6235
920.047	6369
920.157	6311
920.267	6441
920.378	6331
920.488	6300
920.598	6456
920.708	6593
920.818	6426
920.928	6517
921.038	6574
921.148	6566
921.258	6426
921.368	6372
921.477	6224
921.587	6228
921.697	6072
921.806	6197
921.916	6064
922.025	5965
922.134	5901
922.244	5882
922.353	5965
922.462	5897
922.571	5771
922.68	5691
922.789	5726
922.898	5657
923.007	5695
923.116	5699
923.224	5672
923.333	5668
923.442	5577
923.55	5627
923.659	5619
923.767	5691
923.876	5585
923.984	5611
924.092	5524
924.201	5573
924.309	5581
924.417	5528
924.525	5467
924.633	5554
924.741	6121
924.849	5345
924.956	5486
925.064	5360
925.172	5280
925.279	5307
925.387	5368
925.494	5296
925.602	5436
925.709	5417
925.816	5288
925.924	5334
926.031	5349
926.138	5265
926.245	5391
926.352	5208
926.459	5322
926.566	5273
926.673	5201
926.779	5109
926.886	5174
926.993	4987
927.099	5041
927.206	4991
927.312	4991
927.419	5029
927.525	5022
927.631	4991
927.737	4862
927.843	4854
927.95	4809
928.056	4790
928.162	4839
928.267	4843
928.373	5269
928.479	4801
928.585	4721
928.69	4740
928.796	4793
928.901	4729
929.007	4599
929.112	4706
929.218	4630
929.323	4641
929.428	4569
929.533	4653
929.638	4527
929.743	4500
929.848	4523
929.953	4459
930.058	4421
930.163	4344
930.267	4352
930.372	4424
930.477	4265
930.581	4440
930.685	4329
930.79	4246
930.894	4280
930.998	4204
931.103	4390
931.207	4082
931.311	4071
931.415	4048
931.519	3956
931.623	3922
