Data from glass_V78500241_2128.txt Node
Date: Wed Sep 01 19:29:15 CST 2021
User: usil
Spectrometer: V785-0024
Trigger mode: 0
Integration Time (sec): 4.000000E-1
Scans to average: 1
Nonlinearity correction enabled: false
Boxcar width: 0
Storing dark spectrum: false
XAxis mode: Wavelengths
Number of Pixels in Spectrum: 1024
>>>>>Begin Spectral Data<<<<<
801.071	3755
801.214	3728
801.356	3701
801.499	3759
801.641	3755
801.783	3770
801.926	3842
802.068	3789
802.211	3869
802.353	3835
802.496	3823
802.638	3865
802.78	3876
802.923	3937
803.065	3888
803.208	3854
803.35	3857
803.492	3857
803.635	3873
803.777	3797
803.919	3880
804.061	4150
804.204	3922
804.346	3953
804.488	3907
804.63	4067
804.773	3941
804.915	3964
805.057	4120
805.199	4002
805.341	4071
805.483	4143
805.626	4143
805.768	4105
805.91	4207
806.052	4253
806.194	4242
806.336	4363
806.478	4204
806.62	4192
806.762	4147
806.904	4246
807.046	4272
807.188	4276
807.33	4177
807.472	4234
807.614	4207
807.756	4227
807.898	4181
808.04	4223
808.182	4230
808.324	4295
808.465	4379
808.607	4440
808.749	4417
808.891	4447
809.033	4489
809.174	4383
809.316	4223
809.458	4223
809.6	4188
809.741	4120
809.883	4173
810.025	4181
810.166	4200
810.308	4207
810.45	4234
810.591	4219
810.733	4325
810.875	4485
811.016	4820
811.158	5193
811.299	5273
811.441	5273
811.582	5086
811.724	4668
811.865	4493
812.007	4485
812.148	4470
812.29	4371
812.431	4371
812.573	4363
812.714	4352
812.855	4440
812.997	4405
813.138	4497
813.279	4398
813.421	4379
813.562	4371
813.703	4291
813.845	4314
813.986	4227
814.127	4192
814.268	4257
814.41	4253
814.551	4207
814.692	4341
814.833	4284
814.974	4261
815.115	4325
815.256	4261
815.397	4249
815.539	4265
815.68	4211
815.821	4227
815.962	4344
816.103	4268
816.244	4207
816.385	4242
816.526	4234
816.666	4204
816.807	4139
816.948	4169
817.089	4181
817.23	4139
817.371	4071
817.512	4036
817.653	4082
817.793	4067
817.934	4029
818.075	4120
818.216	3998
818.356	4032
818.497	3991
818.638	3941
818.778	3918
818.919	3861
819.06	3907
819.2	3941
819.341	3854
819.481	3873
819.622	3857
819.762	4059
819.903	3934
820.043	3838
820.184	3816
820.324	3816
820.465	3850
820.605	3876
820.746	3892
820.886	3823
821.026	3888
821.167	3899
821.307	3975
821.447	3941
821.588	3960
821.728	3956
821.868	3964
822.008	3850
822.149	3903
822.289	3983
822.429	3751
822.569	3743
822.709	3800
822.849	3690
822.99	3701
823.13	3747
823.27	3800
823.41	3686
823.55	3747
823.69	3682
823.83	3732
823.97	3701
824.11	3606
824.25	3561
824.389	3618
824.529	3663
824.669	3660
824.809	3709
824.949	3705
825.089	3762
825.228	3709
825.368	3557
825.508	3561
825.648	3561
825.787	3614
825.927	3587
826.067	3618
826.206	3622
826.346	3778
826.485	3854
826.625	3804
826.765	3937
826.904	3835
827.044	3610
827.183	3538
827.323	3447
827.462	3469
827.601	3435
827.741	3439
827.88	3454
828.02	3359
828.159	3450
828.298	3469
828.437	3523
828.577	3454
828.716	3648
828.855	3492
828.994	3386
829.134	3386
829.273	3374
829.412	3313
829.551	3310
829.69	3321
829.829	3462
829.968	3549
830.107	3424
830.246	3443
830.385	3405
830.524	3294
830.663	3260
830.802	3253
830.941	3195
831.08	3188
831.219	3268
831.357	3302
831.496	3447
831.635	3237
831.774	3207
831.913	3207
832.051	3108
832.19	3127
832.329	3214
832.467	3138
832.606	3108
832.744	3180
832.883	3173
833.022	3192
833.16	3272
833.299	3336
833.437	3321
833.576	3382
833.714	3409
833.852	3405
833.991	3443
834.129	3500
834.267	3393
834.406	3431
834.544	3420
834.682	3412
834.821	3374
834.959	3545
835.097	3401
835.235	3538
835.373	3485
835.511	3466
835.65	3466
835.788	3466
835.926	3397
836.064	3393
836.202	3310
836.34	3557
836.478	3557
836.615	3542
836.753	3629
836.891	3671
837.029	3618
837.167	3606
837.305	3545
837.443	3553
837.58	3485
837.718	3618
837.856	3572
837.993	3530
838.131	3557
838.269	3625
838.406	3564
838.544	3572
838.681	3420
838.819	3443
838.956	3386
839.094	3378
839.231	3462
839.369	3519
839.506	3728
839.643	3633
839.781	3473
839.918	3450
840.055	3534
840.193	3538
840.33	3504
840.467	3534
840.604	3606
840.742	3804
840.879	3545
841.016	3557
841.153	3576
841.29	3770
841.427	3701
841.564	3675
841.701	3740
841.838	3671
841.975	3671
842.112	3720
842.249	3629
842.385	3648
842.522	3823
842.659	3660
842.796	3682
842.933	3682
843.069	3690
843.206	3717
843.343	3755
843.479	3755
843.616	3785
843.752	3671
843.889	3663
844.025	3831
844.162	3709
844.298	3850
844.435	3785
844.571	3793
844.708	3907
844.844	3972
844.98	3983
845.117	3998
845.253	3888
845.389	3873
845.525	3972
845.661	3972
845.798	3915
845.934	4021
846.07	3922
846.206	4029
846.342	4120
846.478	4055
846.614	3922
846.75	3964
846.886	3911
847.022	4051
847.158	4006
847.294	3968
847.429	4021
847.565	3998
847.701	4207
847.837	3850
847.972	3846
848.108	3953
848.244	3930
848.379	3854
848.515	3804
848.65	3808
848.786	3774
848.921	3835
849.057	3964
849.192	3964
849.328	3869
849.463	3907
849.598	3884
849.734	3884
849.869	3827
850.004	3800
850.14	3831
850.275	3762
850.41	3747
850.545	3743
850.68	3797
850.815	3778
850.95	3778
851.085	3896
851.22	3873
851.355	3823
851.49	3831
851.625	3804
851.76	3800
851.895	3701
852.03	3709
852.165	3774
852.299	3816
852.434	3857
852.569	3850
852.703	3846
852.838	3922
852.973	4025
853.107	3991
853.242	3850
853.376	3865
853.511	3781
853.645	3842
853.78	3922
853.914	3861
854.048	3896
854.183	3876
854.317	3983
854.451	4036
854.585	3941
854.72	3922
854.854	4002
854.988	3960
855.122	4021
855.256	3915
855.39	3991
855.524	4082
855.658	4036
855.792	4097
855.926	4093
856.06	4219
856.194	4207
856.327	4124
856.461	4097
856.595	4139
856.729	4207
856.862	4265
856.996	4234
857.13	4268
857.263	4284
857.397	4363
857.53	4299
857.664	4348
857.797	4383
857.931	4409
858.064	4455
858.197	4440
858.331	4436
858.464	4375
858.597	4287
858.731	4432
858.864	4428
858.997	4428
859.13	4504
859.263	4527
859.396	4588
859.529	4535
859.662	4531
859.795	4523
859.928	4634
860.061	4679
860.194	4782
860.327	4664
860.46	4645
860.592	4702
860.725	4740
860.858	4763
860.99	4611
861.123	4675
861.256	4721
861.388	4736
861.521	5425
861.653	4744
861.786	4615
861.918	4717
862.05	4740
862.183	4809
862.315	4866
862.447	4908
862.58	4923
862.712	4820
862.844	4793
862.976	4870
863.108	4843
863.24	5197
863.372	4824
863.504	4942
863.636	4904
863.768	4987
863.9	4980
864.032	4927
864.164	4942
864.296	5010
864.428	5071
864.559	5098
864.691	5086
864.823	5090
864.954	5109
865.086	5136
865.217	5045
865.349	5155
865.48	5155
865.612	5181
865.743	5364
865.875	5170
866.006	5159
866.137	5212
866.269	5235
866.4	5280
866.531	5246
866.662	5208
866.793	5269
866.924	5261
867.055	5284
867.186	5288
867.317	5334
867.448	5357
867.579	5387
867.71	5357
867.841	5425
867.972	5444
868.103	5444
868.233	5433
868.364	5467
868.495	5573
868.625	5661
868.756	5847
868.886	5634
869.017	5699
869.147	5821
869.278	5874
869.408	5859
869.539	5771
869.669	5874
869.799	5878
869.929	5973
870.06	5999
870.19	6121
870.32	6209
870.45	6254
870.58	6357
870.71	6418
870.84	6494
870.97	6407
871.1	6452
871.23	6654
871.36	6646
871.489	6620
871.619	6821
871.749	6821
871.879	6821
872.008	7012
872.138	6996
872.267	6970
872.397	6935
872.526	7012
872.656	7114
872.785	7194
872.915	7316
873.044	7506
873.173	7525
873.303	7605
873.432	7746
873.561	7799
873.69	7913
873.819	8024
873.948	8149
874.077	8191
874.206	8309
874.335	8442
874.464	8648
874.593	8910
874.722	8887
874.851	9062
874.979	9214
875.108	9363
875.237	9462
875.365	9515
875.494	9644
875.623	9850
875.751	9865
875.88	10013
876.008	10105
876.136	10333
876.265	10470
876.393	10740
876.521	10683
876.65	10793
876.778	10866
876.906	10904
877.034	10953
877.162	11121
877.29	11117
877.418	11326
877.546	11322
877.674	11368
877.802	11410
877.93	11497
878.058	11474
878.185	11581
878.313	11589
878.441	11699
878.568	11604
878.696	11878
878.824	11840
878.951	11992
879.079	12045
879.206	12110
879.333	11980
879.461	11942
879.588	12068
879.715	12053
879.842	12247
879.97	11980
880.097	11965
880.224	11942
880.351	11885
880.478	11916
880.605	11885
880.732	11843
880.859	11908
880.986	11821
881.112	11767
881.239	11764
881.366	11592
881.493	11600
881.619	11573
881.746	11539
881.872	11558
881.999	11535
882.125	11478
882.252	11528
882.378	11592
882.505	11547
882.631	11322
882.757	11307
882.883	11277
883.01	11208
883.136	11235
883.262	11124
883.388	11128
883.514	11189
883.64	11117
883.766	11086
883.892	10957
884.018	10980
884.143	11037
884.269	11033
884.395	10900
884.52	10721
884.646	10740
884.772	10637
884.897	10588
885.023	10672
885.148	10664
885.274	10725
885.399	10675
885.524	10523
885.65	10656
885.775	10603
885.9	10527
886.025	10611
886.15	10535
886.275	10462
886.4	10394
886.525	10341
886.65	10386
886.775	10337
886.9	10500
887.025	10527
887.149	10398
887.274	10204
887.399	10215
887.523	10120
887.648	10093
887.773	10093
887.897	10265
888.021	10177
888.146	10116
888.27	10234
888.395	10207
888.519	10211
888.643	10128
888.767	10246
888.891	10097
889.015	10021
889.139	9964
889.263	9941
889.387	10109
889.511	10124
889.635	10025
889.759	9922
889.883	9987
890.006	10025
890.13	10097
890.254	9922
890.377	9972
890.501	9926
890.624	9785
890.748	9846
890.871	9804
890.995	9736
891.118	9682
891.241	9740
891.364	9732
891.488	9831
891.611	9682
891.734	9766
891.857	9698
891.98	9686
892.103	9732
892.226	9705
892.349	9679
892.471	9496
892.594	9553
892.717	9610
892.839	9606
892.962	9568
893.085	9705
893.207	9557
893.33	9515
893.452	9530
893.575	9705
893.697	9507
893.819	9618
893.941	9580
894.064	9591
894.186	9412
894.308	9359
894.43	9549
894.552	9568
894.674	9549
894.796	9351
894.918	9344
895.04	9332
895.161	9408
895.283	9393
895.405	9245
895.526	9222
895.648	9203
895.769	9222
895.891	9184
896.012	9245
896.134	9233
896.255	9131
896.376	9100
896.498	9135
896.619	9093
896.74	9013
896.861	9104
896.982	9283
897.103	9268
897.224	9112
897.345	9032
897.466	9066
897.587	8971
897.708	9089
897.828	8971
897.949	8994
898.07	8834
898.19	8910
898.311	8998
898.431	8902
898.552	8918
898.672	8967
898.792	8971
898.913	8956
899.033	8823
899.153	8724
899.273	8701
899.393	8701
899.513	8743
899.633	8792
899.753	8674
899.873	8545
899.993	8705
900.113	8686
900.232	8731
900.352	8636
900.472	8602
900.591	8518
900.711	8545
900.83	8579
900.95	8720
901.069	8644
901.189	8602
901.308	8492
901.427	8381
901.546	8438
901.665	8438
901.784	8488
901.904	8377
902.023	8317
902.141	8187
902.26	8149
902.379	8248
902.498	8149
902.617	8233
902.735	8275
902.854	8336
902.973	8237
903.091	8084
903.21	8176
903.328	8103
903.446	8100
903.565	8119
903.683	8077
903.801	8050
903.919	8119
904.038	8134
904.156	8088
904.274	8069
904.392	8062
904.51	8043
904.627	8035
904.745	8062
904.863	8077
904.981	7940
905.098	7906
905.216	7898
905.334	7890
905.451	7879
905.569	7913
905.686	7925
905.803	7932
905.921	7769
906.038	7849
906.155	7875
906.272	7696
906.389	7696
906.506	7605
906.623	7639
906.74	7597
906.857	7544
906.974	7559
907.091	7636
907.208	7674
907.324	7731
907.441	7567
907.557	7487
907.674	7384
907.79	7392
907.907	7457
908.023	7415
908.139	7396
908.256	7453
908.372	7331
908.488	7377
908.604	7266
908.72	7240
908.836	7228
908.952	7255
909.068	7297
909.184	7316
909.3	7278
909.415	7305
909.531	7362
909.647	7080
909.762	7160
909.878	7133
909.993	7110
910.108	7088
910.224	7088
910.339	7114
910.454	7012
910.57	7053
910.685	6920
910.8	7175
910.915	7126
911.03	7046
911.145	6913
911.259	6871
911.374	6878
911.489	6905
911.604	6844
911.718	6711
911.833	6715
911.947	6654
912.062	6635
912.176	6722
912.291	6658
912.405	6688
912.519	6852
912.633	6856
912.748	6741
912.862	6692
912.976	6608
913.09	6540
913.204	6635
913.318	6623
913.431	6642
913.545	6612
913.659	6719
913.772	6597
913.886	6578
914	6532
914.113	6544
914.226	6593
914.34	6593
914.453	6521
914.566	6635
914.68	6475
914.793	6521
914.906	6410
915.019	6399
915.132	6369
915.245	6422
915.358	6429
915.47	6441
915.583	6407
915.696	6471
915.809	6570
915.921	6483
916.034	6445
916.146	6380
916.259	6426
916.371	6521
916.483	6441
916.595	6426
916.708	6365
916.82	6365
916.932	6331
917.044	6422
917.156	6350
917.268	6319
917.38	6353
917.491	6289
917.603	6334
917.715	6376
917.826	6445
917.938	6346
918.049	6277
918.161	6273
918.272	6418
918.384	6452
918.495	6323
918.606	6289
918.717	6235
918.828	6266
918.939	6292
919.05	6197
919.161	6262
919.272	6102
919.383	6201
919.494	6292
919.604	6422
919.715	6361
919.826	6247
919.936	6167
920.047	6315
920.157	6239
920.267	6490
920.378	6289
920.488	6300
920.598	6513
920.708	6574
920.818	6452
920.928	6456
921.038	6635
921.148	6566
921.258	6338
921.368	6334
921.477	6167
921.587	6159
921.697	6057
921.806	6144
921.916	6049
922.025	5912
922.134	5882
922.244	5870
922.353	5893
922.462	5821
922.571	5798
922.68	5703
922.789	5672
922.898	5714
923.007	5646
923.116	5676
923.224	5653
923.333	5710
923.442	5577
923.55	5566
923.659	5634
923.767	5604
923.876	5535
923.984	5566
924.092	5516
924.201	5547
924.309	5516
924.417	5524
924.525	5516
924.633	5524
924.741	6300
924.849	5391
924.956	5421
925.064	5402
925.172	5277
925.279	5235
925.387	5364
925.494	5360
925.602	5421
925.709	5360
925.816	5265
925.924	5318
926.031	5357
926.138	5277
926.245	5311
926.352	5235
926.459	5341
926.566	5269
926.673	5208
926.779	5170
926.886	5102
926.993	5048
927.099	5003
927.206	4923
927.312	4904
927.419	4961
927.525	4919
927.631	4995
927.737	4930
927.843	4820
927.95	4759
928.056	4835
928.162	4801
928.267	4820
928.373	5376
928.479	4824
928.585	4714
928.69	4725
928.796	4744
928.901	4721
929.007	4516
929.112	4603
929.218	4596
929.323	4596
929.428	4535
929.533	4668
929.638	4470
929.743	4527
929.848	4538
929.953	4538
930.058	4451
930.163	4329
930.267	4291
930.372	4383
930.477	4276
930.581	4443
930.685	4314
930.79	4261
930.894	4265
930.998	4272
931.103	4417
931.207	4101
931.311	4093
931.415	4029
931.519	3922
931.623	3899
