Data from glass_V78500241_2732.txt Node
Date: Wed Sep 01 19:33:26 CST 2021
User: usil
Spectrometer: V785-0024
Trigger mode: 0
Integration Time (sec): 4.000000E-1
Scans to average: 1
Nonlinearity correction enabled: false
Boxcar width: 0
Storing dark spectrum: false
XAxis mode: Wavelengths
Number of Pixels in Spectrum: 1024
>>>>>Begin Spectral Data<<<<<
801.071	3720
801.214	3778
801.356	3682
801.499	3694
801.641	3705
801.783	3755
801.926	3838
802.068	3816
802.211	3850
802.353	3899
802.496	3842
802.638	3846
802.78	3892
802.923	3922
803.065	3892
803.208	3812
803.35	3846
803.492	3873
803.635	3888
803.777	3816
803.919	3903
804.061	4105
804.204	3926
804.346	3964
804.488	3861
804.63	3975
804.773	3994
804.915	4044
805.057	4093
805.199	4013
805.341	4063
805.483	4112
805.626	4097
805.768	4109
805.91	4192
806.052	4200
806.194	4169
806.336	4284
806.478	4211
806.62	4188
806.762	4181
806.904	4219
807.046	4329
807.188	4207
807.33	4162
807.472	4215
807.614	4162
807.756	4227
807.898	4234
808.04	4204
808.182	4261
808.324	4333
808.465	4360
808.607	4428
808.749	4451
808.891	4440
809.033	4508
809.174	4367
809.316	4253
809.458	4207
809.6	4097
809.741	4177
809.883	4120
810.025	4173
810.166	4192
810.308	4234
810.45	4257
810.591	4219
810.733	4211
810.875	4481
811.016	4805
811.158	5105
811.299	5258
811.441	5288
811.582	5124
811.724	4714
811.865	4455
812.007	4462
812.148	4424
812.29	4424
812.431	4405
812.573	4337
812.714	4383
812.855	4390
812.997	4390
813.138	4436
813.279	4394
813.421	4352
813.562	4379
813.703	4360
813.845	4306
813.986	4246
814.127	4204
814.268	4268
814.41	4253
814.551	4200
814.692	4299
814.833	4242
814.974	4261
815.115	4325
815.256	4192
815.397	4280
815.539	4249
815.68	4192
815.821	4166
815.962	4329
816.103	4272
816.244	4188
816.385	4234
816.526	4265
816.666	4185
816.807	4120
816.948	4131
817.089	4150
817.23	4105
817.371	4078
817.512	4067
817.653	4059
817.793	4013
817.934	4002
818.075	4093
818.216	4078
818.356	4055
818.497	4002
818.638	3930
818.778	3884
818.919	3884
819.06	3838
819.2	3930
819.341	3884
819.481	3819
819.622	3861
819.762	3983
819.903	3949
820.043	3835
820.184	3835
820.324	3785
820.465	3861
820.605	3816
820.746	3854
820.886	3770
821.026	3949
821.167	3880
821.307	3987
821.447	3941
821.588	3907
821.728	3960
821.868	3934
822.008	3861
822.149	3876
822.289	3907
822.429	3778
822.569	3751
822.709	3797
822.849	3698
822.99	3724
823.13	3755
823.27	3766
823.41	3671
823.55	3705
823.69	3724
823.83	3736
823.97	3637
824.11	3595
824.25	3591
824.389	3637
824.529	3667
824.669	3603
824.809	3736
824.949	3701
825.089	3720
825.228	3701
825.368	3557
825.508	3534
825.648	3557
825.787	3584
825.927	3644
826.067	3599
826.206	3648
826.346	3793
826.485	3831
826.625	3846
826.765	3899
826.904	3831
827.044	3599
827.183	3519
827.323	3447
827.462	3462
827.601	3412
827.741	3405
827.88	3439
828.02	3386
828.159	3439
828.298	3477
828.437	3526
828.577	3473
828.716	3580
828.855	3507
828.994	3389
829.134	3348
829.273	3340
829.412	3325
829.551	3310
829.69	3313
829.829	3412
829.968	3454
830.107	3428
830.246	3431
830.385	3359
830.524	3389
830.663	3313
830.802	3214
830.941	3180
831.08	3180
831.219	3253
831.357	3230
831.496	3389
831.635	3237
831.774	3161
831.913	3192
832.051	3150
832.19	3077
832.329	3218
832.467	3112
832.606	3093
832.744	3150
832.883	3116
833.022	3207
833.16	3249
833.299	3294
833.437	3325
833.576	3355
833.714	3370
833.852	3435
833.991	3450
834.129	3420
834.267	3443
834.406	3389
834.544	3355
834.682	3401
834.821	3405
834.959	3542
835.097	3416
835.235	3511
835.373	3526
835.511	3500
835.65	3469
835.788	3473
835.926	3370
836.064	3386
836.202	3378
836.34	3538
836.478	3595
836.615	3526
836.753	3580
836.891	3644
837.029	3614
837.167	3561
837.305	3580
837.443	3492
837.58	3488
837.718	3599
837.856	3553
837.993	3545
838.131	3568
838.269	3549
838.406	3523
838.544	3538
838.681	3439
838.819	3473
838.956	3374
839.094	3382
839.231	3454
839.369	3523
839.506	3698
839.643	3584
839.781	3477
839.918	3488
840.055	3542
840.193	3523
840.33	3492
840.467	3523
840.604	3595
840.742	3789
840.879	3526
841.016	3557
841.153	3610
841.29	3720
841.427	3705
841.564	3656
841.701	3728
841.838	3686
841.975	3633
842.112	3663
842.249	3622
842.385	3625
842.522	3770
842.659	3705
842.796	3671
842.933	3694
843.069	3675
843.206	3732
843.343	3770
843.479	3747
843.616	3751
843.752	3698
843.889	3652
844.025	3816
844.162	3705
844.298	3835
844.435	3747
844.571	3778
844.708	3899
844.844	3987
844.98	3983
845.117	3953
845.253	3937
845.389	3907
845.525	3960
845.661	3979
845.798	3922
845.934	4013
846.07	3960
846.206	4048
846.342	4093
846.478	4048
846.614	3926
846.75	3922
846.886	3899
847.022	3968
847.158	3964
847.294	3987
847.429	4002
847.565	3975
847.701	4173
847.837	3857
847.972	3857
848.108	3964
848.244	3975
848.379	3808
848.515	3797
848.65	3789
848.786	3835
848.921	3838
849.057	3949
849.192	3915
849.328	3876
849.463	3918
849.598	3899
849.734	3857
849.869	3827
850.004	3781
850.14	3766
850.275	3770
850.41	3736
850.545	3740
850.68	3720
850.815	3778
850.95	3819
851.085	3918
851.22	3857
851.355	3823
851.49	3736
851.625	3766
851.76	3751
851.895	3751
852.03	3740
852.165	3793
852.299	3857
852.434	3918
852.569	3842
852.703	3884
852.838	3926
852.973	3979
853.107	3964
853.242	3869
853.376	3789
853.511	3774
853.645	3804
853.78	3964
853.914	3880
854.048	3884
854.183	3831
854.317	3979
854.451	4055
854.585	3949
854.72	3907
854.854	4040
854.988	3945
855.122	3937
855.256	3918
855.39	4021
855.524	4101
855.658	4086
855.792	4074
855.926	4128
856.06	4131
856.194	4188
856.327	4154
856.461	4128
856.595	4116
856.729	4158
856.862	4268
856.996	4249
857.13	4276
857.263	4303
857.397	4352
857.53	4310
857.664	4295
857.797	4379
857.931	4443
858.064	4379
858.197	4432
858.331	4417
858.464	4386
858.597	4341
858.731	4390
858.864	4493
858.997	4451
859.13	4466
859.263	4527
859.396	4603
859.529	4493
859.662	4462
859.795	4474
859.928	4588
860.061	4755
860.194	4717
860.327	4641
860.46	4649
860.592	4736
860.725	4702
860.858	4733
860.99	4645
861.123	4721
861.256	4710
861.388	4786
861.521	5299
861.653	4683
861.786	4675
861.918	4683
862.05	4786
862.183	4793
862.315	4881
862.447	4850
862.58	4908
862.712	4809
862.844	4801
862.976	4858
863.108	4900
863.24	5250
863.372	4778
863.504	4881
863.636	4911
863.768	4930
863.9	4995
864.032	4873
864.164	4949
864.296	5006
864.428	5067
864.559	5105
864.691	5147
864.823	5067
864.954	5128
865.086	5094
865.217	5170
865.349	5102
865.48	5174
865.612	5143
865.743	5269
865.875	5162
866.006	5143
866.137	5261
866.269	5189
866.4	5216
866.531	5220
866.662	5220
866.793	5246
866.924	5246
867.055	5322
867.186	5292
867.317	5326
867.448	5311
867.579	5387
867.71	5376
867.841	5429
867.972	5463
868.103	5414
868.233	5478
868.364	5463
868.495	5562
868.625	5604
868.756	5783
868.886	5665
869.017	5726
869.147	5863
869.278	5893
869.408	5771
869.539	5824
869.669	5958
869.799	5923
869.929	5969
870.06	5996
870.19	6159
870.32	6258
870.45	6205
870.58	6311
870.71	6334
870.84	6391
870.97	6331
871.1	6399
871.23	6566
871.36	6635
871.489	6627
871.619	6738
871.749	6734
871.879	6787
872.008	6954
872.138	6924
872.267	7023
872.397	6958
872.526	7038
872.656	7072
872.785	7145
872.915	7305
873.044	7533
873.173	7548
873.303	7670
873.432	7757
873.561	7860
873.69	7925
873.819	8043
873.948	8199
874.077	8244
874.206	8370
874.335	8480
874.464	8629
874.593	8800
874.722	8967
874.851	9154
874.979	9226
875.108	9344
875.237	9393
875.365	9458
875.494	9584
875.623	9854
875.751	9819
875.88	10059
876.008	10139
876.136	10253
876.265	10580
876.393	10660
876.521	10733
876.65	10824
876.778	10820
876.906	10854
877.034	10938
877.162	11098
877.29	11098
877.418	11299
877.546	11368
877.674	11478
877.802	11463
877.93	11512
878.058	11615
878.185	11596
878.313	11619
878.441	11779
878.568	11729
878.696	11775
878.824	11786
878.951	11958
879.079	12041
879.206	12102
879.333	11999
879.461	11977
879.588	12098
879.715	12057
879.842	12175
879.97	11977
880.097	11874
880.224	11901
880.351	11863
880.478	11863
880.605	11824
880.732	11805
880.859	11969
880.986	11813
881.112	11832
881.239	11783
881.366	11596
881.493	11596
881.619	11600
881.746	11570
881.872	11604
881.999	11444
882.125	11539
882.252	11558
882.378	11532
882.505	11547
882.631	11383
882.757	11303
882.883	11292
883.01	11296
883.136	11258
883.262	11071
883.388	11075
883.514	11113
883.64	11143
883.766	11147
883.892	10995
884.018	10934
884.143	11067
884.269	11060
884.395	10858
884.52	10622
884.646	10675
884.772	10740
884.897	10649
885.023	10664
885.148	10721
885.274	10656
885.399	10656
885.524	10588
885.65	10546
885.775	10588
885.9	10519
886.025	10584
886.15	10527
886.275	10508
886.4	10291
886.525	10352
886.65	10352
886.775	10314
886.9	10481
887.025	10554
887.149	10371
887.274	10261
887.399	10101
887.523	10204
887.648	10059
887.773	10158
887.897	10162
888.021	10154
888.146	10093
888.27	10131
888.395	10120
888.519	10139
888.643	10215
888.767	10105
888.891	10135
889.015	9960
889.139	10093
889.263	10044
889.387	10067
889.511	10048
889.635	10071
889.759	9895
889.883	9956
890.006	9960
890.13	10082
890.254	9949
890.377	9945
890.501	9808
890.624	9892
890.748	9823
890.871	9759
890.995	9759
891.118	9648
891.241	9785
891.364	9781
891.488	9838
891.611	9671
891.734	9736
891.857	9713
891.98	9656
892.103	9652
892.226	9652
892.349	9679
892.471	9549
892.594	9572
892.717	9625
892.839	9568
892.962	9561
893.085	9648
893.207	9538
893.33	9507
893.452	9545
893.575	9545
893.697	9485
893.819	9629
893.941	9625
894.064	9603
894.186	9408
894.308	9431
894.43	9568
894.552	9557
894.674	9523
894.796	9405
894.918	9340
895.04	9336
895.161	9336
895.283	9313
895.405	9291
895.526	9256
895.648	9138
895.769	9264
895.891	9249
896.012	9378
896.134	9195
896.255	9256
896.376	9157
896.498	9081
896.619	9100
896.74	9055
896.861	9142
896.982	9222
897.103	9268
897.224	9127
897.345	9085
897.466	9013
897.587	8982
897.708	9116
897.828	8982
897.949	8918
898.07	8887
898.19	8872
898.311	8998
898.431	8880
898.552	8887
898.672	8902
898.792	8857
898.913	8883
899.033	8785
899.153	8735
899.273	8670
899.393	8731
899.513	8708
899.633	8697
899.753	8766
899.873	8674
899.993	8697
900.113	8629
900.232	8754
900.352	8610
900.472	8617
900.591	8511
900.711	8488
900.83	8450
900.95	8625
901.069	8724
901.189	8503
901.308	8358
901.427	8339
901.546	8393
901.665	8514
901.784	8503
901.904	8347
902.023	8317
902.141	8172
902.26	8191
902.379	8267
902.498	8183
902.617	8244
902.735	8290
902.854	8252
902.973	8191
903.091	8161
903.21	8107
903.328	8145
903.446	8153
903.565	8050
903.683	8115
903.801	7982
903.919	8069
904.038	8107
904.156	8039
904.274	8062
904.392	7997
904.51	7997
904.627	8046
904.745	8142
904.863	8054
904.981	7856
905.098	7887
905.216	7849
905.334	7852
905.451	7890
905.569	7898
905.686	7902
905.803	7936
905.921	7799
906.038	7822
906.155	7788
906.272	7693
906.389	7715
906.506	7628
906.623	7575
906.74	7597
906.857	7525
906.974	7525
907.091	7689
907.208	7670
907.324	7571
907.441	7537
907.557	7487
907.674	7365
907.79	7422
907.907	7445
908.023	7453
908.139	7445
908.256	7331
908.372	7365
908.488	7335
908.604	7263
908.72	7266
908.836	7270
908.952	7213
909.068	7270
909.184	7255
909.3	7183
909.415	7293
909.531	7350
909.647	7137
909.762	7061
909.878	7080
909.993	7110
910.108	7091
910.224	7091
910.339	7084
910.454	7027
910.57	6966
910.685	6973
910.8	7122
910.915	7080
911.03	6989
911.145	6875
911.259	6856
911.374	6924
911.489	6829
911.604	6818
911.718	6700
911.833	6741
911.947	6612
912.062	6563
912.176	6726
912.291	6711
912.405	6582
912.519	6863
912.633	6867
912.748	6688
912.862	6635
912.976	6593
913.09	6547
913.204	6597
913.318	6589
913.431	6688
913.545	6646
913.659	6738
913.772	6604
913.886	6612
914	6566
914.113	6604
914.226	6585
914.34	6566
914.453	6486
914.566	6544
914.68	6513
914.793	6483
914.906	6429
915.019	6403
915.132	6300
915.245	6346
915.358	6445
915.47	6384
915.583	6448
915.696	6448
915.809	6464
915.921	6544
916.034	6429
916.146	6342
916.259	6418
916.371	6456
916.483	6452
916.595	6342
916.708	6460
916.82	6395
916.932	6414
917.044	6403
917.156	6376
917.268	6311
917.38	6369
917.491	6296
917.603	6323
917.715	6369
917.826	6395
917.938	6346
918.049	6273
918.161	6319
918.272	6361
918.384	6399
918.495	6315
918.606	6243
918.717	6190
918.828	6232
918.939	6266
919.05	6197
919.161	6235
919.272	6114
919.383	6186
919.494	6334
919.604	6414
919.715	6292
919.826	6167
919.936	6220
920.047	6300
920.157	6232
920.267	6395
920.378	6300
920.488	6266
920.598	6452
920.708	6578
920.818	6410
920.928	6479
921.038	6570
921.148	6532
921.258	6304
921.368	6201
921.477	6232
921.587	6232
921.697	6079
921.806	6117
921.916	6110
922.025	5961
922.134	5885
922.244	5904
922.353	5931
922.462	5836
922.571	5794
922.68	5665
922.789	5688
922.898	5638
923.007	5627
923.116	5733
923.224	5680
923.333	5661
923.442	5558
923.55	5516
923.659	5547
923.767	5619
923.876	5570
923.984	5665
924.092	5497
924.201	5562
924.309	5501
924.417	5543
924.525	5509
924.633	5444
924.741	6213
924.849	5330
924.956	5436
925.064	5334
925.172	5299
925.279	5326
925.387	5337
925.494	5315
925.602	5417
925.709	5421
925.816	5315
925.924	5280
926.031	5349
926.138	5311
926.245	5318
926.352	5220
926.459	5322
926.566	5277
926.673	5201
926.779	5124
926.886	5048
926.993	5064
927.099	4987
927.206	4976
927.312	4961
927.419	4991
927.525	5003
927.631	4953
927.737	4850
927.843	4831
927.95	4740
928.056	4812
928.162	4805
928.267	4820
928.373	5299
928.479	4805
928.585	4672
928.69	4736
928.796	4759
928.901	4649
929.007	4565
929.112	4672
929.218	4592
929.323	4565
929.428	4523
929.533	4675
929.638	4519
929.743	4550
929.848	4565
929.953	4470
930.058	4409
930.163	4348
930.267	4295
930.372	4455
930.477	4284
930.581	4413
930.685	4348
930.79	4276
930.894	4325
930.998	4227
931.103	4360
931.207	4124
931.311	4074
931.415	4067
931.519	3922
931.623	3949
