Data from glass_V78500241_1007.txt Node
Date: Wed Sep 01 19:21:28 CST 2021
User: usil
Spectrometer: V785-0024
Trigger mode: 0
Integration Time (sec): 4.000000E-1
Scans to average: 1
Nonlinearity correction enabled: false
Boxcar width: 0
Storing dark spectrum: false
XAxis mode: Wavelengths
Number of Pixels in Spectrum: 1024
>>>>>Begin Spectral Data<<<<<
801.071	3781
801.214	3816
801.356	3709
801.499	3759
801.641	3762
801.783	3812
801.926	3899
802.068	3827
802.211	3880
802.353	3937
802.496	3842
802.638	3888
802.78	3854
802.923	3964
803.065	3899
803.208	3892
803.35	3865
803.492	3888
803.635	3949
803.777	3789
803.919	3953
804.061	4196
804.204	3991
804.346	3960
804.488	3934
804.63	4036
804.773	3983
804.915	4036
805.057	4169
805.199	4071
805.341	4101
805.483	4112
805.626	4177
805.768	4150
805.91	4223
806.052	4204
806.194	4215
806.336	4318
806.478	4215
806.62	4185
806.762	4246
806.904	4306
807.046	4348
807.188	4219
807.33	4150
807.472	4227
807.614	4192
807.756	4249
807.898	4215
808.04	4280
808.182	4337
808.324	4322
808.465	4398
808.607	4470
808.749	4497
808.891	4527
809.033	4478
809.174	4440
809.316	4276
809.458	4234
809.6	4173
809.741	4135
809.883	4116
810.025	4246
810.166	4246
810.308	4242
810.45	4261
810.591	4211
810.733	4314
810.875	4542
811.016	4778
811.158	5140
811.299	5296
811.441	5284
811.582	5090
811.724	4641
811.865	4493
812.007	4523
812.148	4459
812.29	4436
812.431	4409
812.573	4386
812.714	4398
812.855	4459
812.997	4428
813.138	4531
813.279	4440
813.421	4386
813.562	4409
813.703	4337
813.845	4318
813.986	4227
814.127	4227
814.268	4265
814.41	4322
814.551	4276
814.692	4272
814.833	4287
814.974	4284
815.115	4363
815.256	4249
815.397	4223
815.539	4249
815.68	4173
815.821	4227
815.962	4329
816.103	4257
816.244	4257
816.385	4230
816.526	4329
816.666	4215
816.807	4097
816.948	4173
817.089	4181
817.23	4120
817.371	4021
817.512	4063
817.653	4112
817.793	4059
817.934	4040
818.075	4086
818.216	4105
818.356	4082
818.497	3983
818.638	3930
818.778	3918
818.919	3892
819.06	3888
819.2	3941
819.341	3869
819.481	3838
819.622	3888
819.762	4025
819.903	3964
820.043	3861
820.184	3838
820.324	3831
820.465	3865
820.605	3865
820.746	3880
820.886	3846
821.026	3934
821.167	3880
821.307	3975
821.447	3994
821.588	3964
821.728	3930
821.868	3991
822.008	3838
822.149	3941
822.289	3926
822.429	3762
822.569	3804
822.709	3831
822.849	3713
822.99	3759
823.13	3747
823.27	3808
823.41	3705
823.55	3713
823.69	3747
823.83	3743
823.97	3625
824.11	3610
824.25	3614
824.389	3671
824.529	3648
824.669	3584
824.809	3724
824.949	3770
825.089	3759
825.228	3713
825.368	3545
825.508	3591
825.648	3591
825.787	3648
825.927	3667
826.067	3644
826.206	3686
826.346	3781
826.485	3842
826.625	3827
826.765	3930
826.904	3873
827.044	3591
827.183	3507
827.323	3458
827.462	3496
827.601	3439
827.741	3416
827.88	3462
828.02	3397
828.159	3477
828.298	3492
828.437	3542
828.577	3481
828.716	3561
828.855	3523
828.994	3420
829.134	3405
829.273	3393
829.412	3401
829.551	3359
829.69	3386
829.829	3420
829.968	3477
830.107	3454
830.246	3443
830.385	3428
830.524	3378
830.663	3302
830.802	3268
830.941	3226
831.08	3203
831.219	3256
831.357	3287
831.496	3420
831.635	3249
831.774	3165
831.913	3184
832.051	3146
832.19	3165
832.329	3260
832.467	3165
832.606	3085
832.744	3207
832.883	3165
833.022	3165
833.16	3306
833.299	3306
833.437	3348
833.576	3405
833.714	3428
833.852	3458
833.991	3447
834.129	3469
834.267	3397
834.406	3393
834.544	3401
834.682	3397
834.821	3431
834.959	3580
835.097	3412
835.235	3553
835.373	3530
835.511	3519
835.65	3481
835.788	3469
835.926	3370
836.064	3393
836.202	3481
836.34	3606
836.478	3606
836.615	3576
836.753	3610
836.891	3641
837.029	3648
837.167	3587
837.305	3557
837.443	3564
837.58	3519
837.718	3610
837.856	3553
837.993	3561
838.131	3606
838.269	3595
838.406	3595
838.544	3561
838.681	3469
838.819	3504
838.956	3435
839.094	3382
839.231	3439
839.369	3515
839.506	3789
839.643	3633
839.781	3496
839.918	3458
840.055	3534
840.193	3549
840.33	3553
840.467	3561
840.604	3633
840.742	3835
840.879	3530
841.016	3568
841.153	3599
841.29	3743
841.427	3717
841.564	3717
841.701	3789
841.838	3705
841.975	3728
842.112	3747
842.249	3671
842.385	3644
842.522	3865
842.659	3694
842.796	3660
842.933	3720
843.069	3705
843.206	3682
843.343	3797
843.479	3797
843.616	3823
843.752	3644
843.889	3724
844.025	3842
844.162	3732
844.298	3838
844.435	3759
844.571	3781
844.708	3918
844.844	3983
844.98	4051
845.117	4040
845.253	3949
845.389	3941
845.525	3987
845.661	3975
845.798	3854
845.934	4032
846.07	3987
846.206	4032
846.342	4147
846.478	4071
846.614	3991
846.75	3911
846.886	3899
847.022	4036
847.158	3991
847.294	3983
847.429	4010
847.565	4013
847.701	4249
847.837	3911
847.972	3835
848.108	3979
848.244	3975
848.379	3857
848.515	3808
848.65	3827
848.786	3857
848.921	3854
849.057	3987
849.192	3937
849.328	3945
849.463	3907
849.598	3876
849.734	3869
849.869	3850
850.004	3854
850.14	3865
850.275	3797
850.41	3755
850.545	3785
850.68	3778
850.815	3740
850.95	3785
851.085	3941
851.22	3869
851.355	3865
851.49	3785
851.625	3793
851.76	3804
851.895	3717
852.03	3774
852.165	3850
852.299	3880
852.434	3934
852.569	3869
852.703	3915
852.838	3915
852.973	4036
853.107	4059
853.242	3892
853.376	3854
853.511	3835
853.645	3846
853.78	3968
853.914	3892
854.048	3861
854.183	3922
854.317	3983
854.451	4032
854.585	3937
854.72	3964
854.854	4074
854.988	3953
855.122	4021
855.256	4002
855.39	4025
855.524	4131
855.658	4055
855.792	4078
855.926	4188
856.06	4200
856.194	4234
856.327	4105
856.461	4150
856.595	4211
856.729	4169
856.862	4265
856.996	4192
857.13	4337
857.263	4383
857.397	4379
857.53	4295
857.664	4383
857.797	4417
857.931	4413
858.064	4363
858.197	4512
858.331	4417
858.464	4379
858.597	4383
858.731	4470
858.864	4455
858.997	4451
859.13	4481
859.263	4573
859.396	4675
859.529	4527
859.662	4500
859.795	4561
859.928	4637
860.061	4691
860.194	4683
860.327	4710
860.46	4634
860.592	4767
860.725	4782
860.858	4816
860.99	4702
861.123	4683
861.256	4710
861.388	4767
861.521	5478
861.653	4748
861.786	4740
861.918	4736
862.05	4793
862.183	4881
862.315	4927
862.447	4934
862.58	4889
862.712	4809
862.844	4782
862.976	4858
863.108	4866
863.24	5239
863.372	4850
863.504	4919
863.636	4927
863.768	4999
863.9	4968
864.032	4934
864.164	4968
864.296	5048
864.428	5041
864.559	5105
864.691	5117
864.823	5113
864.954	5151
865.086	5181
865.217	5128
865.349	5136
865.48	5166
865.612	5174
865.743	5322
865.875	5239
866.006	5208
866.137	5254
866.269	5269
866.4	5322
866.531	5239
866.662	5231
866.793	5315
866.924	5269
867.055	5410
867.186	5322
867.317	5311
867.448	5330
867.579	5345
867.71	5436
867.841	5395
867.972	5501
868.103	5467
868.233	5463
868.364	5585
868.495	5551
868.625	5649
868.756	5783
868.886	5688
869.017	5760
869.147	5851
869.278	5844
869.408	5832
869.539	5805
869.669	5980
869.799	5946
869.929	6011
870.06	6026
870.19	6235
870.32	6220
870.45	6311
870.58	6319
870.71	6445
870.84	6460
870.97	6403
871.1	6483
871.23	6681
871.36	6722
871.489	6665
871.619	6802
871.749	6745
871.879	6867
872.008	6996
872.138	6970
872.267	7008
872.397	7008
872.526	7072
872.656	7145
872.785	7232
872.915	7369
873.044	7540
873.173	7571
873.303	7620
873.432	7761
873.561	7921
873.69	7921
873.819	8016
873.948	8153
874.077	8256
874.206	8343
874.335	8442
874.464	8621
874.593	8895
874.722	8918
874.851	9184
874.979	9298
875.108	9367
875.237	9504
875.365	9504
875.494	9694
875.623	9831
875.751	9827
875.88	9964
876.008	10154
876.136	10318
876.265	10474
876.393	10656
876.521	10733
876.65	10873
876.778	10889
876.906	10938
877.034	11003
877.162	11094
877.29	11151
877.418	11303
877.546	11360
877.674	11486
877.802	11539
877.93	11657
878.058	11581
878.185	11577
878.313	11634
878.441	11817
878.568	11718
878.696	11836
878.824	11832
878.951	11988
879.079	11954
879.206	12087
879.333	12057
879.461	12045
879.588	12072
879.715	12068
879.842	12220
879.97	12140
880.097	11836
880.224	11840
880.351	11923
880.478	11828
880.605	11874
880.732	11843
880.859	12053
880.986	11885
881.112	11908
881.239	11752
881.366	11661
881.493	11680
881.619	11562
881.746	11551
881.872	11581
881.999	11528
882.125	11425
882.252	11532
882.378	11490
882.505	11623
882.631	11383
882.757	11307
882.883	11326
883.01	11277
883.136	11181
883.262	11113
883.388	11056
883.514	11105
883.64	11254
883.766	11102
883.892	11090
884.018	11060
884.143	11086
884.269	11098
884.395	10866
884.52	10763
884.646	10786
884.772	10706
884.897	10664
885.023	10744
885.148	10774
885.274	10782
885.399	10725
885.524	10607
885.65	10653
885.775	10580
885.9	10508
886.025	10634
886.15	10607
886.275	10413
886.4	10432
886.525	10386
886.65	10451
886.775	10382
886.9	10554
887.025	10573
887.149	10333
887.274	10242
887.399	10185
887.523	10181
887.648	10120
887.773	10185
887.897	10310
888.021	10287
888.146	10040
888.27	10238
888.395	10272
888.519	10150
888.643	10230
888.767	10211
888.891	10124
889.015	10006
889.139	9983
889.263	9983
889.387	10124
889.511	10131
889.635	10074
889.759	10010
889.883	9994
890.006	10044
890.13	10067
890.254	9926
890.377	9873
890.501	9888
890.624	9945
890.748	9873
890.871	9743
890.995	9713
891.118	9717
891.241	9751
891.364	9774
891.488	9907
891.611	9770
891.734	9785
891.857	9743
891.98	9743
892.103	9789
892.226	9743
892.349	9679
892.471	9447
892.594	9584
892.717	9663
892.839	9667
892.962	9599
893.085	9732
893.207	9591
893.33	9492
893.452	9534
893.575	9675
893.697	9488
893.819	9618
893.941	9682
894.064	9656
894.186	9454
894.308	9382
894.43	9545
894.552	9576
894.674	9542
894.796	9340
894.918	9363
895.04	9329
895.161	9332
895.283	9393
895.405	9264
895.526	9195
895.648	9260
895.769	9256
895.891	9245
896.012	9237
896.134	9184
896.255	9184
896.376	9176
896.498	9093
896.619	9142
896.74	9085
896.861	9123
896.982	9214
897.103	9344
897.224	9150
897.345	9020
897.466	9028
897.587	8971
897.708	9108
897.828	8986
897.949	9001
898.07	8956
898.19	8941
898.311	8960
898.431	8914
898.552	9001
898.672	8979
898.792	8952
898.913	8960
899.033	8811
899.153	8777
899.273	8636
899.393	8670
899.513	8731
899.633	8769
899.753	8720
899.873	8708
899.993	8743
900.113	8686
900.232	8739
900.352	8625
900.472	8579
900.591	8617
900.711	8651
900.83	8568
900.95	8678
901.069	8712
901.189	8640
901.308	8431
901.427	8389
901.546	8438
901.665	8492
901.784	8438
901.904	8362
902.023	8374
902.141	8233
902.26	8210
902.379	8347
902.498	8225
902.617	8256
902.735	8336
902.854	8279
902.973	8271
903.091	8115
903.21	8107
903.328	8119
903.446	8142
903.565	8077
903.683	8077
903.801	8088
903.919	8115
904.038	8103
904.156	8073
904.274	8050
904.392	8092
904.51	8088
904.627	8062
904.745	8100
904.863	8119
904.981	7894
905.098	7906
905.216	7864
905.334	7944
905.451	7917
905.569	7887
905.686	7970
905.803	7887
905.921	7803
906.038	7841
906.155	7833
906.272	7750
906.389	7689
906.506	7674
906.623	7639
906.74	7639
906.857	7533
906.974	7563
907.091	7639
907.208	7700
907.324	7655
907.441	7597
907.557	7502
907.674	7422
907.79	7388
907.907	7373
908.023	7430
908.139	7384
908.256	7396
908.372	7369
908.488	7350
908.604	7251
908.72	7236
908.836	7278
908.952	7327
909.068	7206
909.184	7285
909.3	7244
909.415	7320
909.531	7240
909.647	7080
909.762	7141
909.878	7091
909.993	7156
910.108	7107
910.224	7065
910.339	7129
910.454	7019
910.57	7012
910.685	6962
910.8	7168
910.915	7080
911.03	7053
911.145	6901
911.259	6901
911.374	6897
911.489	6848
911.604	6757
911.718	6726
911.833	6719
911.947	6662
912.062	6566
912.176	6665
912.291	6726
912.405	6696
912.519	6840
912.633	6806
912.748	6745
912.862	6684
912.976	6597
913.09	6502
913.204	6570
913.318	6570
913.431	6623
913.545	6700
913.659	6715
913.772	6631
913.886	6608
914	6616
914.113	6608
914.226	6688
914.34	6646
914.453	6479
914.566	6616
914.68	6502
914.793	6540
914.906	6399
915.019	6353
915.132	6380
915.245	6437
915.358	6437
915.47	6467
915.583	6452
915.696	6426
915.809	6563
915.921	6551
916.034	6486
916.146	6357
916.259	6346
916.371	6544
916.483	6426
916.595	6429
916.708	6407
916.82	6437
916.932	6391
917.044	6483
917.156	6410
917.268	6289
917.38	6334
917.491	6319
917.603	6353
917.715	6334
917.826	6376
917.938	6353
918.049	6273
918.161	6289
918.272	6464
918.384	6407
918.495	6372
918.606	6175
918.717	6247
918.828	6289
918.939	6228
919.05	6201
919.161	6266
919.272	6167
919.383	6148
919.494	6346
919.604	6429
919.715	6304
919.826	6213
919.936	6243
920.047	6369
920.157	6285
920.267	6460
920.378	6350
920.488	6281
920.598	6429
920.708	6578
920.818	6479
920.928	6467
921.038	6593
921.148	6604
921.258	6414
921.368	6243
921.477	6247
921.587	6232
921.697	6087
921.806	6239
921.916	6057
922.025	5992
922.134	5889
922.244	5889
922.353	5946
922.462	5908
922.571	5798
922.68	5665
922.789	5752
922.898	5703
923.007	5604
923.116	5710
923.224	5710
923.333	5665
923.442	5638
923.55	5539
923.659	5600
923.767	5634
923.876	5543
923.984	5611
924.092	5543
924.201	5520
924.309	5566
924.417	5532
924.525	5528
924.633	5509
924.741	6251
924.849	5402
924.956	5463
925.064	5360
925.172	5357
925.279	5345
925.387	5341
925.494	5292
925.602	5414
925.709	5379
925.816	5288
925.924	5334
926.031	5376
926.138	5307
926.245	5334
926.352	5212
926.459	5379
926.566	5353
926.673	5197
926.779	5189
926.886	5143
926.993	5056
927.099	5037
927.206	4984
927.312	4984
927.419	5052
927.525	4999
927.631	5048
927.737	4885
927.843	4828
927.95	4774
928.056	4809
928.162	4831
928.267	4816
928.373	5341
928.479	4835
928.585	4702
928.69	4782
928.796	4797
928.901	4729
929.007	4634
929.112	4645
929.218	4592
929.323	4603
929.428	4584
929.533	4687
929.638	4546
929.743	4584
929.848	4607
929.953	4516
930.058	4516
930.163	4299
930.267	4325
930.372	4451
930.477	4352
930.581	4485
930.685	4409
930.79	4261
930.894	4310
930.998	4287
931.103	4413
931.207	4124
931.311	4101
931.415	4040
931.519	3983
931.623	3903
