Data from glass_V78500241_1063.txt Node
Date: Wed Sep 01 19:21:52 CST 2021
User: usil
Spectrometer: V785-0024
Trigger mode: 0
Integration Time (sec): 4.000000E-1
Scans to average: 1
Nonlinearity correction enabled: false
Boxcar width: 0
Storing dark spectrum: false
XAxis mode: Wavelengths
Number of Pixels in Spectrum: 1024
>>>>>Begin Spectral Data<<<<<
801.071	3774
801.214	3774
801.356	3724
801.499	3736
801.641	3751
801.783	3827
801.926	3869
802.068	3873
802.211	3884
802.353	3892
802.496	3850
802.638	3888
802.78	3926
802.923	3949
803.065	3907
803.208	3861
803.35	3876
803.492	3911
803.635	3960
803.777	3835
803.919	3892
804.061	4181
804.204	3987
804.346	3930
804.488	3896
804.63	4074
804.773	3941
804.915	4006
805.057	4158
805.199	4051
805.341	4093
805.483	4188
805.626	4158
805.768	4139
805.91	4215
806.052	4215
806.194	4246
806.336	4371
806.478	4227
806.62	4185
806.762	4192
806.904	4284
807.046	4421
807.188	4185
807.33	4185
807.472	4284
807.614	4215
807.756	4261
807.898	4177
808.04	4219
808.182	4276
808.324	4291
808.465	4402
808.607	4466
808.749	4455
808.891	4481
809.033	4504
809.174	4390
809.316	4280
809.458	4268
809.6	4196
809.741	4162
809.883	4158
810.025	4200
810.166	4242
810.308	4253
810.45	4284
810.591	4284
810.733	4306
810.875	4493
811.016	4805
811.158	5071
811.299	5315
811.441	5269
811.582	5086
811.724	4725
811.865	4485
812.007	4500
812.148	4386
812.29	4440
812.431	4421
812.573	4432
812.714	4329
812.855	4474
812.997	4459
813.138	4516
813.279	4424
813.421	4383
813.562	4379
813.703	4333
813.845	4379
813.986	4325
814.127	4211
814.268	4261
814.41	4253
814.551	4276
814.692	4299
814.833	4276
814.974	4261
815.115	4386
815.256	4219
815.397	4242
815.539	4242
815.68	4181
815.821	4238
815.962	4318
816.103	4314
816.244	4242
816.385	4246
816.526	4306
816.666	4280
816.807	4097
816.948	4211
817.089	4185
817.23	4162
817.371	4029
817.512	4078
817.653	4093
817.793	4040
817.934	4051
818.075	4158
818.216	4105
818.356	4109
818.497	3994
818.638	3968
818.778	3949
818.919	3915
819.06	3876
819.2	3880
819.341	3880
819.481	3850
819.622	3880
819.762	4017
819.903	3994
820.043	3888
820.184	3869
820.324	3861
820.465	3873
820.605	3903
820.746	3850
820.886	3823
821.026	3941
821.167	3892
821.307	3983
821.447	3975
821.588	3956
821.728	3930
821.868	3960
822.008	3861
822.149	3930
822.289	3937
822.429	3827
822.569	3762
822.709	3804
822.849	3740
822.99	3781
823.13	3759
823.27	3785
823.41	3736
823.55	3724
823.69	3732
823.83	3728
823.97	3698
824.11	3644
824.25	3629
824.389	3603
824.529	3652
824.669	3637
824.809	3743
824.949	3797
825.089	3770
825.228	3713
825.368	3637
825.508	3553
825.648	3641
825.787	3587
825.927	3671
826.067	3614
826.206	3690
826.346	3785
826.485	3831
826.625	3880
826.765	3956
826.904	3857
827.044	3644
827.183	3545
827.323	3458
827.462	3481
827.601	3428
827.741	3428
827.88	3473
828.02	3367
828.159	3447
828.298	3466
828.437	3523
828.577	3485
828.716	3622
828.855	3466
828.994	3420
829.134	3378
829.273	3401
829.412	3359
829.551	3363
829.69	3370
829.829	3443
829.968	3538
830.107	3439
830.246	3454
830.385	3386
830.524	3329
830.663	3283
830.802	3317
830.941	3214
831.08	3184
831.219	3298
831.357	3279
831.496	3401
831.635	3230
831.774	3222
831.913	3211
832.051	3165
832.19	3123
832.329	3253
832.467	3123
832.606	3112
832.744	3169
832.883	3211
833.022	3173
833.16	3291
833.299	3325
833.437	3336
833.576	3416
833.714	3370
833.852	3428
833.991	3473
834.129	3481
834.267	3477
834.406	3409
834.544	3401
834.682	3431
834.821	3416
834.959	3564
835.097	3382
835.235	3564
835.373	3507
835.511	3504
835.65	3435
835.788	3488
835.926	3405
836.064	3412
836.202	3466
836.34	3584
836.478	3595
836.615	3553
836.753	3568
836.891	3671
837.029	3641
837.167	3599
837.305	3557
837.443	3561
837.58	3466
837.718	3656
837.856	3584
837.993	3538
838.131	3599
838.269	3568
838.406	3614
838.544	3584
838.681	3462
838.819	3450
838.956	3401
839.094	3386
839.231	3439
839.369	3564
839.506	3740
839.643	3675
839.781	3519
839.918	3500
840.055	3572
840.193	3523
840.33	3534
840.467	3568
840.604	3610
840.742	3835
840.879	3580
841.016	3587
841.153	3591
841.29	3755
841.427	3724
841.564	3720
841.701	3698
841.838	3694
841.975	3698
842.112	3682
842.249	3644
842.385	3595
842.522	3873
842.659	3705
842.796	3637
842.933	3778
843.069	3686
843.206	3709
843.343	3789
843.479	3797
843.616	3854
843.752	3690
843.889	3660
844.025	3884
844.162	3717
844.298	3857
844.435	3781
844.571	3842
844.708	3911
844.844	4002
844.98	4051
845.117	3991
845.253	3934
845.389	3922
845.525	3998
845.661	4040
845.798	3930
845.934	4029
846.07	3941
846.206	4055
846.342	4124
846.478	4090
846.614	3953
846.75	3949
846.886	3945
847.022	4071
847.158	4021
847.294	3994
847.429	4025
847.565	4021
847.701	4188
847.837	3850
847.972	3869
848.108	3972
848.244	3953
848.379	3869
848.515	3816
848.65	3846
848.786	3816
848.921	3903
849.057	3934
849.192	3956
849.328	3915
849.463	3915
849.598	3876
849.734	3899
849.869	3842
850.004	3774
850.14	3831
850.275	3785
850.41	3804
850.545	3751
850.68	3766
850.815	3785
850.95	3804
851.085	3987
851.22	3888
851.355	3869
851.49	3816
851.625	3808
851.76	3789
851.895	3740
852.03	3732
852.165	3880
852.299	3850
852.434	3941
852.569	3857
852.703	3873
852.838	3918
852.973	4029
853.107	4029
853.242	3880
853.376	3827
853.511	3793
853.645	3846
853.78	4006
853.914	3915
854.048	3903
854.183	3911
854.317	3945
854.451	4055
854.585	3941
854.72	3926
854.854	4090
854.988	3930
855.122	4006
855.256	3896
855.39	4067
855.524	4086
855.658	4059
855.792	4097
855.926	4143
856.06	4169
856.194	4204
856.327	4158
856.461	4097
856.595	4158
856.729	4211
856.862	4287
856.996	4257
857.13	4291
857.263	4303
857.397	4413
857.53	4318
857.664	4383
857.797	4390
857.931	4447
858.064	4405
858.197	4455
858.331	4398
858.464	4367
858.597	4367
858.731	4428
858.864	4462
858.997	4455
859.13	4527
859.263	4596
859.396	4569
859.529	4527
859.662	4497
859.795	4500
859.928	4656
860.061	4706
860.194	4725
860.327	4691
860.46	4694
860.592	4767
860.725	4782
860.858	4755
860.99	4729
861.123	4706
861.256	4710
861.388	4767
861.521	5406
861.653	4714
861.786	4706
861.918	4736
862.05	4744
862.183	4850
862.315	4904
862.447	4946
862.58	4870
862.712	4820
862.844	4702
862.976	4881
863.108	4839
863.24	5189
863.372	4854
863.504	4908
863.636	4904
863.768	4972
863.9	4919
864.032	4896
864.164	4961
864.296	5064
864.428	5083
864.559	5090
864.691	5143
864.823	5178
864.954	5132
865.086	5166
865.217	5155
865.349	5128
865.48	5151
865.612	5185
865.743	5269
865.875	5193
866.006	5212
866.137	5277
866.269	5288
866.4	5227
866.531	5292
866.662	5235
866.793	5315
866.924	5261
867.055	5326
867.186	5299
867.317	5372
867.448	5341
867.579	5433
867.71	5376
867.841	5444
867.972	5474
868.103	5474
868.233	5520
868.364	5581
868.495	5577
868.625	5729
868.756	5729
868.886	5695
869.017	5748
869.147	5859
869.278	5889
869.408	5809
869.539	5828
869.669	5912
869.799	5912
869.929	6026
870.06	5992
870.19	6178
870.32	6224
870.45	6281
870.58	6388
870.71	6456
870.84	6475
870.97	6448
871.1	6471
871.23	6627
871.36	6726
871.489	6681
871.619	6730
871.749	6840
871.879	6916
872.008	6989
872.138	6932
872.267	7042
872.397	7069
872.526	7031
872.656	7152
872.785	7225
872.915	7419
873.044	7537
873.173	7552
873.303	7693
873.432	7753
873.561	7940
873.69	7894
873.819	8043
873.948	8214
874.077	8256
874.206	8366
874.335	8454
874.464	8648
874.593	8910
874.722	9009
874.851	9161
874.979	9226
875.108	9405
875.237	9511
875.365	9515
875.494	9641
875.623	9842
875.751	9823
875.88	10040
876.008	10131
876.136	10246
876.265	10485
876.393	10793
876.521	10660
876.65	10877
876.778	10892
876.906	10896
877.034	11006
877.162	11204
877.29	11098
877.418	11303
877.546	11402
877.674	11467
877.802	11535
877.93	11592
878.058	11532
878.185	11592
878.313	11646
878.441	11718
878.568	11646
878.696	11805
878.824	11901
878.951	11882
879.079	12026
879.206	12133
879.333	12022
879.461	11984
879.588	12152
879.715	12079
879.842	12228
879.97	12129
880.097	11779
880.224	11885
880.351	11942
880.478	11961
880.605	11840
880.732	11809
880.859	12019
880.986	11824
881.112	11851
881.239	11741
881.366	11649
881.493	11596
881.619	11570
881.746	11592
881.872	11573
881.999	11505
882.125	11493
882.252	11547
882.378	11482
882.505	11589
882.631	11448
882.757	11269
882.883	11364
883.01	11189
883.136	11102
883.262	11147
883.388	11075
883.514	11239
883.64	11231
883.766	11060
883.892	11014
884.018	10995
884.143	11071
884.269	11132
884.395	10820
884.52	10793
884.646	10828
884.772	10729
884.897	10683
885.023	10744
885.148	10771
885.274	10790
885.399	10702
885.524	10603
885.65	10538
885.775	10573
885.9	10535
886.025	10626
886.15	10538
886.275	10424
886.4	10363
886.525	10443
886.65	10402
886.775	10371
886.9	10455
887.025	10546
887.149	10382
887.274	10204
887.399	10192
887.523	10207
887.648	10166
887.773	10166
887.897	10211
888.021	10219
888.146	10135
888.27	10291
888.395	10261
888.519	10257
888.643	10143
888.767	10234
888.891	10143
889.015	10036
889.139	10055
889.263	10010
889.387	10101
889.511	10147
889.635	9998
889.759	9953
889.883	9949
890.006	10078
890.13	10101
890.254	10025
890.377	9968
890.501	9831
890.624	9907
890.748	9949
890.871	9793
890.995	9770
891.118	9656
891.241	9812
891.364	9713
891.488	9812
891.611	9705
891.734	9865
891.857	9759
891.98	9743
892.103	9800
892.226	9736
892.349	9705
892.471	9511
892.594	9622
892.717	9633
892.839	9564
892.962	9614
893.085	9686
893.207	9648
893.33	9473
893.452	9572
893.575	9637
893.697	9542
893.819	9599
893.941	9637
894.064	9652
894.186	9519
894.308	9443
894.43	9549
894.552	9587
894.674	9515
894.796	9401
894.918	9397
895.04	9332
895.161	9382
895.283	9378
895.405	9253
895.526	9169
895.648	9169
895.769	9298
895.891	9249
896.012	9298
896.134	9272
896.255	9127
896.376	9131
896.498	9146
896.619	9184
896.74	9047
896.861	9165
896.982	9233
897.103	9279
897.224	9146
897.345	9093
897.466	9043
897.587	8971
897.708	9066
897.828	9024
897.949	9039
898.07	8944
898.19	8910
898.311	8948
898.431	8967
898.552	8994
898.672	8956
898.792	8982
898.913	8990
899.033	8895
899.153	8811
899.273	8659
899.393	8766
899.513	8746
899.633	8739
899.753	8766
899.873	8701
899.993	8750
900.113	8644
900.232	8712
900.352	8613
900.472	8648
900.591	8625
900.711	8625
900.83	8579
900.95	8636
901.069	8708
901.189	8583
901.308	8438
901.427	8473
901.546	8476
901.665	8495
901.784	8476
901.904	8423
902.023	8393
902.141	8214
902.26	8221
902.379	8309
902.498	8218
902.617	8301
902.735	8298
902.854	8237
902.973	8309
903.091	8153
903.21	8172
903.328	8164
903.446	8084
903.565	8103
903.683	8073
903.801	8050
903.919	8077
904.038	8092
904.156	8081
904.274	8111
904.392	8050
904.51	8100
904.627	8050
904.745	8123
904.863	8115
904.981	7974
905.098	7818
905.216	7807
905.334	7944
905.451	7928
905.569	7833
905.686	7917
905.803	7917
905.921	7761
906.038	7860
906.155	7811
906.272	7696
906.389	7765
906.506	7620
906.623	7578
906.74	7597
906.857	7533
906.974	7613
907.091	7643
907.208	7727
907.324	7700
907.441	7647
907.557	7453
907.674	7472
907.79	7438
907.907	7472
908.023	7441
908.139	7411
908.256	7384
908.372	7419
908.488	7400
908.604	7221
908.72	7240
908.836	7236
908.952	7145
909.068	7308
909.184	7343
909.3	7301
909.415	7331
909.531	7350
909.647	7126
909.762	7152
909.878	7076
909.993	7126
910.108	7038
910.224	7031
910.339	7156
910.454	7076
910.57	7004
910.685	6985
910.8	7179
910.915	7118
911.03	6981
911.145	6897
911.259	6943
911.374	6875
911.489	6890
911.604	6825
911.718	6623
911.833	6768
911.947	6662
912.062	6604
912.176	6688
912.291	6700
912.405	6635
912.519	6844
912.633	6852
912.748	6741
912.862	6650
912.976	6604
913.09	6513
913.204	6536
913.318	6601
913.431	6627
913.545	6662
913.659	6745
913.772	6616
913.886	6566
914	6494
914.113	6604
914.226	6627
914.34	6620
914.453	6509
914.566	6677
914.68	6525
914.793	6585
914.906	6437
915.019	6414
915.132	6407
915.245	6437
915.358	6456
915.47	6464
915.583	6437
915.696	6494
915.809	6517
915.921	6578
916.034	6456
916.146	6384
916.259	6353
916.371	6525
916.483	6467
916.595	6422
916.708	6331
916.82	6429
916.932	6365
917.044	6399
917.156	6365
917.268	6338
917.38	6327
917.491	6357
917.603	6331
917.715	6357
917.826	6418
917.938	6311
918.049	6235
918.161	6353
918.272	6418
918.384	6471
918.495	6369
918.606	6258
918.717	6205
918.828	6270
918.939	6292
919.05	6228
919.161	6258
919.272	6159
919.383	6125
919.494	6342
919.604	6418
919.715	6346
919.826	6216
919.936	6251
920.047	6391
920.157	6300
920.267	6452
920.378	6334
920.488	6311
920.598	6528
920.708	6578
920.818	6517
920.928	6422
921.038	6566
921.148	6536
921.258	6346
921.368	6262
921.477	6216
921.587	6182
921.697	6022
921.806	6136
921.916	6117
922.025	5977
922.134	5927
922.244	5931
922.353	5942
922.462	5878
922.571	5779
922.68	5733
922.789	5703
922.898	5657
923.007	5608
923.116	5756
923.224	5688
923.333	5703
923.442	5619
923.55	5570
923.659	5573
923.767	5680
923.876	5589
923.984	5680
924.092	5520
924.201	5562
924.309	5558
924.417	5558
924.525	5482
924.633	5482
924.741	6308
924.849	5379
924.956	5516
925.064	5391
925.172	5318
925.279	5326
925.387	5372
925.494	5379
925.602	5429
925.709	5429
925.816	5246
925.924	5311
926.031	5391
926.138	5326
926.245	5296
926.352	5261
926.459	5341
926.566	5330
926.673	5220
926.779	5151
926.886	5132
926.993	5105
927.099	5022
927.206	4984
927.312	5033
927.419	5018
927.525	5033
927.631	4987
927.737	4915
927.843	4854
927.95	4736
928.056	4866
928.162	4824
928.267	4839
928.373	5364
928.479	4847
928.585	4675
928.69	4816
928.796	4820
928.901	4683
929.007	4630
929.112	4729
929.218	4691
929.323	4611
929.428	4577
929.533	4660
929.638	4493
929.743	4580
929.848	4584
929.953	4588
930.058	4459
930.163	4360
930.267	4379
930.372	4428
930.477	4299
930.581	4504
930.685	4341
930.79	4234
930.894	4284
930.998	4249
931.103	4402
931.207	4158
931.311	4093
931.415	4021
931.519	3949
931.623	3968
