Data from glass_V78500241_1870.txt Node
Date: Wed Sep 01 19:27:27 CST 2021
User: usil
Spectrometer: V785-0024
Trigger mode: 0
Integration Time (sec): 4.000000E-1
Scans to average: 1
Nonlinearity correction enabled: false
Boxcar width: 0
Storing dark spectrum: false
XAxis mode: Wavelengths
Number of Pixels in Spectrum: 1024
>>>>>Begin Spectral Data<<<<<
801.071	3724
801.214	3736
801.356	3690
801.499	3728
801.641	3732
801.783	3743
801.926	3876
802.068	3808
802.211	3869
802.353	3869
802.496	3846
802.638	3880
802.78	3888
802.923	3926
803.065	3876
803.208	3800
803.35	3835
803.492	3888
803.635	3899
803.777	3816
803.919	3869
804.061	4120
804.204	3941
804.346	4006
804.488	3987
804.63	3987
804.773	3941
804.915	4002
805.057	4158
805.199	4040
805.341	4093
805.483	4086
805.626	4143
805.768	4109
805.91	4234
806.052	4265
806.194	4207
806.336	4367
806.478	4185
806.62	4185
806.762	4166
806.904	4265
807.046	4371
807.188	4230
807.33	4181
807.472	4188
807.614	4204
807.756	4291
807.898	4215
808.04	4234
808.182	4284
808.324	4325
808.465	4363
808.607	4481
808.749	4466
808.891	4447
809.033	4459
809.174	4356
809.316	4287
809.458	4204
809.6	4139
809.741	4139
809.883	4139
810.025	4223
810.166	4223
810.308	4177
810.45	4207
810.591	4207
810.733	4280
810.875	4500
811.016	4828
811.158	5132
811.299	5288
811.441	5265
811.582	5052
811.724	4736
811.865	4451
812.007	4459
812.148	4451
812.29	4402
812.431	4424
812.573	4436
812.714	4394
812.855	4402
812.997	4394
813.138	4451
813.279	4436
813.421	4398
813.562	4329
813.703	4280
813.845	4352
813.986	4265
814.127	4219
814.268	4265
814.41	4344
814.551	4287
814.692	4337
814.833	4287
814.974	4257
815.115	4329
815.256	4223
815.397	4284
815.539	4234
815.68	4230
815.821	4230
815.962	4322
816.103	4337
816.244	4246
816.385	4211
816.526	4242
816.666	4192
816.807	4101
816.948	4112
817.089	4158
817.23	4120
817.371	4063
817.512	4013
817.653	4063
817.793	4086
817.934	4025
818.075	4082
818.216	4071
818.356	4105
818.497	4021
818.638	3937
818.778	3869
818.919	3899
819.06	3846
819.2	3903
819.341	3823
819.481	3835
819.622	3876
819.762	4021
819.903	3918
820.043	3854
820.184	3835
820.324	3838
820.465	3857
820.605	3869
820.746	3861
820.886	3819
821.026	3926
821.167	3876
821.307	3953
821.447	3991
821.588	3937
821.728	3945
821.868	3968
822.008	3911
822.149	3880
822.289	3930
822.429	3804
822.569	3747
822.709	3800
822.849	3747
822.99	3709
823.13	3736
823.27	3747
823.41	3648
823.55	3743
823.69	3728
823.83	3724
823.97	3663
824.11	3614
824.25	3614
824.389	3648
824.529	3660
824.669	3580
824.809	3709
824.949	3717
825.089	3698
825.228	3675
825.368	3610
825.508	3553
825.648	3580
825.787	3656
825.927	3656
826.067	3633
826.206	3663
826.346	3819
826.485	3854
826.625	3857
826.765	3934
826.904	3812
827.044	3622
827.183	3515
827.323	3439
827.462	3466
827.601	3428
827.741	3447
827.88	3466
828.02	3386
828.159	3447
828.298	3504
828.437	3564
828.577	3477
828.716	3629
828.855	3477
828.994	3409
829.134	3386
829.273	3412
829.412	3351
829.551	3348
829.69	3325
829.829	3447
829.968	3511
830.107	3447
830.246	3454
830.385	3401
830.524	3378
830.663	3268
830.802	3264
830.941	3218
831.08	3188
831.219	3256
831.357	3218
831.496	3397
831.635	3256
831.774	3203
831.913	3214
832.051	3150
832.19	3138
832.329	3230
832.467	3112
832.606	3127
832.744	3184
832.883	3203
833.022	3165
833.16	3279
833.299	3294
833.437	3329
833.576	3382
833.714	3412
833.852	3401
833.991	3466
834.129	3466
834.267	3424
834.406	3389
834.544	3416
834.682	3454
834.821	3405
834.959	3557
835.097	3454
835.235	3485
835.373	3469
835.511	3504
835.65	3447
835.788	3439
835.926	3405
836.064	3416
836.202	3431
836.34	3553
836.478	3599
836.615	3564
836.753	3576
836.891	3637
837.029	3576
837.167	3587
837.305	3595
837.443	3557
837.58	3481
837.718	3580
837.856	3568
837.993	3469
838.131	3576
838.269	3561
838.406	3576
838.544	3584
838.681	3492
838.819	3435
838.956	3386
839.094	3378
839.231	3431
839.369	3511
839.506	3679
839.643	3618
839.781	3504
839.918	3458
840.055	3526
840.193	3496
840.33	3530
840.467	3587
840.604	3580
840.742	3804
840.879	3519
841.016	3545
841.153	3538
841.29	3720
841.427	3690
841.564	3747
841.701	3736
841.838	3690
841.975	3652
842.112	3724
842.249	3637
842.385	3663
842.522	3823
842.659	3701
842.796	3648
842.933	3701
843.069	3675
843.206	3701
843.343	3797
843.479	3789
843.616	3835
843.752	3629
843.889	3698
844.025	3827
844.162	3709
844.298	3884
844.435	3778
844.571	3781
844.708	3884
844.844	3953
844.98	3968
845.117	4006
845.253	3911
845.389	3888
845.525	3945
845.661	3934
845.798	3926
845.934	4025
846.07	3926
846.206	4063
846.342	4124
846.478	4063
846.614	3979
846.75	3922
846.886	3884
847.022	4078
847.158	3987
847.294	4006
847.429	3991
847.565	4006
847.701	4230
847.837	3888
847.972	3827
848.108	3949
848.244	3972
848.379	3873
848.515	3800
848.65	3793
848.786	3831
848.921	3873
849.057	3926
849.192	3926
849.328	3934
849.463	3941
849.598	3854
849.734	3865
849.869	3808
850.004	3804
850.14	3816
850.275	3800
850.41	3709
850.545	3778
850.68	3759
850.815	3785
850.95	3789
851.085	3896
851.22	3873
851.355	3838
851.49	3819
851.625	3770
851.76	3804
851.895	3743
852.03	3720
852.165	3804
852.299	3838
852.434	3873
852.569	3873
852.703	3896
852.838	3953
852.973	3994
853.107	3975
853.242	3907
853.376	3835
853.511	3755
853.645	3846
853.78	3956
853.914	3854
854.048	3907
854.183	3884
854.317	3945
854.451	4051
854.585	3945
854.72	3922
854.854	4017
854.988	3941
855.122	3975
855.256	3937
855.39	4025
855.524	4078
855.658	4150
855.792	4097
855.926	4150
856.06	4143
856.194	4147
856.327	4147
856.461	4120
856.595	4158
856.729	4173
856.862	4230
856.996	4223
857.13	4318
857.263	4310
857.397	4337
857.53	4280
857.664	4341
857.797	4367
857.931	4329
858.064	4405
858.197	4474
858.331	4398
858.464	4352
858.597	4325
858.731	4383
858.864	4485
858.997	4451
859.13	4516
859.263	4504
859.396	4546
859.529	4546
859.662	4519
859.795	4504
859.928	4569
860.061	4672
860.194	4733
860.327	4687
860.46	4607
860.592	4717
860.725	4786
860.858	4782
860.99	4679
861.123	4660
861.256	4710
861.388	4797
861.521	5414
861.653	4755
861.786	4668
861.918	4736
862.05	4786
862.183	4873
862.315	4904
862.447	4930
862.58	4854
862.712	4797
862.844	4797
862.976	4881
863.108	4908
863.24	5204
863.372	4786
863.504	4843
863.636	4870
863.768	4934
863.9	4976
864.032	4972
864.164	4942
864.296	5006
864.428	5064
864.559	5105
864.691	5090
864.823	5151
864.954	5113
865.086	5155
865.217	5132
865.349	5075
865.48	5185
865.612	5151
865.743	5357
865.875	5166
866.006	5216
866.137	5277
866.269	5216
866.4	5254
866.531	5284
866.662	5197
866.793	5280
866.924	5307
867.055	5360
867.186	5330
867.317	5326
867.448	5277
867.579	5337
867.71	5421
867.841	5414
867.972	5455
868.103	5486
868.233	5471
868.364	5505
868.495	5551
868.625	5615
868.756	5798
868.886	5680
869.017	5707
869.147	5828
869.278	5866
869.408	5855
869.539	5855
869.669	5897
869.799	5904
869.929	5992
870.06	5988
870.19	6190
870.32	6182
870.45	6289
870.58	6300
870.71	6452
870.84	6445
870.97	6426
871.1	6414
871.23	6627
871.36	6715
871.489	6635
871.619	6749
871.749	6848
871.879	6867
872.008	7050
872.138	6993
872.267	7038
872.397	6985
872.526	6977
872.656	7091
872.785	7217
872.915	7362
873.044	7464
873.173	7548
873.303	7639
873.432	7746
873.561	7868
873.69	7887
873.819	8050
873.948	8191
874.077	8275
874.206	8324
874.335	8503
874.464	8625
874.593	8762
874.722	8948
874.851	9123
874.979	9249
875.108	9408
875.237	9443
875.365	9397
875.494	9629
875.623	9880
875.751	9835
875.88	10006
876.008	10135
876.136	10253
876.265	10542
876.393	10733
876.521	10740
876.65	10820
876.778	10786
876.906	10885
877.034	10961
877.162	11105
877.29	11162
877.418	11341
877.546	11356
877.674	11444
877.802	11486
877.93	11577
878.058	11573
878.185	11520
878.313	11707
878.441	11786
878.568	11547
878.696	11832
878.824	11767
878.951	11939
879.079	12091
879.206	12133
879.333	12022
879.461	12041
879.588	12129
879.715	12060
879.842	12243
879.97	12102
880.097	11828
880.224	11821
880.351	11901
880.478	11897
880.605	11802
880.732	11737
880.859	11965
880.986	11756
881.112	11851
881.239	11843
881.366	11745
881.493	11691
881.619	11562
881.746	11516
881.872	11524
881.999	11490
882.125	11478
882.252	11524
882.378	11467
882.505	11577
882.631	11372
882.757	11353
882.883	11307
883.01	11265
883.136	11174
883.262	11128
883.388	11048
883.514	11185
883.64	11193
883.766	11124
883.892	10999
884.018	10995
884.143	11064
884.269	11178
884.395	10896
884.52	10744
884.646	10729
884.772	10759
884.897	10656
885.023	10679
885.148	10748
885.274	10763
885.399	10729
885.524	10615
885.65	10592
885.775	10580
885.9	10634
886.025	10599
886.15	10577
886.275	10459
886.4	10405
886.525	10428
886.65	10398
886.775	10360
886.9	10481
887.025	10500
887.149	10352
887.274	10204
887.399	10314
887.523	10158
887.648	10101
887.773	10055
887.897	10272
888.021	10261
888.146	10158
888.27	10238
888.395	10223
888.519	10150
888.643	10109
888.767	10261
888.891	10101
889.015	9991
889.139	10059
889.263	9903
889.387	9979
889.511	10131
889.635	9998
889.759	10002
889.883	9991
890.006	10048
890.13	10078
890.254	9979
890.377	9895
890.501	9869
890.624	9827
890.748	9888
890.871	9876
890.995	9789
891.118	9690
891.241	9770
891.364	9663
891.488	9873
891.611	9743
891.734	9720
891.857	9759
891.98	9732
892.103	9717
892.226	9724
892.349	9656
892.471	9507
892.594	9633
892.717	9553
892.839	9561
892.962	9614
893.085	9717
893.207	9603
893.33	9492
893.452	9412
893.575	9587
893.697	9481
893.819	9576
893.941	9580
894.064	9538
894.186	9424
894.308	9393
894.43	9507
894.552	9553
894.674	9511
894.796	9325
894.918	9393
895.04	9325
895.161	9416
895.283	9340
895.405	9195
895.526	9237
895.648	9218
895.769	9256
895.891	9313
896.012	9226
896.134	9169
896.255	9097
896.376	9161
896.498	9180
896.619	9169
896.74	9089
896.861	9020
896.982	9264
897.103	9332
897.224	9157
897.345	9081
897.466	9055
897.587	8986
897.708	9161
897.828	9047
897.949	8975
898.07	8861
898.19	8929
898.311	9036
898.431	8910
898.552	8906
898.672	8994
898.792	9020
898.913	8876
899.033	8804
899.153	8781
899.273	8625
899.393	8678
899.513	8727
899.633	8712
899.753	8766
899.873	8613
899.993	8735
900.113	8678
900.232	8724
900.352	8636
900.472	8617
900.591	8587
900.711	8526
900.83	8598
900.95	8697
901.069	8602
901.189	8484
901.308	8393
901.427	8355
901.546	8431
901.665	8431
901.784	8476
901.904	8431
902.023	8282
902.141	8172
902.26	8180
902.379	8294
902.498	8145
902.617	8218
902.735	8339
902.854	8305
902.973	8233
903.091	8062
903.21	8145
903.328	8176
903.446	8107
903.565	8073
903.683	8088
903.801	8031
903.919	8100
904.038	8107
904.156	8027
904.274	8100
904.392	8069
904.51	8092
904.627	8096
904.745	8130
904.863	8081
904.981	7868
905.098	7852
905.216	7902
905.334	7913
905.451	7879
905.569	7879
905.686	7944
905.803	7898
905.921	7769
906.038	7864
906.155	7830
906.272	7708
906.389	7761
906.506	7670
906.623	7624
906.74	7616
906.857	7552
906.974	7632
907.091	7647
907.208	7750
907.324	7685
907.441	7514
907.557	7495
907.674	7434
907.79	7396
907.907	7369
908.023	7362
908.139	7468
908.256	7365
908.372	7403
908.488	7320
908.604	7255
908.72	7282
908.836	7305
908.952	7198
909.068	7190
909.184	7285
909.3	7194
909.415	7346
909.531	7274
909.647	7072
909.762	7190
909.878	7095
909.993	7137
910.108	7099
910.224	7065
910.339	7072
910.454	7103
910.57	7015
910.685	6947
910.8	7133
910.915	7099
911.03	7050
911.145	6916
911.259	6905
911.374	6894
911.489	6859
911.604	6882
911.718	6722
911.833	6741
911.947	6631
912.062	6608
912.176	6711
912.291	6707
912.405	6665
912.519	6848
912.633	6802
912.748	6738
912.862	6677
912.976	6582
913.09	6544
913.204	6646
913.318	6578
913.431	6681
913.545	6684
913.659	6658
913.772	6612
913.886	6521
914	6544
914.113	6597
914.226	6681
914.34	6608
914.453	6445
914.566	6658
914.68	6513
914.793	6547
914.906	6422
915.019	6361
915.132	6365
915.245	6445
915.358	6479
915.47	6426
915.583	6422
915.696	6464
915.809	6544
915.921	6494
916.034	6399
916.146	6384
916.259	6334
916.371	6460
916.483	6467
916.595	6388
916.708	6388
916.82	6380
916.932	6342
917.044	6384
917.156	6342
917.268	6292
917.38	6338
917.491	6281
917.603	6372
917.715	6384
917.826	6399
917.938	6296
918.049	6220
918.161	6304
918.272	6418
918.384	6365
918.495	6410
918.606	6292
918.717	6247
918.828	6220
918.939	6213
919.05	6224
919.161	6224
919.272	6129
919.383	6129
919.494	6296
919.604	6395
919.715	6277
919.826	6220
919.936	6304
920.047	6334
920.157	6216
920.267	6464
920.378	6285
920.488	6331
920.598	6460
920.708	6551
920.818	6475
920.928	6490
921.038	6639
921.148	6475
921.258	6342
921.368	6281
921.477	6167
921.587	6216
921.697	6114
921.806	6155
921.916	6087
922.025	5969
922.134	5897
922.244	5935
922.353	5939
922.462	5813
922.571	5760
922.68	5707
922.789	5684
922.898	5707
923.007	5649
923.116	5718
923.224	5623
923.333	5623
923.442	5623
923.55	5562
923.659	5596
923.767	5634
923.876	5562
923.984	5608
924.092	5509
924.201	5566
924.309	5570
924.417	5539
924.525	5512
924.633	5493
924.741	6171
924.849	5345
924.956	5501
925.064	5376
925.172	5334
925.279	5273
925.387	5345
925.494	5376
925.602	5398
925.709	5436
925.816	5277
925.924	5315
926.031	5341
926.138	5318
926.245	5330
926.352	5220
926.459	5334
926.566	5299
926.673	5220
926.779	5071
926.886	5075
926.993	5037
927.099	5006
927.206	4984
927.312	4980
927.419	5045
927.525	5003
927.631	4946
927.737	4892
927.843	4858
927.95	4774
928.056	4824
928.162	4839
928.267	4889
928.373	5280
928.479	4824
928.585	4706
928.69	4725
928.796	4774
928.901	4672
929.007	4569
929.112	4687
929.218	4626
929.323	4615
929.428	4565
929.533	4702
929.638	4527
929.743	4554
929.848	4554
929.953	4500
930.058	4443
930.163	4352
930.267	4318
930.372	4440
930.477	4299
930.581	4432
930.685	4310
930.79	4284
930.894	4299
930.998	4265
931.103	4398
931.207	4120
931.311	4078
931.415	4006
931.519	3941
931.623	3979
