Data from glass_V78500241_2061.txt Node
Date: Wed Sep 01 19:28:47 CST 2021
User: usil
Spectrometer: V785-0024
Trigger mode: 0
Integration Time (sec): 4.000000E-1
Scans to average: 1
Nonlinearity correction enabled: false
Boxcar width: 0
Storing dark spectrum: false
XAxis mode: Wavelengths
Number of Pixels in Spectrum: 1024
>>>>>Begin Spectral Data<<<<<
801.071	3717
801.214	3724
801.356	3690
801.499	3747
801.641	3755
801.783	3781
801.926	3861
802.068	3819
802.211	3854
802.353	3876
802.496	3789
802.638	3884
802.78	3922
802.923	3945
803.065	3884
803.208	3915
803.35	3899
803.492	3838
803.635	3926
803.777	3812
803.919	3918
804.061	4177
804.204	3960
804.346	3956
804.488	3934
804.63	4010
804.773	3972
804.915	4032
805.057	4162
805.199	4055
805.341	4074
805.483	4116
805.626	4090
805.768	4109
805.91	4227
806.052	4238
806.194	4227
806.336	4371
806.478	4234
806.62	4211
806.762	4207
806.904	4242
807.046	4322
807.188	4272
807.33	4162
807.472	4242
807.614	4181
807.756	4272
807.898	4181
808.04	4204
808.182	4280
808.324	4276
808.465	4318
808.607	4443
808.749	4451
808.891	4455
809.033	4478
809.174	4428
809.316	4265
809.458	4242
809.6	4166
809.741	4215
809.883	4162
810.025	4188
810.166	4185
810.308	4238
810.45	4291
810.591	4207
810.733	4276
810.875	4493
811.016	4858
811.158	5090
811.299	5269
811.441	5284
811.582	5060
811.724	4660
811.865	4508
812.007	4478
812.148	4386
812.29	4344
812.431	4371
812.573	4402
812.714	4344
812.855	4402
812.997	4390
813.138	4493
813.279	4371
813.421	4367
813.562	4398
813.703	4329
813.845	4287
813.986	4272
814.127	4211
814.268	4246
814.41	4268
814.551	4249
814.692	4337
814.833	4238
814.974	4276
815.115	4287
815.256	4272
815.397	4253
815.539	4234
815.68	4215
815.821	4219
815.962	4272
816.103	4284
816.244	4261
816.385	4238
816.526	4272
816.666	4200
816.807	4112
816.948	4181
817.089	4200
817.23	4109
817.371	4044
817.512	4025
817.653	4044
817.793	4074
817.934	4032
818.075	4063
818.216	4093
818.356	4063
818.497	4017
818.638	3880
818.778	3880
818.919	3899
819.06	3861
819.2	3899
819.341	3827
819.481	3846
819.622	3903
819.762	4017
819.903	3991
820.043	3823
820.184	3804
820.324	3831
820.465	3857
820.605	3846
820.746	3869
820.886	3804
821.026	3884
821.167	3915
821.307	3945
821.447	4010
821.588	3953
821.728	3937
821.868	3953
822.008	3884
822.149	3896
822.289	3918
822.429	3785
822.569	3747
822.709	3800
822.849	3709
822.99	3679
823.13	3770
823.27	3781
823.41	3709
823.55	3717
823.69	3701
823.83	3762
823.97	3660
824.11	3561
824.25	3580
824.389	3637
824.529	3679
824.669	3671
824.809	3736
824.949	3732
825.089	3698
825.228	3690
825.368	3595
825.508	3584
825.648	3534
825.787	3595
825.927	3644
826.067	3637
826.206	3644
826.346	3785
826.485	3865
826.625	3865
826.765	3903
826.904	3808
827.044	3618
827.183	3523
827.323	3424
827.462	3507
827.601	3405
827.741	3416
827.88	3409
828.02	3401
828.159	3424
828.298	3469
828.437	3545
828.577	3488
828.716	3568
828.855	3481
828.994	3405
829.134	3325
829.273	3374
829.412	3378
829.551	3340
829.69	3348
829.829	3416
829.968	3454
830.107	3454
830.246	3420
830.385	3370
830.524	3363
830.663	3283
830.802	3237
830.941	3199
831.08	3233
831.219	3256
831.357	3260
831.496	3420
831.635	3245
831.774	3176
831.913	3188
832.051	3150
832.19	3138
832.329	3211
832.467	3154
832.606	3112
832.744	3146
832.883	3214
833.022	3207
833.16	3272
833.299	3313
833.437	3321
833.576	3348
833.714	3374
833.852	3401
833.991	3454
834.129	3473
834.267	3458
834.406	3382
834.544	3409
834.682	3424
834.821	3431
834.959	3553
835.097	3435
835.235	3534
835.373	3526
835.511	3496
835.65	3443
835.788	3450
835.926	3389
836.064	3370
836.202	3405
836.34	3549
836.478	3606
836.615	3526
836.753	3587
836.891	3610
837.029	3587
837.167	3603
837.305	3534
837.443	3553
837.58	3538
837.718	3591
837.856	3515
837.993	3500
838.131	3591
838.269	3576
838.406	3599
838.544	3591
838.681	3481
838.819	3443
838.956	3344
839.094	3374
839.231	3447
839.369	3523
839.506	3728
839.643	3660
839.781	3485
839.918	3469
840.055	3496
840.193	3496
840.33	3542
840.467	3530
840.604	3591
840.742	3785
840.879	3542
841.016	3553
841.153	3587
841.29	3766
841.427	3667
841.564	3694
841.701	3736
841.838	3705
841.975	3671
842.112	3671
842.249	3656
842.385	3637
842.522	3819
842.659	3701
842.796	3682
842.933	3679
843.069	3713
843.206	3736
843.343	3770
843.479	3755
843.616	3819
843.752	3667
843.889	3663
844.025	3850
844.162	3709
844.298	3819
844.435	3766
844.571	3759
844.708	3899
844.844	3964
844.98	4029
845.117	4051
845.253	3888
845.389	3915
845.525	3972
845.661	3998
845.798	3899
845.934	4040
846.07	3979
846.206	4002
846.342	4128
846.478	4010
846.614	3975
846.75	3960
846.886	3899
847.022	3987
847.158	3968
847.294	3945
847.429	4040
847.565	4010
847.701	4246
847.837	3842
847.972	3873
848.108	3987
848.244	3998
848.379	3876
848.515	3812
848.65	3785
848.786	3831
848.921	3842
849.057	3979
849.192	3949
849.328	3892
849.463	3926
849.598	3896
849.734	3869
849.869	3816
850.004	3778
850.14	3804
850.275	3774
850.41	3698
850.545	3759
850.68	3800
850.815	3804
850.95	3793
851.085	3937
851.22	3823
851.355	3869
851.49	3808
851.625	3770
851.76	3781
851.895	3717
852.03	3652
852.165	3797
852.299	3857
852.434	3915
852.569	3861
852.703	3861
852.838	3930
852.973	3991
853.107	3979
853.242	3857
853.376	3831
853.511	3793
853.645	3831
853.78	3972
853.914	3934
854.048	3888
854.183	3922
854.317	3956
854.451	4010
854.585	3972
854.72	3960
854.854	4048
854.988	3937
855.122	3998
855.256	3934
855.39	3991
855.524	4124
855.658	4116
855.792	4093
855.926	4135
856.06	4154
856.194	4246
856.327	4154
856.461	4124
856.595	4131
856.729	4150
856.862	4238
856.996	4207
857.13	4253
857.263	4287
857.397	4344
857.53	4268
857.664	4363
857.797	4386
857.931	4436
858.064	4371
858.197	4436
858.331	4348
858.464	4402
858.597	4322
858.731	4466
858.864	4432
858.997	4459
859.13	4497
859.263	4538
859.396	4607
859.529	4512
859.662	4500
859.795	4519
859.928	4573
860.061	4744
860.194	4736
860.327	4656
860.46	4599
860.592	4675
860.725	4752
860.858	4752
860.99	4702
861.123	4714
861.256	4637
861.388	4763
861.521	5455
861.653	4748
861.786	4679
861.918	4752
862.05	4797
862.183	4870
862.315	4858
862.447	4904
862.58	4854
862.712	4801
862.844	4801
862.976	4892
863.108	4854
863.24	5147
863.372	4809
863.504	4881
863.636	4904
863.768	4972
863.9	4965
864.032	4919
864.164	4930
864.296	4995
864.428	5094
864.559	5071
864.691	5109
864.823	5094
864.954	5117
865.086	5075
865.217	5113
865.349	5067
865.48	5166
865.612	5201
865.743	5231
865.875	5174
866.006	5178
866.137	5204
866.269	5227
866.4	5269
866.531	5246
866.662	5250
866.793	5299
866.924	5273
867.055	5315
867.186	5292
867.317	5368
867.448	5288
867.579	5322
867.71	5379
867.841	5391
867.972	5433
868.103	5497
868.233	5478
868.364	5535
868.495	5589
868.625	5604
868.756	5722
868.886	5646
869.017	5729
869.147	5821
869.278	5863
869.408	5802
869.539	5874
869.669	5882
869.799	5885
869.929	5980
870.06	6041
870.19	6197
870.32	6178
870.45	6270
870.58	6315
870.71	6460
870.84	6460
870.97	6414
871.1	6399
871.23	6650
871.36	6711
871.489	6616
871.619	6688
871.749	6719
871.879	6878
872.008	6943
872.138	6932
872.267	7008
872.397	6947
872.526	7091
872.656	7137
872.785	7190
872.915	7369
873.044	7525
873.173	7628
873.303	7674
873.432	7761
873.561	7822
873.69	7944
873.819	8005
873.948	8164
874.077	8180
874.206	8320
874.335	8484
874.464	8648
874.593	8834
874.722	9009
874.851	9100
874.979	9207
875.108	9332
875.237	9428
875.365	9454
875.494	9610
875.623	9762
875.751	9816
875.88	9972
876.008	10109
876.136	10272
876.265	10558
876.393	10653
876.521	10706
876.65	10755
876.778	10854
876.906	10911
877.034	10968
877.162	11064
877.29	11124
877.418	11227
877.546	11311
877.674	11376
877.802	11406
877.93	11520
878.058	11596
878.185	11581
878.313	11661
878.441	11745
878.568	11596
878.696	11859
878.824	11840
878.951	11882
879.079	11939
879.206	12102
879.333	12076
879.461	11996
879.588	12034
879.715	12049
879.842	12186
879.97	12064
880.097	11859
880.224	11908
880.351	11832
880.478	11828
880.605	11863
880.732	11855
880.859	11923
880.986	11775
881.112	11817
881.239	11733
881.366	11638
881.493	11638
881.619	11440
881.746	11551
881.872	11558
881.999	11452
882.125	11505
882.252	11509
882.378	11600
882.505	11554
882.631	11353
882.757	11315
882.883	11288
883.01	11254
883.136	11166
883.262	11052
883.388	11060
883.514	11193
883.64	11151
883.766	10984
883.892	10976
884.018	10923
884.143	11086
884.269	11029
884.395	10828
884.52	10717
884.646	10805
884.772	10679
884.897	10649
885.023	10691
885.148	10691
885.274	10679
885.399	10653
885.524	10679
885.65	10588
885.775	10588
885.9	10516
886.025	10512
886.15	10542
886.275	10451
886.4	10379
886.525	10405
886.65	10371
886.775	10367
886.9	10459
887.025	10485
887.149	10325
887.274	10227
887.399	10246
887.523	10090
887.648	10143
887.773	10090
887.897	10166
888.021	10284
888.146	10082
888.27	10291
888.395	10204
888.519	10181
888.643	10169
888.767	10200
888.891	10063
889.015	9960
889.139	9979
889.263	9945
889.387	10051
889.511	10158
889.635	10181
889.759	9895
889.883	9979
890.006	10032
890.13	10158
890.254	9953
890.377	9915
890.501	9797
890.624	9873
890.748	9899
890.871	9797
890.995	9736
891.118	9755
891.241	9667
891.364	9743
891.488	9778
891.611	9720
891.734	9709
891.857	9709
891.98	9610
892.103	9709
892.226	9720
892.349	9610
892.471	9439
892.594	9545
892.717	9656
892.839	9652
892.962	9595
893.085	9663
893.207	9542
893.33	9542
893.452	9500
893.575	9553
893.697	9519
893.819	9595
893.941	9606
894.064	9614
894.186	9382
894.308	9340
894.43	9534
894.552	9564
894.674	9511
894.796	9329
894.918	9378
895.04	9317
895.161	9370
895.283	9329
895.405	9253
895.526	9207
895.648	9264
895.769	9226
895.891	9272
896.012	9313
896.134	9195
896.255	9154
896.376	9142
896.498	9123
896.619	9024
896.74	9055
896.861	9013
896.982	9256
897.103	9291
897.224	9127
897.345	9039
897.466	8971
897.587	8975
897.708	9123
897.828	8921
897.949	9020
898.07	8834
898.19	8880
898.311	8971
898.431	8876
898.552	8925
898.672	8899
898.792	8979
898.913	8861
899.033	8720
899.153	8773
899.273	8648
899.393	8758
899.513	8739
899.633	8674
899.753	8739
899.873	8697
899.993	8781
900.113	8636
900.232	8674
900.352	8716
900.472	8621
900.591	8522
900.711	8556
900.83	8648
900.95	8689
901.069	8678
901.189	8632
901.308	8454
901.427	8431
901.546	8389
901.665	8469
901.784	8450
901.904	8385
902.023	8381
902.141	8180
902.26	8183
902.379	8267
902.498	8229
902.617	8244
902.735	8290
902.854	8263
902.973	8256
903.091	8107
903.21	8119
903.328	8183
903.446	8126
903.565	8039
903.683	8100
903.801	8065
903.919	8126
904.038	8142
904.156	7978
904.274	8092
904.392	8035
904.51	8054
904.627	8016
904.745	8058
904.863	8096
904.981	7951
905.098	7860
905.216	7871
905.334	7830
905.451	7860
905.569	7868
905.686	7982
905.803	7887
905.921	7742
906.038	7822
906.155	7731
906.272	7658
906.389	7742
906.506	7616
906.623	7662
906.74	7563
906.857	7438
906.974	7571
907.091	7655
907.208	7731
907.324	7537
907.441	7559
907.557	7502
907.674	7468
907.79	7392
907.907	7350
908.023	7426
908.139	7396
908.256	7419
908.372	7396
908.488	7362
908.604	7221
908.72	7228
908.836	7335
908.952	7141
909.068	7270
909.184	7331
909.3	7171
909.415	7194
909.531	7266
909.647	7103
909.762	7023
909.878	7065
909.993	7099
910.108	7107
910.224	7084
910.339	7145
910.454	7053
910.57	6989
910.685	7012
910.8	7160
910.915	7099
911.03	7042
911.145	6897
911.259	6802
911.374	6882
911.489	6802
911.604	6848
911.718	6696
911.833	6669
911.947	6654
912.062	6616
912.176	6707
912.291	6726
912.405	6601
912.519	6821
912.633	6787
912.748	6726
912.862	6677
912.976	6566
913.09	6525
913.204	6593
913.318	6631
913.431	6692
913.545	6665
913.659	6745
913.772	6711
913.886	6502
914	6517
914.113	6604
914.226	6616
914.34	6593
914.453	6544
914.566	6627
914.68	6532
914.793	6521
914.906	6399
915.019	6372
915.132	6315
915.245	6410
915.358	6365
915.47	6437
915.583	6456
915.696	6418
915.809	6536
915.921	6536
916.034	6433
916.146	6414
916.259	6426
916.371	6483
916.483	6429
916.595	6448
916.708	6433
916.82	6448
916.932	6403
917.044	6418
917.156	6429
917.268	6277
917.38	6331
917.491	6281
917.603	6353
917.715	6391
917.826	6422
917.938	6331
918.049	6254
918.161	6365
918.272	6410
918.384	6437
918.495	6365
918.606	6224
918.717	6220
918.828	6243
918.939	6254
919.05	6224
919.161	6304
919.272	6125
919.383	6136
919.494	6304
919.604	6429
919.715	6327
919.826	6266
919.936	6224
920.047	6315
920.157	6270
920.267	6441
920.378	6251
920.488	6262
920.598	6429
920.708	6566
920.818	6464
920.928	6532
921.038	6574
921.148	6582
921.258	6285
921.368	6327
921.477	6175
921.587	6163
921.697	6030
921.806	6190
921.916	6030
922.025	5958
922.134	5866
922.244	5893
922.353	5969
922.462	5859
922.571	5824
922.68	5688
922.789	5642
922.898	5657
923.007	5649
923.116	5722
923.224	5661
923.333	5627
923.442	5585
923.55	5566
923.659	5589
923.767	5657
923.876	5520
923.984	5638
924.092	5512
924.201	5497
924.309	5543
924.417	5543
924.525	5501
924.633	5512
924.741	6270
924.849	5391
924.956	5467
925.064	5353
925.172	5315
925.279	5288
925.387	5337
925.494	5288
925.602	5444
925.709	5436
925.816	5296
925.924	5299
926.031	5307
926.138	5277
926.245	5311
926.352	5223
926.459	5341
926.566	5288
926.673	5197
926.779	5143
926.886	5109
926.993	5056
927.099	4991
927.206	4923
927.312	4911
927.419	4999
927.525	4976
927.631	4965
927.737	4896
927.843	4843
927.95	4752
928.056	4828
928.162	4793
928.267	4831
928.373	5242
928.479	4839
928.585	4656
928.69	4725
928.796	4778
928.901	4687
929.007	4588
929.112	4683
929.218	4622
929.323	4584
929.428	4565
929.533	4645
929.638	4512
929.743	4512
929.848	4527
929.953	4546
930.058	4386
930.163	4356
930.267	4314
930.372	4451
930.477	4246
930.581	4432
930.685	4363
930.79	4242
930.894	4303
930.998	4215
931.103	4348
931.207	4150
931.311	4116
931.415	4048
931.519	3892
931.623	3964
