Data from glass_V78500241_2576.txt Node
Date: Wed Sep 01 19:32:21 CST 2021
User: usil
Spectrometer: V785-0024
Trigger mode: 0
Integration Time (sec): 4.000000E-1
Scans to average: 1
Nonlinearity correction enabled: false
Boxcar width: 0
Storing dark spectrum: false
XAxis mode: Wavelengths
Number of Pixels in Spectrum: 1024
>>>>>Begin Spectral Data<<<<<
801.071	3736
801.214	3740
801.356	3671
801.499	3717
801.641	3724
801.783	3778
801.926	3804
802.068	3774
802.211	3865
802.353	3838
802.496	3854
802.638	3896
802.78	3896
802.923	3888
803.065	3880
803.208	3831
803.35	3846
803.492	3899
803.635	3922
803.777	3812
803.919	3873
804.061	4154
804.204	3975
804.346	3949
804.488	3880
804.63	4029
804.773	3991
804.915	3991
805.057	4154
805.199	4032
805.341	4116
805.483	4086
805.626	4109
805.768	4086
805.91	4227
806.052	4211
806.194	4181
806.336	4333
806.478	4215
806.62	4112
806.762	4169
806.904	4227
807.046	4310
807.188	4200
807.33	4177
807.472	4238
807.614	4173
807.756	4287
807.898	4139
808.04	4204
808.182	4246
808.324	4356
808.465	4390
808.607	4447
808.749	4405
808.891	4440
809.033	4500
809.174	4352
809.316	4249
809.458	4246
809.6	4135
809.741	4105
809.883	4124
810.025	4192
810.166	4230
810.308	4185
810.45	4219
810.591	4253
810.733	4299
810.875	4546
811.016	4847
811.158	5094
811.299	5261
811.441	5277
811.582	5014
811.724	4687
811.865	4451
812.007	4489
812.148	4428
812.29	4386
812.431	4402
812.573	4360
812.714	4386
812.855	4348
812.997	4428
813.138	4432
813.279	4413
813.421	4424
813.562	4371
813.703	4291
813.845	4306
813.986	4246
814.127	4261
814.268	4253
814.41	4272
814.551	4238
814.692	4371
814.833	4291
814.974	4295
815.115	4329
815.256	4215
815.397	4207
815.539	4249
815.68	4234
815.821	4162
815.962	4360
816.103	4291
816.244	4207
816.385	4215
816.526	4234
816.666	4211
816.807	4059
816.948	4162
817.089	4169
817.23	4097
817.371	4013
817.512	4097
817.653	4074
817.793	3994
817.934	3983
818.075	4074
818.216	4051
818.356	4109
818.497	3953
818.638	3922
818.778	3892
818.919	3899
819.06	3819
819.2	3903
819.341	3842
819.481	3838
819.622	3899
819.762	4010
819.903	3953
820.043	3876
820.184	3838
820.324	3816
820.465	3876
820.605	3876
820.746	3846
820.886	3800
821.026	3934
821.167	3918
821.307	3987
821.447	3960
821.588	3941
821.728	3892
821.868	3911
822.008	3869
822.149	3857
822.289	3880
822.429	3762
822.569	3736
822.709	3812
822.849	3682
822.99	3720
823.13	3724
823.27	3774
823.41	3698
823.55	3705
823.69	3728
823.83	3766
823.97	3618
824.11	3584
824.25	3568
824.389	3591
824.529	3690
824.669	3656
824.809	3698
824.949	3720
825.089	3743
825.228	3728
825.368	3568
825.508	3526
825.648	3545
825.787	3580
825.927	3656
826.067	3587
826.206	3656
826.346	3793
826.485	3854
826.625	3850
826.765	3937
826.904	3819
827.044	3614
827.183	3515
827.323	3412
827.462	3492
827.601	3389
827.741	3405
827.88	3435
828.02	3340
828.159	3450
828.298	3454
828.437	3511
828.577	3450
828.716	3584
828.855	3511
828.994	3367
829.134	3332
829.273	3393
829.412	3321
829.551	3359
829.69	3367
829.829	3447
829.968	3496
830.107	3409
830.246	3416
830.385	3393
830.524	3329
830.663	3310
830.802	3241
830.941	3207
831.08	3169
831.219	3283
831.357	3253
831.496	3401
831.635	3249
831.774	3173
831.913	3180
832.051	3119
832.19	3131
832.329	3222
832.467	3097
832.606	3157
832.744	3146
832.883	3180
833.022	3211
833.16	3233
833.299	3298
833.437	3336
833.576	3386
833.714	3378
833.852	3405
833.991	3431
834.129	3431
834.267	3462
834.406	3412
834.544	3382
834.682	3393
834.821	3439
834.959	3542
835.097	3447
835.235	3496
835.373	3473
835.511	3507
835.65	3458
835.788	3466
835.926	3378
836.064	3382
836.202	3374
836.34	3557
836.478	3644
836.615	3526
836.753	3595
836.891	3644
837.029	3603
837.167	3564
837.305	3526
837.443	3507
837.58	3496
837.718	3599
837.856	3568
837.993	3538
838.131	3595
838.269	3580
838.406	3557
838.544	3591
838.681	3488
838.819	3477
838.956	3378
839.094	3397
839.231	3439
839.369	3496
839.506	3690
839.643	3629
839.781	3488
839.918	3462
840.055	3488
840.193	3492
840.33	3519
840.467	3515
840.604	3591
840.742	3823
840.879	3519
841.016	3580
841.153	3603
841.29	3770
841.427	3717
841.564	3701
841.701	3774
841.838	3644
841.975	3633
842.112	3701
842.249	3599
842.385	3618
842.522	3842
842.659	3663
842.796	3667
842.933	3713
843.069	3656
843.206	3713
843.343	3816
843.479	3766
843.616	3804
843.752	3717
843.889	3641
844.025	3846
844.162	3724
844.298	3819
844.435	3778
844.571	3766
844.708	3880
844.844	3983
844.98	4013
845.117	4013
845.253	3911
845.389	3907
845.525	3960
845.661	3945
845.798	3930
845.934	3987
846.07	3892
846.206	4036
846.342	4105
846.478	4074
846.614	3907
846.75	3911
846.886	3907
847.022	3998
847.158	3922
847.294	3983
847.429	4021
847.565	3998
847.701	4200
847.837	3838
847.972	3857
848.108	4025
848.244	4002
848.379	3861
848.515	3823
848.65	3781
848.786	3880
848.921	3842
849.057	3896
849.192	3945
849.328	3888
849.463	3903
849.598	3888
849.734	3850
849.869	3751
850.004	3785
850.14	3804
850.275	3774
850.41	3743
850.545	3755
850.68	3762
850.815	3774
850.95	3800
851.085	3911
851.22	3854
851.355	3823
851.49	3774
851.625	3751
851.76	3816
851.895	3751
852.03	3728
852.165	3850
852.299	3823
852.434	3884
852.569	3865
852.703	3854
852.838	3903
852.973	4006
853.107	3972
853.242	3861
853.376	3831
853.511	3812
853.645	3827
853.78	3949
853.914	3869
854.048	3907
854.183	3846
854.317	3964
854.451	4017
854.585	3987
854.72	3934
854.854	4090
854.988	3911
855.122	3987
855.256	3903
855.39	3987
855.524	4124
855.658	4101
855.792	4109
855.926	4109
856.06	4139
856.194	4188
856.327	4124
856.461	4109
856.595	4173
856.729	4124
856.862	4291
856.996	4227
857.13	4295
857.263	4348
857.397	4344
857.53	4276
857.664	4314
857.797	4360
857.931	4436
858.064	4383
858.197	4421
858.331	4398
858.464	4329
858.597	4337
858.731	4398
858.864	4443
858.997	4443
859.13	4523
859.263	4519
859.396	4573
859.529	4500
859.662	4512
859.795	4538
859.928	4588
860.061	4683
860.194	4710
860.327	4645
860.46	4577
860.592	4721
860.725	4755
860.858	4755
860.99	4683
861.123	4717
861.256	4649
861.388	4778
861.521	5357
861.653	4733
861.786	4687
861.918	4778
862.05	4752
862.183	4843
862.315	4858
862.447	4938
862.58	4862
862.712	4805
862.844	4729
862.976	4866
863.108	4835
863.24	5109
863.372	4843
863.504	4896
863.636	4862
863.768	4965
863.9	4923
864.032	4934
864.164	4930
864.296	5029
864.428	5067
864.559	5090
864.691	5086
864.823	5113
864.954	5102
865.086	5124
865.217	5166
865.349	5098
865.48	5124
865.612	5208
865.743	5269
865.875	5174
866.006	5117
866.137	5197
866.269	5208
866.4	5204
866.531	5254
866.662	5212
866.793	5193
866.924	5254
867.055	5357
867.186	5315
867.317	5242
867.448	5345
867.579	5368
867.71	5357
867.841	5353
867.972	5463
868.103	5452
868.233	5459
868.364	5497
868.495	5528
868.625	5638
868.756	5779
868.886	5668
869.017	5745
869.147	5805
869.278	5874
869.408	5840
869.539	5805
869.669	5931
869.799	5874
869.929	5927
870.06	6034
870.19	6136
870.32	6228
870.45	6224
870.58	6380
870.71	6418
870.84	6426
870.97	6441
871.1	6403
871.23	6646
871.36	6642
871.489	6623
871.619	6734
871.749	6772
871.879	6840
872.008	6989
872.138	7012
872.267	6985
872.397	7023
872.526	7061
872.656	7095
872.785	7129
872.915	7320
873.044	7468
873.173	7521
873.303	7601
873.432	7765
873.561	7852
873.69	7917
873.819	7970
873.948	8126
874.077	8263
874.206	8244
874.335	8419
874.464	8579
874.593	8773
874.722	8899
874.851	9093
874.979	9245
875.108	9325
875.237	9469
875.365	9443
875.494	9694
875.623	9827
875.751	9804
875.88	10002
876.008	10101
876.136	10246
876.265	10558
876.393	10725
876.521	10645
876.65	10782
876.778	10858
876.906	10892
877.034	10900
877.162	11132
877.29	11201
877.418	11299
877.546	11334
877.674	11395
877.802	11486
877.93	11520
878.058	11535
878.185	11543
878.313	11623
878.441	11786
878.568	11615
878.696	11821
878.824	11870
878.951	11889
879.079	11980
879.206	12125
879.333	12034
879.461	12011
879.588	12038
879.715	12049
879.842	12254
879.97	12034
880.097	11889
880.224	11965
880.351	11882
880.478	11843
880.605	11783
880.732	11821
880.859	11939
880.986	11779
881.112	11965
881.239	11703
881.366	11558
881.493	11668
881.619	11497
881.746	11554
881.872	11501
881.999	11558
882.125	11459
882.252	11581
882.378	11535
882.505	11543
882.631	11292
882.757	11322
882.883	11280
883.01	11189
883.136	11204
883.262	11174
883.388	11022
883.514	11178
883.64	11159
883.766	11113
883.892	11041
884.018	11029
884.143	11003
884.269	11105
884.395	10911
884.52	10774
884.646	10809
884.772	10630
884.897	10668
885.023	10721
885.148	10755
885.274	10793
885.399	10691
885.524	10588
885.65	10641
885.775	10588
885.9	10546
886.025	10599
886.15	10573
886.275	10512
886.4	10367
886.525	10398
886.65	10409
886.775	10242
886.9	10500
887.025	10519
887.149	10268
887.274	10249
887.399	10185
887.523	10139
887.648	10116
887.773	10162
887.897	10215
888.021	10246
888.146	10116
888.27	10265
888.395	10227
888.519	10173
888.643	10090
888.767	10166
888.891	10086
889.015	9945
889.139	10071
889.263	9972
889.387	9945
889.511	10086
889.635	10029
889.759	9994
889.883	10067
890.006	9994
890.13	10139
890.254	9918
890.377	9953
890.501	9876
890.624	9880
890.748	9819
890.871	9770
890.995	9751
891.118	9728
891.241	9762
891.364	9778
891.488	9831
891.611	9781
891.734	9770
891.857	9652
891.98	9713
892.103	9819
892.226	9656
892.349	9656
892.471	9504
892.594	9580
892.717	9686
892.839	9671
892.962	9663
893.085	9774
893.207	9610
893.33	9515
893.452	9507
893.575	9603
893.697	9507
893.819	9618
893.941	9633
894.064	9690
894.186	9488
894.308	9450
894.43	9492
894.552	9549
894.674	9492
894.796	9340
894.918	9405
895.04	9298
895.161	9405
895.283	9336
895.405	9173
895.526	9173
895.648	9268
895.769	9207
895.891	9275
896.012	9306
896.134	9233
896.255	9142
896.376	9051
896.498	9203
896.619	9169
896.74	9047
896.861	9146
896.982	9279
897.103	9279
897.224	9154
897.345	9104
897.466	8941
897.587	8979
897.708	9051
897.828	9047
897.949	8948
898.07	8883
898.19	8899
898.311	9009
898.431	8834
898.552	8918
898.672	8891
898.792	8891
898.913	8857
899.033	8773
899.153	8804
899.273	8667
899.393	8701
899.513	8849
899.633	8674
899.753	8777
899.873	8697
899.993	8804
900.113	8739
900.232	8754
900.352	8689
900.472	8655
900.591	8590
900.711	8606
900.83	8503
900.95	8686
901.069	8689
901.189	8484
901.308	8480
901.427	8332
901.546	8381
901.665	8469
901.784	8446
901.904	8370
902.023	8339
902.141	8214
902.26	8199
902.379	8301
902.498	8180
902.617	8187
902.735	8275
902.854	8240
902.973	8225
903.091	8107
903.21	8138
903.328	8210
903.446	8115
903.565	8107
903.683	8065
903.801	8073
903.919	8164
904.038	8138
904.156	8012
904.274	8096
904.392	8058
904.51	8008
904.627	8092
904.745	7986
904.863	8077
904.981	7944
905.098	7871
905.216	7811
905.334	7875
905.451	7917
905.569	7955
905.686	7898
905.803	7940
905.921	7780
906.038	7913
906.155	7788
906.272	7696
906.389	7700
906.506	7685
906.623	7620
906.74	7590
906.857	7548
906.974	7552
907.091	7658
907.208	7719
907.324	7647
907.441	7559
907.557	7449
907.674	7426
907.79	7411
907.907	7434
908.023	7381
908.139	7411
908.256	7419
908.372	7358
908.488	7354
908.604	7312
908.72	7217
908.836	7270
908.952	7190
909.068	7213
909.184	7316
909.3	7255
909.415	7236
909.531	7305
909.647	7122
909.762	7133
909.878	7069
909.993	7088
910.108	7088
910.224	7004
910.339	7137
910.454	7031
910.57	6996
910.685	6882
910.8	7175
910.915	7050
911.03	6973
911.145	6878
911.259	6867
911.374	6901
911.489	6798
911.604	6802
911.718	6688
911.833	6787
911.947	6684
912.062	6589
912.176	6692
912.291	6681
912.405	6684
912.519	6844
912.633	6821
912.748	6722
912.862	6719
912.976	6585
913.09	6475
913.204	6502
913.318	6642
913.431	6616
913.545	6631
913.659	6734
913.772	6635
913.886	6528
914	6513
914.113	6566
914.226	6616
914.34	6601
914.453	6498
914.566	6616
914.68	6517
914.793	6456
914.906	6365
915.019	6418
915.132	6380
915.245	6319
915.358	6464
915.47	6437
915.583	6445
915.696	6544
915.809	6521
915.921	6555
916.034	6372
916.146	6410
916.259	6365
916.371	6467
916.483	6452
916.595	6380
916.708	6456
916.82	6403
916.932	6369
917.044	6399
917.156	6399
917.268	6289
917.38	6334
917.491	6258
917.603	6235
917.715	6426
917.826	6433
917.938	6361
918.049	6224
918.161	6342
918.272	6407
918.384	6395
918.495	6353
918.606	6228
918.717	6224
918.828	6281
918.939	6220
919.05	6163
919.161	6243
919.272	6034
919.383	6152
919.494	6304
919.604	6452
919.715	6262
919.826	6201
919.936	6281
920.047	6376
920.157	6205
920.267	6433
920.378	6289
920.488	6338
920.598	6464
920.708	6513
920.818	6471
920.928	6418
921.038	6578
921.148	6570
921.258	6369
921.368	6270
921.477	6190
921.587	6213
921.697	6095
921.806	6129
921.916	6060
922.025	5920
922.134	5908
922.244	5863
922.353	5897
922.462	5851
922.571	5775
922.68	5646
922.789	5707
922.898	5710
923.007	5642
923.116	5695
923.224	5680
923.333	5653
923.442	5630
923.55	5554
923.659	5581
923.767	5615
923.876	5543
923.984	5581
924.092	5497
924.201	5554
924.309	5562
924.417	5573
924.525	5516
924.633	5497
924.741	6258
924.849	5372
924.956	5459
925.064	5383
925.172	5303
925.279	5269
925.387	5368
925.494	5303
925.602	5414
925.709	5360
925.816	5242
925.924	5280
926.031	5341
926.138	5292
926.245	5307
926.352	5185
926.459	5284
926.566	5296
926.673	5178
926.779	5075
926.886	5117
926.993	5086
927.099	4984
927.206	4938
927.312	4980
927.419	4995
927.525	4919
927.631	5014
927.737	4870
927.843	4839
927.95	4786
928.056	4816
928.162	4801
928.267	4877
928.373	5231
928.479	4824
928.585	4645
928.69	4786
928.796	4744
928.901	4668
929.007	4554
929.112	4645
929.218	4622
929.323	4580
929.428	4577
929.533	4611
929.638	4493
929.743	4569
929.848	4519
929.953	4508
930.058	4455
930.163	4287
930.267	4329
930.372	4455
930.477	4291
930.581	4432
930.685	4390
930.79	4265
930.894	4268
930.998	4261
931.103	4360
931.207	4124
931.311	4093
931.415	4025
931.519	3922
931.623	3930
