Data from glass_V78500241_2377.txt Node
Date: Wed Sep 01 19:30:58 CST 2021
User: usil
Spectrometer: V785-0024
Trigger mode: 0
Integration Time (sec): 4.000000E-1
Scans to average: 1
Nonlinearity correction enabled: false
Boxcar width: 0
Storing dark spectrum: false
XAxis mode: Wavelengths
Number of Pixels in Spectrum: 1024
>>>>>Begin Spectral Data<<<<<
801.071	3698
801.214	3732
801.356	3701
801.499	3755
801.641	3743
801.783	3759
801.926	3876
802.068	3804
802.211	3873
802.353	3888
802.496	3835
802.638	3873
802.78	3880
802.923	3937
803.065	3873
803.208	3819
803.35	3861
803.492	3937
803.635	3896
803.777	3762
803.919	3956
804.061	4150
804.204	3934
804.346	3922
804.488	3934
804.63	4051
804.773	3934
804.915	4010
805.057	4124
805.199	4048
805.341	4071
805.483	4147
805.626	4086
805.768	4143
805.91	4185
806.052	4211
806.194	4177
806.336	4348
806.478	4249
806.62	4135
806.762	4166
806.904	4227
807.046	4348
807.188	4207
807.33	4158
807.472	4207
807.614	4166
807.756	4261
807.898	4215
808.04	4268
808.182	4249
808.324	4257
808.465	4398
808.607	4459
808.749	4417
808.891	4474
809.033	4519
809.174	4421
809.316	4253
809.458	4223
809.6	4105
809.741	4162
809.883	4116
810.025	4211
810.166	4200
810.308	4207
810.45	4268
810.591	4181
810.733	4291
810.875	4497
811.016	4782
811.158	5102
811.299	5261
811.441	5273
811.582	5083
811.724	4683
811.865	4451
812.007	4462
812.148	4436
812.29	4455
812.431	4383
812.573	4360
812.714	4390
812.855	4432
812.997	4386
813.138	4459
813.279	4451
813.421	4375
813.562	4348
813.703	4344
813.845	4341
813.986	4242
814.127	4200
814.268	4261
814.41	4265
814.551	4303
814.692	4310
814.833	4261
814.974	4303
815.115	4306
815.256	4188
815.397	4219
815.539	4265
815.68	4200
815.821	4242
815.962	4318
816.103	4287
816.244	4242
816.385	4223
816.526	4291
816.666	4200
816.807	4090
816.948	4131
817.089	4158
817.23	4082
817.371	4078
817.512	4078
817.653	4086
817.793	4032
817.934	4040
818.075	4090
818.216	4059
818.356	4090
818.497	3979
818.638	3949
818.778	3888
818.919	3907
819.06	3823
819.2	3896
819.341	3869
819.481	3865
819.622	3899
819.762	4029
819.903	3937
820.043	3873
820.184	3827
820.324	3842
820.465	3838
820.605	3869
820.746	3846
820.886	3812
821.026	3915
821.167	3884
821.307	3934
821.447	3934
821.588	3937
821.728	3949
821.868	3945
822.008	3884
822.149	3869
822.289	3953
822.429	3785
822.569	3774
822.709	3728
822.849	3717
822.99	3740
823.13	3785
823.27	3819
823.41	3709
823.55	3747
823.69	3701
823.83	3701
823.97	3690
824.11	3610
824.25	3633
824.389	3606
824.529	3671
824.669	3652
824.809	3682
824.949	3705
825.089	3728
825.228	3743
825.368	3572
825.508	3542
825.648	3599
825.787	3584
825.927	3603
826.067	3652
826.206	3675
826.346	3755
826.485	3812
826.625	3823
826.765	3949
826.904	3838
827.044	3614
827.183	3519
827.323	3420
827.462	3530
827.601	3435
827.741	3409
827.88	3409
828.02	3355
828.159	3454
828.298	3466
828.437	3561
828.577	3431
828.716	3530
828.855	3469
828.994	3355
829.134	3344
829.273	3378
829.412	3359
829.551	3321
829.69	3363
829.829	3420
829.968	3530
830.107	3443
830.246	3401
830.385	3378
830.524	3378
830.663	3298
830.802	3207
830.941	3180
831.08	3161
831.219	3268
831.357	3253
831.496	3397
831.635	3245
831.774	3157
831.913	3214
832.051	3108
832.19	3142
832.329	3233
832.467	3093
832.606	3119
832.744	3150
832.883	3211
833.022	3195
833.16	3264
833.299	3291
833.437	3298
833.576	3351
833.714	3416
833.852	3458
833.991	3416
834.129	3481
834.267	3428
834.406	3355
834.544	3401
834.682	3397
834.821	3401
834.959	3564
835.097	3424
835.235	3519
835.373	3477
835.511	3511
835.65	3424
835.788	3473
835.926	3348
836.064	3405
836.202	3412
836.34	3545
836.478	3568
836.615	3530
836.753	3622
836.891	3614
837.029	3599
837.167	3564
837.305	3572
837.443	3526
837.58	3492
837.718	3557
837.856	3523
837.993	3519
838.131	3606
838.269	3606
838.406	3519
838.544	3553
838.681	3492
838.819	3431
838.956	3348
839.094	3386
839.231	3435
839.369	3488
839.506	3736
839.643	3587
839.781	3439
839.918	3469
840.055	3530
840.193	3515
840.33	3496
840.467	3526
840.604	3584
840.742	3793
840.879	3515
841.016	3599
841.153	3584
841.29	3755
841.427	3732
841.564	3698
841.701	3709
841.838	3701
841.975	3663
842.112	3728
842.249	3652
842.385	3606
842.522	3857
842.659	3682
842.796	3656
842.933	3762
843.069	3740
843.206	3705
843.343	3793
843.479	3812
843.616	3793
843.752	3671
843.889	3686
844.025	3846
844.162	3717
844.298	3850
844.435	3793
844.571	3747
844.708	3865
844.844	4010
844.98	3979
845.117	4017
845.253	3896
845.389	3911
845.525	3937
845.661	3926
845.798	3899
845.934	4006
846.07	3937
846.206	4074
846.342	4097
846.478	4090
846.614	3945
846.75	3907
846.886	3850
847.022	3998
847.158	3975
847.294	3972
847.429	4040
847.565	4006
847.701	4207
847.837	3873
847.972	3873
848.108	3953
848.244	3979
848.379	3808
848.515	3785
848.65	3800
848.786	3857
848.921	3850
849.057	3911
849.192	3941
849.328	3884
849.463	3865
849.598	3888
849.734	3842
849.869	3793
850.004	3797
850.14	3804
850.275	3778
850.41	3755
850.545	3724
850.68	3747
850.815	3781
850.95	3781
851.085	3934
851.22	3861
851.355	3793
851.49	3789
851.625	3751
851.76	3800
851.895	3690
852.03	3724
852.165	3789
852.299	3812
852.434	3876
852.569	3850
852.703	3903
852.838	3964
852.973	3998
853.107	3972
853.242	3835
853.376	3831
853.511	3781
853.645	3804
853.78	3918
853.914	3880
854.048	3876
854.183	3873
854.317	3945
854.451	4048
854.585	3941
854.72	3949
854.854	4040
854.988	3915
855.122	4013
855.256	3960
855.39	4048
855.524	4120
855.658	4086
855.792	4154
855.926	4067
856.06	4150
856.194	4139
856.327	4124
856.461	4139
856.595	4169
856.729	4158
856.862	4284
856.996	4249
857.13	4295
857.263	4329
857.397	4329
857.53	4291
857.664	4322
857.797	4348
857.931	4394
858.064	4390
858.197	4428
858.331	4390
858.464	4386
858.597	4310
858.731	4424
858.864	4432
858.997	4443
859.13	4497
859.263	4542
859.396	4573
859.529	4504
859.662	4485
859.795	4516
859.928	4584
860.061	4714
860.194	4717
860.327	4641
860.46	4645
860.592	4729
860.725	4740
860.858	4771
860.99	4698
861.123	4668
861.256	4679
861.388	4801
861.521	5493
861.653	4736
861.786	4694
861.918	4748
862.05	4793
862.183	4812
862.315	4896
862.447	4953
862.58	4896
862.712	4755
862.844	4748
862.976	4892
863.108	4866
863.24	5208
863.372	4782
863.504	4892
863.636	4904
863.768	4946
863.9	4984
864.032	4900
864.164	4965
864.296	5052
864.428	5113
864.559	5056
864.691	5060
864.823	5083
864.954	5086
865.086	5136
865.217	5067
865.349	5109
865.48	5178
865.612	5193
865.743	5296
865.875	5193
866.006	5170
866.137	5223
866.269	5216
866.4	5261
866.531	5239
866.662	5250
866.793	5265
866.924	5246
867.055	5345
867.186	5337
867.317	5311
867.448	5307
867.579	5379
867.71	5296
867.841	5391
867.972	5406
868.103	5452
868.233	5493
868.364	5471
868.495	5573
868.625	5676
868.756	5764
868.886	5707
869.017	5718
869.147	5847
869.278	5840
869.408	5821
869.539	5786
869.669	5920
869.799	5920
869.929	5950
870.06	6053
870.19	6155
870.32	6163
870.45	6235
870.58	6319
870.71	6448
870.84	6422
870.97	6403
871.1	6429
871.23	6631
871.36	6684
871.489	6658
871.619	6703
871.749	6783
871.879	6863
872.008	6947
872.138	6954
872.267	7000
872.397	6901
872.526	6996
872.656	7072
872.785	7206
872.915	7327
873.044	7533
873.173	7537
873.303	7586
873.432	7776
873.561	7928
873.69	7951
873.819	7989
873.948	8240
874.077	8271
874.206	8328
874.335	8434
874.464	8705
874.593	8880
874.722	8891
874.851	9119
874.979	9253
875.108	9374
875.237	9408
875.365	9424
875.494	9614
875.623	9827
875.751	9816
875.88	9979
876.008	10185
876.136	10181
876.265	10481
876.393	10797
876.521	10759
876.65	10812
876.778	10927
876.906	10892
877.034	10961
877.162	11189
877.29	11189
877.418	11261
877.546	11280
877.674	11402
877.802	11471
877.93	11539
878.058	11535
878.185	11547
878.313	11615
878.441	11737
878.568	11688
878.696	11847
878.824	11843
878.951	11954
879.079	12038
879.206	12110
879.333	12038
879.461	12083
879.588	12019
879.715	12095
879.842	12270
879.97	12019
880.097	11901
880.224	11847
880.351	11851
880.478	11904
880.605	11885
880.732	11828
880.859	11939
880.986	11889
881.112	11836
881.239	11764
881.366	11707
881.493	11714
881.619	11630
881.746	11528
881.872	11600
881.999	11516
882.125	11421
882.252	11581
882.378	11455
882.505	11543
882.631	11425
882.757	11261
882.883	11330
883.01	11231
883.136	11246
883.262	11079
883.388	11060
883.514	11227
883.64	11239
883.766	11166
883.892	11010
884.018	10991
884.143	11124
884.269	11189
884.395	10824
884.52	10767
884.646	10809
884.772	10641
884.897	10702
885.023	10653
885.148	10691
885.274	10850
885.399	10729
885.524	10603
885.65	10577
885.775	10611
885.9	10573
886.025	10668
886.15	10588
886.275	10428
886.4	10386
886.525	10493
886.65	10337
886.775	10371
886.9	10417
887.025	10478
887.149	10341
887.274	10242
887.399	10215
887.523	10219
887.648	10135
887.773	10177
887.897	10207
888.021	10162
888.146	10063
888.27	10200
888.395	10154
888.519	10139
888.643	10169
888.767	10166
888.891	10006
889.015	10017
889.139	9960
889.263	9968
889.387	10036
889.511	10131
889.635	10040
889.759	9930
889.883	9907
890.006	9994
890.13	10048
890.254	9865
890.377	9975
890.501	9854
890.624	9880
890.748	9857
890.871	9892
890.995	9717
891.118	9736
891.241	9781
891.364	9755
891.488	9880
891.611	9713
891.734	9713
891.857	9808
891.98	9804
892.103	9740
892.226	9717
892.349	9694
892.471	9553
892.594	9625
892.717	9584
892.839	9568
892.962	9584
893.085	9648
893.207	9595
893.33	9492
893.452	9553
893.575	9633
893.697	9488
893.819	9648
893.941	9606
894.064	9690
894.186	9431
894.308	9443
894.43	9530
894.552	9603
894.674	9504
894.796	9393
894.918	9348
895.04	9351
895.161	9370
895.283	9439
895.405	9249
895.526	9325
895.648	9218
895.769	9180
895.891	9241
896.012	9260
896.134	9180
896.255	9207
896.376	9203
896.498	9127
896.619	9074
896.74	9062
896.861	9097
896.982	9180
897.103	9363
897.224	9169
897.345	9093
897.466	9009
897.587	8967
897.708	9150
897.828	9017
897.949	9005
898.07	8891
898.19	8933
898.311	9013
898.431	8941
898.552	8895
898.672	8998
898.792	8956
898.913	8944
899.033	8819
899.153	8746
899.273	8644
899.393	8655
899.513	8659
899.633	8781
899.753	8655
899.873	8667
899.993	8720
900.113	8762
900.232	8743
900.352	8739
900.472	8606
900.591	8495
900.711	8625
900.83	8526
900.95	8629
901.069	8587
901.189	8571
901.308	8442
901.427	8377
901.546	8396
901.665	8442
901.784	8507
901.904	8328
902.023	8385
902.141	8336
902.26	8161
902.379	8290
902.498	8183
902.617	8271
902.735	8267
902.854	8271
902.973	8294
903.091	8176
903.21	8126
903.328	8153
903.446	8115
903.565	8073
903.683	8115
903.801	8103
903.919	8111
904.038	8130
904.156	7978
904.274	8092
904.392	8005
904.51	7963
904.627	8088
904.745	8008
904.863	8126
904.981	7993
905.098	7845
905.216	7887
905.334	7909
905.451	7917
905.569	7868
905.686	7871
905.803	7894
905.921	7765
906.038	7868
906.155	7780
906.272	7685
906.389	7746
906.506	7670
906.623	7674
906.74	7590
906.857	7544
906.974	7636
907.091	7624
907.208	7742
907.324	7666
907.441	7582
907.557	7388
907.674	7514
907.79	7415
907.907	7415
908.023	7422
908.139	7415
908.256	7343
908.372	7331
908.488	7403
908.604	7285
908.72	7202
908.836	7305
908.952	7160
909.068	7312
909.184	7343
909.3	7202
909.415	7305
909.531	7289
909.647	7126
909.762	7069
909.878	7095
909.993	7088
910.108	7118
910.224	7046
910.339	7103
910.454	7019
910.57	7000
910.685	6977
910.8	7149
910.915	7023
911.03	7019
911.145	6886
911.259	6856
911.374	6894
911.489	6829
911.604	6757
911.718	6677
911.833	6779
911.947	6555
912.062	6593
912.176	6627
912.291	6696
912.405	6703
912.519	6806
912.633	6795
912.748	6734
912.862	6608
912.976	6585
913.09	6551
913.204	6566
913.318	6639
913.431	6673
913.545	6623
913.659	6677
913.772	6612
913.886	6551
914	6563
914.113	6696
914.226	6601
914.34	6616
914.453	6513
914.566	6604
914.68	6517
914.793	6517
914.906	6376
915.019	6391
915.132	6376
915.245	6433
915.358	6448
915.47	6433
915.583	6445
915.696	6429
915.809	6486
915.921	6509
916.034	6399
916.146	6376
916.259	6361
916.371	6513
916.483	6410
916.595	6410
916.708	6407
916.82	6369
916.932	6426
917.044	6365
917.156	6388
917.268	6315
917.38	6292
917.491	6384
917.603	6315
917.715	6388
917.826	6441
917.938	6342
918.049	6205
918.161	6331
918.272	6410
918.384	6452
918.495	6308
918.606	6296
918.717	6251
918.828	6285
918.939	6296
919.05	6159
919.161	6213
919.272	6114
919.383	6121
919.494	6311
919.604	6452
919.715	6315
919.826	6216
919.936	6194
920.047	6342
920.157	6277
920.267	6486
920.378	6334
920.488	6262
920.598	6429
920.708	6547
920.818	6467
920.928	6452
921.038	6654
921.148	6597
921.258	6353
921.368	6296
921.477	6262
921.587	6171
921.697	6076
921.806	6159
921.916	6121
922.025	5946
922.134	5946
922.244	5851
922.353	5969
922.462	5794
922.571	5786
922.68	5699
922.789	5680
922.898	5691
923.007	5630
923.116	5684
923.224	5665
923.333	5695
923.442	5596
923.55	5600
923.659	5596
923.767	5646
923.876	5493
923.984	5558
924.092	5486
924.201	5524
924.309	5566
924.417	5528
924.525	5501
924.633	5471
924.741	6209
924.849	5360
924.956	5402
925.064	5334
925.172	5280
925.279	5330
925.387	5379
925.494	5341
925.602	5436
925.709	5364
925.816	5280
925.924	5330
926.031	5322
926.138	5299
926.245	5345
926.352	5216
926.459	5265
926.566	5277
926.673	5181
926.779	5124
926.886	5174
926.993	5071
927.099	4991
927.206	4953
927.312	5025
927.419	4995
927.525	5003
927.631	4949
927.737	4862
927.843	4816
927.95	4778
928.056	4801
928.162	4828
928.267	4835
928.373	5242
928.479	4793
928.585	4725
928.69	4771
928.796	4748
928.901	4683
929.007	4546
929.112	4706
929.218	4660
929.323	4588
929.428	4550
929.533	4641
929.638	4493
929.743	4508
929.848	4546
929.953	4546
930.058	4459
930.163	4299
930.267	4371
930.372	4462
930.477	4284
930.581	4474
930.685	4348
930.79	4227
930.894	4280
930.998	4234
931.103	4341
931.207	4131
931.311	4044
931.415	4006
931.519	3926
931.623	3945
