Data from glass_V78500241_1964.txt Node
Date: Wed Sep 01 19:28:06 CST 2021
User: usil
Spectrometer: V785-0024
Trigger mode: 0
Integration Time (sec): 4.000000E-1
Scans to average: 1
Nonlinearity correction enabled: false
Boxcar width: 0
Storing dark spectrum: false
XAxis mode: Wavelengths
Number of Pixels in Spectrum: 1024
>>>>>Begin Spectral Data<<<<<
801.071	3740
801.214	3778
801.356	3728
801.499	3770
801.641	3705
801.783	3816
801.926	3850
802.068	3865
802.211	3846
802.353	3831
802.496	3804
802.638	3861
802.78	3926
802.923	3907
803.065	3899
803.208	3842
803.35	3854
803.492	3949
803.635	3915
803.777	3816
803.919	3861
804.061	4124
804.204	3960
804.346	3983
804.488	3922
804.63	4010
804.773	3991
804.915	4017
805.057	4128
805.199	4040
805.341	4078
805.483	4124
805.626	4173
805.768	4128
805.91	4200
806.052	4238
806.194	4158
806.336	4352
806.478	4215
806.62	4200
806.762	4173
806.904	4227
807.046	4322
807.188	4196
807.33	4154
807.472	4223
807.614	4173
807.756	4238
807.898	4230
808.04	4246
808.182	4261
808.324	4295
808.465	4363
808.607	4443
808.749	4497
808.891	4436
809.033	4459
809.174	4337
809.316	4268
809.458	4166
809.6	4162
809.741	4139
809.883	4105
810.025	4223
810.166	4181
810.308	4215
810.45	4207
810.591	4207
810.733	4295
810.875	4504
811.016	4828
811.158	5143
811.299	5303
811.441	5315
811.582	5083
811.724	4656
811.865	4504
812.007	4481
812.148	4462
812.29	4413
812.431	4432
812.573	4390
812.714	4352
812.855	4398
812.997	4413
813.138	4478
813.279	4443
813.421	4390
813.562	4375
813.703	4360
813.845	4375
813.986	4268
814.127	4192
814.268	4249
814.41	4322
814.551	4249
814.692	4306
814.833	4272
814.974	4306
815.115	4295
815.256	4257
815.397	4227
815.539	4268
815.68	4200
815.821	4234
815.962	4242
816.103	4291
816.244	4223
816.385	4211
816.526	4265
816.666	4181
816.807	4101
816.948	4173
817.089	4249
817.23	4120
817.371	4048
817.512	4032
817.653	4059
817.793	4051
817.934	4036
818.075	4116
818.216	4032
818.356	4055
818.497	3994
818.638	3899
818.778	3899
818.919	3842
819.06	3857
819.2	3922
819.341	3865
819.481	3838
819.622	3892
819.762	3964
819.903	3934
820.043	3854
820.184	3831
820.324	3846
820.465	3892
820.605	3857
820.746	3819
820.886	3808
821.026	3956
821.167	3903
821.307	3991
821.447	3972
821.588	3934
821.728	3949
821.868	3937
822.008	3869
822.149	3949
822.289	3911
822.429	3770
822.569	3838
822.709	3800
822.849	3713
822.99	3740
823.13	3747
823.27	3755
823.41	3713
823.55	3736
823.69	3675
823.83	3755
823.97	3663
824.11	3572
824.25	3557
824.389	3637
824.529	3652
824.669	3599
824.809	3713
824.949	3747
825.089	3743
825.228	3682
825.368	3553
825.508	3564
825.648	3572
825.787	3568
825.927	3641
826.067	3622
826.206	3637
826.346	3785
826.485	3838
826.625	3861
826.765	3960
826.904	3785
827.044	3610
827.183	3496
827.323	3412
827.462	3507
827.601	3443
827.741	3412
827.88	3435
828.02	3367
828.159	3469
828.298	3454
828.437	3507
828.577	3477
828.716	3584
828.855	3485
828.994	3386
829.134	3382
829.273	3378
829.412	3313
829.551	3351
829.69	3363
829.829	3412
829.968	3504
830.107	3397
830.246	3447
830.385	3355
830.524	3386
830.663	3283
830.802	3260
830.941	3195
831.08	3226
831.219	3256
831.357	3226
831.496	3367
831.635	3233
831.774	3180
831.913	3188
832.051	3104
832.19	3169
832.329	3211
832.467	3142
832.606	3150
832.744	3150
832.883	3157
833.022	3199
833.16	3233
833.299	3298
833.437	3321
833.576	3359
833.714	3397
833.852	3416
833.991	3469
834.129	3447
834.267	3469
834.406	3386
834.544	3397
834.682	3439
834.821	3416
834.959	3557
835.097	3405
835.235	3488
835.373	3447
835.511	3477
835.65	3435
835.788	3469
835.926	3401
836.064	3412
836.202	3409
836.34	3606
836.478	3629
836.615	3496
836.753	3542
836.891	3660
837.029	3587
837.167	3557
837.305	3523
837.443	3530
837.58	3500
837.718	3584
837.856	3515
837.993	3504
838.131	3606
838.269	3538
838.406	3580
838.544	3568
838.681	3447
838.819	3416
838.956	3363
839.094	3401
839.231	3469
839.369	3542
839.506	3732
839.643	3637
839.781	3511
839.918	3477
840.055	3515
840.193	3542
840.33	3530
840.467	3534
840.604	3629
840.742	3793
840.879	3538
841.016	3561
841.153	3568
841.29	3759
841.427	3660
841.564	3728
841.701	3743
841.838	3625
841.975	3648
842.112	3736
842.249	3667
842.385	3625
842.522	3793
842.659	3682
842.796	3660
842.933	3686
843.069	3698
843.206	3686
843.343	3823
843.479	3755
843.616	3827
843.752	3675
843.889	3663
844.025	3865
844.162	3705
844.298	3865
844.435	3800
844.571	3755
844.708	3892
844.844	4002
844.98	4013
845.117	4013
845.253	3907
845.389	3888
845.525	3945
845.661	3953
845.798	3930
845.934	3979
846.07	3960
846.206	4078
846.342	4082
846.478	4036
846.614	4010
846.75	3953
846.886	3922
847.022	3991
847.158	3949
847.294	3968
847.429	4002
847.565	4010
847.701	4192
847.837	3911
847.972	3857
848.108	3991
848.244	3964
848.379	3876
848.515	3842
848.65	3808
848.786	3873
848.921	3842
849.057	3918
849.192	3983
849.328	3903
849.463	3896
849.598	3876
849.734	3842
849.869	3857
850.004	3740
850.14	3827
850.275	3751
850.41	3717
850.545	3770
850.68	3785
850.815	3823
850.95	3785
851.085	3930
851.22	3854
851.355	3865
851.49	3781
851.625	3781
851.76	3778
851.895	3705
852.03	3740
852.165	3800
852.299	3850
852.434	3899
852.569	3831
852.703	3884
852.838	3915
852.973	4017
853.107	3979
853.242	3876
853.376	3812
853.511	3717
853.645	3823
853.78	3949
853.914	3903
854.048	3903
854.183	3896
854.317	3956
854.451	4082
854.585	3918
854.72	3949
854.854	4040
854.988	3918
855.122	4036
855.256	3892
855.39	4044
855.524	4116
855.658	4109
855.792	4063
855.926	4147
856.06	4154
856.194	4181
856.327	4105
856.461	4124
856.595	4139
856.729	4143
856.862	4272
856.996	4261
857.13	4314
857.263	4318
857.397	4325
857.53	4284
857.664	4329
857.797	4451
857.931	4409
858.064	4394
858.197	4413
858.331	4394
858.464	4398
858.597	4314
858.731	4386
858.864	4481
858.997	4447
859.13	4459
859.263	4531
859.396	4592
859.529	4512
859.662	4573
859.795	4550
859.928	4622
860.061	4714
860.194	4790
860.327	4679
860.46	4660
860.592	4721
860.725	4752
860.858	4725
860.99	4725
861.123	4729
861.256	4679
861.388	4816
861.521	5387
861.653	4694
861.786	4744
861.918	4748
862.05	4774
862.183	4854
862.315	4862
862.447	4957
862.58	4877
862.712	4782
862.844	4793
862.976	4911
863.108	4824
863.24	5208
863.372	4824
863.504	4911
863.636	4885
863.768	4968
863.9	4953
864.032	4953
864.164	4915
864.296	5064
864.428	5083
864.559	5094
864.691	5094
864.823	5079
864.954	5067
865.086	5201
865.217	5132
865.349	5117
865.48	5121
865.612	5178
865.743	5303
865.875	5204
866.006	5216
866.137	5223
866.269	5220
866.4	5227
866.531	5265
866.662	5208
866.793	5235
866.924	5299
867.055	5296
867.186	5311
867.317	5341
867.448	5357
867.579	5357
867.71	5364
867.841	5341
867.972	5478
868.103	5512
868.233	5493
868.364	5471
868.495	5543
868.625	5661
868.756	5722
868.886	5619
869.017	5733
869.147	5882
869.278	5874
869.408	5821
869.539	5813
869.669	5920
869.799	5916
869.929	5958
870.06	5980
870.19	6175
870.32	6167
870.45	6254
870.58	6372
870.71	6448
870.84	6456
870.97	6448
871.1	6486
871.23	6616
871.36	6639
871.489	6642
871.619	6726
871.749	6745
871.879	6852
872.008	6947
872.138	6920
872.267	6996
872.397	7046
872.526	7050
872.656	7198
872.785	7213
872.915	7373
873.044	7506
873.173	7510
873.303	7677
873.432	7689
873.561	7917
873.69	7944
873.819	7978
873.948	8153
874.077	8267
874.206	8320
874.335	8465
874.464	8644
874.593	8872
874.722	8880
874.851	9108
874.979	9226
875.108	9363
875.237	9378
875.365	9526
875.494	9663
875.623	9835
875.751	9823
875.88	9987
876.008	10109
876.136	10253
876.265	10493
876.393	10630
876.521	10664
876.65	10831
876.778	10824
876.906	10828
877.034	10991
877.162	11105
877.29	11159
877.418	11288
877.546	11337
877.674	11440
877.802	11452
877.93	11551
878.058	11589
878.185	11528
878.313	11604
878.441	11745
878.568	11748
878.696	11752
878.824	11859
878.951	11935
879.079	12072
879.206	12110
879.333	12072
879.461	12015
879.588	12144
879.715	12045
879.842	12266
879.97	12068
880.097	11908
880.224	11802
880.351	11855
880.478	11893
880.605	11828
880.732	11847
880.859	12038
880.986	11851
881.112	11798
881.239	11722
881.366	11741
881.493	11680
881.619	11520
881.746	11566
881.872	11505
881.999	11467
882.125	11452
882.252	11471
882.378	11467
882.505	11596
882.631	11330
882.757	11242
882.883	11307
883.01	11326
883.136	11174
883.262	11178
883.388	11147
883.514	11166
883.64	11109
883.766	11098
883.892	10980
884.018	10930
884.143	10987
884.269	11064
884.395	10881
884.52	10740
884.646	10691
884.772	10672
884.897	10653
885.023	10596
885.148	10790
885.274	10698
885.399	10721
885.524	10649
885.65	10622
885.775	10596
885.9	10535
886.025	10603
886.15	10546
886.275	10413
886.4	10394
886.525	10386
886.65	10413
886.775	10375
886.9	10440
887.025	10504
887.149	10310
887.274	10280
887.399	10196
887.523	10181
887.648	10158
887.773	10166
887.897	10242
888.021	10238
888.146	10105
888.27	10246
888.395	10261
888.519	10185
888.643	10147
888.767	10185
888.891	10082
889.015	9865
889.139	10040
889.263	9937
889.387	10055
889.511	10101
889.635	10105
889.759	9937
889.883	9949
890.006	10010
890.13	10032
890.254	9857
890.377	9983
890.501	9831
890.624	9861
890.748	9941
890.871	9850
890.995	9789
891.118	9743
891.241	9747
891.364	9736
891.488	9808
891.611	9709
891.734	9675
891.857	9709
891.98	9736
892.103	9774
892.226	9694
892.349	9701
892.471	9496
892.594	9584
892.717	9637
892.839	9641
892.962	9515
893.085	9587
893.207	9561
893.33	9488
893.452	9564
893.575	9622
893.697	9523
893.819	9568
893.941	9603
894.064	9542
894.186	9424
894.308	9469
894.43	9504
894.552	9561
894.674	9561
894.796	9424
894.918	9393
895.04	9355
895.161	9367
895.283	9321
895.405	9157
895.526	9230
895.648	9264
895.769	9195
895.891	9249
896.012	9253
896.134	9230
896.255	9077
896.376	9116
896.498	9138
896.619	9127
896.74	9119
896.861	9020
896.982	9291
897.103	9302
897.224	9161
897.345	9081
897.466	9043
897.587	9055
897.708	9093
897.828	8887
897.949	8956
898.07	8800
898.19	8823
898.311	8979
898.431	8857
898.552	8937
898.672	8998
898.792	8921
898.913	8933
899.033	8861
899.153	8758
899.273	8640
899.393	8701
899.513	8724
899.633	8689
899.753	8674
899.873	8735
899.993	8705
900.113	8659
900.232	8663
900.352	8594
900.472	8571
900.591	8564
900.711	8625
900.83	8579
900.95	8644
901.069	8663
901.189	8606
901.308	8465
901.427	8377
901.546	8396
901.665	8415
901.784	8450
901.904	8396
902.023	8324
902.141	8267
902.26	8168
902.379	8172
902.498	8221
902.617	8191
902.735	8267
902.854	8290
902.973	8176
903.091	8153
903.21	8126
903.328	8214
903.446	8096
903.565	8088
903.683	8096
903.801	8084
903.919	8111
904.038	8115
904.156	8024
904.274	8054
904.392	8043
904.51	8069
904.627	7989
904.745	8088
904.863	8107
904.981	7890
905.098	7799
905.216	7906
905.334	7860
905.451	7902
905.569	7898
905.686	7921
905.803	7921
905.921	7746
906.038	7837
906.155	7769
906.272	7666
906.389	7765
906.506	7662
906.623	7655
906.74	7620
906.857	7514
906.974	7578
907.091	7689
907.208	7674
907.324	7639
907.441	7578
907.557	7472
907.674	7491
907.79	7396
907.907	7400
908.023	7468
908.139	7506
908.256	7358
908.372	7377
908.488	7331
908.604	7308
908.72	7213
908.836	7236
908.952	7232
909.068	7221
909.184	7365
909.3	7228
909.415	7244
909.531	7320
909.647	7202
909.762	7110
909.878	7072
909.993	7114
910.108	7122
910.224	7057
910.339	7122
910.454	7053
910.57	7038
910.685	6932
910.8	7137
910.915	7072
911.03	7000
911.145	6848
911.259	6916
911.374	6863
911.489	6814
911.604	6768
911.718	6757
911.833	6715
911.947	6677
912.062	6582
912.176	6730
912.291	6684
912.405	6707
912.519	6814
912.633	6810
912.748	6707
912.862	6608
912.976	6631
913.09	6540
913.204	6620
913.318	6597
913.431	6623
913.545	6662
913.659	6825
913.772	6597
913.886	6578
914	6578
914.113	6642
914.226	6673
914.34	6589
914.453	6483
914.566	6620
914.68	6506
914.793	6547
914.906	6414
915.019	6433
915.132	6391
915.245	6399
915.358	6395
915.47	6403
915.583	6433
915.696	6563
915.809	6597
915.921	6570
916.034	6384
916.146	6418
916.259	6422
916.371	6502
916.483	6456
916.595	6391
916.708	6372
916.82	6391
916.932	6369
917.044	6426
917.156	6327
917.268	6266
917.38	6361
917.491	6292
917.603	6315
917.715	6365
917.826	6426
917.938	6353
918.049	6220
918.161	6357
918.272	6372
918.384	6471
918.495	6357
918.606	6243
918.717	6209
918.828	6262
918.939	6331
919.05	6186
919.161	6216
919.272	6095
919.383	6140
919.494	6235
919.604	6391
919.715	6285
919.826	6190
919.936	6220
920.047	6338
920.157	6304
920.267	6509
920.378	6357
920.488	6304
920.598	6437
920.708	6506
920.818	6445
920.928	6486
921.038	6616
921.148	6601
921.258	6365
921.368	6327
921.477	6224
921.587	6197
921.697	6133
921.806	6175
921.916	6072
922.025	5946
922.134	5889
922.244	5893
922.353	5931
922.462	5836
922.571	5851
922.68	5710
922.789	5691
922.898	5714
923.007	5634
923.116	5680
923.224	5653
923.333	5668
923.442	5581
923.55	5558
923.659	5596
923.767	5672
923.876	5539
923.984	5573
924.092	5551
924.201	5516
924.309	5547
924.417	5516
924.525	5467
924.633	5524
924.741	6247
924.849	5383
924.956	5448
925.064	5311
925.172	5265
925.279	5345
925.387	5334
925.494	5330
925.602	5429
925.709	5395
925.816	5254
925.924	5288
926.031	5345
926.138	5280
926.245	5341
926.352	5185
926.459	5235
926.566	5318
926.673	5208
926.779	5124
926.886	5079
926.993	4980
927.099	5041
927.206	4957
927.312	4938
927.419	5003
927.525	4904
927.631	5010
927.737	4885
927.843	4847
927.95	4755
928.056	4801
928.162	4790
928.267	4896
928.373	5330
928.479	4809
928.585	4694
928.69	4752
928.796	4816
928.901	4691
929.007	4565
929.112	4672
929.218	4660
929.323	4596
929.428	4580
929.533	4649
929.638	4481
929.743	4478
929.848	4573
929.953	4478
930.058	4459
930.163	4295
930.267	4291
930.372	4424
930.477	4291
930.581	4409
930.685	4356
930.79	4211
930.894	4287
930.998	4257
931.103	4352
931.207	4093
931.311	4078
931.415	4044
931.519	3930
931.623	3949
