Data from glass_V78500241_1192.txt Node
Date: Wed Sep 01 19:22:45 CST 2021
User: usil
Spectrometer: V785-0024
Trigger mode: 0
Integration Time (sec): 4.000000E-1
Scans to average: 1
Nonlinearity correction enabled: false
Boxcar width: 0
Storing dark spectrum: false
XAxis mode: Wavelengths
Number of Pixels in Spectrum: 1024
>>>>>Begin Spectral Data<<<<<
801.071	3766
801.214	3778
801.356	3720
801.499	3747
801.641	3778
801.783	3781
801.926	3842
802.068	3861
802.211	3838
802.353	3896
802.496	3846
802.638	3892
802.78	3899
802.923	3964
803.065	3918
803.208	3873
803.35	3911
803.492	3930
803.635	3922
803.777	3850
803.919	3949
804.061	4154
804.204	3964
804.346	3953
804.488	3907
804.63	4048
804.773	3953
804.915	4006
805.057	4181
805.199	4013
805.341	4051
805.483	4128
805.626	4120
805.768	4131
805.91	4192
806.052	4230
806.194	4188
806.336	4383
806.478	4211
806.62	4188
806.762	4227
806.904	4291
807.046	4322
807.188	4211
807.33	4188
807.472	4234
807.614	4158
807.756	4291
807.898	4207
808.04	4253
808.182	4329
808.324	4356
808.465	4379
808.607	4493
808.749	4481
808.891	4527
809.033	4478
809.174	4443
809.316	4284
809.458	4227
809.6	4135
809.741	4181
809.883	4135
810.025	4196
810.166	4230
810.308	4265
810.45	4230
810.591	4227
810.733	4299
810.875	4493
811.016	4870
811.158	5117
811.299	5277
811.441	5303
811.582	5045
811.724	4698
811.865	4481
812.007	4466
812.148	4478
812.29	4402
812.431	4405
812.573	4405
812.714	4341
812.855	4424
812.997	4432
813.138	4519
813.279	4390
813.421	4428
813.562	4379
813.703	4386
813.845	4352
813.986	4204
814.127	4207
814.268	4284
814.41	4291
814.551	4276
814.692	4325
814.833	4276
814.974	4265
815.115	4356
815.256	4310
815.397	4246
815.539	4276
815.68	4215
815.821	4249
815.962	4371
816.103	4249
816.244	4249
816.385	4249
816.526	4322
816.666	4204
816.807	4063
816.948	4158
817.089	4166
817.23	4181
817.371	4040
817.512	4063
817.653	4105
817.793	4021
817.934	4051
818.075	4105
818.216	4067
818.356	4112
818.497	4036
818.638	3903
818.778	3945
818.919	3876
819.06	3854
819.2	3918
819.341	3876
819.481	3854
819.622	3922
819.762	4029
819.903	3956
820.043	3899
820.184	3857
820.324	3804
820.465	3865
820.605	3861
820.746	3880
820.886	3808
821.026	3941
821.167	3956
821.307	3960
821.447	3987
821.588	3964
821.728	3964
821.868	3922
822.008	3892
822.149	3937
822.289	3968
822.429	3785
822.569	3747
822.709	3785
822.849	3709
822.99	3747
823.13	3781
823.27	3835
823.41	3713
823.55	3705
823.69	3705
823.83	3720
823.97	3656
824.11	3667
824.25	3603
824.389	3641
824.529	3660
824.669	3644
824.809	3751
824.949	3785
825.089	3747
825.228	3759
825.368	3591
825.508	3561
825.648	3580
825.787	3648
825.927	3641
826.067	3648
826.206	3656
826.346	3816
826.485	3808
826.625	3854
826.765	3941
826.904	3812
827.044	3637
827.183	3530
827.323	3469
827.462	3466
827.601	3462
827.741	3450
827.88	3443
828.02	3386
828.159	3447
828.298	3473
828.437	3507
828.577	3485
828.716	3599
828.855	3469
828.994	3389
829.134	3363
829.273	3393
829.412	3310
829.551	3359
829.69	3344
829.829	3412
829.968	3515
830.107	3405
830.246	3458
830.385	3348
830.524	3332
830.663	3344
830.802	3287
830.941	3165
831.08	3161
831.219	3294
831.357	3264
831.496	3401
831.635	3268
831.774	3192
831.913	3222
832.051	3142
832.19	3154
832.329	3188
832.467	3142
832.606	3108
832.744	3180
832.883	3214
833.022	3226
833.16	3256
833.299	3317
833.437	3348
833.576	3386
833.714	3420
833.852	3473
833.991	3466
834.129	3481
834.267	3431
834.406	3412
834.544	3428
834.682	3393
834.821	3420
834.959	3576
835.097	3409
835.235	3519
835.373	3511
835.511	3496
835.65	3473
835.788	3492
835.926	3435
836.064	3378
836.202	3454
836.34	3587
836.478	3584
836.615	3587
836.753	3580
836.891	3660
837.029	3633
837.167	3584
837.305	3591
837.443	3591
837.58	3488
837.718	3595
837.856	3584
837.993	3515
838.131	3572
838.269	3584
838.406	3622
838.544	3561
838.681	3504
838.819	3488
838.956	3378
839.094	3374
839.231	3443
839.369	3511
839.506	3762
839.643	3686
839.781	3519
839.918	3515
840.055	3572
840.193	3549
840.33	3507
840.467	3580
840.604	3622
840.742	3819
840.879	3523
841.016	3580
841.153	3633
841.29	3823
841.427	3705
841.564	3751
841.701	3762
841.838	3747
841.975	3675
842.112	3717
842.249	3644
842.385	3644
842.522	3854
842.659	3713
842.796	3690
842.933	3743
843.069	3755
843.206	3713
843.343	3827
843.479	3793
843.616	3804
843.752	3679
843.889	3671
844.025	3884
844.162	3743
844.298	3907
844.435	3819
844.571	3819
844.708	3915
844.844	4002
844.98	3975
845.117	4021
845.253	3930
845.389	3930
845.525	4021
845.661	3975
845.798	3937
845.934	4055
846.07	3987
846.206	4059
846.342	4158
846.478	4074
846.614	3975
846.75	3926
846.886	3873
847.022	4029
847.158	3926
847.294	4006
847.429	4048
847.565	4036
847.701	4287
847.837	3892
847.972	3865
848.108	4021
848.244	3968
848.379	3880
848.515	3804
848.65	3838
848.786	3842
848.921	3873
849.057	3926
849.192	3941
849.328	3922
849.463	3964
849.598	3915
849.734	3838
849.869	3850
850.004	3816
850.14	3816
850.275	3827
850.41	3789
850.545	3766
850.68	3793
850.815	3808
850.95	3793
851.085	3960
851.22	3903
851.355	3800
851.49	3838
851.625	3789
851.76	3774
851.895	3720
852.03	3762
852.165	3812
852.299	3842
852.434	3911
852.569	3892
852.703	3854
852.838	3945
852.973	3991
853.107	3987
853.242	3930
853.376	3861
853.511	3797
853.645	3812
853.78	3983
853.914	3903
854.048	3934
854.183	3884
854.317	3945
854.451	4086
854.585	3953
854.72	3915
854.854	4051
854.988	3956
855.122	4044
855.256	3964
855.39	4029
855.524	4158
855.658	4112
855.792	4082
855.926	4169
856.06	4120
856.194	4238
856.327	4090
856.461	4150
856.595	4154
856.729	4181
856.862	4295
856.996	4246
857.13	4329
857.263	4310
857.397	4344
857.53	4314
857.664	4325
857.797	4432
857.931	4413
858.064	4402
858.197	4462
858.331	4421
858.464	4329
858.597	4318
858.731	4455
858.864	4516
858.997	4500
859.13	4569
859.263	4615
859.396	4607
859.529	4531
859.662	4596
859.795	4588
859.928	4626
860.061	4759
860.194	4786
860.327	4641
860.46	4603
860.592	4698
860.725	4748
860.858	4786
860.99	4675
861.123	4683
861.256	4725
861.388	4805
861.521	5414
861.653	4778
861.786	4752
861.918	4771
862.05	4820
862.183	4831
862.315	4889
862.447	4915
862.58	4877
862.712	4778
862.844	4786
862.976	4877
863.108	4858
863.24	5193
863.372	4805
863.504	4881
863.636	4889
863.768	4938
863.9	4946
864.032	4942
864.164	4927
864.296	5029
864.428	5098
864.559	5121
864.691	5162
864.823	5140
864.954	5109
865.086	5170
865.217	5121
865.349	5105
865.48	5147
865.612	5212
865.743	5322
865.875	5216
866.006	5231
866.137	5242
866.269	5277
866.4	5220
866.531	5261
866.662	5235
866.793	5334
866.924	5330
867.055	5383
867.186	5334
867.317	5372
867.448	5322
867.579	5417
867.71	5383
867.841	5349
867.972	5493
868.103	5493
868.233	5463
868.364	5532
868.495	5532
868.625	5634
868.756	5775
868.886	5627
869.017	5729
869.147	5836
869.278	5897
869.408	5885
869.539	5824
869.669	5889
869.799	5912
869.929	5992
870.06	5977
870.19	6232
870.32	6216
870.45	6277
870.58	6365
870.71	6403
870.84	6467
870.97	6410
871.1	6448
871.23	6627
871.36	6662
871.489	6635
871.619	6757
871.749	6837
871.879	6897
872.008	6913
872.138	6924
872.267	6958
872.397	6989
872.526	7080
872.656	7152
872.785	7179
872.915	7407
873.044	7537
873.173	7567
873.303	7651
873.432	7700
873.561	7841
873.69	7944
873.819	8001
873.948	8164
874.077	8290
874.206	8305
874.335	8454
874.464	8663
874.593	8880
874.722	8918
874.851	9142
874.979	9241
875.108	9367
875.237	9420
875.365	9492
875.494	9637
875.623	9789
875.751	9766
875.88	9994
876.008	10131
876.136	10249
876.265	10470
876.393	10759
876.521	10687
876.65	10767
876.778	10908
876.906	10854
877.034	10953
877.162	11041
877.29	11132
877.418	11334
877.546	11311
877.674	11463
877.802	11440
877.93	11570
878.058	11589
878.185	11570
878.313	11634
878.441	11843
878.568	11627
878.696	11798
878.824	11931
878.951	11920
879.079	12015
879.206	12205
879.333	12007
879.461	11901
879.588	12125
879.715	12106
879.842	12262
879.97	12076
880.097	11855
880.224	11824
880.351	11855
880.478	11908
880.605	11897
880.732	11855
880.859	11927
880.986	11908
881.112	11805
881.239	11703
881.366	11634
881.493	11608
881.619	11577
881.746	11589
881.872	11653
881.999	11535
882.125	11551
882.252	11547
882.378	11558
882.505	11554
882.631	11444
882.757	11311
882.883	11330
883.01	11235
883.136	11193
883.262	11064
883.388	11162
883.514	11147
883.64	11121
883.766	11140
883.892	11014
884.018	10987
884.143	11052
884.269	11136
884.395	10850
884.52	10809
884.646	10767
884.772	10767
884.897	10607
885.023	10717
885.148	10847
885.274	10839
885.399	10702
885.524	10645
885.65	10584
885.775	10603
885.9	10497
886.025	10611
886.15	10588
886.275	10497
886.4	10409
886.525	10413
886.65	10363
886.775	10356
886.9	10459
887.025	10542
887.149	10375
887.274	10177
887.399	10154
887.523	10162
887.648	10143
887.773	10116
887.897	10234
888.021	10280
888.146	10116
888.27	10303
888.395	10238
888.519	10154
888.643	10227
888.767	10200
888.891	10150
889.015	10078
889.139	10040
889.263	9972
889.387	10071
889.511	10147
889.635	10097
889.759	9918
889.883	9983
890.006	9968
890.13	10112
890.254	9930
890.377	9941
890.501	9846
890.624	9926
890.748	9857
890.871	9785
890.995	9781
891.118	9747
891.241	9713
891.364	9667
891.488	9876
891.611	9766
891.734	9743
891.857	9789
891.98	9728
892.103	9838
892.226	9686
892.349	9740
892.471	9523
892.594	9614
892.717	9656
892.839	9637
892.962	9629
893.085	9698
893.207	9561
893.33	9511
893.452	9561
893.575	9625
893.697	9515
893.819	9606
893.941	9599
894.064	9633
894.186	9488
894.308	9378
894.43	9511
894.552	9576
894.674	9564
894.796	9424
894.918	9435
895.04	9313
895.161	9355
895.283	9367
895.405	9256
895.526	9256
895.648	9245
895.769	9192
895.891	9241
896.012	9325
896.134	9195
896.255	9192
896.376	9138
896.498	9176
896.619	9203
896.74	9097
896.861	9024
896.982	9283
897.103	9344
897.224	9203
897.345	9043
897.466	9043
897.587	9066
897.708	9116
897.828	9074
897.949	9028
898.07	8872
898.19	8952
898.311	8986
898.431	8902
898.552	8872
898.672	8956
898.792	8914
898.913	8960
899.033	8826
899.153	8796
899.273	8629
899.393	8667
899.513	8720
899.633	8746
899.753	8788
899.873	8644
899.993	8781
900.113	8727
900.232	8754
900.352	8697
900.472	8590
900.591	8552
900.711	8606
900.83	8571
900.95	8648
901.069	8651
901.189	8530
901.308	8461
901.427	8423
901.546	8412
901.665	8419
901.784	8473
901.904	8347
902.023	8358
902.141	8275
902.26	8187
902.379	8298
902.498	8282
902.617	8210
902.735	8317
902.854	8339
902.973	8305
903.091	8107
903.21	8149
903.328	8142
903.446	8027
903.565	8062
903.683	8115
903.801	8073
903.919	8062
904.038	8199
904.156	7978
904.274	8065
904.392	8046
904.51	8081
904.627	8054
904.745	8027
904.863	8073
904.981	7906
905.098	7822
905.216	7894
905.334	7887
905.451	7898
905.569	7841
905.686	7906
905.803	7986
905.921	7799
906.038	7902
906.155	7769
906.272	7765
906.389	7765
906.506	7712
906.623	7651
906.74	7624
906.857	7510
906.974	7567
907.091	7689
907.208	7696
907.324	7643
907.441	7609
907.557	7441
907.674	7464
907.79	7426
907.907	7419
908.023	7434
908.139	7426
908.256	7381
908.372	7415
908.488	7400
908.604	7293
908.72	7255
908.836	7293
908.952	7259
909.068	7270
909.184	7343
909.3	7293
909.415	7282
909.531	7289
909.647	7080
909.762	7133
909.878	7091
909.993	7156
910.108	7072
910.224	7149
910.339	7091
910.454	7046
910.57	6977
910.685	6970
910.8	7194
910.915	7129
911.03	7061
911.145	6947
911.259	6905
911.374	6890
911.489	6844
911.604	6856
911.718	6764
911.833	6719
911.947	6654
912.062	6620
912.176	6738
912.291	6791
912.405	6715
912.519	6844
912.633	6875
912.748	6726
912.862	6734
912.976	6616
913.09	6582
913.204	6616
913.318	6620
913.431	6665
913.545	6665
913.659	6688
913.772	6669
913.886	6555
914	6536
914.113	6620
914.226	6654
914.34	6593
914.453	6475
914.566	6593
914.68	6555
914.793	6521
914.906	6426
915.019	6388
915.132	6376
915.245	6399
915.358	6418
915.47	6445
915.583	6399
915.696	6494
915.809	6532
915.921	6513
916.034	6456
916.146	6429
916.259	6391
916.371	6460
916.483	6490
916.595	6460
916.708	6372
916.82	6433
916.932	6342
917.044	6384
917.156	6338
917.268	6338
917.38	6323
917.491	6353
917.603	6391
917.715	6353
917.826	6365
917.938	6334
918.049	6232
918.161	6399
918.272	6475
918.384	6410
918.495	6315
918.606	6323
918.717	6201
918.828	6266
918.939	6289
919.05	6171
919.161	6277
919.272	6148
919.383	6152
919.494	6273
919.604	6426
919.715	6285
919.826	6228
919.936	6292
920.047	6300
920.157	6281
920.267	6437
920.378	6289
920.488	6273
920.598	6494
920.708	6513
920.818	6448
920.928	6506
921.038	6604
921.148	6555
921.258	6296
921.368	6353
921.477	6182
921.587	6155
921.697	6087
921.806	6175
921.916	6049
922.025	5965
922.134	5939
922.244	5946
922.353	5980
922.462	5813
922.571	5817
922.68	5688
922.789	5680
922.898	5680
923.007	5668
923.116	5691
923.224	5634
923.333	5604
923.442	5615
923.55	5596
923.659	5600
923.767	5638
923.876	5528
923.984	5642
924.092	5509
924.201	5532
924.309	5520
924.417	5532
924.525	5501
924.633	5497
924.741	6289
924.849	5360
924.956	5474
925.064	5406
925.172	5318
925.279	5345
925.387	5353
925.494	5299
925.602	5383
925.709	5440
925.816	5299
925.924	5318
926.031	5433
926.138	5288
926.245	5345
926.352	5231
926.459	5326
926.566	5315
926.673	5216
926.779	5132
926.886	5147
926.993	5025
927.099	5022
927.206	4885
927.312	4957
927.419	5018
927.525	4961
927.631	5003
927.737	4862
927.843	4873
927.95	4809
928.056	4862
928.162	4809
928.267	4908
928.373	5357
928.479	4858
928.585	4694
928.69	4774
928.796	4771
928.901	4683
929.007	4569
929.112	4626
929.218	4637
929.323	4603
929.428	4542
929.533	4702
929.638	4523
929.743	4607
929.848	4584
929.953	4462
930.058	4432
930.163	4360
930.267	4344
930.372	4466
930.477	4325
930.581	4443
930.685	4371
930.79	4276
930.894	4303
930.998	4284
931.103	4386
931.207	4101
931.311	4078
931.415	4078
931.519	3968
931.623	4006
