Data from glass_V78500241_897.txt Node
Date: Wed Sep 01 19:20:43 CST 2021
User: usil
Spectrometer: V785-0024
Trigger mode: 0
Integration Time (sec): 4.000000E-1
Scans to average: 1
Nonlinearity correction enabled: false
Boxcar width: 0
Storing dark spectrum: false
XAxis mode: Wavelengths
Number of Pixels in Spectrum: 1024
>>>>>Begin Spectral Data<<<<<
801.071	3759
801.214	3770
801.356	3728
801.499	3774
801.641	3755
801.783	3804
801.926	3850
802.068	3846
802.211	3850
802.353	3896
802.496	3865
802.638	3911
802.78	3884
802.923	3945
803.065	3922
803.208	3876
803.35	3869
803.492	3896
803.635	3945
803.777	3831
803.919	3888
804.061	4116
804.204	3964
804.346	3964
804.488	3941
804.63	4040
804.773	3991
804.915	4059
805.057	4124
805.199	4059
805.341	4109
805.483	4166
805.626	4147
805.768	4131
805.91	4242
806.052	4169
806.194	4230
806.336	4306
806.478	4249
806.62	4211
806.762	4211
806.904	4322
807.046	4390
807.188	4219
807.33	4196
807.472	4238
807.614	4211
807.756	4238
807.898	4223
808.04	4158
808.182	4337
808.324	4322
808.465	4405
808.607	4493
808.749	4474
808.891	4447
809.033	4500
809.174	4386
809.316	4299
809.458	4230
809.6	4147
809.741	4143
809.883	4109
810.025	4234
810.166	4234
810.308	4207
810.45	4280
810.591	4211
810.733	4329
810.875	4546
811.016	4824
811.158	5102
811.299	5265
811.441	5235
811.582	5048
811.724	4744
811.865	4478
812.007	4455
812.148	4436
812.29	4428
812.431	4390
812.573	4432
812.714	4337
812.855	4447
812.997	4428
813.138	4516
813.279	4405
813.421	4348
813.562	4424
813.703	4303
813.845	4306
813.986	4284
814.127	4227
814.268	4242
814.41	4314
814.551	4284
814.692	4348
814.833	4303
814.974	4303
815.115	4379
815.256	4261
815.397	4246
815.539	4268
815.68	4219
815.821	4207
815.962	4325
816.103	4287
816.244	4234
816.385	4230
816.526	4287
816.666	4234
816.807	4116
816.948	4188
817.089	4169
817.23	4147
817.371	4109
817.512	4055
817.653	4101
817.793	4036
817.934	4090
818.075	4131
818.216	4086
818.356	4105
818.497	3983
818.638	3880
818.778	3953
818.919	3888
819.06	3896
819.2	3907
819.341	3850
819.481	3789
819.622	3930
819.762	4010
819.903	3960
820.043	3857
820.184	3838
820.324	3861
820.465	3918
820.605	3854
820.746	3869
820.886	3774
821.026	3915
821.167	3922
821.307	4032
821.447	3994
821.588	3941
821.728	3987
821.868	3945
822.008	3899
822.149	3918
822.289	3918
822.429	3812
822.569	3762
822.709	3835
822.849	3755
822.99	3743
823.13	3778
823.27	3800
823.41	3736
823.55	3743
823.69	3770
823.83	3755
823.97	3720
824.11	3618
824.25	3584
824.389	3667
824.529	3686
824.669	3675
824.809	3709
824.949	3747
825.089	3743
825.228	3705
825.368	3648
825.508	3618
825.648	3587
825.787	3614
825.927	3595
826.067	3625
826.206	3682
826.346	3800
826.485	3812
826.625	3907
826.765	3975
826.904	3823
827.044	3625
827.183	3545
827.323	3443
827.462	3500
827.601	3420
827.741	3409
827.88	3469
828.02	3378
828.159	3454
828.298	3496
828.437	3553
828.577	3515
828.716	3587
828.855	3469
828.994	3412
829.134	3348
829.273	3393
829.412	3329
829.551	3367
829.69	3370
829.829	3428
829.968	3515
830.107	3435
830.246	3393
830.385	3393
830.524	3367
830.663	3306
830.802	3279
830.941	3203
831.08	3211
831.219	3279
831.357	3249
831.496	3443
831.635	3233
831.774	3237
831.913	3203
832.051	3131
832.19	3146
832.329	3169
832.467	3161
832.606	3131
832.744	3199
832.883	3176
833.022	3226
833.16	3253
833.299	3287
833.437	3359
833.576	3405
833.714	3420
833.852	3420
833.991	3496
834.129	3485
834.267	3435
834.406	3378
834.544	3424
834.682	3431
834.821	3424
834.959	3568
835.097	3428
835.235	3572
835.373	3488
835.511	3534
835.65	3477
835.788	3534
835.926	3428
836.064	3382
836.202	3420
836.34	3599
836.478	3641
836.615	3526
836.753	3644
836.891	3663
837.029	3618
837.167	3606
837.305	3576
837.443	3568
837.58	3500
837.718	3610
837.856	3561
837.993	3538
838.131	3614
838.269	3603
838.406	3610
838.544	3564
838.681	3462
838.819	3481
838.956	3416
839.094	3409
839.231	3500
839.369	3511
839.506	3717
839.643	3599
839.781	3504
839.918	3462
840.055	3553
840.193	3553
840.33	3595
840.467	3568
840.604	3618
840.742	3793
840.879	3584
841.016	3557
841.153	3603
841.29	3728
841.427	3701
841.564	3728
841.701	3728
841.838	3720
841.975	3656
842.112	3709
842.249	3652
842.385	3622
842.522	3831
842.659	3675
842.796	3690
842.933	3770
843.069	3713
843.206	3709
843.343	3838
843.479	3759
843.616	3789
843.752	3679
843.889	3724
844.025	3876
844.162	3747
844.298	3892
844.435	3793
844.571	3838
844.708	3922
844.844	4017
844.98	4059
845.117	4010
845.253	3930
845.389	3896
845.525	4006
845.661	4021
845.798	3941
845.934	4017
846.07	3979
846.206	4044
846.342	4093
846.478	4063
846.614	3983
846.75	3949
846.886	3873
847.022	4032
847.158	3934
847.294	3998
847.429	4029
847.565	4017
847.701	4261
847.837	3937
847.972	3861
848.108	4017
848.244	3979
848.379	3884
848.515	3831
848.65	3804
848.786	3842
848.921	3884
849.057	3945
849.192	3934
849.328	3884
849.463	3945
849.598	3888
849.734	3915
849.869	3865
850.004	3804
850.14	3827
850.275	3785
850.41	3747
850.545	3797
850.68	3835
850.815	3831
850.95	3778
851.085	3918
851.22	3899
851.355	3835
851.49	3827
851.625	3812
851.76	3804
851.895	3751
852.03	3751
852.165	3793
852.299	3873
852.434	3930
852.569	3842
852.703	3888
852.838	3945
852.973	4044
853.107	4010
853.242	3899
853.376	3857
853.511	3759
853.645	3812
853.78	3972
853.914	3884
854.048	3873
854.183	3861
854.317	3972
854.451	4071
854.585	3998
854.72	3888
854.854	4093
854.988	3945
855.122	4029
855.256	3964
855.39	4006
855.524	4147
855.658	4097
855.792	4131
855.926	4112
856.06	4158
856.194	4185
856.327	4162
856.461	4086
856.595	4177
856.729	4181
856.862	4318
856.996	4238
857.13	4310
857.263	4295
857.397	4337
857.53	4310
857.664	4451
857.797	4398
857.931	4432
858.064	4398
858.197	4481
858.331	4386
858.464	4405
858.597	4337
858.731	4394
858.864	4424
858.997	4462
859.13	4546
859.263	4573
859.396	4599
859.529	4531
859.662	4569
859.795	4470
859.928	4592
860.061	4763
860.194	4717
860.327	4691
860.46	4622
860.592	4767
860.725	4733
860.858	4778
860.99	4698
861.123	4706
861.256	4679
861.388	4767
861.521	5516
861.653	4733
861.786	4717
861.918	4744
862.05	4790
862.183	4839
862.315	4915
862.447	4984
862.58	4858
862.712	4820
862.844	4782
862.976	4858
863.108	4835
863.24	5208
863.372	4862
863.504	4870
863.636	4900
863.768	4957
863.9	4972
864.032	4915
864.164	4972
864.296	5102
864.428	5109
864.559	5155
864.691	5105
864.823	5159
864.954	5193
865.086	5143
865.217	5075
865.349	5102
865.48	5166
865.612	5162
865.743	5254
865.875	5151
866.006	5189
866.137	5246
866.269	5242
866.4	5284
866.531	5223
866.662	5204
866.793	5330
866.924	5261
867.055	5318
867.186	5379
867.317	5322
867.448	5311
867.579	5379
867.71	5410
867.841	5406
867.972	5471
868.103	5452
868.233	5512
868.364	5524
868.495	5608
868.625	5668
868.756	5756
868.886	5733
869.017	5737
869.147	5878
869.278	5912
869.408	5821
869.539	5828
869.669	5908
869.799	5901
869.929	5984
870.06	6041
870.19	6216
870.32	6216
870.45	6254
870.58	6273
870.71	6445
870.84	6445
870.97	6403
871.1	6445
871.23	6707
871.36	6703
871.489	6688
871.619	6753
871.749	6837
871.879	6935
872.008	6935
872.138	7034
872.267	7027
872.397	7008
872.526	7015
872.656	7129
872.785	7244
872.915	7392
873.044	7499
873.173	7563
873.303	7601
873.432	7830
873.561	7864
873.69	7940
873.819	8005
873.948	8180
874.077	8221
874.206	8396
874.335	8438
874.464	8613
874.593	8895
874.722	8952
874.851	9154
874.979	9249
875.108	9401
875.237	9458
875.365	9500
875.494	9644
875.623	9770
875.751	9827
875.88	9983
876.008	10185
876.136	10325
876.265	10485
876.393	10755
876.521	10691
876.65	10786
876.778	10938
876.906	10889
877.034	11056
877.162	11048
877.29	11181
877.418	11269
877.546	11337
877.674	11433
877.802	11493
877.93	11543
878.058	11532
878.185	11478
878.313	11638
878.441	11752
878.568	11608
878.696	11874
878.824	11855
878.951	11866
879.079	12026
879.206	12190
879.333	12007
879.461	12114
879.588	12133
879.715	12076
879.842	12232
879.97	12102
880.097	11889
880.224	11973
880.351	11965
880.478	11904
880.605	11863
880.732	11828
880.859	11977
880.986	11840
881.112	11874
881.239	11695
881.366	11699
881.493	11684
881.619	11619
881.746	11573
881.872	11547
881.999	11551
882.125	11455
882.252	11589
882.378	11524
882.505	11600
882.631	11345
882.757	11337
882.883	11330
883.01	11128
883.136	11193
883.262	11090
883.388	11067
883.514	11181
883.64	11178
883.766	11208
883.892	11060
884.018	10999
884.143	11052
884.269	11094
884.395	10744
884.52	10805
884.646	10782
884.772	10736
884.897	10645
885.023	10668
885.148	10668
885.274	10752
885.399	10637
885.524	10637
885.65	10565
885.775	10603
885.9	10584
886.025	10630
886.15	10599
886.275	10508
886.4	10348
886.525	10352
886.65	10329
886.775	10367
886.9	10497
887.025	10596
887.149	10390
887.274	10207
887.399	10242
887.523	10200
887.648	10154
887.773	10109
887.897	10291
888.021	10196
888.146	10105
888.27	10223
888.395	10253
888.519	10196
888.643	10196
888.767	10204
888.891	10101
889.015	9983
889.139	10086
889.263	10006
889.387	10017
889.511	10147
889.635	10063
889.759	10048
889.883	10090
890.006	10002
890.13	10150
890.254	9857
890.377	9987
890.501	9781
890.624	9850
890.748	9854
890.871	9804
890.995	9743
891.118	9713
891.241	9793
891.364	9774
891.488	9720
891.611	9717
891.734	9793
891.857	9800
891.98	9679
892.103	9793
892.226	9698
892.349	9698
892.471	9530
892.594	9614
892.717	9690
892.839	9599
892.962	9572
893.085	9679
893.207	9568
893.33	9500
893.452	9466
893.575	9584
893.697	9496
893.819	9660
893.941	9622
894.064	9618
894.186	9431
894.308	9500
894.43	9530
894.552	9587
894.674	9523
894.796	9439
894.918	9405
895.04	9370
895.161	9408
895.283	9374
895.405	9256
895.526	9233
895.648	9260
895.769	9268
895.891	9260
896.012	9207
896.134	9142
896.255	9173
896.376	9184
896.498	9199
896.619	9184
896.74	9047
896.861	9074
896.982	9249
897.103	9310
897.224	9135
897.345	9036
897.466	9001
897.587	9013
897.708	9127
897.828	9039
897.949	8918
898.07	8887
898.19	8921
898.311	8975
898.431	8895
898.552	8937
898.672	8979
898.792	9009
898.913	8975
899.033	8807
899.153	8724
899.273	8659
899.393	8705
899.513	8792
899.633	8727
899.753	8766
899.873	8724
899.993	8792
900.113	8746
900.232	8769
900.352	8655
900.472	8655
900.591	8530
900.711	8655
900.83	8579
900.95	8686
901.069	8735
901.189	8613
901.308	8412
901.427	8419
901.546	8438
901.665	8465
901.784	8488
901.904	8400
902.023	8267
902.141	8199
902.26	8172
902.379	8298
902.498	8225
902.617	8225
902.735	8313
902.854	8275
902.973	8294
903.091	8119
903.21	8145
903.328	8225
903.446	8119
903.565	8065
903.683	8123
903.801	7993
903.919	8168
904.038	8115
904.156	8100
904.274	8088
904.392	8062
904.51	8054
904.627	8024
904.745	8100
904.863	8096
904.981	7898
905.098	7890
905.216	7906
905.334	7909
905.451	7917
905.569	7936
905.686	7959
905.803	7947
905.921	7761
906.038	7868
906.155	7856
906.272	7742
906.389	7708
906.506	7666
906.623	7674
906.74	7632
906.857	7556
906.974	7620
907.091	7681
907.208	7727
907.324	7662
907.441	7552
907.557	7441
907.674	7430
907.79	7381
907.907	7411
908.023	7468
908.139	7430
908.256	7384
908.372	7441
908.488	7377
908.604	7266
908.72	7251
908.836	7301
908.952	7247
909.068	7240
909.184	7362
909.3	7289
909.415	7289
909.531	7266
909.647	7168
909.762	7152
909.878	7122
909.993	7084
910.108	7095
910.224	7118
910.339	7110
910.454	7042
910.57	7012
910.685	6970
910.8	7156
910.915	7164
911.03	7027
911.145	6916
911.259	6913
911.374	6932
911.489	6821
911.604	6757
911.718	6726
911.833	6726
911.947	6696
912.062	6650
912.176	6738
912.291	6711
912.405	6719
912.519	6806
912.633	6837
912.748	6760
912.862	6684
912.976	6673
913.09	6551
913.204	6566
913.318	6612
913.431	6688
913.545	6726
913.659	6741
913.772	6665
913.886	6559
914	6623
914.113	6601
914.226	6696
914.34	6593
914.453	6471
914.566	6601
914.68	6498
914.793	6490
914.906	6426
915.019	6361
915.132	6342
915.245	6410
915.358	6494
915.47	6452
915.583	6467
915.696	6471
915.809	6612
915.921	6616
916.034	6509
916.146	6403
916.259	6395
916.371	6483
916.483	6528
916.595	6437
916.708	6357
916.82	6433
916.932	6369
917.044	6464
917.156	6399
917.268	6331
917.38	6384
917.491	6289
917.603	6380
917.715	6357
917.826	6471
917.938	6342
918.049	6220
918.161	6281
918.272	6464
918.384	6422
918.495	6369
918.606	6254
918.717	6205
918.828	6300
918.939	6281
919.05	6167
919.161	6296
919.272	6072
919.383	6197
919.494	6285
919.604	6414
919.715	6311
919.826	6243
919.936	6254
920.047	6372
920.157	6353
920.267	6460
920.378	6372
920.488	6327
920.598	6547
920.708	6528
920.818	6426
920.928	6460
921.038	6635
921.148	6582
921.258	6304
921.368	6384
921.477	6182
921.587	6148
921.697	6057
921.806	6175
921.916	6072
922.025	5980
922.134	5904
922.244	5904
922.353	5999
922.462	5817
922.571	5790
922.68	5714
922.789	5672
922.898	5680
923.007	5668
923.116	5718
923.224	5691
923.333	5676
923.442	5608
923.55	5596
923.659	5562
923.767	5653
923.876	5604
923.984	5684
924.092	5524
924.201	5547
924.309	5512
924.417	5600
924.525	5448
924.633	5471
924.741	6152
924.849	5387
924.956	5440
925.064	5337
925.172	5376
925.279	5315
925.387	5379
925.494	5318
925.602	5459
925.709	5478
925.816	5277
925.924	5349
926.031	5326
926.138	5330
926.245	5311
926.352	5273
926.459	5345
926.566	5337
926.673	5121
926.779	5178
926.886	5121
926.993	5033
927.099	5037
927.206	4972
927.312	4968
927.419	5010
927.525	4980
927.631	5037
927.737	4889
927.843	4866
927.95	4824
928.056	4835
928.162	4824
928.267	4824
928.373	5372
928.479	4843
928.585	4748
928.69	4778
928.796	4717
928.901	4660
929.007	4565
929.112	4675
929.218	4679
929.323	4645
929.428	4554
929.533	4672
929.638	4554
929.743	4573
929.848	4603
929.953	4497
930.058	4466
930.163	4367
930.267	4363
930.372	4459
930.477	4306
930.581	4462
930.685	4329
930.79	4253
930.894	4284
930.998	4261
931.103	4405
931.207	4105
931.311	4067
931.415	4051
931.519	3941
931.623	3934
