Data from glass_V78500241_1778.txt Node
Date: Wed Sep 01 19:26:49 CST 2021
User: usil
Spectrometer: V785-0024
Trigger mode: 0
Integration Time (sec): 4.000000E-1
Scans to average: 1
Nonlinearity correction enabled: false
Boxcar width: 0
Storing dark spectrum: false
XAxis mode: Wavelengths
Number of Pixels in Spectrum: 1024
>>>>>Begin Spectral Data<<<<<
801.071	3774
801.214	3736
801.356	3728
801.499	3781
801.641	3755
801.783	3766
801.926	3857
802.068	3812
802.211	3846
802.353	3850
802.496	3827
802.638	3896
802.78	3876
802.923	3972
803.065	3903
803.208	3778
803.35	3861
803.492	3899
803.635	3888
803.777	3827
803.919	3861
804.061	4166
804.204	3972
804.346	3884
804.488	3861
804.63	4021
804.773	3991
804.915	4044
805.057	4158
805.199	4055
805.341	4055
805.483	4097
805.626	4150
805.768	4143
805.91	4230
806.052	4284
806.194	4219
806.336	4367
806.478	4242
806.62	4139
806.762	4211
806.904	4238
807.046	4322
807.188	4204
807.33	4181
807.472	4249
807.614	4234
807.756	4268
807.898	4238
808.04	4207
808.182	4280
808.324	4329
808.465	4306
808.607	4489
808.749	4447
808.891	4508
809.033	4561
809.174	4379
809.316	4299
809.458	4242
809.6	4162
809.741	4128
809.883	4200
810.025	4227
810.166	4192
810.308	4215
810.45	4272
810.591	4181
810.733	4306
810.875	4512
811.016	4801
811.158	5170
811.299	5254
811.441	5318
811.582	5003
811.724	4691
811.865	4443
812.007	4500
812.148	4424
812.29	4424
812.431	4398
812.573	4413
812.714	4383
812.855	4398
812.997	4451
813.138	4474
813.279	4409
813.421	4417
813.562	4371
813.703	4322
813.845	4352
813.986	4280
814.127	4238
814.268	4272
814.41	4249
814.551	4291
814.692	4318
814.833	4284
814.974	4367
815.115	4360
815.256	4215
815.397	4207
815.539	4261
815.68	4135
815.821	4200
815.962	4314
816.103	4276
816.244	4234
816.385	4204
816.526	4314
816.666	4215
816.807	4139
816.948	4177
817.089	4147
817.23	4063
817.371	4059
817.512	4063
817.653	4112
817.793	4063
817.934	4025
818.075	4139
818.216	4044
818.356	4109
818.497	3968
818.638	3899
818.778	3915
818.919	3873
819.06	3842
819.2	3945
819.341	3899
819.481	3823
819.622	3892
819.762	4025
819.903	3892
820.043	3861
820.184	3819
820.324	3823
820.465	3873
820.605	3808
820.746	3880
820.886	3770
821.026	3903
821.167	3911
821.307	3918
821.447	3949
821.588	3949
821.728	3968
821.868	3941
822.008	3846
822.149	3896
822.289	3899
822.429	3759
822.569	3793
822.709	3808
822.849	3717
822.99	3732
823.13	3751
823.27	3717
823.41	3713
823.55	3717
823.69	3720
823.83	3740
823.97	3675
824.11	3644
824.25	3587
824.389	3698
824.529	3690
824.669	3671
824.809	3698
824.949	3747
825.089	3701
825.228	3724
825.368	3584
825.508	3580
825.648	3561
825.787	3595
825.927	3660
826.067	3614
826.206	3694
826.346	3793
826.485	3804
826.625	3842
826.765	3930
826.904	3854
827.044	3606
827.183	3511
827.323	3401
827.462	3507
827.601	3420
827.741	3416
827.88	3450
828.02	3389
828.159	3428
828.298	3485
828.437	3538
828.577	3473
828.716	3572
828.855	3454
828.994	3424
829.134	3351
829.273	3401
829.412	3386
829.551	3344
829.69	3367
829.829	3397
829.968	3534
830.107	3447
830.246	3428
830.385	3401
830.524	3351
830.663	3275
830.802	3241
830.941	3180
831.08	3176
831.219	3264
831.357	3256
831.496	3386
831.635	3214
831.774	3184
831.913	3180
832.051	3146
832.19	3123
832.329	3222
832.467	3127
832.606	3142
832.744	3146
832.883	3165
833.022	3192
833.16	3260
833.299	3253
833.437	3313
833.576	3351
833.714	3393
833.852	3412
833.991	3435
834.129	3466
834.267	3405
834.406	3382
834.544	3439
834.682	3420
834.821	3389
834.959	3568
835.097	3458
835.235	3538
835.373	3477
835.511	3500
835.65	3454
835.788	3477
835.926	3405
836.064	3336
836.202	3386
836.34	3584
836.478	3587
836.615	3534
836.753	3561
836.891	3656
837.029	3584
837.167	3587
837.305	3538
837.443	3526
837.58	3500
837.718	3610
837.856	3553
837.993	3496
838.131	3606
838.269	3576
838.406	3576
838.544	3561
838.681	3469
838.819	3462
838.956	3370
839.094	3367
839.231	3424
839.369	3511
839.506	3720
839.643	3641
839.781	3462
839.918	3466
840.055	3530
840.193	3504
840.33	3523
840.467	3542
840.604	3610
840.742	3793
840.879	3507
841.016	3633
841.153	3580
841.29	3759
841.427	3724
841.564	3705
841.701	3728
841.838	3713
841.975	3724
842.112	3713
842.249	3660
842.385	3652
842.522	3819
842.659	3709
842.796	3682
842.933	3732
843.069	3690
843.206	3698
843.343	3797
843.479	3743
843.616	3785
843.752	3690
843.889	3751
844.025	3865
844.162	3759
844.298	3880
844.435	3827
844.571	3766
844.708	3941
844.844	3937
844.98	4017
845.117	4025
845.253	3892
845.389	3926
845.525	4006
845.661	3975
845.798	3960
845.934	4002
846.07	3926
846.206	4040
846.342	4093
846.478	4067
846.614	3998
846.75	3922
846.886	3953
847.022	4071
847.158	3983
847.294	4006
847.429	4032
847.565	4010
847.701	4173
847.837	3915
847.972	3842
848.108	3937
848.244	3987
848.379	3850
848.515	3789
848.65	3846
848.786	3819
848.921	3857
849.057	3899
849.192	3934
849.328	3926
849.463	3918
849.598	3876
849.734	3812
849.869	3850
850.004	3789
850.14	3827
850.275	3793
850.41	3759
850.545	3762
850.68	3755
850.815	3770
850.95	3831
851.085	3949
851.22	3835
851.355	3816
851.49	3797
851.625	3819
851.76	3785
851.895	3751
852.03	3705
852.165	3854
852.299	3854
852.434	3869
852.569	3831
852.703	3861
852.838	3918
852.973	4044
853.107	3979
853.242	3861
853.376	3823
853.511	3743
853.645	3865
853.78	3968
853.914	3926
854.048	3892
854.183	3892
854.317	3937
854.451	4074
854.585	3968
854.72	3899
854.854	4029
854.988	3926
855.122	4002
855.256	3892
855.39	4017
855.524	4090
855.658	4040
855.792	4082
855.926	4105
856.06	4169
856.194	4173
856.327	4120
856.461	4116
856.595	4143
856.729	4192
856.862	4280
856.996	4234
857.13	4325
857.263	4333
857.397	4405
857.53	4310
857.664	4394
857.797	4398
857.931	4417
858.064	4417
858.197	4440
858.331	4394
858.464	4344
858.597	4367
858.731	4390
858.864	4432
858.997	4443
859.13	4516
859.263	4535
859.396	4565
859.529	4508
859.662	4519
859.795	4535
859.928	4645
860.061	4729
860.194	4759
860.327	4687
860.46	4622
860.592	4736
860.725	4733
860.858	4771
860.99	4691
861.123	4668
861.256	4679
861.388	4786
861.521	5398
861.653	4672
861.786	4736
861.918	4736
862.05	4755
862.183	4862
862.315	4881
862.447	4965
862.58	4904
862.712	4782
862.844	4752
862.976	4900
863.108	4877
863.24	5216
863.372	4824
863.504	4908
863.636	4919
863.768	4942
863.9	4923
864.032	4927
864.164	4999
864.296	5010
864.428	5079
864.559	5140
864.691	5121
864.823	5079
864.954	5147
865.086	5151
865.217	5117
865.349	5121
865.48	5113
865.612	5174
865.743	5216
865.875	5239
866.006	5204
866.137	5220
866.269	5212
866.4	5273
866.531	5288
866.662	5193
866.793	5296
866.924	5315
867.055	5379
867.186	5322
867.317	5353
867.448	5296
867.579	5383
867.71	5315
867.841	5357
867.972	5482
868.103	5448
868.233	5524
868.364	5509
868.495	5562
868.625	5657
868.756	5798
868.886	5657
869.017	5737
869.147	5863
869.278	5863
869.408	5805
869.539	5752
869.669	5958
869.799	5844
869.929	6019
870.06	6064
870.19	6159
870.32	6232
870.45	6266
870.58	6338
870.71	6403
870.84	6422
870.97	6475
871.1	6403
871.23	6608
871.36	6715
871.489	6620
871.619	6707
871.749	6722
871.879	6856
872.008	6985
872.138	6977
872.267	7050
872.397	6977
872.526	7057
872.656	7152
872.785	7190
872.915	7400
873.044	7556
873.173	7544
873.303	7658
873.432	7727
873.561	7879
873.69	7852
873.819	8012
873.948	8168
874.077	8248
874.206	8351
874.335	8415
874.464	8651
874.593	8887
874.722	8910
874.851	9104
874.979	9188
875.108	9428
875.237	9344
875.365	9477
875.494	9614
875.623	9835
875.751	9804
875.88	10013
876.008	10204
876.136	10207
876.265	10561
876.393	10706
876.521	10763
876.65	10733
876.778	10850
876.906	10854
877.034	10957
877.162	11048
877.29	11102
877.418	11334
877.546	11387
877.674	11425
877.802	11573
877.93	11520
878.058	11528
878.185	11665
878.313	11646
878.441	11863
878.568	11703
878.696	11764
878.824	11836
878.951	11897
879.079	12083
879.206	12152
879.333	12011
879.461	12011
879.588	12045
879.715	12098
879.842	12235
879.97	12030
880.097	11824
880.224	11904
880.351	11931
880.478	11882
880.605	11863
880.732	11767
880.859	12011
880.986	11722
881.112	11760
881.239	11771
881.366	11604
881.493	11691
881.619	11577
881.746	11589
881.872	11459
881.999	11585
882.125	11493
882.252	11482
882.378	11539
882.505	11551
882.631	11368
882.757	11311
882.883	11353
883.01	11284
883.136	11166
883.262	11151
883.388	11136
883.514	11151
883.64	11197
883.766	11079
883.892	11003
884.018	10968
884.143	11025
884.269	11025
884.395	10771
884.52	10778
884.646	10790
884.772	10710
884.897	10714
885.023	10672
885.148	10675
885.274	10801
885.399	10672
885.524	10668
885.65	10653
885.775	10554
885.9	10546
886.025	10656
886.15	10573
886.275	10413
886.4	10405
886.525	10424
886.65	10455
886.775	10238
886.9	10493
887.025	10504
887.149	10303
887.274	10169
887.399	10207
887.523	10192
887.648	10124
887.773	10128
887.897	10188
888.021	10215
888.146	10097
888.27	10215
888.395	10219
888.519	10124
888.643	10158
888.767	10192
888.891	10177
889.015	10032
889.139	10002
889.263	9930
889.387	10097
889.511	10166
889.635	10036
889.759	9884
889.883	9949
890.006	9972
890.13	10097
890.254	9888
890.377	9960
890.501	9823
890.624	9857
890.748	9987
890.871	9819
890.995	9724
891.118	9698
891.241	9705
891.364	9789
891.488	9846
891.611	9793
891.734	9740
891.857	9759
891.98	9698
892.103	9876
892.226	9747
892.349	9641
892.471	9466
892.594	9652
892.717	9610
892.839	9549
892.962	9625
893.085	9694
893.207	9610
893.33	9515
893.452	9519
893.575	9682
893.697	9485
893.819	9637
893.941	9625
894.064	9595
894.186	9466
894.308	9420
894.43	9534
894.552	9553
894.674	9469
894.796	9408
894.918	9386
895.04	9279
895.161	9329
895.283	9344
895.405	9275
895.526	9313
895.648	9218
895.769	9233
895.891	9287
896.012	9275
896.134	9245
896.255	9180
896.376	9081
896.498	9066
896.619	9112
896.74	9135
896.861	9097
896.982	9306
897.103	9393
897.224	9119
897.345	9074
897.466	8998
897.587	9017
897.708	9074
897.828	8990
897.949	8937
898.07	8796
898.19	8883
898.311	8975
898.431	8963
898.552	8937
898.672	8902
898.792	9001
898.913	8899
899.033	8826
899.153	8735
899.273	8716
899.393	8735
899.513	8724
899.633	8708
899.753	8788
899.873	8682
899.993	8800
900.113	8632
900.232	8670
900.352	8617
900.472	8632
900.591	8594
900.711	8587
900.83	8526
900.95	8552
901.069	8636
901.189	8655
901.308	8415
901.427	8347
901.546	8370
901.665	8465
901.784	8404
901.904	8358
902.023	8298
902.141	8218
902.26	8279
902.379	8263
902.498	8290
902.617	8145
902.735	8313
902.854	8286
902.973	8290
903.091	8081
903.21	8096
903.328	8107
903.446	8077
903.565	8126
903.683	8111
903.801	8073
903.919	8084
904.038	8092
904.156	8084
904.274	8054
904.392	8020
904.51	8031
904.627	8065
904.745	8123
904.863	8046
904.981	7906
905.098	7868
905.216	7887
905.334	7925
905.451	7898
905.569	7849
905.686	7883
905.803	7906
905.921	7807
906.038	7921
906.155	7769
906.272	7685
906.389	7757
906.506	7651
906.623	7636
906.74	7605
906.857	7556
906.974	7559
907.091	7616
907.208	7753
907.324	7647
907.441	7597
907.557	7487
907.674	7430
907.79	7388
907.907	7415
908.023	7415
908.139	7449
908.256	7369
908.372	7312
908.488	7373
908.604	7278
908.72	7194
908.836	7301
908.952	7206
909.068	7255
909.184	7350
909.3	7282
909.415	7293
909.531	7266
909.647	7141
909.762	7137
909.878	7057
909.993	7088
910.108	7095
910.224	7084
910.339	7126
910.454	7057
910.57	6943
910.685	6985
910.8	7179
910.915	7129
911.03	7027
911.145	6886
911.259	6852
911.374	6840
911.489	6795
911.604	6787
911.718	6745
911.833	6776
911.947	6692
912.062	6631
912.176	6703
912.291	6658
912.405	6722
912.519	6886
912.633	6844
912.748	6787
912.862	6700
912.976	6597
913.09	6536
913.204	6608
913.318	6631
913.431	6650
913.545	6700
913.659	6726
913.772	6665
913.886	6578
914	6551
914.113	6620
914.226	6646
914.34	6578
914.453	6506
914.566	6604
914.68	6589
914.793	6563
914.906	6452
915.019	6429
915.132	6304
915.245	6452
915.358	6486
915.47	6429
915.583	6467
915.696	6448
915.809	6570
915.921	6604
916.034	6403
916.146	6388
916.259	6342
916.371	6502
916.483	6456
916.595	6372
916.708	6441
916.82	6353
916.932	6456
917.044	6426
917.156	6433
917.268	6315
917.38	6342
917.491	6304
917.603	6292
917.715	6365
917.826	6452
917.938	6346
918.049	6308
918.161	6338
918.272	6376
918.384	6399
918.495	6331
918.606	6258
918.717	6209
918.828	6300
918.939	6308
919.05	6235
919.161	6239
919.272	6133
919.383	6144
919.494	6254
919.604	6456
919.715	6289
919.826	6266
919.936	6190
920.047	6300
920.157	6216
920.267	6467
920.378	6346
920.488	6270
920.598	6540
920.708	6578
920.818	6479
920.928	6467
921.038	6646
921.148	6578
921.258	6353
921.368	6277
921.477	6205
921.587	6190
921.697	6136
921.806	6186
921.916	6076
922.025	5939
922.134	5882
922.244	5859
922.353	5935
922.462	5786
922.571	5840
922.68	5775
922.789	5646
922.898	5718
923.007	5646
923.116	5726
923.224	5684
923.333	5638
923.442	5547
923.55	5573
923.659	5611
923.767	5600
923.876	5505
923.984	5589
924.092	5509
924.201	5535
924.309	5505
924.417	5547
924.525	5509
924.633	5452
924.741	6266
924.849	5376
924.956	5482
925.064	5318
925.172	5292
925.279	5337
925.387	5395
925.494	5334
925.602	5376
925.709	5364
925.816	5318
925.924	5315
926.031	5395
926.138	5288
926.245	5357
926.352	5239
926.459	5318
926.566	5318
926.673	5166
926.779	5170
926.886	5109
926.993	5014
927.099	5003
927.206	4938
927.312	4927
927.419	5006
927.525	4965
927.631	4987
927.737	4911
927.843	4831
927.95	4782
928.056	4793
928.162	4839
928.267	4805
928.373	5330
928.479	4870
928.585	4668
928.69	4767
928.796	4767
928.901	4656
929.007	4599
929.112	4694
929.218	4607
929.323	4603
929.428	4531
929.533	4694
929.638	4504
929.743	4508
929.848	4554
929.953	4489
930.058	4447
930.163	4303
930.267	4284
930.372	4428
930.477	4341
930.581	4432
930.685	4352
930.79	4246
930.894	4299
930.998	4261
931.103	4341
931.207	4143
931.311	4112
931.415	3991
931.519	3945
931.623	3941
