Data from glass_V78500241_2245.txt Node
Date: Wed Sep 01 19:30:03 CST 2021
User: usil
Spectrometer: V785-0024
Trigger mode: 0
Integration Time (sec): 4.000000E-1
Scans to average: 1
Nonlinearity correction enabled: false
Boxcar width: 0
Storing dark spectrum: false
XAxis mode: Wavelengths
Number of Pixels in Spectrum: 1024
>>>>>Begin Spectral Data<<<<<
801.071	3728
801.214	3740
801.356	3705
801.499	3736
801.641	3705
801.783	3751
801.926	3823
802.068	3854
802.211	3819
802.353	3869
802.496	3785
802.638	3861
802.78	3907
802.923	3953
803.065	3869
803.208	3861
803.35	3854
803.492	3930
803.635	3857
803.777	3819
803.919	3884
804.061	4162
804.204	3953
804.346	3930
804.488	3903
804.63	4032
804.773	3987
804.915	3994
805.057	4120
805.199	4051
805.341	4097
805.483	4071
805.626	4150
805.768	4086
805.91	4173
806.052	4215
806.194	4234
806.336	4329
806.478	4223
806.62	4181
806.762	4185
806.904	4215
807.046	4318
807.188	4219
807.33	4196
807.472	4246
807.614	4188
807.756	4291
807.898	4188
808.04	4215
808.182	4272
808.324	4318
808.465	4394
808.607	4512
808.749	4432
808.891	4455
809.033	4500
809.174	4371
809.316	4238
809.458	4238
809.6	4169
809.741	4150
809.883	4131
810.025	4211
810.166	4181
810.308	4204
810.45	4204
810.591	4227
810.733	4272
810.875	4504
811.016	4850
811.158	5143
811.299	5261
811.441	5296
811.582	5033
811.724	4645
811.865	4466
812.007	4466
812.148	4417
812.29	4379
812.431	4432
812.573	4371
812.714	4383
812.855	4432
812.997	4375
813.138	4474
813.279	4383
813.421	4405
813.562	4367
813.703	4329
813.845	4329
813.986	4246
814.127	4215
814.268	4261
814.41	4287
814.551	4223
814.692	4341
814.833	4215
814.974	4291
815.115	4303
815.256	4291
815.397	4204
815.539	4249
815.68	4185
815.821	4166
815.962	4230
816.103	4291
816.244	4249
816.385	4215
816.526	4291
816.666	4261
816.807	4071
816.948	4196
817.089	4162
817.23	4078
817.371	4040
817.512	4048
817.653	4036
817.793	4036
817.934	4029
818.075	4109
818.216	4040
818.356	4063
818.497	3994
818.638	3896
818.778	3907
818.919	3918
819.06	3873
819.2	3937
819.341	3873
819.481	3846
819.622	3934
819.762	4021
819.903	3979
820.043	3846
820.184	3831
820.324	3800
820.465	3903
820.605	3831
820.746	3812
820.886	3793
821.026	3896
821.167	3926
821.307	3972
821.447	3991
821.588	3899
821.728	3949
821.868	3918
822.008	3865
822.149	3918
822.289	3892
822.429	3759
822.569	3778
822.709	3835
822.849	3682
822.99	3720
823.13	3755
823.27	3747
823.41	3671
823.55	3736
823.69	3736
823.83	3785
823.97	3682
824.11	3584
824.25	3595
824.389	3610
824.529	3641
824.669	3564
824.809	3698
824.949	3743
825.089	3762
825.228	3713
825.368	3545
825.508	3587
825.648	3557
825.787	3561
825.927	3549
826.067	3595
826.206	3660
826.346	3816
826.485	3816
826.625	3850
826.765	3915
826.904	3785
827.044	3595
827.183	3507
827.323	3435
827.462	3416
827.601	3450
827.741	3424
827.88	3435
828.02	3355
828.159	3450
828.298	3469
828.437	3523
828.577	3462
828.716	3572
828.855	3515
828.994	3359
829.134	3363
829.273	3351
829.412	3336
829.551	3321
829.69	3359
829.829	3401
829.968	3477
830.107	3458
830.246	3405
830.385	3386
830.524	3370
830.663	3325
830.802	3207
830.941	3195
831.08	3214
831.219	3256
831.357	3253
831.496	3424
831.635	3211
831.774	3195
831.913	3211
832.051	3119
832.19	3135
832.329	3226
832.467	3108
832.606	3131
832.744	3173
832.883	3195
833.022	3184
833.16	3203
833.299	3310
833.437	3355
833.576	3367
833.714	3370
833.852	3397
833.991	3405
834.129	3462
834.267	3443
834.406	3401
834.544	3393
834.682	3378
834.821	3443
834.959	3584
835.097	3416
835.235	3542
835.373	3447
835.511	3507
835.65	3462
835.788	3462
835.926	3428
836.064	3355
836.202	3397
836.34	3564
836.478	3591
836.615	3545
836.753	3564
836.891	3660
837.029	3549
837.167	3610
837.305	3572
837.443	3549
837.58	3485
837.718	3591
837.856	3542
837.993	3519
838.131	3580
838.269	3534
838.406	3595
838.544	3553
838.681	3466
838.819	3416
838.956	3332
839.094	3389
839.231	3439
839.369	3439
839.506	3709
839.643	3606
839.781	3477
839.918	3431
840.055	3553
840.193	3492
840.33	3477
840.467	3561
840.604	3538
840.742	3827
840.879	3519
841.016	3545
841.153	3584
841.29	3713
841.427	3728
841.564	3698
841.701	3774
841.838	3713
841.975	3698
842.112	3705
842.249	3629
842.385	3637
842.522	3781
842.659	3660
842.796	3686
842.933	3701
843.069	3701
843.206	3671
843.343	3781
843.479	3819
843.616	3850
843.752	3671
843.889	3675
844.025	3884
844.162	3717
844.298	3842
844.435	3800
844.571	3770
844.708	3907
844.844	3994
844.98	4044
845.117	3991
845.253	3911
845.389	3918
845.525	3934
845.661	3979
845.798	3953
845.934	4002
846.07	3968
846.206	4067
846.342	4090
846.478	4025
846.614	3934
846.75	3888
846.886	3865
847.022	4063
847.158	3956
847.294	3983
847.429	4010
847.565	4002
847.701	4181
847.837	3888
847.972	3861
848.108	3964
848.244	3949
848.379	3880
848.515	3789
848.65	3785
848.786	3857
848.921	3857
849.057	3930
849.192	3987
849.328	3922
849.463	3934
849.598	3850
849.734	3850
849.869	3797
850.004	3804
850.14	3854
850.275	3797
850.41	3747
850.545	3762
850.68	3766
850.815	3762
850.95	3781
851.085	3945
851.22	3869
851.355	3873
851.49	3819
851.625	3774
851.76	3736
851.895	3720
852.03	3694
852.165	3766
852.299	3854
852.434	3896
852.569	3854
852.703	3896
852.838	3896
852.973	3956
853.107	3998
853.242	3888
853.376	3876
853.511	3785
853.645	3823
853.78	3956
853.914	3930
854.048	3918
854.183	3857
854.317	3975
854.451	4097
854.585	3968
854.72	3930
854.854	4074
854.988	3915
855.122	4010
855.256	3934
855.39	4025
855.524	4109
855.658	4074
855.792	4051
855.926	4067
856.06	4116
856.194	4177
856.327	4112
856.461	4135
856.595	4139
856.729	4169
856.862	4253
856.996	4257
857.13	4306
857.263	4322
857.397	4299
857.53	4227
857.664	4284
857.797	4386
857.931	4402
858.064	4344
858.197	4466
858.331	4363
858.464	4421
858.597	4306
858.731	4470
858.864	4409
858.997	4413
859.13	4504
859.263	4584
859.396	4550
859.529	4489
859.662	4535
859.795	4573
859.928	4584
860.061	4649
860.194	4740
860.327	4683
860.46	4596
860.592	4729
860.725	4755
860.858	4771
860.99	4668
861.123	4672
861.256	4717
861.388	4778
861.521	5250
861.653	4698
861.786	4702
861.918	4748
862.05	4763
862.183	4835
862.315	4881
862.447	4930
862.58	4870
862.712	4755
862.844	4729
862.976	4889
863.108	4835
863.24	5166
863.372	4858
863.504	4904
863.636	4908
863.768	4938
863.9	4953
864.032	4881
864.164	4938
864.296	5003
864.428	5048
864.559	5079
864.691	5086
864.823	5147
864.954	5098
865.086	5147
865.217	5121
865.349	5018
865.48	5124
865.612	5189
865.743	5299
865.875	5193
866.006	5117
866.137	5239
866.269	5189
866.4	5239
866.531	5216
866.662	5269
866.793	5227
866.924	5353
867.055	5311
867.186	5292
867.317	5383
867.448	5299
867.579	5391
867.71	5360
867.841	5421
867.972	5429
868.103	5452
868.233	5524
868.364	5505
868.495	5535
868.625	5672
868.756	5786
868.886	5638
869.017	5680
869.147	5878
869.278	5893
869.408	5802
869.539	5809
869.669	5916
869.799	5870
869.929	5954
870.06	5996
870.19	6155
870.32	6201
870.45	6239
870.58	6281
870.71	6338
870.84	6403
870.97	6323
871.1	6422
871.23	6654
871.36	6673
871.489	6616
871.619	6700
871.749	6795
871.879	6932
872.008	6943
872.138	6970
872.267	6985
872.397	7012
872.526	6970
872.656	7084
872.785	7179
872.915	7381
873.044	7552
873.173	7537
873.303	7628
873.432	7734
873.561	7845
873.69	7913
873.819	7974
873.948	8164
874.077	8221
874.206	8271
874.335	8427
874.464	8579
874.593	8849
874.722	8887
874.851	9108
874.979	9192
875.108	9370
875.237	9389
875.365	9511
875.494	9644
875.623	9850
875.751	9755
875.88	9945
876.008	10078
876.136	10261
876.265	10436
876.393	10641
876.521	10710
876.65	10885
876.778	10866
876.906	10949
877.034	10919
877.162	11102
877.29	11079
877.418	11212
877.546	11265
877.674	11459
877.802	11406
877.93	11493
878.058	11516
878.185	11608
878.313	11623
878.441	11657
878.568	11707
878.696	11790
878.824	11851
878.951	11954
879.079	11942
879.206	12106
879.333	12121
879.461	11999
879.588	12079
879.715	12068
879.842	12232
879.97	12110
880.097	11893
880.224	11889
880.351	11882
880.478	11847
880.605	11836
880.732	11798
880.859	11920
880.986	11832
881.112	11882
881.239	11699
881.366	11653
881.493	11562
881.619	11497
881.746	11600
881.872	11520
881.999	11455
882.125	11429
882.252	11535
882.378	11543
882.505	11543
882.631	11490
882.757	11265
882.883	11429
883.01	11261
883.136	11223
883.262	11113
883.388	11056
883.514	11079
883.64	11140
883.766	11067
883.892	11083
884.018	10984
884.143	11064
884.269	11102
884.395	10854
884.52	10717
884.646	10801
884.772	10725
884.897	10668
885.023	10630
885.148	10748
885.274	10869
885.399	10714
885.524	10607
885.65	10580
885.775	10607
885.9	10535
886.025	10561
886.15	10592
886.275	10497
886.4	10405
886.525	10367
886.65	10337
886.775	10356
886.9	10432
887.025	10565
887.149	10329
887.274	10207
887.399	10143
887.523	10169
887.648	10116
887.773	10063
887.897	10265
888.021	10234
888.146	10078
888.27	10223
888.395	10295
888.519	10131
888.643	10166
888.767	10215
888.891	10097
889.015	9941
889.139	10105
889.263	9964
889.387	10120
889.511	10090
889.635	10036
889.759	9903
889.883	9960
890.006	9998
890.13	10067
890.254	9960
890.377	9956
890.501	9762
890.624	9755
890.748	9880
890.871	9835
890.995	9751
891.118	9663
891.241	9751
891.364	9759
891.488	9827
891.611	9778
891.734	9743
891.857	9762
891.98	9709
892.103	9800
892.226	9736
892.349	9720
892.471	9500
892.594	9633
892.717	9576
892.839	9584
892.962	9606
893.085	9671
893.207	9599
893.33	9549
893.452	9405
893.575	9709
893.697	9458
893.819	9549
893.941	9679
894.064	9637
894.186	9408
894.308	9416
894.43	9515
894.552	9564
894.674	9416
894.796	9393
894.918	9374
895.04	9348
895.161	9393
895.283	9344
895.405	9249
895.526	9233
895.648	9192
895.769	9245
895.891	9241
896.012	9279
896.134	9199
896.255	9142
896.376	9142
896.498	9188
896.619	9066
896.74	9036
896.861	9142
896.982	9336
897.103	9275
897.224	9138
897.345	9138
897.466	8941
897.587	9055
897.708	9058
897.828	9028
897.949	8921
898.07	8941
898.19	8845
898.311	8941
898.431	8880
898.552	8986
898.672	8941
898.792	8910
898.913	8902
899.033	8826
899.153	8693
899.273	8564
899.393	8659
899.513	8766
899.633	8731
899.753	8686
899.873	8678
899.993	8712
900.113	8724
900.232	8735
900.352	8632
900.472	8549
900.591	8564
900.711	8621
900.83	8564
900.95	8670
901.069	8686
901.189	8537
901.308	8442
901.427	8381
901.546	8431
901.665	8427
901.784	8431
901.904	8442
902.023	8267
902.141	8244
902.26	8225
902.379	8301
902.498	8256
902.617	8157
902.735	8282
902.854	8294
902.973	8218
903.091	8161
903.21	8172
903.328	8210
903.446	8073
903.565	8054
903.683	8103
903.801	8088
903.919	8077
904.038	8176
904.156	8077
904.274	8069
904.392	7963
904.51	8024
904.627	8054
904.745	8046
904.863	8115
904.981	7940
905.098	7852
905.216	7860
905.334	7852
905.451	7967
905.569	7883
905.686	7860
905.803	7913
905.921	7776
906.038	7852
906.155	7784
906.272	7666
906.389	7742
906.506	7609
906.623	7651
906.74	7594
906.857	7537
906.974	7578
907.091	7689
907.208	7712
907.324	7681
907.441	7491
907.557	7362
907.674	7369
907.79	7335
907.907	7369
908.023	7426
908.139	7365
908.256	7365
908.372	7282
908.488	7350
908.604	7225
908.72	7232
908.836	7270
908.952	7240
909.068	7221
909.184	7274
909.3	7270
909.415	7236
909.531	7301
909.647	7080
909.762	7065
909.878	7107
909.993	7103
910.108	7053
910.224	7027
910.339	7126
910.454	7046
910.57	7042
910.685	6901
910.8	7095
910.915	7114
911.03	7042
911.145	6882
911.259	6863
911.374	6863
911.489	6776
911.604	6787
911.718	6745
911.833	6764
911.947	6642
912.062	6604
912.176	6692
912.291	6669
912.405	6719
912.519	6810
912.633	6791
912.748	6715
912.862	6688
912.976	6559
913.09	6525
913.204	6601
913.318	6623
913.431	6665
913.545	6665
913.659	6627
913.772	6635
913.886	6486
914	6494
914.113	6627
914.226	6658
914.34	6642
914.453	6437
914.566	6604
914.68	6525
914.793	6509
914.906	6384
915.019	6384
915.132	6346
915.245	6437
915.358	6426
915.47	6426
915.583	6433
915.696	6532
915.809	6490
915.921	6525
916.034	6426
916.146	6426
916.259	6365
916.371	6445
916.483	6437
916.595	6365
916.708	6429
916.82	6323
916.932	6391
917.044	6331
917.156	6369
917.268	6346
917.38	6342
917.491	6342
917.603	6289
917.715	6414
917.826	6403
917.938	6346
918.049	6232
918.161	6346
918.272	6338
918.384	6445
918.495	6353
918.606	6266
918.717	6216
918.828	6327
918.939	6315
919.05	6213
919.161	6292
919.272	6083
919.383	6136
919.494	6273
919.604	6433
919.715	6296
919.826	6254
919.936	6175
920.047	6346
920.157	6266
920.267	6437
920.378	6338
920.488	6304
920.598	6479
920.708	6540
920.818	6486
920.928	6467
921.038	6597
921.148	6574
921.258	6437
921.368	6334
921.477	6194
921.587	6121
921.697	6064
921.806	6133
921.916	5999
922.025	5912
922.134	5904
922.244	5817
922.353	5946
922.462	5893
922.571	5794
922.68	5676
922.789	5676
922.898	5710
923.007	5615
923.116	5688
923.224	5630
923.333	5623
923.442	5577
923.55	5615
923.659	5570
923.767	5665
923.876	5520
923.984	5608
924.092	5501
924.201	5512
924.309	5528
924.417	5539
924.525	5532
924.633	5516
924.741	6251
924.849	5311
924.956	5478
925.064	5318
925.172	5307
925.279	5318
925.387	5372
925.494	5341
925.602	5406
925.709	5387
925.816	5349
925.924	5280
926.031	5360
926.138	5246
926.245	5296
926.352	5208
926.459	5307
926.566	5307
926.673	5185
926.779	5166
926.886	5147
926.993	5033
927.099	4968
927.206	4942
927.312	4942
927.419	4987
927.525	4995
927.631	4987
927.737	4908
927.843	4862
927.95	4801
928.056	4828
928.162	4824
928.267	4839
928.373	5357
928.479	4850
928.585	4626
928.69	4744
928.796	4771
928.901	4649
929.007	4531
929.112	4630
929.218	4645
929.323	4577
929.428	4561
929.533	4649
929.638	4516
929.743	4519
929.848	4573
929.953	4474
930.058	4451
930.163	4333
930.267	4318
930.372	4386
930.477	4291
930.581	4443
930.685	4333
930.79	4261
930.894	4272
930.998	4242
931.103	4337
931.207	4109
931.311	4059
931.415	4040
931.519	3956
931.623	3953
