Data from glass_V78500241_1004.txt Node
Date: Wed Sep 01 19:21:27 CST 2021
User: usil
Spectrometer: V785-0024
Trigger mode: 0
Integration Time (sec): 4.000000E-1
Scans to average: 1
Nonlinearity correction enabled: false
Boxcar width: 0
Storing dark spectrum: false
XAxis mode: Wavelengths
Number of Pixels in Spectrum: 1024
>>>>>Begin Spectral Data<<<<<
801.071	3740
801.214	3759
801.356	3690
801.499	3728
801.641	3751
801.783	3778
801.926	3842
802.068	3888
802.211	3892
802.353	3945
802.496	3865
802.638	3884
802.78	3873
802.923	3926
803.065	3892
803.208	3842
803.35	3911
803.492	3842
803.635	3911
803.777	3804
803.919	3903
804.061	4147
804.204	3953
804.346	3934
804.488	3964
804.63	4036
804.773	3979
804.915	4067
805.057	4135
805.199	4071
805.341	4097
805.483	4135
805.626	4150
805.768	4120
805.91	4215
806.052	4284
806.194	4211
806.336	4432
806.478	4257
806.62	4211
806.762	4211
806.904	4268
807.046	4352
807.188	4211
807.33	4150
807.472	4249
807.614	4204
807.756	4234
807.898	4215
808.04	4200
808.182	4333
808.324	4287
808.465	4390
808.607	4436
808.749	4459
808.891	4455
809.033	4535
809.174	4424
809.316	4322
809.458	4223
809.6	4116
809.741	4200
809.883	4150
810.025	4204
810.166	4227
810.308	4204
810.45	4257
810.591	4265
810.733	4303
810.875	4500
811.016	4816
811.158	5102
811.299	5216
811.441	5322
811.582	5079
811.724	4717
811.865	4489
812.007	4481
812.148	4421
812.29	4413
812.431	4432
812.573	4409
812.714	4405
812.855	4394
812.997	4436
813.138	4554
813.279	4428
813.421	4405
813.562	4352
813.703	4371
813.845	4348
813.986	4284
814.127	4242
814.268	4257
814.41	4253
814.551	4246
814.692	4314
814.833	4280
814.974	4295
815.115	4314
815.256	4246
815.397	4242
815.539	4242
815.68	4207
815.821	4204
815.962	4325
816.103	4295
816.244	4227
816.385	4219
816.526	4280
816.666	4265
816.807	4101
816.948	4219
817.089	4196
817.23	4124
817.371	4040
817.512	4078
817.653	4090
817.793	4063
817.934	4105
818.075	4128
818.216	4032
818.356	4059
818.497	3968
818.638	3953
818.778	3934
818.919	3918
819.06	3865
819.2	3918
819.341	3876
819.481	3857
819.622	3945
819.762	4021
819.903	3964
820.043	3892
820.184	3838
820.324	3804
820.465	3857
820.605	3907
820.746	3903
820.886	3842
821.026	3937
821.167	3953
821.307	3994
821.447	3983
821.588	3979
821.728	3987
821.868	3953
822.008	3873
822.149	3934
822.289	3888
822.429	3823
822.569	3720
822.709	3835
822.849	3743
822.99	3724
823.13	3797
823.27	3751
823.41	3770
823.55	3747
823.69	3694
823.83	3762
823.97	3709
824.11	3652
824.25	3599
824.389	3671
824.529	3675
824.669	3679
824.809	3717
824.949	3740
825.089	3778
825.228	3709
825.368	3610
825.508	3557
825.648	3587
825.787	3660
825.927	3595
826.067	3591
826.206	3629
826.346	3747
826.485	3869
826.625	3869
826.765	3949
826.904	3857
827.044	3595
827.183	3504
827.323	3458
827.462	3488
827.601	3428
827.741	3435
827.88	3431
828.02	3389
828.159	3504
828.298	3481
828.437	3542
828.577	3488
828.716	3622
828.855	3542
828.994	3397
829.134	3382
829.273	3397
829.412	3359
829.551	3359
829.69	3370
829.829	3412
829.968	3515
830.107	3435
830.246	3496
830.385	3389
830.524	3378
830.663	3310
830.802	3230
830.941	3188
831.08	3176
831.219	3268
831.357	3306
831.496	3428
831.635	3268
831.774	3203
831.913	3233
832.051	3131
832.19	3157
832.329	3207
832.467	3157
832.606	3157
832.744	3138
832.883	3188
833.022	3233
833.16	3294
833.299	3317
833.437	3340
833.576	3367
833.714	3409
833.852	3462
833.991	3416
834.129	3477
834.267	3424
834.406	3401
834.544	3424
834.682	3435
834.821	3431
834.959	3576
835.097	3420
835.235	3538
835.373	3454
835.511	3591
835.65	3485
835.788	3496
835.926	3397
836.064	3389
836.202	3420
836.34	3557
836.478	3595
836.615	3519
836.753	3603
836.891	3633
837.029	3644
837.167	3629
837.305	3557
837.443	3557
837.58	3504
837.718	3591
837.856	3587
837.993	3564
838.131	3561
838.269	3538
838.406	3610
838.544	3599
838.681	3466
838.819	3485
838.956	3435
839.094	3412
839.231	3458
839.369	3526
839.506	3743
839.643	3637
839.781	3473
839.918	3473
840.055	3530
840.193	3538
840.33	3523
840.467	3572
840.604	3618
840.742	3819
840.879	3561
841.016	3572
841.153	3625
841.29	3755
841.427	3740
841.564	3740
841.701	3781
841.838	3747
841.975	3701
842.112	3728
842.249	3629
842.385	3652
842.522	3850
842.659	3660
842.796	3713
842.933	3724
843.069	3701
843.206	3709
843.343	3827
843.479	3785
843.616	3812
843.752	3656
843.889	3717
844.025	3873
844.162	3724
844.298	3857
844.435	3770
844.571	3819
844.708	3911
844.844	3983
844.98	4078
845.117	4017
845.253	3926
845.389	3945
845.525	3983
845.661	4013
845.798	3930
845.934	3968
846.07	3991
846.206	4078
846.342	4158
846.478	4112
846.614	3956
846.75	3941
846.886	3888
847.022	4025
847.158	4017
847.294	3979
847.429	4040
847.565	4021
847.701	4230
847.837	3911
847.972	3842
848.108	3975
848.244	3960
848.379	3838
848.515	3846
848.65	3812
848.786	3835
848.921	3838
849.057	3903
849.192	3991
849.328	3907
849.463	3930
849.598	3846
849.734	3865
849.869	3842
850.004	3789
850.14	3808
850.275	3778
850.41	3728
850.545	3800
850.68	3781
850.815	3850
850.95	3793
851.085	3941
851.22	3869
851.355	3835
851.49	3800
851.625	3827
851.76	3785
851.895	3762
852.03	3728
852.165	3808
852.299	3869
852.434	3888
852.569	3915
852.703	3918
852.838	3968
852.973	4036
853.107	4021
853.242	3899
853.376	3861
853.511	3816
853.645	3857
853.78	3987
853.914	3918
854.048	3896
854.183	3880
854.317	3926
854.451	4086
854.585	3922
854.72	3953
854.854	4086
854.988	3953
855.122	4044
855.256	3945
855.39	4029
855.524	4169
855.658	4128
855.792	4090
855.926	4124
856.06	4219
856.194	4215
856.327	4139
856.461	4116
856.595	4147
856.729	4169
856.862	4306
856.996	4249
857.13	4348
857.263	4348
857.397	4310
857.53	4344
857.664	4360
857.797	4455
857.931	4451
858.064	4379
858.197	4481
858.331	4402
858.464	4341
858.597	4348
858.731	4451
858.864	4459
858.997	4451
859.13	4558
859.263	4516
859.396	4569
859.529	4561
859.662	4538
859.795	4565
859.928	4573
860.061	4698
860.194	4736
860.327	4656
860.46	4698
860.592	4736
860.725	4812
860.858	4774
860.99	4729
861.123	4664
861.256	4702
861.388	4755
861.521	5505
861.653	4752
861.786	4752
861.918	4714
862.05	4774
862.183	4824
862.315	4889
862.447	4927
862.58	4919
862.712	4767
862.844	4782
862.976	4881
863.108	4850
863.24	5277
863.372	4843
863.504	4923
863.636	4961
863.768	4991
863.9	4976
864.032	4957
864.164	4984
864.296	5033
864.428	5067
864.559	5094
864.691	5113
864.823	5105
864.954	5113
865.086	5147
865.217	5162
865.349	5128
865.48	5181
865.612	5140
865.743	5322
865.875	5216
866.006	5174
866.137	5227
866.269	5269
866.4	5212
866.531	5223
866.662	5273
866.793	5265
866.924	5334
867.055	5326
867.186	5436
867.317	5337
867.448	5345
867.579	5398
867.71	5417
867.841	5383
867.972	5486
868.103	5448
868.233	5516
868.364	5512
868.495	5558
868.625	5691
868.756	5767
868.886	5684
869.017	5748
869.147	5832
869.278	5851
869.408	5821
869.539	5844
869.669	5946
869.799	5885
869.929	5984
870.06	6011
870.19	6209
870.32	6171
870.45	6266
870.58	6334
870.71	6475
870.84	6494
870.97	6437
871.1	6433
871.23	6642
871.36	6700
871.489	6684
871.619	6783
871.749	6840
871.879	6818
872.008	7000
872.138	7034
872.267	7084
872.397	6985
872.526	7069
872.656	7126
872.785	7225
872.915	7358
873.044	7559
873.173	7590
873.303	7693
873.432	7788
873.561	7974
873.69	7951
873.819	8081
873.948	8130
874.077	8305
874.206	8385
874.335	8484
874.464	8724
874.593	8845
874.722	8967
874.851	9218
874.979	9207
875.108	9450
875.237	9405
875.365	9526
875.494	9644
875.623	9838
875.751	9854
875.88	10006
876.008	10207
876.136	10238
876.265	10538
876.393	10672
876.521	10809
876.65	10839
876.778	10820
876.906	10980
877.034	10980
877.162	11098
877.29	11220
877.418	11296
877.546	11345
877.674	11444
877.802	11509
877.93	11516
878.058	11600
878.185	11627
878.313	11752
878.441	11790
878.568	11691
878.696	11767
878.824	11885
878.951	12011
879.079	12007
879.206	12201
879.333	12136
879.461	11954
879.588	12057
879.715	12038
879.842	12201
879.97	12060
880.097	11843
880.224	11874
880.351	11897
880.478	11863
880.605	11874
880.732	11885
880.859	11996
880.986	11783
881.112	11931
881.239	11745
881.366	11627
881.493	11649
881.619	11543
881.746	11596
881.872	11581
881.999	11512
882.125	11482
882.252	11558
882.378	11417
882.505	11566
882.631	11429
882.757	11299
882.883	11292
883.01	11322
883.136	11151
883.262	11151
883.388	11109
883.514	11208
883.64	11223
883.766	11086
883.892	11045
884.018	10984
884.143	11079
884.269	11105
884.395	10927
884.52	10755
884.646	10843
884.772	10694
884.897	10717
885.023	10603
885.148	10656
885.274	10744
885.399	10710
885.524	10607
885.65	10653
885.775	10641
885.9	10622
886.025	10558
886.15	10580
886.275	10466
886.4	10489
886.525	10409
886.65	10390
886.775	10329
886.9	10432
887.025	10554
887.149	10310
887.274	10310
887.399	10234
887.523	10139
887.648	10131
887.773	10101
887.897	10238
888.021	10204
888.146	10207
888.27	10196
888.395	10268
888.519	10196
888.643	10188
888.767	10268
888.891	10139
889.015	9956
889.139	10078
889.263	9937
889.387	10074
889.511	10188
889.635	10067
889.759	10010
889.883	10021
890.006	10010
890.13	10013
890.254	9930
890.377	10013
890.501	9808
890.624	9861
890.748	9850
890.871	9766
890.995	9804
891.118	9679
891.241	9793
891.364	9804
891.488	9895
891.611	9743
891.734	9743
891.857	9823
891.98	9679
892.103	9732
892.226	9736
892.349	9656
892.471	9549
892.594	9595
892.717	9656
892.839	9622
892.962	9599
893.085	9663
893.207	9614
893.33	9477
893.452	9500
893.575	9614
893.697	9519
893.819	9606
893.941	9644
894.064	9648
894.186	9462
894.308	9340
894.43	9595
894.552	9564
894.674	9534
894.796	9405
894.918	9374
895.04	9317
895.161	9393
895.283	9348
895.405	9245
895.526	9249
895.648	9260
895.769	9195
895.891	9264
896.012	9245
896.134	9313
896.255	9207
896.376	9211
896.498	9173
896.619	9146
896.74	9146
896.861	9176
896.982	9249
897.103	9359
897.224	9047
897.345	9119
897.466	8982
897.587	9085
897.708	9104
897.828	8967
897.949	8952
898.07	8914
898.19	8906
898.311	9074
898.431	8948
898.552	8906
898.672	8887
898.792	8982
898.913	8910
899.033	8823
899.153	8769
899.273	8667
899.393	8792
899.513	8735
899.633	8708
899.753	8720
899.873	8701
899.993	8781
900.113	8762
900.232	8727
900.352	8689
900.472	8655
900.591	8503
900.711	8556
900.83	8560
900.95	8625
901.069	8648
901.189	8629
901.308	8457
901.427	8434
901.546	8408
901.665	8404
901.784	8571
901.904	8320
902.023	8320
902.141	8271
902.26	8225
902.379	8320
902.498	8187
902.617	8218
902.735	8332
902.854	8343
902.973	8301
903.091	8164
903.21	8115
903.328	8138
903.446	8187
903.565	8073
903.683	8164
903.801	8020
903.919	8138
904.038	8077
904.156	8031
904.274	8073
904.392	8073
904.51	8123
904.627	8065
904.745	8103
904.863	8081
904.981	7925
905.098	7845
905.216	7932
905.334	7925
905.451	7932
905.569	7906
905.686	7902
905.803	7890
905.921	7780
906.038	7864
906.155	7811
906.272	7734
906.389	7731
906.506	7613
906.623	7586
906.74	7620
906.857	7518
906.974	7586
907.091	7674
907.208	7788
907.324	7624
907.441	7559
907.557	7525
907.674	7491
907.79	7403
907.907	7430
908.023	7472
908.139	7335
908.256	7320
908.372	7411
908.488	7339
908.604	7369
908.72	7244
908.836	7221
908.952	7324
909.068	7278
909.184	7327
909.3	7285
909.415	7346
909.531	7259
909.647	7107
909.762	7103
909.878	7141
909.993	7088
910.108	7110
910.224	7038
910.339	7118
910.454	7019
910.57	6996
910.685	7015
910.8	7217
910.915	7129
911.03	6966
911.145	6871
911.259	6875
911.374	6901
911.489	6863
911.604	6840
911.718	6711
911.833	6730
911.947	6642
912.062	6646
912.176	6711
912.291	6669
912.405	6650
912.519	6894
912.633	6814
912.748	6719
912.862	6711
912.976	6563
913.09	6574
913.204	6669
913.318	6654
913.431	6684
913.545	6665
913.659	6726
913.772	6635
913.886	6601
914	6555
914.113	6578
914.226	6635
914.34	6604
914.453	6521
914.566	6620
914.68	6517
914.793	6547
914.906	6407
915.019	6410
915.132	6403
915.245	6513
915.358	6498
915.47	6525
915.583	6525
915.696	6502
915.809	6566
915.921	6471
916.034	6429
916.146	6418
916.259	6414
916.371	6517
916.483	6525
916.595	6384
916.708	6346
916.82	6391
916.932	6391
917.044	6410
917.156	6418
917.268	6422
917.38	6399
917.491	6300
917.603	6304
917.715	6391
917.826	6414
917.938	6350
918.049	6254
918.161	6353
918.272	6471
918.384	6361
918.495	6346
918.606	6205
918.717	6228
918.828	6285
918.939	6262
919.05	6182
919.161	6311
919.272	6083
919.383	6171
919.494	6315
919.604	6456
919.715	6311
919.826	6224
919.936	6262
920.047	6327
920.157	6300
920.267	6456
920.378	6346
920.488	6239
920.598	6414
920.708	6555
920.818	6456
920.928	6483
921.038	6696
921.148	6498
921.258	6384
921.368	6300
921.477	6216
921.587	6232
921.697	6045
921.806	6186
921.916	6117
922.025	5977
922.134	5912
922.244	5920
922.353	5977
922.462	5859
922.571	5775
922.68	5737
922.789	5691
922.898	5726
923.007	5604
923.116	5703
923.224	5665
923.333	5672
923.442	5646
923.55	5649
923.659	5630
923.767	5661
923.876	5592
923.984	5619
924.092	5436
924.201	5505
924.309	5570
924.417	5558
924.525	5482
924.633	5539
924.741	6273
924.849	5379
924.956	5573
925.064	5334
925.172	5315
925.279	5376
925.387	5326
925.494	5387
925.602	5417
925.709	5410
925.816	5326
925.924	5318
926.031	5379
926.138	5315
926.245	5258
926.352	5216
926.459	5360
926.566	5330
926.673	5258
926.779	5094
926.886	5170
926.993	5045
927.099	4980
927.206	4987
927.312	4953
927.419	5010
927.525	4965
927.631	4984
927.737	4828
927.843	4847
927.95	4752
928.056	4824
928.162	4793
928.267	4911
928.373	5379
928.479	4809
928.585	4729
928.69	4854
928.796	4774
928.901	4702
929.007	4611
929.112	4698
929.218	4641
929.323	4607
929.428	4603
929.533	4687
929.638	4565
929.743	4527
929.848	4588
929.953	4485
930.058	4451
930.163	4341
930.267	4344
930.372	4440
930.477	4291
930.581	4462
930.685	4348
930.79	4306
930.894	4325
930.998	4276
931.103	4386
931.207	4143
931.311	4101
931.415	4082
931.519	3945
931.623	3945
