Data from glass_V78500241_1163.txt Node
Date: Wed Sep 01 19:22:33 CST 2021
User: usil
Spectrometer: V785-0024
Trigger mode: 0
Integration Time (sec): 4.000000E-1
Scans to average: 1
Nonlinearity correction enabled: false
Boxcar width: 0
Storing dark spectrum: false
XAxis mode: Wavelengths
Number of Pixels in Spectrum: 1024
>>>>>Begin Spectral Data<<<<<
801.071	3736
801.214	3789
801.356	3682
801.499	3751
801.641	3774
801.783	3819
801.926	3861
802.068	3800
802.211	3854
802.353	3934
802.496	3835
802.638	3865
802.78	3922
802.923	3918
803.065	3945
803.208	3876
803.35	3892
803.492	3915
803.635	3907
803.777	3785
803.919	3945
804.061	4120
804.204	3972
804.346	3949
804.488	3911
804.63	4097
804.773	3991
804.915	4101
805.057	4143
805.199	4044
805.341	4097
805.483	4166
805.626	4135
805.768	4109
805.91	4169
806.052	4204
806.194	4249
806.336	4383
806.478	4204
806.62	4234
806.762	4211
806.904	4261
807.046	4352
807.188	4272
807.33	4185
807.472	4211
807.614	4166
807.756	4268
807.898	4238
808.04	4230
808.182	4306
808.324	4287
808.465	4360
808.607	4474
808.749	4451
808.891	4512
809.033	4550
809.174	4417
809.316	4310
809.458	4242
809.6	4120
809.741	4181
809.883	4147
810.025	4242
810.166	4196
810.308	4291
810.45	4242
810.591	4227
810.733	4253
810.875	4489
811.016	4824
811.158	5166
811.299	5307
811.441	5299
811.582	5041
811.724	4706
811.865	4497
812.007	4470
812.148	4481
812.29	4455
812.431	4455
812.573	4409
812.714	4371
812.855	4428
812.997	4405
813.138	4497
813.279	4493
813.421	4390
813.562	4432
813.703	4352
813.845	4329
813.986	4272
814.127	4242
814.268	4314
814.41	4303
814.551	4272
814.692	4329
814.833	4284
814.974	4257
815.115	4306
815.256	4272
815.397	4268
815.539	4268
815.68	4204
815.821	4230
815.962	4291
816.103	4284
816.244	4246
816.385	4242
816.526	4287
816.666	4246
816.807	4128
816.948	4166
817.089	4177
817.23	4067
817.371	4067
817.512	4101
817.653	4105
817.793	4067
817.934	4055
818.075	4112
818.216	4120
818.356	4086
818.497	3987
818.638	3922
818.778	3907
818.919	3896
819.06	3873
819.2	3899
819.341	3884
819.481	3873
819.622	3960
819.762	4010
819.903	3915
820.043	3869
820.184	3827
820.324	3797
820.465	3869
820.605	3884
820.746	3831
820.886	3800
821.026	3937
821.167	3915
821.307	3972
821.447	4010
821.588	3953
821.728	3975
821.868	3983
822.008	3854
822.149	3926
822.289	3918
822.429	3785
822.569	3778
822.709	3797
822.849	3759
822.99	3747
823.13	3770
823.27	3816
823.41	3766
823.55	3766
823.69	3751
823.83	3743
823.97	3663
824.11	3622
824.25	3614
824.389	3629
824.529	3675
824.669	3641
824.809	3701
824.949	3724
825.089	3762
825.228	3720
825.368	3618
825.508	3542
825.648	3610
825.787	3584
825.927	3644
826.067	3618
826.206	3679
826.346	3838
826.485	3869
826.625	3880
826.765	3930
826.904	3876
827.044	3637
827.183	3538
827.323	3458
827.462	3473
827.601	3405
827.741	3428
827.88	3469
828.02	3336
828.159	3435
828.298	3473
828.437	3523
828.577	3458
828.716	3629
828.855	3515
828.994	3405
829.134	3397
829.273	3416
829.412	3344
829.551	3359
829.69	3409
829.829	3469
829.968	3519
830.107	3443
830.246	3450
830.385	3424
830.524	3344
830.663	3279
830.802	3279
830.941	3218
831.08	3199
831.219	3275
831.357	3268
831.496	3428
831.635	3260
831.774	3230
831.913	3249
832.051	3161
832.19	3180
832.329	3245
832.467	3131
832.606	3116
832.744	3211
832.883	3192
833.022	3207
833.16	3283
833.299	3275
833.437	3302
833.576	3405
833.714	3424
833.852	3454
833.991	3492
834.129	3431
834.267	3477
834.406	3416
834.544	3412
834.682	3431
834.821	3424
834.959	3572
835.097	3424
835.235	3538
835.373	3488
835.511	3481
835.65	3443
835.788	3507
835.926	3409
836.064	3405
836.202	3405
836.34	3568
836.478	3629
836.615	3545
836.753	3622
836.891	3686
837.029	3648
837.167	3553
837.305	3568
837.443	3614
837.58	3496
837.718	3553
837.856	3580
837.993	3564
838.131	3580
838.269	3606
838.406	3584
838.544	3587
838.681	3496
838.819	3492
838.956	3393
839.094	3397
839.231	3469
839.369	3500
839.506	3793
839.643	3561
839.781	3545
839.918	3526
840.055	3542
840.193	3542
840.33	3504
840.467	3587
840.604	3584
840.742	3850
840.879	3545
841.016	3587
841.153	3595
841.29	3759
841.427	3686
841.564	3720
841.701	3762
841.838	3679
841.975	3637
842.112	3709
842.249	3660
842.385	3610
842.522	3823
842.659	3694
842.796	3656
842.933	3755
843.069	3728
843.206	3747
843.343	3838
843.479	3774
843.616	3846
843.752	3736
843.889	3717
844.025	3854
844.162	3728
844.298	3880
844.435	3823
844.571	3854
844.708	3911
844.844	3994
844.98	4021
845.117	4013
845.253	3880
845.389	3888
845.525	3964
845.661	3945
845.798	3915
845.934	3953
846.07	3953
846.206	4063
846.342	4112
846.478	4097
846.614	3945
846.75	3964
846.886	3884
847.022	4074
847.158	3991
847.294	4017
847.429	4021
847.565	4025
847.701	4261
847.837	3926
847.972	3903
848.108	3987
848.244	4002
848.379	3907
848.515	3816
848.65	3884
848.786	3873
848.921	3880
849.057	3918
849.192	3941
849.328	3869
849.463	3964
849.598	3907
849.734	3884
849.869	3892
850.004	3827
850.14	3831
850.275	3812
850.41	3751
850.545	3743
850.68	3797
850.815	3804
850.95	3766
851.085	3911
851.22	3854
851.355	3812
851.49	3819
851.625	3819
851.76	3778
851.895	3713
852.03	3717
852.165	3812
852.299	3857
852.434	3930
852.569	3922
852.703	3907
852.838	3911
852.973	4029
853.107	3953
853.242	3838
853.376	3861
853.511	3762
853.645	3850
853.78	3994
853.914	3907
854.048	3876
854.183	3892
854.317	3949
854.451	4059
854.585	3945
854.72	3918
854.854	4051
854.988	3956
855.122	4032
855.256	3949
855.39	3994
855.524	4120
855.658	4124
855.792	4112
855.926	4128
856.06	4177
856.194	4211
856.327	4181
856.461	4139
856.595	4200
856.729	4185
856.862	4272
856.996	4234
857.13	4295
857.263	4337
857.397	4379
857.53	4284
857.664	4310
857.797	4371
857.931	4428
858.064	4402
858.197	4474
858.331	4413
858.464	4390
858.597	4363
858.731	4485
858.864	4421
858.997	4451
859.13	4561
859.263	4535
859.396	4584
859.529	4519
859.662	4523
859.795	4535
859.928	4649
860.061	4733
860.194	4729
860.327	4679
860.46	4596
860.592	4698
860.725	4793
860.858	4755
860.99	4702
861.123	4714
861.256	4698
861.388	4759
861.521	5334
861.653	4717
861.786	4725
861.918	4801
862.05	4828
862.183	4858
862.315	4919
862.447	4999
862.58	4900
862.712	4790
862.844	4763
862.976	4892
863.108	4843
863.24	5170
863.372	4889
863.504	4885
863.636	4873
863.768	4991
863.9	4961
864.032	4923
864.164	4953
864.296	5010
864.428	5083
864.559	5117
864.691	5155
864.823	5109
864.954	5105
865.086	5170
865.217	5178
865.349	5117
865.48	5155
865.612	5223
865.743	5330
865.875	5204
866.006	5223
866.137	5239
866.269	5261
866.4	5250
866.531	5246
866.662	5246
866.793	5315
866.924	5322
867.055	5307
867.186	5337
867.317	5349
867.448	5311
867.579	5341
867.71	5368
867.841	5406
867.972	5455
868.103	5486
868.233	5436
868.364	5490
868.495	5554
868.625	5676
868.756	5798
868.886	5661
869.017	5737
869.147	5863
869.278	5802
869.408	5752
869.539	5824
869.669	5931
869.799	5939
869.929	5996
870.06	6057
870.19	6194
870.32	6190
870.45	6251
870.58	6342
870.71	6433
870.84	6433
870.97	6410
871.1	6483
871.23	6623
871.36	6604
871.489	6662
871.619	6741
871.749	6779
871.879	6871
872.008	7000
872.138	6958
872.267	7008
872.397	7008
872.526	6996
872.656	7080
872.785	7213
872.915	7396
873.044	7457
873.173	7518
873.303	7681
873.432	7765
873.561	7917
873.69	7921
873.819	8054
873.948	8233
874.077	8229
874.206	8305
874.335	8393
874.464	8598
874.593	8853
874.722	8899
874.851	9154
874.979	9272
875.108	9370
875.237	9439
875.365	9431
875.494	9663
875.623	9907
875.751	9835
875.88	10002
876.008	10131
876.136	10329
876.265	10542
876.393	10645
876.521	10790
876.65	10843
876.778	10793
876.906	10927
877.034	11003
877.162	11170
877.29	11140
877.418	11208
877.546	11410
877.674	11444
877.802	11497
877.93	11573
878.058	11551
878.185	11600
878.313	11649
878.441	11695
878.568	11748
878.696	11794
878.824	11961
878.951	12045
879.079	12053
879.206	12133
879.333	12057
879.461	11984
879.588	12106
879.715	12117
879.842	12273
879.97	12030
880.097	11851
880.224	11897
880.351	11939
880.478	11954
880.605	11870
880.732	11882
880.859	11935
880.986	11885
881.112	11771
881.239	11748
881.366	11615
881.493	11668
881.619	11646
881.746	11592
881.872	11596
881.999	11478
882.125	11551
882.252	11604
882.378	11528
882.505	11551
882.631	11379
882.757	11360
882.883	11372
883.01	11277
883.136	11208
883.262	11151
883.388	11128
883.514	11193
883.64	11132
883.766	11128
883.892	10972
884.018	11083
884.143	11064
884.269	11155
884.395	10793
884.52	10828
884.646	10706
884.772	10793
884.897	10672
885.023	10698
885.148	10687
885.274	10782
885.399	10687
885.524	10603
885.65	10656
885.775	10618
885.9	10580
886.025	10615
886.15	10672
886.275	10500
886.4	10337
886.525	10462
886.65	10390
886.775	10390
886.9	10451
887.025	10470
887.149	10379
887.274	10272
887.399	10192
887.523	10207
887.648	10211
887.773	10086
887.897	10310
888.021	10246
888.146	10185
888.27	10284
888.395	10234
888.519	10188
888.643	10287
888.767	10219
888.891	10078
889.015	10021
889.139	10048
889.263	9956
889.387	9956
889.511	10143
889.635	10116
889.759	9899
889.883	10063
890.006	10010
890.13	10143
890.254	10017
890.377	9903
890.501	9861
890.624	9949
890.748	9895
890.871	9762
890.995	9880
891.118	9705
891.241	9774
891.364	9785
891.488	9895
891.611	9781
891.734	9736
891.857	9736
891.98	9724
892.103	9781
892.226	9789
892.349	9675
892.471	9496
892.594	9553
892.717	9629
892.839	9625
892.962	9679
893.085	9606
893.207	9580
893.33	9431
893.452	9504
893.575	9572
893.697	9572
893.819	9625
893.941	9625
894.064	9507
894.186	9447
894.308	9454
894.43	9523
894.552	9469
894.674	9633
894.796	9355
894.918	9359
895.04	9332
895.161	9374
895.283	9374
895.405	9230
895.526	9275
895.648	9344
895.769	9253
895.891	9260
896.012	9325
896.134	9268
896.255	9230
896.376	9119
896.498	9184
896.619	9203
896.74	9058
896.861	9173
896.982	9298
897.103	9294
897.224	9165
897.345	9047
897.466	9055
897.587	9055
897.708	9024
897.828	9043
897.949	8929
898.07	8895
898.19	8914
898.311	8990
898.431	8982
898.552	8864
898.672	8960
898.792	8994
898.913	8838
899.033	8785
899.153	8746
899.273	8663
899.393	8788
899.513	8746
899.633	8830
899.753	8762
899.873	8621
899.993	8758
900.113	8678
900.232	8667
900.352	8678
900.472	8606
900.591	8583
900.711	8670
900.83	8590
900.95	8682
901.069	8735
901.189	8556
901.308	8427
901.427	8396
901.546	8339
901.665	8438
901.784	8549
901.904	8381
902.023	8343
902.141	8244
902.26	8180
902.379	8259
902.498	8183
902.617	8237
902.735	8324
902.854	8282
902.973	8248
903.091	8153
903.21	8164
903.328	8126
903.446	8088
903.565	8050
903.683	8142
903.801	8050
903.919	8126
904.038	8111
904.156	8069
904.274	8077
904.392	8100
904.51	8054
904.627	8046
904.745	8134
904.863	8138
904.981	7932
905.098	7845
905.216	7849
905.334	7978
905.451	7890
905.569	7894
905.686	7970
905.803	7951
905.921	7799
906.038	7852
906.155	7833
906.272	7746
906.389	7704
906.506	7571
906.623	7666
906.74	7666
906.857	7590
906.974	7525
907.091	7613
907.208	7719
907.324	7658
907.441	7582
907.557	7476
907.674	7518
907.79	7453
907.907	7415
908.023	7472
908.139	7438
908.256	7415
908.372	7362
908.488	7373
908.604	7312
908.72	7259
908.836	7266
908.952	7255
909.068	7247
909.184	7369
909.3	7278
909.415	7343
909.531	7263
909.647	7179
909.762	7129
909.878	7095
909.993	7091
910.108	7095
910.224	7107
910.339	7053
910.454	7019
910.57	6985
910.685	6993
910.8	7179
910.915	7133
911.03	7015
911.145	6913
911.259	6863
911.374	6913
911.489	6859
911.604	6738
911.718	6715
911.833	6722
911.947	6692
912.062	6650
912.176	6787
912.291	6715
912.405	6745
912.519	6814
912.633	6802
912.748	6764
912.862	6707
912.976	6578
913.09	6582
913.204	6551
913.318	6631
913.431	6726
913.545	6753
913.659	6711
913.772	6639
913.886	6547
914	6563
914.113	6578
914.226	6665
914.34	6635
914.453	6486
914.566	6612
914.68	6486
914.793	6547
914.906	6509
915.019	6403
915.132	6395
915.245	6460
915.358	6506
915.47	6388
915.583	6426
915.696	6464
915.809	6551
915.921	6547
916.034	6433
916.146	6422
916.259	6456
916.371	6513
916.483	6456
916.595	6422
916.708	6403
916.82	6426
916.932	6357
917.044	6418
917.156	6433
917.268	6331
917.38	6315
917.491	6289
917.603	6323
917.715	6410
917.826	6448
917.938	6300
918.049	6239
918.161	6357
918.272	6384
918.384	6407
918.495	6369
918.606	6239
918.717	6220
918.828	6258
918.939	6346
919.05	6159
919.161	6273
919.272	6136
919.383	6182
919.494	6311
919.604	6429
919.715	6308
919.826	6281
919.936	6251
920.047	6388
920.157	6251
920.267	6471
920.378	6353
920.488	6300
920.598	6502
920.708	6555
920.818	6521
920.928	6467
921.038	6620
921.148	6585
921.258	6369
921.368	6331
921.477	6258
921.587	6148
921.697	6087
921.806	6175
921.916	6110
922.025	5950
922.134	5908
922.244	5885
922.353	5965
922.462	5855
922.571	5824
922.68	5714
922.789	5737
922.898	5676
923.007	5634
923.116	5695
923.224	5703
923.333	5672
923.442	5604
923.55	5619
923.659	5581
923.767	5657
923.876	5551
923.984	5600
924.092	5486
924.201	5581
924.309	5573
924.417	5585
924.525	5535
924.633	5493
924.741	6239
924.849	5349
924.956	5452
925.064	5379
925.172	5265
925.279	5334
925.387	5406
925.494	5345
925.602	5436
925.709	5376
925.816	5296
925.924	5299
926.031	5322
926.138	5341
926.245	5288
926.352	5231
926.459	5265
926.566	5315
926.673	5284
926.779	5185
926.886	5105
926.993	5090
927.099	4930
927.206	4965
927.312	4949
927.419	4987
927.525	4987
927.631	5029
927.737	4866
927.843	4877
927.95	4763
928.056	4858
928.162	4847
928.267	4828
928.373	5345
928.479	4850
928.585	4656
928.69	4820
928.796	4831
928.901	4687
929.007	4603
929.112	4672
929.218	4603
929.323	4584
929.428	4615
929.533	4660
929.638	4542
929.743	4508
929.848	4569
929.953	4474
930.058	4440
930.163	4344
930.267	4379
930.372	4421
930.477	4333
930.581	4508
930.685	4383
930.79	4253
930.894	4287
930.998	4249
931.103	4367
931.207	4139
931.311	4093
931.415	4025
931.519	3911
931.623	3960
