Data from glass_V78500241_228.txt Node
Date: Wed Sep 01 19:16:04 CST 2021
User: usil
Spectrometer: V785-0024
Trigger mode: 0
Integration Time (sec): 4.000000E-1
Scans to average: 1
Nonlinearity correction enabled: false
Boxcar width: 0
Storing dark spectrum: false
XAxis mode: Wavelengths
Number of Pixels in Spectrum: 1024
>>>>>Begin Spectral Data<<<<<
801.071	3732
801.214	3793
801.356	3713
801.499	3728
801.641	3774
801.783	3793
801.926	3896
802.068	3857
802.211	3869
802.353	3918
802.496	3861
802.638	3896
802.78	3953
802.923	3934
803.065	3930
803.208	3857
803.35	3865
803.492	3934
803.635	3945
803.777	3816
803.919	3941
804.061	4169
804.204	3998
804.346	4002
804.488	3892
804.63	4048
804.773	3994
804.915	4032
805.057	4158
805.199	4067
805.341	4090
805.483	4150
805.626	4135
805.768	4093
805.91	4215
806.052	4299
806.194	4200
806.336	4405
806.478	4227
806.62	4227
806.762	4211
806.904	4280
807.046	4329
807.188	4223
807.33	4227
807.472	4291
807.614	4268
807.756	4268
807.898	4215
808.04	4219
808.182	4295
808.324	4356
808.465	4402
808.607	4462
808.749	4440
808.891	4462
809.033	4519
809.174	4398
809.316	4265
809.458	4246
809.6	4204
809.741	4188
809.883	4135
810.025	4223
810.166	4261
810.308	4253
810.45	4223
810.591	4238
810.733	4322
810.875	4497
811.016	4812
811.158	5159
811.299	5288
811.441	5318
811.582	5090
811.724	4672
811.865	4512
812.007	4455
812.148	4447
812.29	4417
812.431	4470
812.573	4390
812.714	4405
812.855	4424
812.997	4409
813.138	4504
813.279	4447
813.421	4367
813.562	4383
813.703	4356
813.845	4352
813.986	4310
814.127	4238
814.268	4280
814.41	4299
814.551	4299
814.692	4306
814.833	4287
814.974	4280
815.115	4375
815.256	4246
815.397	4219
815.539	4276
815.68	4246
815.821	4207
815.962	4318
816.103	4291
816.244	4261
816.385	4230
816.526	4291
816.666	4227
816.807	4105
816.948	4177
817.089	4204
817.23	4150
817.371	4044
817.512	4055
817.653	4082
817.793	4051
817.934	4040
818.075	4135
818.216	4082
818.356	4105
818.497	3987
818.638	3926
818.778	3956
818.919	3876
819.06	3915
819.2	3918
819.341	3827
819.481	3850
819.622	3934
819.762	4074
819.903	3960
820.043	3869
820.184	3793
820.324	3789
820.465	3896
820.605	3861
820.746	3876
820.886	3816
821.026	3941
821.167	3953
821.307	3918
821.447	3994
821.588	3972
821.728	3968
821.868	3960
822.008	3884
822.149	3903
822.289	3937
822.429	3800
822.569	3827
822.709	3838
822.849	3701
822.99	3717
823.13	3793
823.27	3823
823.41	3701
823.55	3736
823.69	3755
823.83	3740
823.97	3694
824.11	3599
824.25	3591
824.389	3682
824.529	3675
824.669	3690
824.809	3740
824.949	3766
825.089	3751
825.228	3679
825.368	3606
825.508	3561
825.648	3587
825.787	3633
825.927	3641
826.067	3595
826.206	3713
826.346	3793
826.485	3823
826.625	3884
826.765	4013
826.904	3846
827.044	3606
827.183	3530
827.323	3485
827.462	3507
827.601	3424
827.741	3450
827.88	3462
828.02	3416
828.159	3492
828.298	3485
828.437	3542
828.577	3481
828.716	3625
828.855	3485
828.994	3370
829.134	3386
829.273	3382
829.412	3363
829.551	3401
829.69	3386
829.829	3435
829.968	3545
830.107	3481
830.246	3454
830.385	3378
830.524	3382
830.663	3272
830.802	3287
830.941	3214
831.08	3222
831.219	3268
831.357	3272
831.496	3401
831.635	3237
831.774	3233
831.913	3275
832.051	3131
832.19	3150
832.329	3218
832.467	3192
832.606	3119
832.744	3165
832.883	3188
833.022	3218
833.16	3249
833.299	3279
833.437	3340
833.576	3378
833.714	3401
833.852	3439
833.991	3477
834.129	3458
834.267	3435
834.406	3393
834.544	3405
834.682	3412
834.821	3416
834.959	3595
835.097	3431
835.235	3542
835.373	3481
835.511	3507
835.65	3439
835.788	3500
835.926	3439
836.064	3363
836.202	3439
836.34	3557
836.478	3648
836.615	3572
836.753	3644
836.891	3682
837.029	3671
837.167	3637
837.305	3622
837.443	3561
837.58	3576
837.718	3663
837.856	3568
837.993	3568
838.131	3603
838.269	3568
838.406	3603
838.544	3587
838.681	3488
838.819	3462
838.956	3378
839.094	3431
839.231	3416
839.369	3553
839.506	3682
839.643	3660
839.781	3576
839.918	3477
840.055	3561
840.193	3526
840.33	3572
840.467	3542
840.604	3633
840.742	3835
840.879	3542
841.016	3576
841.153	3591
841.29	3804
841.427	3709
841.564	3736
841.701	3736
841.838	3713
841.975	3690
842.112	3743
842.249	3671
842.385	3648
842.522	3854
842.659	3701
842.796	3701
842.933	3732
843.069	3728
843.206	3690
843.343	3857
843.479	3759
843.616	3800
843.752	3660
843.889	3724
844.025	3869
844.162	3724
844.298	3812
844.435	3816
844.571	3808
844.708	3892
844.844	3975
844.98	4021
845.117	4032
845.253	3937
845.389	3937
845.525	3994
845.661	3975
845.798	3941
845.934	4029
846.07	3968
846.206	4055
846.342	4173
846.478	4071
846.614	3960
846.75	3922
846.886	3953
847.022	4055
847.158	3987
847.294	4010
847.429	4029
847.565	3994
847.701	4249
847.837	3911
847.972	3892
848.108	3949
848.244	3994
848.379	3838
848.515	3827
848.65	3797
848.786	3846
848.921	3873
849.057	4002
849.192	3953
849.328	3945
849.463	3911
849.598	3899
849.734	3888
849.869	3873
850.004	3827
850.14	3842
850.275	3819
850.41	3743
850.545	3781
850.68	3812
850.815	3800
850.95	3797
851.085	3956
851.22	3869
851.355	3880
851.49	3800
851.625	3778
851.76	3785
851.895	3812
852.03	3751
852.165	3785
852.299	3827
852.434	3907
852.569	3903
852.703	3899
852.838	3979
852.973	4025
853.107	4036
853.242	3915
853.376	3888
853.511	3762
853.645	3850
853.78	3968
853.914	3896
854.048	3915
854.183	3857
854.317	3941
854.451	4029
854.585	3964
854.72	3956
854.854	4059
854.988	3899
855.122	4032
855.256	3956
855.39	3998
855.524	4135
855.658	4147
855.792	4131
855.926	4204
856.06	4154
856.194	4230
856.327	4154
856.461	4128
856.595	4135
856.729	4188
856.862	4280
856.996	4299
857.13	4356
857.263	4329
857.397	4363
857.53	4280
857.664	4306
857.797	4405
857.931	4428
858.064	4375
858.197	4459
858.331	4390
858.464	4383
858.597	4375
858.731	4455
858.864	4508
858.997	4504
859.13	4542
859.263	4550
859.396	4607
859.529	4535
859.662	4519
859.795	4489
859.928	4626
860.061	4721
860.194	4752
860.327	4618
860.46	4653
860.592	4725
860.725	4740
860.858	4801
860.99	4759
861.123	4683
861.256	4721
861.388	4790
861.521	5372
861.653	4698
861.786	4744
861.918	4771
862.05	4778
862.183	4835
862.315	4904
862.447	4942
862.58	4873
862.712	4835
862.844	4790
862.976	4885
863.108	4908
863.24	5223
863.372	4854
863.504	4934
863.636	4873
863.768	4995
863.9	4927
864.032	4915
864.164	4919
864.296	5025
864.428	5083
864.559	5147
864.691	5170
864.823	5140
864.954	5181
865.086	5147
865.217	5121
865.349	5094
865.48	5174
865.612	5231
865.743	5311
865.875	5201
866.006	5166
866.137	5216
866.269	5235
866.4	5242
866.531	5246
866.662	5242
866.793	5235
866.924	5307
867.055	5391
867.186	5372
867.317	5349
867.448	5345
867.579	5410
867.71	5395
867.841	5410
867.972	5501
868.103	5448
868.233	5512
868.364	5524
868.495	5589
868.625	5649
868.756	5783
868.886	5668
869.017	5703
869.147	5885
869.278	5840
869.408	5824
869.539	5863
869.669	5954
869.799	5901
869.929	6019
870.06	5973
870.19	6148
870.32	6235
870.45	6251
870.58	6277
870.71	6410
870.84	6467
870.97	6391
871.1	6445
871.23	6677
871.36	6741
871.489	6711
871.619	6783
871.749	6768
871.879	6867
872.008	6943
872.138	6909
872.267	7053
872.397	7004
872.526	7065
872.656	7099
872.785	7278
872.915	7403
873.044	7487
873.173	7571
873.303	7761
873.432	7753
873.561	7944
873.69	7898
873.819	8005
873.948	8153
874.077	8180
874.206	8305
874.335	8499
874.464	8632
874.593	8876
874.722	8975
874.851	9142
874.979	9268
875.108	9374
875.237	9431
875.365	9443
875.494	9652
875.623	9819
875.751	9842
875.88	9964
876.008	10120
876.136	10314
876.265	10512
876.393	10660
876.521	10763
876.65	10839
876.778	10938
876.906	10877
877.034	10976
877.162	11128
877.29	11166
877.418	11353
877.546	11425
877.674	11448
877.802	11486
877.93	11486
878.058	11528
878.185	11566
878.313	11676
878.441	11752
878.568	11657
878.696	11824
878.824	11878
878.951	11950
879.079	11984
879.206	12190
879.333	12022
879.461	12019
879.588	12133
879.715	12030
879.842	12190
879.97	12121
880.097	11920
880.224	11794
880.351	11859
880.478	11893
880.605	11889
880.732	11813
880.859	12019
880.986	11813
881.112	11901
881.239	11764
881.366	11722
881.493	11592
881.619	11512
881.746	11562
881.872	11463
881.999	11570
882.125	11512
882.252	11478
882.378	11577
882.505	11482
882.631	11474
882.757	11330
882.883	11337
883.01	11280
883.136	11235
883.262	11121
883.388	11147
883.514	11212
883.64	11246
883.766	11098
883.892	11033
884.018	11052
884.143	11056
884.269	11098
884.395	10847
884.52	10824
884.646	10782
884.772	10687
884.897	10714
885.023	10668
885.148	10820
885.274	10805
885.399	10656
885.524	10691
885.65	10580
885.775	10527
885.9	10573
886.025	10588
886.15	10512
886.275	10436
886.4	10409
886.525	10379
886.65	10428
886.775	10329
886.9	10493
887.025	10535
887.149	10424
887.274	10242
887.399	10249
887.523	10200
887.648	10154
887.773	10055
887.897	10287
888.021	10219
888.146	10162
888.27	10204
888.395	10097
888.519	10177
888.643	10249
888.767	10234
888.891	10090
889.015	9926
889.139	10101
889.263	9983
889.387	10048
889.511	10116
889.635	10101
889.759	9949
889.883	10021
890.006	10086
890.13	10135
890.254	9888
890.377	10002
890.501	9854
890.624	9930
890.748	9922
890.871	9785
890.995	9793
891.118	9759
891.241	9766
891.364	9774
891.488	9869
891.611	9724
891.734	9728
891.857	9888
891.98	9648
892.103	9728
892.226	9751
892.349	9625
892.471	9564
892.594	9629
892.717	9618
892.839	9557
892.962	9618
893.085	9648
893.207	9534
893.33	9473
893.452	9526
893.575	9530
893.697	9542
893.819	9618
893.941	9633
894.064	9625
894.186	9450
894.308	9363
894.43	9568
894.552	9584
894.674	9538
894.796	9386
894.918	9401
895.04	9401
895.161	9405
895.283	9386
895.405	9237
895.526	9237
895.648	9222
895.769	9264
895.891	9279
896.012	9310
896.134	9287
896.255	9226
896.376	9146
896.498	9104
896.619	9203
896.74	9020
896.861	9097
896.982	9211
897.103	9325
897.224	9199
897.345	9123
897.466	9043
897.587	9070
897.708	9093
897.828	9039
897.949	8982
898.07	8796
898.19	8941
898.311	9036
898.431	8849
898.552	8910
898.672	8948
898.792	9036
898.913	8849
899.033	8815
899.153	8697
899.273	8693
899.393	8758
899.513	8739
899.633	8750
899.753	8807
899.873	8655
899.993	8834
900.113	8708
900.232	8739
900.352	8682
900.472	8632
900.591	8526
900.711	8621
900.83	8594
900.95	8689
901.069	8640
901.189	8610
901.308	8450
901.427	8370
901.546	8434
901.665	8480
901.784	8556
901.904	8408
902.023	8355
902.141	8244
902.26	8286
902.379	8313
902.498	8229
902.617	8259
902.735	8332
902.854	8256
902.973	8256
903.091	8142
903.21	8130
903.328	8119
903.446	8187
903.565	8039
903.683	8134
903.801	8069
903.919	8180
904.038	8153
904.156	7963
904.274	8103
904.392	8020
904.51	8062
904.627	8024
904.745	8062
904.863	8134
904.981	7890
905.098	7856
905.216	7928
905.334	7906
905.451	7951
905.569	7925
905.686	7959
905.803	7959
905.921	7746
906.038	7841
906.155	7833
906.272	7803
906.389	7712
906.506	7674
906.623	7643
906.74	7651
906.857	7586
906.974	7552
907.091	7662
907.208	7784
907.324	7655
907.441	7575
907.557	7502
907.674	7445
907.79	7491
907.907	7453
908.023	7449
908.139	7407
908.256	7422
908.372	7468
908.488	7365
908.604	7308
908.72	7225
908.836	7339
908.952	7244
909.068	7255
909.184	7305
909.3	7228
909.415	7289
909.531	7278
909.647	7133
909.762	7145
909.878	7046
909.993	7171
910.108	7110
910.224	7088
910.339	7110
910.454	7110
910.57	7042
910.685	7012
910.8	7190
910.915	7160
911.03	7008
911.145	6882
911.259	6886
911.374	6867
911.489	6875
911.604	6848
911.718	6738
911.833	6711
911.947	6711
912.062	6631
912.176	6681
912.291	6738
912.405	6692
912.519	6787
912.633	6848
912.748	6726
912.862	6662
912.976	6658
913.09	6578
913.204	6650
913.318	6574
913.431	6692
913.545	6734
913.659	6665
913.772	6681
913.886	6551
914	6536
914.113	6623
914.226	6684
914.34	6559
914.453	6479
914.566	6650
914.68	6517
914.793	6547
914.906	6475
915.019	6471
915.132	6376
915.245	6433
915.358	6433
915.47	6475
915.583	6471
915.696	6494
915.809	6570
915.921	6555
916.034	6365
916.146	6407
916.259	6388
916.371	6483
916.483	6502
916.595	6433
916.708	6414
916.82	6464
916.932	6418
917.044	6395
917.156	6395
917.268	6315
917.38	6319
917.491	6361
917.603	6350
917.715	6342
917.826	6437
917.938	6342
918.049	6258
918.161	6327
918.272	6429
918.384	6460
918.495	6338
918.606	6266
918.717	6209
918.828	6331
918.939	6304
919.05	6190
919.161	6190
919.272	6171
919.383	6175
919.494	6273
919.604	6475
919.715	6292
919.826	6216
919.936	6285
920.047	6361
920.157	6304
920.267	6486
920.378	6350
920.488	6319
920.598	6460
920.708	6532
920.818	6429
920.928	6471
921.038	6574
921.148	6547
921.258	6418
921.368	6296
921.477	6167
921.587	6209
921.697	6091
921.806	6220
921.916	6110
922.025	5935
922.134	5893
922.244	5916
922.353	5969
922.462	5840
922.571	5809
922.68	5653
922.789	5653
922.898	5718
923.007	5657
923.116	5756
923.224	5710
923.333	5638
923.442	5634
923.55	5600
923.659	5589
923.767	5668
923.876	5589
923.984	5547
924.092	5493
924.201	5611
924.309	5600
924.417	5589
924.525	5478
924.633	5509
924.741	6262
924.849	5372
924.956	5524
925.064	5368
925.172	5273
925.279	5277
925.387	5364
925.494	5284
925.602	5509
925.709	5402
925.816	5288
925.924	5315
926.031	5379
926.138	5322
926.245	5337
926.352	5254
926.459	5360
926.566	5311
926.673	5216
926.779	5159
926.886	5124
926.993	5105
927.099	5010
927.206	4934
927.312	4930
927.419	5060
927.525	4972
927.631	5003
927.737	4915
927.843	4877
927.95	4774
928.056	4828
928.162	4812
928.267	4870
928.373	5223
928.479	4850
928.585	4694
928.69	4767
928.796	4812
928.901	4672
929.007	4630
929.112	4683
929.218	4641
929.323	4618
929.428	4561
929.533	4725
929.638	4485
929.743	4577
929.848	4603
929.953	4535
930.058	4481
930.163	4303
930.267	4329
930.372	4428
930.477	4318
930.581	4466
930.685	4367
930.79	4230
930.894	4272
930.998	4268
931.103	4402
931.207	4135
931.311	4082
931.415	4002
931.519	3941
931.623	3972
