Data from glass_V78500241_2656.txt Node
Date: Wed Sep 01 19:32:54 CST 2021
User: usil
Spectrometer: V785-0024
Trigger mode: 0
Integration Time (sec): 4.000000E-1
Scans to average: 1
Nonlinearity correction enabled: false
Boxcar width: 0
Storing dark spectrum: false
XAxis mode: Wavelengths
Number of Pixels in Spectrum: 1024
>>>>>Begin Spectral Data<<<<<
801.071	3709
801.214	3740
801.356	3660
801.499	3728
801.641	3732
801.783	3781
801.926	3838
802.068	3804
802.211	3865
802.353	3831
802.496	3797
802.638	3869
802.78	3854
802.923	3949
803.065	3861
803.208	3842
803.35	3831
803.492	3876
803.635	3934
803.777	3835
803.919	3907
804.061	4162
804.204	3983
804.346	3934
804.488	3918
804.63	4006
804.773	3922
804.915	3991
805.057	4158
805.199	4090
805.341	4120
805.483	4105
805.626	4150
805.768	4101
805.91	4177
806.052	4211
806.194	4234
806.336	4348
806.478	4261
806.62	4116
806.762	4169
806.904	4265
807.046	4299
807.188	4249
807.33	4185
807.472	4196
807.614	4166
807.756	4223
807.898	4192
808.04	4215
808.182	4284
808.324	4291
808.465	4363
808.607	4421
808.749	4474
808.891	4459
809.033	4474
809.174	4409
809.316	4249
809.458	4242
809.6	4173
809.741	4150
809.883	4139
810.025	4188
810.166	4185
810.308	4200
810.45	4207
810.591	4219
810.733	4276
810.875	4527
811.016	4831
811.158	5113
811.299	5231
811.441	5273
811.582	5052
811.724	4706
811.865	4462
812.007	4436
812.148	4428
812.29	4443
812.431	4371
812.573	4421
812.714	4383
812.855	4390
812.997	4390
813.138	4459
813.279	4394
813.421	4360
813.562	4371
813.703	4325
813.845	4303
813.986	4246
814.127	4207
814.268	4257
814.41	4310
814.551	4261
814.692	4314
814.833	4265
814.974	4291
815.115	4341
815.256	4253
815.397	4181
815.539	4253
815.68	4188
815.821	4223
815.962	4303
816.103	4280
816.244	4177
816.385	4196
816.526	4276
816.666	4169
816.807	4101
816.948	4135
817.089	4154
817.23	4090
817.371	4078
817.512	4013
817.653	4055
817.793	3998
817.934	4074
818.075	4071
818.216	4048
818.356	4017
818.497	3960
818.638	3907
818.778	3915
818.919	3892
819.06	3876
819.2	3892
819.341	3850
819.481	3816
819.622	3865
819.762	3998
819.903	3926
820.043	3846
820.184	3835
820.324	3774
820.465	3865
820.605	3857
820.746	3827
820.886	3751
821.026	3922
821.167	3930
821.307	3941
821.447	3983
821.588	3926
821.728	3918
821.868	3884
822.008	3861
822.149	3907
822.289	3941
822.429	3743
822.569	3755
822.709	3812
822.849	3717
822.99	3686
823.13	3709
823.27	3789
823.41	3724
823.55	3713
823.69	3759
823.83	3736
823.97	3679
824.11	3622
824.25	3629
824.389	3641
824.529	3679
824.669	3599
824.809	3694
824.949	3694
825.089	3709
825.228	3705
825.368	3572
825.508	3553
825.648	3549
825.787	3591
825.927	3633
826.067	3622
826.206	3637
826.346	3743
826.485	3800
826.625	3835
826.765	3949
826.904	3785
827.044	3587
827.183	3557
827.323	3435
827.462	3416
827.601	3431
827.741	3473
827.88	3393
828.02	3359
828.159	3428
828.298	3450
828.437	3454
828.577	3481
828.716	3564
828.855	3458
828.994	3386
829.134	3325
829.273	3329
829.412	3329
829.551	3325
829.69	3355
829.829	3443
829.968	3515
830.107	3409
830.246	3416
830.385	3386
830.524	3344
830.663	3317
830.802	3230
830.941	3184
831.08	3218
831.219	3294
831.357	3272
831.496	3401
831.635	3241
831.774	3211
831.913	3157
832.051	3116
832.19	3116
832.329	3169
832.467	3150
832.606	3108
832.744	3142
832.883	3138
833.022	3169
833.16	3218
833.299	3317
833.437	3329
833.576	3355
833.714	3431
833.852	3439
833.991	3393
834.129	3447
834.267	3496
834.406	3409
834.544	3393
834.682	3393
834.821	3416
834.959	3507
835.097	3386
835.235	3500
835.373	3496
835.511	3454
835.65	3469
835.788	3469
835.926	3344
836.064	3367
836.202	3420
836.34	3545
836.478	3595
836.615	3519
836.753	3553
836.891	3625
837.029	3584
837.167	3561
837.305	3557
837.443	3549
837.58	3507
837.718	3637
837.856	3519
837.993	3469
838.131	3584
838.269	3564
838.406	3618
838.544	3553
838.681	3428
838.819	3477
838.956	3412
839.094	3401
839.231	3431
839.369	3538
839.506	3679
839.643	3648
839.781	3488
839.918	3462
840.055	3511
840.193	3511
840.33	3485
840.467	3515
840.604	3580
840.742	3770
840.879	3504
841.016	3564
841.153	3580
841.29	3751
841.427	3652
841.564	3667
841.701	3728
841.838	3660
841.975	3648
842.112	3736
842.249	3641
842.385	3618
842.522	3827
842.659	3679
842.796	3660
842.933	3694
843.069	3705
843.206	3671
843.343	3774
843.479	3785
843.616	3816
843.752	3618
843.889	3652
844.025	3846
844.162	3732
844.298	3869
844.435	3770
844.571	3762
844.708	3899
844.844	3937
844.98	4002
845.117	4029
845.253	3892
845.389	3896
845.525	3937
845.661	3915
845.798	3922
845.934	3949
846.07	3945
846.206	4048
846.342	4116
846.478	4074
846.614	3953
846.75	3873
846.886	3911
847.022	3998
847.158	3949
847.294	3994
847.429	3987
847.565	4032
847.701	4192
847.837	3854
847.972	3831
848.108	3949
848.244	4013
848.379	3842
848.515	3808
848.65	3785
848.786	3823
848.921	3854
849.057	3911
849.192	3964
849.328	3915
849.463	3915
849.598	3873
849.734	3884
849.869	3819
850.004	3781
850.14	3770
850.275	3774
850.41	3785
850.545	3732
850.68	3762
850.815	3778
850.95	3800
851.085	3922
851.22	3884
851.355	3838
851.49	3724
851.625	3717
851.76	3785
851.895	3743
852.03	3694
852.165	3770
852.299	3800
852.434	3861
852.569	3838
852.703	3869
852.838	3911
852.973	4021
853.107	4025
853.242	3915
853.376	3766
853.511	3785
853.645	3835
853.78	3964
853.914	3854
854.048	3876
854.183	3873
854.317	3960
854.451	4051
854.585	3945
854.72	3953
854.854	4055
854.988	3945
855.122	3979
855.256	3892
855.39	4029
855.524	4067
855.658	4063
855.792	4074
855.926	4116
856.06	4158
856.194	4223
856.327	4143
856.461	4082
856.595	4143
856.729	4139
856.862	4246
856.996	4200
857.13	4272
857.263	4287
857.397	4344
857.53	4295
857.664	4341
857.797	4367
857.931	4375
858.064	4398
858.197	4428
858.331	4398
858.464	4344
858.597	4337
858.731	4447
858.864	4455
858.997	4447
859.13	4485
859.263	4542
859.396	4531
859.529	4485
859.662	4508
859.795	4531
859.928	4584
860.061	4694
860.194	4744
860.327	4637
860.46	4630
860.592	4733
860.725	4786
860.858	4710
860.99	4694
861.123	4694
861.256	4679
861.388	4755
861.521	5360
861.653	4687
861.786	4675
861.918	4767
862.05	4767
862.183	4820
862.315	4812
862.447	4942
862.58	4866
862.712	4755
862.844	4748
862.976	4885
863.108	4839
863.24	5250
863.372	4828
863.504	4850
863.636	4942
863.768	4961
863.9	4927
864.032	4892
864.164	4946
864.296	4968
864.428	5067
864.559	5121
864.691	5094
864.823	5102
864.954	5056
865.086	5162
865.217	5105
865.349	5121
865.48	5140
865.612	5178
865.743	5288
865.875	5204
866.006	5113
866.137	5269
866.269	5204
866.4	5246
866.531	5254
866.662	5258
866.793	5231
866.924	5292
867.055	5349
867.186	5280
867.317	5307
867.448	5334
867.579	5387
867.71	5330
867.841	5341
867.972	5433
868.103	5410
868.233	5429
868.364	5509
868.495	5474
868.625	5661
868.756	5783
868.886	5672
869.017	5703
869.147	5809
869.278	5889
869.408	5790
869.539	5779
869.669	5885
869.799	5912
869.929	5969
870.06	5984
870.19	6144
870.32	6167
870.45	6262
870.58	6338
870.71	6357
870.84	6422
870.97	6426
871.1	6403
871.23	6623
871.36	6646
871.489	6627
871.619	6726
871.749	6833
871.879	6825
872.008	6935
872.138	6932
872.267	7046
872.397	6977
872.526	7042
872.656	7137
872.785	7183
872.915	7362
873.044	7453
873.173	7571
873.303	7655
873.432	7776
873.561	7864
873.69	7917
873.819	8039
873.948	8100
874.077	8305
874.206	8298
874.335	8423
874.464	8617
874.593	8842
874.722	8872
874.851	9142
874.979	9211
875.108	9348
875.237	9397
875.365	9473
875.494	9618
875.623	9800
875.751	9816
875.88	9960
876.008	10116
876.136	10223
876.265	10459
876.393	10679
876.521	10778
876.65	10721
876.778	10900
876.906	10869
877.034	11041
877.162	11045
877.29	11197
877.418	11326
877.546	11360
877.674	11414
877.802	11512
877.93	11558
878.058	11524
878.185	11509
878.313	11676
878.441	11824
878.568	11668
878.696	11786
878.824	11882
878.951	11935
879.079	11977
879.206	12171
879.333	12030
879.461	11969
879.588	12041
879.715	12034
879.842	12205
879.97	12087
880.097	11821
880.224	11893
880.351	11851
880.478	11912
880.605	11798
880.732	11748
880.859	11996
880.986	11817
881.112	11817
881.239	11722
881.366	11592
881.493	11589
881.619	11562
881.746	11558
881.872	11551
881.999	11543
882.125	11505
882.252	11490
882.378	11414
882.505	11630
882.631	11353
882.757	11155
882.883	11288
883.01	11208
883.136	11193
883.262	11117
883.388	11006
883.514	11204
883.64	11132
883.766	11010
883.892	10968
884.018	10953
884.143	11056
884.269	11025
884.395	10862
884.52	10698
884.646	10748
884.772	10714
884.897	10694
885.023	10687
885.148	10649
885.274	10725
885.399	10721
885.524	10630
885.65	10592
885.775	10580
885.9	10535
886.025	10561
886.15	10653
886.275	10443
886.4	10360
886.525	10371
886.65	10360
886.775	10310
886.9	10500
887.025	10504
887.149	10363
887.274	10249
887.399	10173
887.523	10101
887.648	10166
887.773	10124
887.897	10158
888.021	10261
888.146	10131
888.27	10242
888.395	10139
888.519	10116
888.643	10230
888.767	10154
888.891	10162
889.015	9994
889.139	10059
889.263	9991
889.387	10017
889.511	10128
889.635	10040
889.759	9941
889.883	9987
890.006	9983
890.13	10131
890.254	9930
890.377	9926
890.501	9861
890.624	9850
890.748	9873
890.871	9797
890.995	9755
891.118	9762
891.241	9690
891.364	9652
891.488	9800
891.611	9759
891.734	9732
891.857	9724
891.98	9732
892.103	9831
892.226	9698
892.349	9660
892.471	9538
892.594	9534
892.717	9610
892.839	9587
892.962	9614
893.085	9614
893.207	9564
893.33	9526
893.452	9511
893.575	9671
893.697	9504
893.819	9584
893.941	9633
894.064	9629
894.186	9416
894.308	9420
894.43	9519
894.552	9511
894.674	9526
894.796	9363
894.918	9424
895.04	9332
895.161	9340
895.283	9367
895.405	9203
895.526	9253
895.648	9214
895.769	9226
895.891	9226
896.012	9272
896.134	9203
896.255	9157
896.376	9093
896.498	9188
896.619	9116
896.74	9104
896.861	9039
896.982	9268
897.103	9256
897.224	9131
897.345	9024
897.466	9047
897.587	9039
897.708	9074
897.828	9055
897.949	8887
898.07	8849
898.19	8876
898.311	9043
898.431	8853
898.552	8861
898.672	8967
898.792	8902
898.913	8853
899.033	8804
899.153	8674
899.273	8697
899.393	8697
899.513	8754
899.633	8762
899.753	8724
899.873	8613
899.993	8754
900.113	8708
900.232	8674
900.352	8640
900.472	8678
900.591	8480
900.711	8560
900.83	8549
900.95	8651
901.069	8697
901.189	8514
901.308	8400
901.427	8396
901.546	8396
901.665	8469
901.784	8495
901.904	8362
902.023	8286
902.141	8286
902.26	8164
902.379	8240
902.498	8218
902.617	8210
902.735	8279
902.854	8237
902.973	8229
903.091	8084
903.21	8149
903.328	8210
903.446	8100
903.565	8069
903.683	8062
903.801	8096
903.919	8111
904.038	8130
904.156	8058
904.274	8073
904.392	8016
904.51	8020
904.627	8096
904.745	8126
904.863	8153
904.981	7932
905.098	7799
905.216	7887
905.334	7925
905.451	7909
905.569	7841
905.686	7860
905.803	7883
905.921	7753
906.038	7856
906.155	7868
906.272	7696
906.389	7677
906.506	7677
906.623	7616
906.74	7594
906.857	7567
906.974	7537
907.091	7651
907.208	7674
907.324	7658
907.441	7556
907.557	7510
907.674	7426
907.79	7350
907.907	7419
908.023	7403
908.139	7415
908.256	7369
908.372	7384
908.488	7381
908.604	7308
908.72	7190
908.836	7266
908.952	7244
909.068	7285
909.184	7365
909.3	7209
909.415	7297
909.531	7198
909.647	7152
909.762	7095
909.878	7114
909.993	7179
910.108	7122
910.224	7084
910.339	7118
910.454	6989
910.57	7027
910.685	6993
910.8	7137
910.915	7076
911.03	7034
911.145	6928
911.259	6833
911.374	6875
911.489	6806
911.604	6882
911.718	6707
911.833	6722
911.947	6707
912.062	6551
912.176	6654
912.291	6738
912.405	6741
912.519	6814
912.633	6753
912.748	6760
912.862	6719
912.976	6578
913.09	6532
913.204	6627
913.318	6627
913.431	6673
913.545	6635
913.659	6681
913.772	6639
913.886	6597
914	6559
914.113	6566
914.226	6597
914.34	6608
914.453	6521
914.566	6642
914.68	6494
914.793	6540
914.906	6391
915.019	6369
915.132	6342
915.245	6414
915.358	6403
915.47	6429
915.583	6464
915.696	6403
915.809	6521
915.921	6506
916.034	6452
916.146	6414
916.259	6361
916.371	6448
916.483	6407
916.595	6414
916.708	6399
916.82	6353
916.932	6315
917.044	6399
917.156	6365
917.268	6273
917.38	6334
917.491	6281
917.603	6369
917.715	6334
917.826	6338
917.938	6331
918.049	6213
918.161	6304
918.272	6369
918.384	6376
918.495	6327
918.606	6258
918.717	6205
918.828	6251
918.939	6235
919.05	6167
919.161	6220
919.272	6102
919.383	6171
919.494	6270
919.604	6407
919.715	6266
919.826	6175
919.936	6182
920.047	6292
920.157	6273
920.267	6426
920.378	6315
920.488	6273
920.598	6475
920.708	6559
920.818	6452
920.928	6464
921.038	6597
921.148	6536
921.258	6350
921.368	6304
921.477	6232
921.587	6133
921.697	6129
921.806	6125
921.916	6030
922.025	5904
922.134	5931
922.244	5832
922.353	5927
922.462	5805
922.571	5790
922.68	5783
922.789	5710
922.898	5695
923.007	5600
923.116	5672
923.224	5665
923.333	5653
923.442	5585
923.55	5589
923.659	5566
923.767	5623
923.876	5528
923.984	5577
924.092	5486
924.201	5543
924.309	5551
924.417	5478
924.525	5421
924.633	5532
924.741	6213
924.849	5398
924.956	5448
925.064	5372
925.172	5269
925.279	5296
925.387	5345
925.494	5360
925.602	5353
925.709	5387
925.816	5280
925.924	5277
926.031	5330
926.138	5273
926.245	5292
926.352	5181
926.459	5311
926.566	5318
926.673	5235
926.779	5064
926.886	5090
926.993	5033
927.099	4942
927.206	4991
927.312	4942
927.419	4968
927.525	4957
927.631	4991
927.737	4885
927.843	4824
927.95	4771
928.056	4854
928.162	4835
928.267	4831
928.373	5311
928.479	4885
928.585	4668
928.69	4744
928.796	4786
928.901	4637
929.007	4527
929.112	4653
929.218	4653
929.323	4538
929.428	4527
929.533	4645
929.638	4512
929.743	4512
929.848	4550
929.953	4519
930.058	4436
930.163	4295
930.267	4318
930.372	4409
930.477	4333
930.581	4436
930.685	4341
930.79	4242
930.894	4234
930.998	4234
931.103	4367
931.207	4120
931.311	4116
931.415	3987
931.519	3994
931.623	3945
