Data from glass_V78500241_2531.txt Node
Date: Wed Sep 01 19:32:02 CST 2021
User: usil
Spectrometer: V785-0024
Trigger mode: 0
Integration Time (sec): 4.000000E-1
Scans to average: 1
Nonlinearity correction enabled: false
Boxcar width: 0
Storing dark spectrum: false
XAxis mode: Wavelengths
Number of Pixels in Spectrum: 1024
>>>>>Begin Spectral Data<<<<<
801.071	3709
801.214	3759
801.356	3694
801.499	3709
801.641	3717
801.783	3755
801.926	3846
802.068	3800
802.211	3819
802.353	3835
802.496	3816
802.638	3869
802.78	3907
802.923	3945
803.065	3880
803.208	3835
803.35	3854
803.492	3896
803.635	3899
803.777	3835
803.919	3869
804.061	4166
804.204	3972
804.346	3975
804.488	3915
804.63	4002
804.773	3934
804.915	4040
805.057	4128
805.199	4074
805.341	4036
805.483	4158
805.626	4112
805.768	4105
805.91	4192
806.052	4234
806.194	4169
806.336	4306
806.478	4185
806.62	4162
806.762	4181
806.904	4238
807.046	4303
807.188	4223
807.33	4162
807.472	4207
807.614	4177
807.756	4249
807.898	4207
808.04	4196
808.182	4284
808.324	4280
808.465	4424
808.607	4363
808.749	4394
808.891	4455
809.033	4459
809.174	4383
809.316	4227
809.458	4238
809.6	4192
809.741	4147
809.883	4131
810.025	4188
810.166	4192
810.308	4223
810.45	4280
810.591	4238
810.733	4230
810.875	4485
811.016	4816
811.158	5102
811.299	5265
811.441	5292
811.582	5079
811.724	4702
811.865	4455
812.007	4462
812.148	4443
812.29	4424
812.431	4371
812.573	4440
812.714	4405
812.855	4394
812.997	4424
813.138	4466
813.279	4421
813.421	4318
813.562	4394
813.703	4322
813.845	4318
813.986	4207
814.127	4238
814.268	4207
814.41	4291
814.551	4188
814.692	4295
814.833	4272
814.974	4306
815.115	4303
815.256	4242
815.397	4253
815.539	4253
815.68	4139
815.821	4227
815.962	4303
816.103	4280
816.244	4246
816.385	4204
816.526	4215
816.666	4192
816.807	4067
816.948	4204
817.089	4169
817.23	4063
817.371	4002
817.512	4025
817.653	4071
817.793	4032
817.934	4071
818.075	4112
818.216	4055
818.356	4032
818.497	3968
818.638	3922
818.778	3896
818.919	3892
819.06	3865
819.2	3899
819.341	3850
819.481	3793
819.622	3915
819.762	3964
819.903	3915
820.043	3869
820.184	3819
820.324	3819
820.465	3800
820.605	3884
820.746	3876
820.886	3781
821.026	3896
821.167	3930
821.307	3930
821.447	3953
821.588	3953
821.728	3915
821.868	3937
822.008	3896
822.149	3926
822.289	3915
822.429	3797
822.569	3785
822.709	3774
822.849	3667
822.99	3686
823.13	3740
823.27	3789
823.41	3705
823.55	3732
823.69	3724
823.83	3698
823.97	3644
824.11	3576
824.25	3564
824.389	3614
824.529	3698
824.669	3622
824.809	3690
824.949	3762
825.089	3770
825.228	3679
825.368	3519
825.508	3572
825.648	3564
825.787	3618
825.927	3610
826.067	3606
826.206	3656
826.346	3770
826.485	3838
826.625	3835
826.765	3964
826.904	3823
827.044	3618
827.183	3542
827.323	3454
827.462	3488
827.601	3397
827.741	3424
827.88	3447
828.02	3359
828.159	3412
828.298	3507
828.437	3504
828.577	3458
828.716	3591
828.855	3485
828.994	3405
829.134	3325
829.273	3370
829.412	3291
829.551	3325
829.69	3332
829.829	3393
829.968	3496
830.107	3424
830.246	3462
830.385	3389
830.524	3291
830.663	3272
830.802	3256
830.941	3165
831.08	3195
831.219	3249
831.357	3253
831.496	3374
831.635	3233
831.774	3226
831.913	3188
832.051	3127
832.19	3180
832.329	3226
832.467	3112
832.606	3131
832.744	3184
832.883	3169
833.022	3154
833.16	3264
833.299	3306
833.437	3325
833.576	3409
833.714	3409
833.852	3420
833.991	3409
834.129	3466
834.267	3488
834.406	3370
834.544	3435
834.682	3412
834.821	3428
834.959	3564
835.097	3435
835.235	3488
835.373	3545
835.511	3492
835.65	3458
835.788	3454
835.926	3389
836.064	3367
836.202	3405
836.34	3530
836.478	3553
836.615	3481
836.753	3576
836.891	3633
837.029	3580
837.167	3614
837.305	3526
837.443	3523
837.58	3500
837.718	3599
837.856	3519
837.993	3507
838.131	3599
838.269	3599
838.406	3553
838.544	3553
838.681	3443
838.819	3420
838.956	3367
839.094	3378
839.231	3401
839.369	3492
839.506	3732
839.643	3622
839.781	3477
839.918	3473
840.055	3526
840.193	3496
840.33	3523
840.467	3545
840.604	3572
840.742	3766
840.879	3545
841.016	3595
841.153	3595
841.29	3747
841.427	3705
841.564	3686
841.701	3766
841.838	3732
841.975	3709
842.112	3717
842.249	3656
842.385	3629
842.522	3819
842.659	3740
842.796	3606
842.933	3698
843.069	3724
843.206	3762
843.343	3816
843.479	3793
843.616	3789
843.752	3622
843.889	3679
844.025	3831
844.162	3724
844.298	3819
844.435	3785
844.571	3800
844.708	3892
844.844	3968
844.98	4017
845.117	4013
845.253	3899
845.389	3892
845.525	3937
845.661	3937
845.798	3949
845.934	4006
846.07	3968
846.206	4051
846.342	4135
846.478	4040
846.614	3972
846.75	3903
846.886	3854
847.022	4025
847.158	3964
847.294	3968
847.429	3983
847.565	3972
847.701	4192
847.837	3842
847.972	3842
848.108	3953
848.244	3975
848.379	3846
848.515	3831
848.65	3785
848.786	3808
848.921	3861
849.057	3869
849.192	3907
849.328	3899
849.463	3865
849.598	3869
849.734	3869
849.869	3793
850.004	3785
850.14	3778
850.275	3762
850.41	3759
850.545	3736
850.68	3781
850.815	3797
850.95	3770
851.085	3892
851.22	3880
851.355	3854
851.49	3770
851.625	3812
851.76	3808
851.895	3743
852.03	3717
852.165	3774
852.299	3857
852.434	3869
852.569	3823
852.703	3842
852.838	3934
852.973	3994
853.107	4040
853.242	3892
853.376	3819
853.511	3781
853.645	3846
853.78	3911
853.914	3873
854.048	3926
854.183	3869
854.317	3907
854.451	4051
854.585	3987
854.72	3964
854.854	4063
854.988	3869
855.122	4029
855.256	3896
855.39	4006
855.524	4059
855.658	4101
855.792	4109
855.926	4143
856.06	4188
856.194	4207
856.327	4116
856.461	4105
856.595	4120
856.729	4150
856.862	4253
856.996	4227
857.13	4280
857.263	4314
857.397	4371
857.53	4280
857.664	4329
857.797	4363
857.931	4356
858.064	4383
858.197	4436
858.331	4386
858.464	4363
858.597	4379
858.731	4386
858.864	4386
858.997	4451
859.13	4481
859.263	4527
859.396	4580
859.529	4535
859.662	4550
859.795	4546
859.928	4546
860.061	4618
860.194	4702
860.327	4645
860.46	4645
860.592	4683
860.725	4744
860.858	4774
860.99	4687
861.123	4691
861.256	4660
861.388	4763
861.521	5425
861.653	4679
861.786	4729
861.918	4778
862.05	4786
862.183	4816
862.315	4881
862.447	4923
862.58	4885
862.712	4782
862.844	4763
862.976	4885
863.108	4858
863.24	5159
863.372	4843
863.504	4923
863.636	4885
863.768	4953
863.9	4995
864.032	4972
864.164	4946
864.296	5006
864.428	5064
864.559	5075
864.691	5155
864.823	5071
864.954	5094
865.086	5178
865.217	5124
865.349	5060
865.48	5166
865.612	5174
865.743	5269
865.875	5151
866.006	5147
866.137	5261
866.269	5246
866.4	5220
866.531	5261
866.662	5212
866.793	5288
866.924	5265
867.055	5330
867.186	5334
867.317	5318
867.448	5337
867.579	5357
867.71	5353
867.841	5357
867.972	5379
868.103	5490
868.233	5459
868.364	5539
868.495	5501
868.625	5638
868.756	5771
868.886	5638
869.017	5710
869.147	5882
869.278	5885
869.408	5764
869.539	5836
869.669	5920
869.799	5912
869.929	5897
870.06	5988
870.19	6273
870.32	6201
870.45	6239
870.58	6296
870.71	6410
870.84	6437
870.97	6494
871.1	6429
871.23	6627
871.36	6662
871.489	6658
871.619	6738
871.749	6798
871.879	6814
872.008	6966
872.138	6966
872.267	6966
872.397	6970
872.526	6993
872.656	7034
872.785	7152
872.915	7369
873.044	7556
873.173	7567
873.303	7647
873.432	7757
873.561	7826
873.69	7902
873.819	7997
873.948	8115
874.077	8279
874.206	8309
874.335	8415
874.464	8689
874.593	8838
874.722	8963
874.851	9081
874.979	9214
875.108	9359
875.237	9477
875.365	9469
875.494	9557
875.623	9793
875.751	9804
875.88	9964
876.008	10135
876.136	10314
876.265	10459
876.393	10717
876.521	10736
876.65	10801
876.778	10881
876.906	10839
877.034	10919
877.162	11010
877.29	11060
877.418	11235
877.546	11334
877.674	11360
877.802	11463
877.93	11516
878.058	11516
878.185	11516
878.313	11642
878.441	11771
878.568	11608
878.696	11893
878.824	11798
878.951	11885
879.079	11923
879.206	12175
879.333	12049
879.461	11996
879.588	12106
879.715	12045
879.842	12171
879.97	12019
880.097	11863
880.224	11878
880.351	11931
880.478	11939
880.605	11847
880.732	11764
880.859	12003
880.986	11794
881.112	11874
881.239	11745
881.366	11623
881.493	11619
881.619	11623
881.746	11570
881.872	11608
881.999	11467
882.125	11444
882.252	11585
882.378	11459
882.505	11509
882.631	11356
882.757	11231
882.883	11280
883.01	11254
883.136	11113
883.262	11105
883.388	11121
883.514	11147
883.64	11181
883.766	11113
883.892	10987
884.018	10995
884.143	11041
884.269	11121
884.395	10862
884.52	10771
884.646	10774
884.772	10714
884.897	10596
885.023	10656
885.148	10668
885.274	10809
885.399	10675
885.524	10558
885.65	10618
885.775	10565
885.9	10569
886.025	10546
886.15	10558
886.275	10443
886.4	10352
886.525	10386
886.65	10333
886.775	10265
886.9	10443
887.025	10523
887.149	10375
887.274	10249
887.399	10200
887.523	10169
887.648	10101
887.773	10154
887.897	10173
888.021	10207
888.146	10143
888.27	10223
888.395	10173
888.519	10097
888.643	10135
888.767	10131
888.891	10105
889.015	9983
889.139	9998
889.263	9975
889.387	10063
889.511	10048
889.635	10036
889.759	9934
889.883	10013
890.006	9975
890.13	10017
890.254	9903
890.377	9945
890.501	9880
890.624	9922
890.748	9907
890.871	9797
890.995	9717
891.118	9663
891.241	9709
891.364	9770
891.488	9816
891.611	9663
891.734	9804
891.857	9835
891.98	9698
892.103	9770
892.226	9717
892.349	9686
892.471	9511
892.594	9633
892.717	9595
892.839	9553
892.962	9538
893.085	9610
893.207	9667
893.33	9595
893.452	9561
893.575	9534
893.697	9462
893.819	9606
893.941	9576
894.064	9625
894.186	9492
894.308	9310
894.43	9542
894.552	9488
894.674	9477
894.796	9412
894.918	9378
895.04	9367
895.161	9310
895.283	9340
895.405	9226
895.526	9351
895.648	9249
895.769	9203
895.891	9325
896.012	9249
896.134	9230
896.255	9249
896.376	9135
896.498	9218
896.619	9176
896.74	9097
896.861	9135
896.982	9302
897.103	9325
897.224	9150
897.345	9024
897.466	8925
897.587	8952
897.708	9089
897.828	8979
897.949	8918
898.07	8857
898.19	8906
898.311	9005
898.431	8880
898.552	8876
898.672	9036
898.792	8944
898.913	8853
899.033	8750
899.153	8743
899.273	8686
899.393	8777
899.513	8739
899.633	8731
899.753	8716
899.873	8689
899.993	8758
900.113	8632
900.232	8750
900.352	8697
900.472	8590
900.591	8613
900.711	8617
900.83	8549
900.95	8621
901.069	8670
901.189	8617
901.308	8427
901.427	8389
901.546	8419
901.665	8438
901.784	8385
901.904	8347
902.023	8320
902.141	8176
902.26	8180
902.379	8290
902.498	8195
902.617	8237
902.735	8286
902.854	8229
902.973	8225
903.091	8123
903.21	8164
903.328	8164
903.446	8123
903.565	7986
903.683	8096
903.801	8031
903.919	8062
904.038	8111
904.156	8088
904.274	8062
904.392	8005
904.51	8065
904.627	8050
904.745	8119
904.863	8077
904.981	7913
905.098	7864
905.216	7822
905.334	7875
905.451	7841
905.569	7818
905.686	7940
905.803	7887
905.921	7738
906.038	7898
906.155	7830
906.272	7731
906.389	7719
906.506	7647
906.623	7616
906.74	7510
906.857	7624
906.974	7571
907.091	7586
907.208	7757
907.324	7632
907.441	7533
907.557	7434
907.674	7445
907.79	7343
907.907	7381
908.023	7430
908.139	7365
908.256	7350
908.372	7377
908.488	7350
908.604	7274
908.72	7244
908.836	7270
908.952	7263
909.068	7263
909.184	7228
909.3	7209
909.415	7251
909.531	7278
909.647	7099
909.762	7069
909.878	7061
909.993	7050
910.108	7110
910.224	7053
910.339	7061
910.454	6993
910.57	6939
910.685	6951
910.8	7149
910.915	7133
911.03	7008
911.145	6924
911.259	6833
911.374	6867
911.489	6829
911.604	6738
911.718	6692
911.833	6700
911.947	6677
912.062	6578
912.176	6734
912.291	6696
912.405	6692
912.519	6821
912.633	6783
912.748	6749
912.862	6703
912.976	6566
913.09	6486
913.204	6555
913.318	6627
913.431	6677
913.545	6681
913.659	6715
913.772	6612
913.886	6631
914	6551
914.113	6597
914.226	6620
914.34	6604
914.453	6467
914.566	6555
914.68	6486
914.793	6509
914.906	6429
915.019	6342
915.132	6361
915.245	6372
915.358	6441
915.47	6407
915.583	6429
915.696	6460
915.809	6506
915.921	6536
916.034	6464
916.146	6388
916.259	6399
916.371	6437
916.483	6403
916.595	6369
916.708	6437
916.82	6361
916.932	6353
917.044	6315
917.156	6361
917.268	6357
917.38	6308
917.491	6277
917.603	6369
917.715	6361
917.826	6346
917.938	6308
918.049	6266
918.161	6262
918.272	6388
918.384	6429
918.495	6346
918.606	6194
918.717	6136
918.828	6300
918.939	6281
919.05	6144
919.161	6243
919.272	6068
919.383	6144
919.494	6273
919.604	6350
919.715	6292
919.826	6194
919.936	6163
920.047	6289
920.157	6228
920.267	6509
920.378	6216
920.488	6270
920.598	6426
920.708	6544
920.818	6410
920.928	6467
921.038	6559
921.148	6578
921.258	6323
921.368	6315
921.477	6201
921.587	6136
921.697	6095
921.806	6133
921.916	6038
922.025	5923
922.134	5859
922.244	5851
922.353	5885
922.462	5840
922.571	5726
922.68	5676
922.789	5668
922.898	5688
923.007	5619
923.116	5676
923.224	5665
923.333	5672
923.442	5600
923.55	5638
923.659	5566
923.767	5623
923.876	5600
923.984	5554
924.092	5474
924.201	5509
924.309	5505
924.417	5547
924.525	5509
924.633	5448
924.741	6220
924.849	5387
924.956	5528
925.064	5326
925.172	5227
925.279	5353
925.387	5353
925.494	5322
925.602	5402
925.709	5383
925.816	5246
925.924	5269
926.031	5303
926.138	5326
926.245	5345
926.352	5181
926.459	5280
926.566	5303
926.673	5174
926.779	5113
926.886	5094
926.993	5079
927.099	4965
927.206	4965
927.312	4987
927.419	5003
927.525	4949
927.631	4976
927.737	4896
927.843	4850
927.95	4797
928.056	4797
928.162	4805
928.267	4850
928.373	5265
928.479	4870
928.585	4679
928.69	4782
928.796	4812
928.901	4679
929.007	4573
929.112	4641
929.218	4683
929.323	4573
929.428	4580
929.533	4672
929.638	4497
929.743	4527
929.848	4573
929.953	4478
930.058	4409
930.163	4375
930.267	4325
930.372	4375
930.477	4341
930.581	4489
930.685	4386
930.79	4280
930.894	4284
930.998	4230
931.103	4402
931.207	4101
931.311	4071
931.415	4013
931.519	3896
931.623	3930
