Data from glass_V78500241_1006.txt Node
Date: Wed Sep 01 19:21:28 CST 2021
User: usil
Spectrometer: V785-0024
Trigger mode: 0
Integration Time (sec): 4.000000E-1
Scans to average: 1
Nonlinearity correction enabled: false
Boxcar width: 0
Storing dark spectrum: false
XAxis mode: Wavelengths
Number of Pixels in Spectrum: 1024
>>>>>Begin Spectral Data<<<<<
801.071	3743
801.214	3789
801.356	3747
801.499	3751
801.641	3740
801.783	3789
801.926	3854
802.068	3873
802.211	3930
802.353	3907
802.496	3827
802.638	3896
802.78	3911
802.923	3956
803.065	3915
803.208	3865
803.35	3842
803.492	3892
803.635	3956
803.777	3808
803.919	3884
804.061	4124
804.204	3994
804.346	3987
804.488	3918
804.63	4097
804.773	3998
804.915	4055
805.057	4166
805.199	4036
805.341	4116
805.483	4166
805.626	4139
805.768	4154
805.91	4219
806.052	4211
806.194	4242
806.336	4379
806.478	4227
806.62	4223
806.762	4196
806.904	4306
807.046	4344
807.188	4238
807.33	4173
807.472	4265
807.614	4227
807.756	4291
807.898	4246
808.04	4227
808.182	4257
808.324	4314
808.465	4379
808.607	4481
808.749	4462
808.891	4478
809.033	4531
809.174	4409
809.316	4287
809.458	4272
809.6	4154
809.741	4139
809.883	4154
810.025	4234
810.166	4200
810.308	4204
810.45	4234
810.591	4223
810.733	4265
810.875	4500
811.016	4847
811.158	5201
811.299	5296
811.441	5273
811.582	5086
811.724	4733
811.865	4500
812.007	4455
812.148	4447
812.29	4409
812.431	4417
812.573	4432
812.714	4386
812.855	4421
812.997	4455
813.138	4485
813.279	4447
813.421	4409
813.562	4405
813.703	4322
813.845	4352
813.986	4268
814.127	4227
814.268	4287
814.41	4314
814.551	4314
814.692	4360
814.833	4291
814.974	4360
815.115	4352
815.256	4276
815.397	4249
815.539	4310
815.68	4219
815.821	4242
815.962	4337
816.103	4295
816.244	4276
816.385	4227
816.526	4246
816.666	4230
816.807	4112
816.948	4169
817.089	4188
817.23	4093
817.371	4097
817.512	4067
817.653	4097
817.793	4021
817.934	4059
818.075	4097
818.216	4097
818.356	4093
818.497	4010
818.638	3949
818.778	3937
818.919	3888
819.06	3884
819.2	3911
819.341	3835
819.481	3846
819.622	3907
819.762	4067
819.903	3968
820.043	3915
820.184	3838
820.324	3831
820.465	3857
820.605	3892
820.746	3907
820.886	3816
821.026	3945
821.167	3941
821.307	4051
821.447	3994
821.588	3968
821.728	3953
821.868	3876
822.008	3869
822.149	3896
822.289	3907
822.429	3823
822.569	3736
822.709	3842
822.849	3705
822.99	3724
823.13	3766
823.27	3781
823.41	3720
823.55	3743
823.69	3762
823.83	3766
823.97	3694
824.11	3667
824.25	3584
824.389	3637
824.529	3667
824.669	3629
824.809	3724
824.949	3785
825.089	3759
825.228	3732
825.368	3614
825.508	3584
825.648	3606
825.787	3614
825.927	3656
826.067	3618
826.206	3667
826.346	3766
826.485	3846
826.625	3899
826.765	3991
826.904	3861
827.044	3625
827.183	3538
827.323	3447
827.462	3515
827.601	3428
827.741	3447
827.88	3466
828.02	3401
828.159	3435
828.298	3507
828.437	3492
828.577	3481
828.716	3568
828.855	3507
828.994	3393
829.134	3367
829.273	3405
829.412	3389
829.551	3336
829.69	3359
829.829	3370
829.968	3500
830.107	3477
830.246	3477
830.385	3393
830.524	3336
830.663	3348
830.802	3264
830.941	3256
831.08	3222
831.219	3298
831.357	3291
831.496	3401
831.635	3268
831.774	3203
831.913	3203
832.051	3150
832.19	3207
832.329	3184
832.467	3154
832.606	3131
832.744	3192
832.883	3214
833.022	3195
833.16	3291
833.299	3321
833.437	3351
833.576	3355
833.714	3389
833.852	3492
833.991	3458
834.129	3492
834.267	3420
834.406	3378
834.544	3382
834.682	3477
834.821	3405
834.959	3561
835.097	3389
835.235	3557
835.373	3485
835.511	3492
835.65	3469
835.788	3526
835.926	3424
836.064	3389
836.202	3424
836.34	3606
836.478	3606
836.615	3530
836.753	3671
836.891	3667
837.029	3637
837.167	3614
837.305	3610
837.443	3526
837.58	3542
837.718	3618
837.856	3576
837.993	3572
838.131	3606
838.269	3561
838.406	3603
838.544	3606
838.681	3515
838.819	3485
838.956	3393
839.094	3405
839.231	3492
839.369	3561
839.506	3762
839.643	3614
839.781	3530
839.918	3481
840.055	3549
840.193	3542
840.33	3538
840.467	3545
840.604	3584
840.742	3812
840.879	3538
841.016	3587
841.153	3557
841.29	3759
841.427	3751
841.564	3740
841.701	3740
841.838	3747
841.975	3713
842.112	3724
842.249	3637
842.385	3622
842.522	3861
842.659	3686
842.796	3717
842.933	3698
843.069	3686
843.206	3720
843.343	3808
843.479	3793
843.616	3762
843.752	3682
843.889	3701
844.025	3899
844.162	3728
844.298	3819
844.435	3778
844.571	3812
844.708	3930
844.844	4029
844.98	4029
845.117	3979
845.253	3956
845.389	3918
845.525	3987
845.661	3998
845.798	3945
845.934	4006
846.07	3987
846.206	4112
846.342	4120
846.478	4074
846.614	3949
846.75	3968
846.886	3945
847.022	4021
847.158	4032
847.294	3979
847.429	4044
847.565	4040
847.701	4223
847.837	3892
847.972	3873
848.108	4017
848.244	3994
848.379	3892
848.515	3789
848.65	3793
848.786	3831
848.921	3915
849.057	3907
849.192	3945
849.328	3888
849.463	3949
849.598	3941
849.734	3869
849.869	3896
850.004	3789
850.14	3819
850.275	3774
850.41	3766
850.545	3743
850.68	3793
850.815	3819
850.95	3831
851.085	3918
851.22	3873
851.355	3869
851.49	3804
851.625	3831
851.76	3800
851.895	3766
852.03	3720
852.165	3823
852.299	3823
852.434	3880
852.569	3899
852.703	3968
852.838	3949
852.973	4044
853.107	3994
853.242	3911
853.376	3861
853.511	3804
853.645	3819
853.78	3968
853.914	3907
854.048	3892
854.183	3892
854.317	3964
854.451	4055
854.585	3960
854.72	3975
854.854	4044
854.988	3934
855.122	4021
855.256	3964
855.39	4029
855.524	4093
855.658	4150
855.792	4071
855.926	4143
856.06	4150
856.194	4246
856.327	4120
856.461	4101
856.595	4128
856.729	4185
856.862	4261
856.996	4242
857.13	4295
857.263	4318
857.397	4383
857.53	4306
857.664	4394
857.797	4421
857.931	4440
858.064	4405
858.197	4455
858.331	4402
858.464	4394
858.597	4367
858.731	4455
858.864	4470
858.997	4447
859.13	4535
859.263	4527
859.396	4584
859.529	4588
859.662	4527
859.795	4542
859.928	4649
860.061	4729
860.194	4729
860.327	4626
860.46	4618
860.592	4702
860.725	4763
860.858	4748
860.99	4782
861.123	4706
861.256	4714
861.388	4786
861.521	5501
861.653	4759
861.786	4683
861.918	4767
862.05	4831
862.183	4824
862.315	4915
862.447	4934
862.58	4915
862.712	4774
862.844	4740
862.976	4904
863.108	4904
863.24	5258
863.372	4862
863.504	4919
863.636	4965
863.768	4999
863.9	4968
864.032	4968
864.164	4976
864.296	5033
864.428	5075
864.559	5071
864.691	5124
864.823	5128
864.954	5094
865.086	5181
865.217	5147
865.349	5071
865.48	5162
865.612	5208
865.743	5284
865.875	5170
866.006	5170
866.137	5254
866.269	5261
866.4	5261
866.531	5220
866.662	5181
866.793	5231
866.924	5288
867.055	5357
867.186	5364
867.317	5303
867.448	5372
867.579	5383
867.71	5417
867.841	5357
867.972	5440
868.103	5482
868.233	5516
868.364	5509
868.495	5528
868.625	5726
868.756	5779
868.886	5634
869.017	5699
869.147	5863
869.278	5882
869.408	5798
869.539	5878
869.669	5988
869.799	5927
869.929	5965
870.06	6015
870.19	6155
870.32	6201
870.45	6258
870.58	6331
870.71	6422
870.84	6467
870.97	6433
871.1	6483
871.23	6662
871.36	6677
871.489	6700
871.619	6783
871.749	6821
871.879	6875
872.008	6993
872.138	6993
872.267	7023
872.397	6970
872.526	7069
872.656	7099
872.785	7175
872.915	7449
873.044	7487
873.173	7533
873.303	7647
873.432	7792
873.561	7856
873.69	7925
873.819	7982
873.948	8172
874.077	8317
874.206	8320
874.335	8450
874.464	8659
874.593	8891
874.722	8929
874.851	9093
874.979	9169
875.108	9374
875.237	9378
875.365	9504
875.494	9606
875.623	9762
875.751	9861
875.88	10051
876.008	10207
876.136	10246
876.265	10558
876.393	10687
876.521	10694
876.65	10793
876.778	10946
876.906	10866
877.034	11010
877.162	11090
877.29	11136
877.418	11322
877.546	11398
877.674	11402
877.802	11425
877.93	11463
878.058	11547
878.185	11509
878.313	11676
878.441	11779
878.568	11672
878.696	11828
878.824	11813
878.951	11973
879.079	12038
879.206	12133
879.333	11958
879.461	11904
879.588	12186
879.715	12110
879.842	12273
879.97	12102
880.097	11859
880.224	11843
880.351	11859
880.478	11885
880.605	11893
880.732	11836
880.859	11996
880.986	11802
881.112	11882
881.239	11729
881.366	11672
881.493	11581
881.619	11581
881.746	11604
881.872	11627
881.999	11573
882.125	11570
882.252	11592
882.378	11505
882.505	11642
882.631	11402
882.757	11242
882.883	11341
883.01	11223
883.136	11178
883.262	11083
883.388	11071
883.514	11223
883.64	11113
883.766	11098
883.892	10946
884.018	10946
884.143	11071
884.269	11197
884.395	10835
884.52	10790
884.646	10763
884.772	10752
884.897	10702
885.023	10733
885.148	10702
885.274	10786
885.399	10622
885.524	10653
885.65	10622
885.775	10752
885.9	10596
886.025	10611
886.15	10607
886.275	10558
886.4	10424
886.525	10462
886.65	10341
886.775	10314
886.9	10523
887.025	10481
887.149	10325
887.274	10333
887.399	10181
887.523	10188
887.648	10124
887.773	10131
887.897	10192
888.021	10185
888.146	10128
888.27	10238
888.395	10284
888.519	10150
888.643	10204
888.767	10253
888.891	10063
889.015	10051
889.139	10059
889.263	10040
889.387	10090
889.511	10211
889.635	10010
889.759	9998
889.883	10006
890.006	9915
890.13	10032
890.254	9930
890.377	9903
890.501	9895
890.624	9907
890.748	9861
890.871	9865
890.995	9717
891.118	9774
891.241	9743
891.364	9774
891.488	9888
891.611	9789
891.734	9778
891.857	9751
891.98	9709
892.103	9808
892.226	9701
892.349	9633
892.471	9504
892.594	9648
892.717	9580
892.839	9625
892.962	9629
893.085	9641
893.207	9671
893.33	9473
893.452	9576
893.575	9637
893.697	9507
893.819	9618
893.941	9622
894.064	9682
894.186	9454
894.308	9416
894.43	9523
894.552	9538
894.674	9507
894.796	9313
894.918	9420
895.04	9310
895.161	9450
895.283	9431
895.405	9279
895.526	9310
895.648	9245
895.769	9279
895.891	9214
896.012	9275
896.134	9214
896.255	9127
896.376	9089
896.498	9135
896.619	9146
896.74	9081
896.861	9116
896.982	9268
897.103	9214
897.224	9226
897.345	9081
897.466	8975
897.587	9024
897.708	9112
897.828	9013
897.949	8963
898.07	8849
898.19	8937
898.311	9070
898.431	8937
898.552	8948
898.672	9055
898.792	8994
898.913	8956
899.033	8781
899.153	8769
899.273	8678
899.393	8735
899.513	8762
899.633	8701
899.753	8727
899.873	8712
899.993	8674
900.113	8705
900.232	8712
900.352	8716
900.472	8636
900.591	8530
900.711	8667
900.83	8545
900.95	8659
901.069	8682
901.189	8583
901.308	8442
901.427	8393
901.546	8446
901.665	8476
901.784	8556
901.904	8396
902.023	8343
902.141	8218
902.26	8202
902.379	8259
902.498	8195
902.617	8199
902.735	8298
902.854	8263
902.973	8279
903.091	8096
903.21	8191
903.328	8176
903.446	8138
903.565	8103
903.683	8176
903.801	8046
903.919	8107
904.038	8164
904.156	8073
904.274	8115
904.392	8096
904.51	8100
904.627	8065
904.745	8100
904.863	8096
904.981	7959
905.098	7890
905.216	7830
905.334	7955
905.451	7986
905.569	7868
905.686	7982
905.803	7856
905.921	7795
906.038	7902
906.155	7784
906.272	7750
906.389	7677
906.506	7616
906.623	7674
906.74	7655
906.857	7514
906.974	7559
907.091	7742
907.208	7731
907.324	7601
907.441	7616
907.557	7540
907.674	7468
907.79	7373
907.907	7430
908.023	7445
908.139	7396
908.256	7411
908.372	7373
908.488	7331
908.604	7190
908.72	7232
908.836	7225
908.952	7251
909.068	7228
909.184	7327
909.3	7266
909.415	7282
909.531	7293
909.647	7095
909.762	7129
909.878	7122
909.993	7137
910.108	7091
910.224	7095
910.339	7091
910.454	7053
910.57	6977
910.685	7042
910.8	7202
910.915	7149
911.03	7023
911.145	6916
911.259	6848
911.374	6920
911.489	6875
911.604	6802
911.718	6749
911.833	6768
911.947	6612
912.062	6585
912.176	6692
912.291	6738
912.405	6711
912.519	6821
912.633	6802
912.748	6833
912.862	6650
912.976	6623
913.09	6532
913.204	6559
913.318	6616
913.431	6681
913.545	6684
913.659	6688
913.772	6639
913.886	6547
914	6563
914.113	6578
914.226	6646
914.34	6566
914.453	6525
914.566	6593
914.68	6544
914.793	6544
914.906	6399
915.019	6399
915.132	6346
915.245	6441
915.358	6490
915.47	6422
915.583	6407
915.696	6445
915.809	6490
915.921	6574
916.034	6445
916.146	6429
916.259	6388
916.371	6475
916.483	6437
916.595	6418
916.708	6475
916.82	6346
916.932	6372
917.044	6410
917.156	6429
917.268	6327
917.38	6365
917.491	6380
917.603	6304
917.715	6407
917.826	6445
917.938	6311
918.049	6319
918.161	6353
918.272	6490
918.384	6471
918.495	6369
918.606	6243
918.717	6201
918.828	6270
918.939	6319
919.05	6152
919.161	6254
919.272	6117
919.383	6213
919.494	6289
919.604	6418
919.715	6285
919.826	6216
919.936	6281
920.047	6357
920.157	6270
920.267	6433
920.378	6323
920.488	6277
920.598	6464
920.708	6631
920.818	6521
920.928	6490
921.038	6608
921.148	6631
921.258	6342
921.368	6342
921.477	6251
921.587	6194
921.697	6091
921.806	6197
921.916	6136
922.025	5946
922.134	5980
922.244	5897
922.353	5939
922.462	5882
922.571	5821
922.68	5695
922.789	5737
922.898	5684
923.007	5627
923.116	5699
923.224	5703
923.333	5668
923.442	5592
923.55	5551
923.659	5581
923.767	5661
923.876	5570
923.984	5623
924.092	5547
924.201	5558
924.309	5497
924.417	5516
924.525	5512
924.633	5558
924.741	6315
924.849	5387
924.956	5463
925.064	5341
925.172	5337
925.279	5288
925.387	5368
925.494	5322
925.602	5444
925.709	5372
925.816	5299
925.924	5303
926.031	5406
926.138	5322
926.245	5334
926.352	5258
926.459	5360
926.566	5368
926.673	5185
926.779	5143
926.886	5083
926.993	5067
927.099	5064
927.206	4972
927.312	4961
927.419	5010
927.525	4999
927.631	4991
927.737	4881
927.843	4858
927.95	4793
928.056	4839
928.162	4828
928.267	4847
928.373	5307
928.479	4873
928.585	4725
928.69	4786
928.796	4759
928.901	4691
929.007	4592
929.112	4698
929.218	4580
929.323	4611
929.428	4569
929.533	4634
929.638	4535
929.743	4546
929.848	4527
929.953	4535
930.058	4436
930.163	4291
930.267	4287
930.372	4424
930.477	4333
930.581	4481
930.685	4390
930.79	4257
930.894	4284
930.998	4230
931.103	4394
931.207	4090
931.311	4082
931.415	4032
931.519	3930
931.623	4006
