Data from glass_V78500241_1188.txt Node
Date: Wed Sep 01 19:22:44 CST 2021
User: usil
Spectrometer: V785-0024
Trigger mode: 0
Integration Time (sec): 4.000000E-1
Scans to average: 1
Nonlinearity correction enabled: false
Boxcar width: 0
Storing dark spectrum: false
XAxis mode: Wavelengths
Number of Pixels in Spectrum: 1024
>>>>>Begin Spectral Data<<<<<
801.071	3694
801.214	3778
801.356	3713
801.499	3804
801.641	3740
801.783	3713
801.926	3896
802.068	3819
802.211	3896
802.353	3899
802.496	3857
802.638	3838
802.78	3869
802.923	3937
803.065	3899
803.208	3861
803.35	3892
803.492	3915
803.635	3915
803.777	3793
803.919	3911
804.061	4109
804.204	3987
804.346	3937
804.488	3915
804.63	4071
804.773	3983
804.915	4063
805.057	4181
805.199	4078
805.341	4112
805.483	4147
805.626	4105
805.768	4147
805.91	4200
806.052	4242
806.194	4211
806.336	4383
806.478	4188
806.62	4204
806.762	4181
806.904	4268
807.046	4314
807.188	4185
807.33	4158
807.472	4249
807.614	4215
807.756	4265
807.898	4238
808.04	4185
808.182	4322
808.324	4329
808.465	4402
808.607	4455
808.749	4413
808.891	4459
809.033	4508
809.174	4424
809.316	4284
809.458	4276
809.6	4173
809.741	4166
809.883	4150
810.025	4188
810.166	4234
810.308	4238
810.45	4268
810.591	4227
810.733	4265
810.875	4519
811.016	4805
811.158	5128
811.299	5296
811.441	5318
811.582	5064
811.724	4664
811.865	4489
812.007	4497
812.148	4451
812.29	4413
812.431	4413
812.573	4409
812.714	4375
812.855	4383
812.997	4394
813.138	4447
813.279	4466
813.421	4379
813.562	4386
813.703	4344
813.845	4318
813.986	4287
814.127	4234
814.268	4280
814.41	4303
814.551	4268
814.692	4314
814.833	4299
814.974	4322
815.115	4337
815.256	4246
815.397	4280
815.539	4284
815.68	4196
815.821	4230
815.962	4383
816.103	4287
816.244	4272
816.385	4261
816.526	4303
816.666	4223
816.807	4109
816.948	4177
817.089	4173
817.23	4109
817.371	4071
817.512	4040
817.653	4093
817.793	4074
817.934	4036
818.075	4124
818.216	4105
818.356	4082
818.497	3968
818.638	3918
818.778	3983
818.919	3880
819.06	3869
819.2	3945
819.341	3857
819.481	3888
819.622	3941
819.762	4006
819.903	3949
820.043	3873
820.184	3876
820.324	3808
820.465	3846
820.605	3896
820.746	3884
820.886	3804
821.026	3956
821.167	3888
821.307	3994
821.447	3968
821.588	3934
821.728	3998
821.868	3937
822.008	3873
822.149	3964
822.289	3918
822.429	3751
822.569	3743
822.709	3812
822.849	3686
822.99	3728
823.13	3728
823.27	3781
823.41	3736
823.55	3705
823.69	3732
823.83	3732
823.97	3690
824.11	3629
824.25	3584
824.389	3648
824.529	3701
824.669	3618
824.809	3736
824.949	3766
825.089	3705
825.228	3724
825.368	3580
825.508	3564
825.648	3580
825.787	3599
825.927	3682
826.067	3629
826.206	3686
826.346	3797
826.485	3846
826.625	3892
826.765	3949
826.904	3846
827.044	3625
827.183	3534
827.323	3435
827.462	3507
827.601	3435
827.741	3435
827.88	3469
828.02	3374
828.159	3458
828.298	3424
828.437	3523
828.577	3485
828.716	3648
828.855	3507
828.994	3401
829.134	3382
829.273	3409
829.412	3355
829.551	3374
829.69	3363
829.829	3443
829.968	3545
830.107	3458
830.246	3447
830.385	3412
830.524	3359
830.663	3325
830.802	3287
830.941	3192
831.08	3230
831.219	3237
831.357	3279
831.496	3424
831.635	3302
831.774	3173
831.913	3237
832.051	3100
832.19	3131
832.329	3222
832.467	3169
832.606	3127
832.744	3188
832.883	3214
833.022	3211
833.16	3268
833.299	3329
833.437	3367
833.576	3389
833.714	3393
833.852	3473
833.991	3428
834.129	3496
834.267	3431
834.406	3416
834.544	3420
834.682	3443
834.821	3397
834.959	3580
835.097	3393
835.235	3538
835.373	3485
835.511	3511
835.65	3477
835.788	3481
835.926	3405
836.064	3370
836.202	3431
836.34	3587
836.478	3614
836.615	3576
836.753	3584
836.891	3667
837.029	3633
837.167	3618
837.305	3557
837.443	3534
837.58	3549
837.718	3629
837.856	3561
837.993	3557
838.131	3614
838.269	3587
838.406	3599
838.544	3553
838.681	3515
838.819	3454
838.956	3397
839.094	3409
839.231	3386
839.369	3515
839.506	3793
839.643	3648
839.781	3496
839.918	3485
840.055	3557
840.193	3553
840.33	3584
840.467	3526
840.604	3568
840.742	3770
840.879	3580
841.016	3549
841.153	3599
841.29	3808
841.427	3701
841.564	3751
841.701	3755
841.838	3671
841.975	3690
842.112	3717
842.249	3667
842.385	3652
842.522	3819
842.659	3667
842.796	3724
842.933	3728
843.069	3701
843.206	3690
843.343	3865
843.479	3819
843.616	3827
843.752	3633
843.889	3720
844.025	3854
844.162	3720
844.298	3880
844.435	3812
844.571	3759
844.708	3903
844.844	3991
844.98	4021
845.117	4040
845.253	3892
845.389	3888
845.525	3956
845.661	3964
845.798	3922
845.934	4032
846.07	3949
846.206	4093
846.342	4116
846.478	4067
846.614	3983
846.75	3892
846.886	3903
847.022	4036
847.158	4002
847.294	3998
847.429	4021
847.565	4013
847.701	4257
847.837	3907
847.972	3857
848.108	3994
848.244	3972
848.379	3892
848.515	3827
848.65	3823
848.786	3857
848.921	3918
849.057	3926
849.192	3907
849.328	3937
849.463	3949
849.598	3876
849.734	3869
849.869	3850
850.004	3762
850.14	3808
850.275	3778
850.41	3728
850.545	3762
850.68	3785
850.815	3808
850.95	3797
851.085	3941
851.22	3888
851.355	3838
851.49	3785
851.625	3808
851.76	3808
851.895	3724
852.03	3766
852.165	3857
852.299	3812
852.434	3880
852.569	3861
852.703	3899
852.838	3941
852.973	3937
853.107	4006
853.242	3911
853.376	3865
853.511	3793
853.645	3823
853.78	4006
853.914	3930
854.048	3896
854.183	3907
854.317	3911
854.451	4021
854.585	3964
854.72	3930
854.854	4109
854.988	3956
855.122	4025
855.256	3896
855.39	4036
855.524	4128
855.658	4105
855.792	4120
855.926	4181
856.06	4196
856.194	4215
856.327	4166
856.461	4147
856.595	4204
856.729	4181
856.862	4295
856.996	4211
857.13	4268
857.263	4348
857.397	4375
857.53	4310
857.664	4383
857.797	4413
857.931	4428
858.064	4379
858.197	4440
858.331	4402
858.464	4436
858.597	4348
858.731	4497
858.864	4447
858.997	4421
859.13	4527
859.263	4504
859.396	4588
859.529	4497
859.662	4558
859.795	4519
859.928	4607
860.061	4679
860.194	4790
860.327	4687
860.46	4630
860.592	4706
860.725	4767
860.858	4816
860.99	4717
861.123	4691
861.256	4729
861.388	4801
861.521	5391
861.653	4706
861.786	4721
861.918	4691
862.05	4809
862.183	4854
862.315	4915
862.447	4942
862.58	4892
862.712	4820
862.844	4771
862.976	4873
863.108	4873
863.24	5166
863.372	4866
863.504	4923
863.636	4866
863.768	5006
863.9	4972
864.032	4927
864.164	4965
864.296	5003
864.428	5132
864.559	5117
864.691	5113
864.823	5140
864.954	5105
865.086	5181
865.217	5090
865.349	5178
865.48	5185
865.612	5147
865.743	5315
865.875	5181
866.006	5193
866.137	5227
866.269	5269
866.4	5185
866.531	5235
866.662	5242
866.793	5254
866.924	5337
867.055	5330
867.186	5353
867.317	5353
867.448	5368
867.579	5376
867.71	5402
867.841	5417
867.972	5463
868.103	5524
868.233	5551
868.364	5440
868.495	5501
868.625	5676
868.756	5779
868.886	5707
869.017	5836
869.147	5836
869.278	5923
869.408	5844
869.539	5809
869.669	5946
869.799	5859
869.929	5977
870.06	6034
870.19	6197
870.32	6152
870.45	6308
870.58	6395
870.71	6414
870.84	6448
870.97	6464
871.1	6410
871.23	6582
871.36	6711
871.489	6684
871.619	6711
871.749	6806
871.879	6829
872.008	7008
872.138	6909
872.267	7042
872.397	7027
872.526	7023
872.656	7053
872.785	7236
872.915	7316
873.044	7499
873.173	7590
873.303	7639
873.432	7742
873.561	7887
873.69	7967
873.819	8039
873.948	8218
874.077	8218
874.206	8336
874.335	8450
874.464	8663
874.593	8876
874.722	8910
874.851	9108
874.979	9214
875.108	9329
875.237	9435
875.365	9481
875.494	9732
875.623	9842
875.751	9823
875.88	10067
876.008	10139
876.136	10234
876.265	10618
876.393	10706
876.521	10649
876.65	10847
876.778	10904
876.906	10911
877.034	11010
877.162	11105
877.29	11162
877.418	11311
877.546	11265
877.674	11471
877.802	11440
877.93	11509
878.058	11577
878.185	11554
878.313	11570
878.441	11794
878.568	11729
878.696	11741
878.824	11771
878.951	11996
879.079	11923
879.206	12117
879.333	12003
879.461	12057
879.588	12095
879.715	12140
879.842	12239
879.97	12079
880.097	11863
880.224	11942
880.351	11832
880.478	11904
880.605	11874
880.732	11851
880.859	11984
880.986	11805
881.112	11893
881.239	11817
881.366	11627
881.493	11684
881.619	11535
881.746	11585
881.872	11600
881.999	11528
882.125	11486
882.252	11554
882.378	11471
882.505	11516
882.631	11444
882.757	11360
882.883	11341
883.01	11299
883.136	11231
883.262	11189
883.388	11143
883.514	11246
883.64	11174
883.766	11174
883.892	10946
884.018	11056
884.143	11075
884.269	11136
884.395	10839
884.52	10847
884.646	10714
884.772	10691
884.897	10660
885.023	10736
885.148	10771
885.274	10721
885.399	10702
885.524	10645
885.65	10569
885.775	10649
885.9	10683
886.025	10607
886.15	10626
886.275	10379
886.4	10379
886.525	10443
886.65	10379
886.775	10322
886.9	10493
887.025	10497
887.149	10352
887.274	10348
887.399	10204
887.523	10207
887.648	10158
887.773	10093
887.897	10234
888.021	10227
888.146	10101
888.27	10227
888.395	10242
888.519	10185
888.643	10215
888.767	10185
888.891	10105
889.015	9899
889.139	10059
889.263	10021
889.387	10078
889.511	10082
889.635	10093
889.759	9960
889.883	10013
890.006	9983
890.13	10090
890.254	9960
890.377	9953
890.501	9892
890.624	9975
890.748	9983
890.871	9797
890.995	9720
891.118	9766
891.241	9751
891.364	9740
891.488	9857
891.611	9774
891.734	9743
891.857	9793
891.98	9720
892.103	9819
892.226	9774
892.349	9641
892.471	9580
892.594	9603
892.717	9595
892.839	9603
892.962	9561
893.085	9679
893.207	9663
893.33	9515
893.452	9500
893.575	9591
893.697	9530
893.819	9644
893.941	9633
894.064	9572
894.186	9515
894.308	9378
894.43	9515
894.552	9584
894.674	9542
894.796	9462
894.918	9447
895.04	9340
895.161	9393
895.283	9382
895.405	9287
895.526	9336
895.648	9256
895.769	9192
895.891	9253
896.012	9294
896.134	9123
896.255	9226
896.376	9154
896.498	9089
896.619	9157
896.74	9146
896.861	9146
896.982	9306
897.103	9294
897.224	9161
897.345	9032
897.466	9009
897.587	9009
897.708	9081
897.828	9093
897.949	8990
898.07	8819
898.19	8910
898.311	9070
898.431	8872
898.552	8975
898.672	8906
898.792	9024
898.913	8845
899.033	8804
899.153	8800
899.273	8606
899.393	8750
899.513	8792
899.633	8716
899.753	8743
899.873	8712
899.993	8739
900.113	8773
900.232	8773
900.352	8606
900.472	8613
900.591	8503
900.711	8579
900.83	8522
900.95	8708
901.069	8766
901.189	8644
901.308	8438
901.427	8423
901.546	8457
901.665	8488
901.784	8427
901.904	8473
902.023	8381
902.141	8259
902.26	8214
902.379	8279
902.498	8252
902.617	8225
902.735	8339
902.854	8259
902.973	8313
903.091	8027
903.21	8199
903.328	8187
903.446	8119
903.565	8115
903.683	8123
903.801	8115
903.919	8145
904.038	8145
904.156	8069
904.274	8088
904.392	8024
904.51	8107
904.627	8073
904.745	8100
904.863	8081
904.981	7959
905.098	7917
905.216	7890
905.334	7928
905.451	7928
905.569	7841
905.686	7921
905.803	7932
905.921	7814
906.038	7928
906.155	7849
906.272	7662
906.389	7712
906.506	7601
906.623	7575
906.74	7597
906.857	7540
906.974	7559
907.091	7708
907.208	7685
907.324	7666
907.441	7582
907.557	7468
907.674	7441
907.79	7468
907.907	7331
908.023	7377
908.139	7460
908.256	7369
908.372	7430
908.488	7373
908.604	7282
908.72	7228
908.836	7305
908.952	7213
909.068	7278
909.184	7293
909.3	7278
909.415	7320
909.531	7339
909.647	7137
909.762	7099
909.878	7145
909.993	7137
910.108	7069
910.224	7126
910.339	7080
910.454	7053
910.57	6977
910.685	6962
910.8	7202
910.915	7088
911.03	7099
911.145	6894
911.259	6856
911.374	6958
911.489	6924
911.604	6825
911.718	6703
911.833	6741
911.947	6688
912.062	6559
912.176	6715
912.291	6696
912.405	6703
912.519	6837
912.633	6901
912.748	6753
912.862	6654
912.976	6639
913.09	6506
913.204	6604
913.318	6597
913.431	6639
913.545	6757
913.659	6719
913.772	6692
913.886	6585
914	6544
914.113	6639
914.226	6627
914.34	6582
914.453	6456
914.566	6612
914.68	6513
914.793	6570
914.906	6441
915.019	6486
915.132	6384
915.245	6437
915.358	6502
915.47	6452
915.583	6429
915.696	6490
915.809	6544
915.921	6566
916.034	6460
916.146	6422
916.259	6429
916.371	6528
916.483	6475
916.595	6445
916.708	6380
916.82	6380
916.932	6437
917.044	6418
917.156	6395
917.268	6361
917.38	6319
917.491	6319
917.603	6319
917.715	6350
917.826	6483
917.938	6380
918.049	6308
918.161	6323
918.272	6433
918.384	6422
918.495	6342
918.606	6266
918.717	6171
918.828	6216
918.939	6273
919.05	6190
919.161	6281
919.272	6159
919.383	6171
919.494	6300
919.604	6464
919.715	6277
919.826	6213
919.936	6220
920.047	6342
920.157	6205
920.267	6414
920.378	6319
920.488	6232
920.598	6471
920.708	6536
920.818	6433
920.928	6456
921.038	6597
921.148	6563
921.258	6300
921.368	6308
921.477	6266
921.587	6190
921.697	6053
921.806	6190
921.916	6087
922.025	5977
922.134	5935
922.244	5912
922.353	5893
922.462	5878
922.571	5821
922.68	5722
922.789	5657
922.898	5718
923.007	5630
923.116	5684
923.224	5653
923.333	5672
923.442	5649
923.55	5646
923.659	5573
923.767	5627
923.876	5509
923.984	5566
924.092	5535
924.201	5592
924.309	5509
924.417	5551
924.525	5505
924.633	5516
924.741	6251
924.849	5357
924.956	5474
925.064	5318
925.172	5334
925.279	5345
925.387	5345
925.494	5391
925.602	5372
925.709	5376
925.816	5296
925.924	5288
926.031	5406
926.138	5334
926.245	5349
926.352	5220
926.459	5341
926.566	5307
926.673	5299
926.779	5147
926.886	5136
926.993	5056
927.099	5003
927.206	4961
927.312	4927
927.419	5086
927.525	4999
927.631	5048
927.737	4942
927.843	4889
927.95	4763
928.056	4862
928.162	4847
928.267	4862
928.373	5357
928.479	4812
928.585	4714
928.69	4824
928.796	4801
928.901	4710
929.007	4599
929.112	4664
929.218	4645
929.323	4584
929.428	4577
929.533	4729
929.638	4550
929.743	4611
929.848	4523
929.953	4497
930.058	4409
930.163	4348
930.267	4322
930.372	4489
930.477	4352
930.581	4421
930.685	4375
930.79	4303
930.894	4310
930.998	4227
931.103	4417
931.207	4131
931.311	4101
931.415	4059
931.519	3949
931.623	3994
