Data from glass_V78500241_1545.txt Node
Date: Wed Sep 01 19:25:12 CST 2021
User: usil
Spectrometer: V785-0024
Trigger mode: 0
Integration Time (sec): 4.000000E-1
Scans to average: 1
Nonlinearity correction enabled: false
Boxcar width: 0
Storing dark spectrum: false
XAxis mode: Wavelengths
Number of Pixels in Spectrum: 1024
>>>>>Begin Spectral Data<<<<<
801.071	3720
801.214	3728
801.356	3720
801.499	3770
801.641	3732
801.783	3755
801.926	3854
802.068	3827
802.211	3865
802.353	3854
802.496	3812
802.638	3930
802.78	3911
802.923	3934
803.065	3903
803.208	3842
803.35	3854
803.492	3876
803.635	3903
803.777	3827
803.919	3876
804.061	4166
804.204	3930
804.346	4002
804.488	3888
804.63	4017
804.773	3953
804.915	4010
805.057	4131
805.199	4025
805.341	4090
805.483	4166
805.626	4128
805.768	4135
805.91	4188
806.052	4253
806.194	4219
806.336	4333
806.478	4227
806.62	4227
806.762	4181
806.904	4230
807.046	4322
807.188	4249
807.33	4177
807.472	4188
807.614	4196
807.756	4265
807.898	4219
808.04	4223
808.182	4295
808.324	4352
808.465	4348
808.607	4443
808.749	4455
808.891	4447
809.033	4519
809.174	4363
809.316	4299
809.458	4238
809.6	4166
809.741	4158
809.883	4173
810.025	4192
810.166	4219
810.308	4230
810.45	4272
810.591	4234
810.733	4238
810.875	4478
811.016	4820
811.158	5143
811.299	5258
811.441	5261
811.582	5064
811.724	4740
811.865	4489
812.007	4443
812.148	4443
812.29	4417
812.431	4367
812.573	4413
812.714	4402
812.855	4383
812.997	4432
813.138	4470
813.279	4478
813.421	4356
813.562	4363
813.703	4310
813.845	4352
813.986	4284
814.127	4204
814.268	4280
814.41	4295
814.551	4291
814.692	4303
814.833	4227
814.974	4322
815.115	4322
815.256	4249
815.397	4192
815.539	4261
815.68	4215
815.821	4173
815.962	4333
816.103	4280
816.244	4196
816.385	4261
816.526	4337
816.666	4227
816.807	4131
816.948	4181
817.089	4173
817.23	4101
817.371	4078
817.512	4067
817.653	4059
817.793	4074
817.934	4017
818.075	4101
818.216	4025
818.356	4074
818.497	4013
818.638	3926
818.778	3949
818.919	3884
819.06	3846
819.2	3934
819.341	3861
819.481	3842
819.622	3915
819.762	4002
819.903	3934
820.043	3831
820.184	3812
820.324	3781
820.465	3846
820.605	3880
820.746	3842
820.886	3819
821.026	3937
821.167	3911
821.307	3994
821.447	4055
821.588	4006
821.728	3949
821.868	3975
822.008	3869
822.149	3949
822.289	3903
822.429	3774
822.569	3747
822.709	3785
822.849	3679
822.99	3709
823.13	3793
823.27	3800
823.41	3717
823.55	3724
823.69	3732
823.83	3743
823.97	3652
824.11	3614
824.25	3564
824.389	3641
824.529	3705
824.669	3599
824.809	3743
824.949	3736
825.089	3728
825.228	3656
825.368	3561
825.508	3557
825.648	3625
825.787	3614
825.927	3656
826.067	3637
826.206	3652
826.346	3785
826.485	3857
826.625	3861
826.765	3956
826.904	3835
827.044	3682
827.183	3523
827.323	3428
827.462	3485
827.601	3382
827.741	3450
827.88	3450
828.02	3378
828.159	3447
828.298	3488
828.437	3557
828.577	3488
828.716	3568
828.855	3488
828.994	3378
829.134	3393
829.273	3359
829.412	3363
829.551	3321
829.69	3321
829.829	3447
829.968	3488
830.107	3462
830.246	3450
830.385	3378
830.524	3382
830.663	3230
830.802	3264
830.941	3173
831.08	3161
831.219	3302
831.357	3264
831.496	3424
831.635	3226
831.774	3154
831.913	3195
832.051	3127
832.19	3112
832.329	3199
832.467	3123
832.606	3104
832.744	3173
832.883	3192
833.022	3199
833.16	3279
833.299	3294
833.437	3340
833.576	3389
833.714	3393
833.852	3409
833.991	3462
834.129	3473
834.267	3454
834.406	3393
834.544	3439
834.682	3431
834.821	3405
834.959	3557
835.097	3473
835.235	3504
835.373	3500
835.511	3523
835.65	3454
835.788	3481
835.926	3401
836.064	3363
836.202	3412
836.34	3561
836.478	3633
836.615	3530
836.753	3587
836.891	3641
837.029	3660
837.167	3595
837.305	3603
837.443	3530
837.58	3469
837.718	3549
837.856	3557
837.993	3530
838.131	3622
838.269	3618
838.406	3576
838.544	3557
838.681	3515
838.819	3439
838.956	3382
839.094	3386
839.231	3405
839.369	3519
839.506	3720
839.643	3633
839.781	3523
839.918	3481
840.055	3530
840.193	3519
840.33	3500
840.467	3618
840.604	3591
840.742	3793
840.879	3526
841.016	3572
841.153	3633
841.29	3770
841.427	3724
841.564	3747
841.701	3717
841.838	3686
841.975	3701
842.112	3690
842.249	3648
842.385	3644
842.522	3850
842.659	3724
842.796	3709
842.933	3713
843.069	3728
843.206	3728
843.343	3835
843.479	3770
843.616	3808
843.752	3679
843.889	3675
844.025	3869
844.162	3701
844.298	3838
844.435	3778
844.571	3797
844.708	3854
844.844	3991
844.98	3979
845.117	4025
845.253	3930
845.389	3880
845.525	3968
845.661	3956
845.798	3949
845.934	4002
846.07	3941
846.206	4090
846.342	4097
846.478	4097
846.614	3968
846.75	3918
846.886	3899
847.022	4029
847.158	3956
847.294	3983
847.429	4021
847.565	3975
847.701	4276
847.837	3873
847.972	3896
848.108	3956
848.244	3987
848.379	3850
848.515	3831
848.65	3865
848.786	3865
848.921	3865
849.057	3937
849.192	3918
849.328	3922
849.463	3922
849.598	3857
849.734	3880
849.869	3770
850.004	3774
850.14	3797
850.275	3766
850.41	3736
850.545	3740
850.68	3759
850.815	3781
850.95	3812
851.085	3926
851.22	3880
851.355	3838
851.49	3785
851.625	3743
851.76	3755
851.895	3785
852.03	3728
852.165	3816
852.299	3850
852.434	3907
852.569	3869
852.703	3876
852.838	3945
852.973	4006
853.107	3975
853.242	3896
853.376	3865
853.511	3743
853.645	3842
853.78	3972
853.914	3873
854.048	3937
854.183	3888
854.317	3949
854.451	4048
854.585	3945
854.72	3949
854.854	4025
854.988	3918
855.122	3956
855.256	3899
855.39	3998
855.524	4143
855.658	4082
855.792	4112
855.926	4131
856.06	4192
856.194	4215
856.327	4093
856.461	4166
856.595	4109
856.729	4154
856.862	4325
856.996	4211
857.13	4303
857.263	4363
857.397	4360
857.53	4295
857.664	4356
857.797	4356
857.931	4390
858.064	4421
858.197	4478
858.331	4421
858.464	4383
858.597	4337
858.731	4424
858.864	4478
858.997	4451
859.13	4519
859.263	4481
859.396	4561
859.529	4527
859.662	4546
859.795	4535
859.928	4603
860.061	4725
860.194	4759
860.327	4645
860.46	4656
860.592	4721
860.725	4801
860.858	4782
860.99	4687
861.123	4702
861.256	4714
861.388	4797
861.521	5562
861.653	4790
861.786	4714
861.918	4763
862.05	4759
862.183	4885
862.315	4862
862.447	4904
862.58	4927
862.712	4801
862.844	4797
862.976	4858
863.108	4828
863.24	5235
863.372	4862
863.504	4858
863.636	4908
863.768	4976
863.9	4934
864.032	4930
864.164	4968
864.296	5014
864.428	5079
864.559	5090
864.691	5075
864.823	5162
864.954	5136
865.086	5094
865.217	5109
865.349	5113
865.48	5155
865.612	5208
865.743	5303
865.875	5227
866.006	5235
866.137	5277
866.269	5223
866.4	5258
866.531	5239
866.662	5227
866.793	5269
866.924	5292
867.055	5360
867.186	5311
867.317	5337
867.448	5288
867.579	5349
867.71	5436
867.841	5376
867.972	5474
868.103	5452
868.233	5474
868.364	5543
868.495	5551
868.625	5695
868.756	5748
868.886	5676
869.017	5676
869.147	5844
869.278	5882
869.408	5836
869.539	5817
869.669	5908
869.799	5916
869.929	5950
870.06	5954
870.19	6148
870.32	6186
870.45	6270
870.58	6323
870.71	6407
870.84	6464
870.97	6460
871.1	6452
871.23	6627
871.36	6677
871.489	6681
871.619	6738
871.749	6806
871.879	6859
872.008	6993
872.138	6962
872.267	6977
872.397	6951
872.526	6981
872.656	7114
872.785	7187
872.915	7411
873.044	7510
873.173	7590
873.303	7674
873.432	7738
873.561	7864
873.69	7925
873.819	7997
873.948	8214
874.077	8290
874.206	8355
874.335	8450
874.464	8617
874.593	8826
874.722	8891
874.851	9135
874.979	9131
875.108	9374
875.237	9351
875.365	9458
875.494	9614
875.623	9816
875.751	9823
875.88	9983
876.008	10105
876.136	10303
876.265	10542
876.393	10675
876.521	10740
876.65	10873
876.778	10908
876.906	10885
877.034	10908
877.162	11048
877.29	11121
877.418	11356
877.546	11341
877.674	11421
877.802	11497
877.93	11543
878.058	11619
878.185	11520
878.313	11630
878.441	11710
878.568	11764
878.696	11889
878.824	11805
878.951	11977
879.079	12022
879.206	12182
879.333	11999
879.461	12038
879.588	12003
879.715	12091
879.842	12247
879.97	12060
880.097	11889
880.224	11977
880.351	11885
880.478	11874
880.605	11847
880.732	11851
880.859	12064
880.986	11809
881.112	11847
881.239	11688
881.366	11665
881.493	11592
881.619	11505
881.746	11581
881.872	11562
881.999	11478
882.125	11490
882.252	11589
882.378	11463
882.505	11570
882.631	11368
882.757	11254
882.883	11349
883.01	11269
883.136	11197
883.262	11189
883.388	11056
883.514	11132
883.64	11292
883.766	11113
883.892	10953
884.018	10995
884.143	10987
884.269	11052
884.395	10831
884.52	10828
884.646	10706
884.772	10759
884.897	10660
885.023	10725
885.148	10698
885.274	10847
885.399	10778
885.524	10656
885.65	10672
885.775	10516
885.9	10580
886.025	10588
886.15	10508
886.275	10455
886.4	10409
886.525	10352
886.65	10386
886.775	10325
886.9	10455
887.025	10512
887.149	10348
887.274	10215
887.399	10249
887.523	10173
887.648	10116
887.773	10135
887.897	10192
888.021	10219
888.146	10051
888.27	10158
888.395	10234
888.519	10055
888.643	10162
888.767	10185
888.891	10097
889.015	10010
889.139	10025
889.263	9953
889.387	10086
889.511	10109
889.635	10086
889.759	9930
889.883	9968
890.006	9994
890.13	10074
890.254	9934
890.377	9937
890.501	9934
890.624	9865
890.748	9937
890.871	9842
890.995	9732
891.118	9652
891.241	9747
891.364	9728
891.488	9831
891.611	9774
891.734	9736
891.857	9759
891.98	9709
892.103	9789
892.226	9827
892.349	9618
892.471	9477
892.594	9625
892.717	9614
892.839	9690
892.962	9595
893.085	9701
893.207	9603
893.33	9496
893.452	9523
893.575	9633
893.697	9534
893.819	9705
893.941	9675
894.064	9519
894.186	9504
894.308	9454
894.43	9515
894.552	9584
894.674	9584
894.796	9363
894.918	9416
895.04	9374
895.161	9351
895.283	9275
895.405	9329
895.526	9325
895.648	9169
895.769	9233
895.891	9287
896.012	9245
896.134	9275
896.255	9150
896.376	9100
896.498	9142
896.619	9097
896.74	9058
896.861	9051
896.982	9176
897.103	9302
897.224	9161
897.345	9085
897.466	8960
897.587	9020
897.708	9119
897.828	9024
897.949	8952
898.07	8918
898.19	8960
898.311	9055
898.431	8929
898.552	8864
898.672	9024
898.792	8906
898.913	8895
899.033	8811
899.153	8724
899.273	8678
899.393	8750
899.513	8758
899.633	8750
899.753	8773
899.873	8629
899.993	8705
900.113	8693
900.232	8716
900.352	8743
900.472	8629
900.591	8590
900.711	8621
900.83	8537
900.95	8727
901.069	8648
901.189	8541
901.308	8442
901.427	8355
901.546	8396
901.665	8495
901.784	8473
901.904	8419
902.023	8355
902.141	8225
902.26	8225
902.379	8252
902.498	8202
902.617	8214
902.735	8320
902.854	8309
902.973	8343
903.091	8153
903.21	8115
903.328	8180
903.446	8149
903.565	8046
903.683	8111
903.801	7997
903.919	8084
904.038	8039
904.156	8073
904.274	8103
904.392	8001
904.51	8100
904.627	8050
904.745	8050
904.863	8107
904.981	7902
905.098	7932
905.216	7860
905.334	7852
905.451	7928
905.569	7887
905.686	7917
905.803	7887
905.921	7757
906.038	7841
906.155	7708
906.272	7681
906.389	7666
906.506	7696
906.623	7552
906.74	7616
906.857	7582
906.974	7620
907.091	7655
907.208	7681
907.324	7632
907.441	7518
907.557	7445
907.674	7403
907.79	7384
907.907	7407
908.023	7441
908.139	7464
908.256	7415
908.372	7369
908.488	7350
908.604	7251
908.72	7312
908.836	7289
908.952	7247
909.068	7263
909.184	7312
909.3	7244
909.415	7327
909.531	7244
909.647	7126
909.762	7080
909.878	7065
909.993	7126
910.108	7099
910.224	7050
910.339	7118
910.454	7065
910.57	7061
910.685	6962
910.8	7164
910.915	7046
911.03	7031
911.145	6882
911.259	6890
911.374	6909
911.489	6844
911.604	6787
911.718	6700
911.833	6787
911.947	6684
912.062	6658
912.176	6692
912.291	6692
912.405	6646
912.519	6867
912.633	6863
912.748	6795
912.862	6734
912.976	6620
913.09	6547
913.204	6601
913.318	6608
913.431	6597
913.545	6715
913.659	6646
913.772	6669
913.886	6551
914	6536
914.113	6604
914.226	6673
914.34	6616
914.453	6467
914.566	6574
914.68	6483
914.793	6551
914.906	6376
915.019	6422
915.132	6384
915.245	6467
915.358	6429
915.47	6448
915.583	6441
915.696	6437
915.809	6494
915.921	6574
916.034	6426
916.146	6331
916.259	6357
916.371	6452
916.483	6437
916.595	6414
916.708	6433
916.82	6414
916.932	6369
917.044	6414
917.156	6407
917.268	6304
917.38	6372
917.491	6285
917.603	6369
917.715	6429
917.826	6429
917.938	6296
918.049	6232
918.161	6395
918.272	6426
918.384	6395
918.495	6346
918.606	6232
918.717	6232
918.828	6308
918.939	6292
919.05	6194
919.161	6281
919.272	6125
919.383	6175
919.494	6311
919.604	6407
919.715	6285
919.826	6224
919.936	6254
920.047	6285
920.157	6319
920.267	6498
920.378	6315
920.488	6281
920.598	6456
920.708	6528
920.818	6502
920.928	6502
921.038	6597
921.148	6582
921.258	6346
921.368	6235
921.477	6201
921.587	6205
921.697	6068
921.806	6209
921.916	6064
922.025	5954
922.134	5874
922.244	5859
922.353	5950
922.462	5855
922.571	5813
922.68	5627
922.789	5684
922.898	5737
923.007	5661
923.116	5748
923.224	5688
923.333	5657
923.442	5634
923.55	5600
923.659	5570
923.767	5623
923.876	5482
923.984	5562
924.092	5554
924.201	5562
924.309	5516
924.417	5543
924.525	5493
924.633	5459
924.741	6171
924.849	5402
924.956	5463
925.064	5376
925.172	5299
925.279	5303
925.387	5395
925.494	5349
925.602	5402
925.709	5417
925.816	5269
925.924	5318
926.031	5349
926.138	5303
926.245	5315
926.352	5250
926.459	5337
926.566	5311
926.673	5193
926.779	5132
926.886	5105
926.993	5045
927.099	4953
927.206	4961
927.312	4972
927.419	5056
927.525	4965
927.631	4957
927.737	4881
927.843	4858
927.95	4771
928.056	4805
928.162	4824
928.267	4824
928.373	5349
928.479	4843
928.585	4736
928.69	4786
928.796	4820
928.901	4710
929.007	4561
929.112	4687
929.218	4603
929.323	4611
929.428	4569
929.533	4626
929.638	4531
929.743	4588
929.848	4577
929.953	4531
930.058	4462
930.163	4318
930.267	4341
930.372	4447
930.477	4276
930.581	4466
930.685	4341
930.79	4265
930.894	4234
930.998	4261
931.103	4379
931.207	4093
931.311	4040
931.415	4032
931.519	3926
931.623	3930
