Data from glass_V78500241_730.txt Node
Date: Wed Sep 01 19:19:33 CST 2021
User: usil
Spectrometer: V785-0024
Trigger mode: 0
Integration Time (sec): 4.000000E-1
Scans to average: 1
Nonlinearity correction enabled: false
Boxcar width: 0
Storing dark spectrum: false
XAxis mode: Wavelengths
Number of Pixels in Spectrum: 1024
>>>>>Begin Spectral Data<<<<<
801.071	3720
801.214	3720
801.356	3732
801.499	3793
801.641	3751
801.783	3804
801.926	3876
802.068	3861
802.211	3861
802.353	3880
802.496	3842
802.638	3903
802.78	3903
802.923	3930
803.065	3937
803.208	3850
803.35	3922
803.492	3941
803.635	3899
803.777	3846
803.919	3884
804.061	4166
804.204	3949
804.346	3964
804.488	3930
804.63	4051
804.773	3991
804.915	4063
805.057	4158
805.199	4029
805.341	4097
805.483	4188
805.626	4196
805.768	4124
805.91	4207
806.052	4207
806.194	4211
806.336	4432
806.478	4204
806.62	4154
806.762	4173
806.904	4284
807.046	4325
807.188	4249
807.33	4135
807.472	4253
807.614	4230
807.756	4272
807.898	4261
808.04	4261
808.182	4272
808.324	4329
808.465	4379
808.607	4500
808.749	4443
808.891	4493
809.033	4512
809.174	4394
809.316	4272
809.458	4249
809.6	4192
809.741	4147
809.883	4169
810.025	4196
810.166	4223
810.308	4230
810.45	4303
810.591	4261
810.733	4314
810.875	4554
811.016	4835
811.158	5147
811.299	5254
811.441	5330
811.582	5064
811.724	4679
811.865	4489
812.007	4474
812.148	4519
812.29	4440
812.431	4440
812.573	4462
812.714	4356
812.855	4455
812.997	4424
813.138	4512
813.279	4493
813.421	4383
813.562	4348
813.703	4325
813.845	4322
813.986	4219
814.127	4204
814.268	4284
814.41	4291
814.551	4287
814.692	4303
814.833	4261
814.974	4344
815.115	4333
815.256	4268
815.397	4211
815.539	4242
815.68	4230
815.821	4242
815.962	4344
816.103	4329
816.244	4261
816.385	4238
816.526	4287
816.666	4200
816.807	4143
816.948	4169
817.089	4169
817.23	4090
817.371	4059
817.512	4078
817.653	4063
817.793	4017
817.934	4044
818.075	4093
818.216	4048
818.356	4086
818.497	3998
818.638	3915
818.778	3918
818.919	3934
819.06	3884
819.2	3926
819.341	3873
819.481	3797
819.622	3930
819.762	4036
819.903	3979
820.043	3892
820.184	3835
820.324	3831
820.465	3865
820.605	3907
820.746	3915
820.886	3804
821.026	3922
821.167	3926
821.307	4013
821.447	4013
821.588	3983
821.728	3975
821.868	3968
822.008	3911
822.149	3880
822.289	3987
822.429	3800
822.569	3755
822.709	3835
822.849	3705
822.99	3713
823.13	3797
823.27	3804
823.41	3743
823.55	3778
823.69	3755
823.83	3770
823.97	3686
824.11	3599
824.25	3587
824.389	3648
824.529	3701
824.669	3656
824.809	3781
824.949	3755
825.089	3701
825.228	3724
825.368	3599
825.508	3595
825.648	3603
825.787	3599
825.927	3633
826.067	3633
826.206	3701
826.346	3827
826.485	3842
826.625	3880
826.765	3945
826.904	3827
827.044	3644
827.183	3534
827.323	3485
827.462	3466
827.601	3428
827.741	3435
827.88	3477
828.02	3363
828.159	3485
828.298	3469
828.437	3500
828.577	3481
828.716	3606
828.855	3492
828.994	3401
829.134	3389
829.273	3416
829.412	3332
829.551	3359
829.69	3409
829.829	3454
829.968	3504
830.107	3454
830.246	3439
830.385	3389
830.524	3348
830.663	3340
830.802	3237
830.941	3180
831.08	3192
831.219	3260
831.357	3241
831.496	3386
831.635	3237
831.774	3180
831.913	3184
832.051	3157
832.19	3180
832.329	3207
832.467	3146
832.606	3108
832.744	3184
832.883	3176
833.022	3192
833.16	3294
833.299	3313
833.437	3382
833.576	3370
833.714	3428
833.852	3428
833.991	3447
834.129	3504
834.267	3469
834.406	3401
834.544	3439
834.682	3462
834.821	3386
834.959	3595
835.097	3462
835.235	3553
835.373	3515
835.511	3477
835.65	3462
835.788	3511
835.926	3359
836.064	3447
836.202	3443
836.34	3564
836.478	3625
836.615	3561
836.753	3580
836.891	3656
837.029	3603
837.167	3614
837.305	3572
837.443	3504
837.58	3473
837.718	3644
837.856	3576
837.993	3561
838.131	3614
838.269	3557
838.406	3606
838.544	3591
838.681	3507
838.819	3439
838.956	3412
839.094	3420
839.231	3439
839.369	3553
839.506	3762
839.643	3656
839.781	3549
839.918	3477
840.055	3584
840.193	3511
840.33	3523
840.467	3557
840.604	3652
840.742	3823
840.879	3515
841.016	3568
841.153	3652
841.29	3713
841.427	3736
841.564	3759
841.701	3793
841.838	3732
841.975	3705
842.112	3705
842.249	3675
842.385	3629
842.522	3865
842.659	3690
842.796	3747
842.933	3713
843.069	3720
843.206	3724
843.343	3823
843.479	3812
843.616	3804
843.752	3671
843.889	3705
844.025	3835
844.162	3732
844.298	3846
844.435	3827
844.571	3751
844.708	3922
844.844	3979
844.98	4025
845.117	4006
845.253	3915
845.389	3922
845.525	3945
845.661	3975
845.798	3968
845.934	4040
846.07	3964
846.206	4032
846.342	4116
846.478	4067
846.614	3953
846.75	3953
846.886	3892
847.022	3998
847.158	4032
847.294	4017
847.429	4017
847.565	4025
847.701	4265
847.837	3915
847.972	3911
848.108	3994
848.244	4010
848.379	3873
848.515	3781
848.65	3823
848.786	3861
848.921	3880
849.057	3930
849.192	3930
849.328	3953
849.463	3907
849.598	3918
849.734	3884
849.869	3861
850.004	3793
850.14	3842
850.275	3804
850.41	3755
850.545	3762
850.68	3793
850.815	3804
850.95	3857
851.085	3972
851.22	3884
851.355	3892
851.49	3778
851.625	3816
851.76	3785
851.895	3736
852.03	3755
852.165	3827
852.299	3850
852.434	3934
852.569	3915
852.703	3892
852.838	3915
852.973	4025
853.107	4040
853.242	3892
853.376	3869
853.511	3766
853.645	3857
853.78	3987
853.914	3926
854.048	3892
854.183	3934
854.317	3968
854.451	4086
854.585	3998
854.72	3945
854.854	4067
854.988	3949
855.122	4036
855.256	3998
855.39	4013
855.524	4131
855.658	4116
855.792	4131
855.926	4128
856.06	4188
856.194	4249
856.327	4105
856.461	4154
856.595	4147
856.729	4162
856.862	4280
856.996	4272
857.13	4329
857.263	4287
857.397	4402
857.53	4280
857.664	4375
857.797	4424
857.931	4394
858.064	4413
858.197	4485
858.331	4405
858.464	4409
858.597	4379
858.731	4489
858.864	4481
858.997	4413
859.13	4493
859.263	4558
859.396	4596
859.529	4527
859.662	4538
859.795	4565
859.928	4615
860.061	4729
860.194	4771
860.327	4721
860.46	4641
860.592	4790
860.725	4831
860.858	4778
860.99	4714
861.123	4664
861.256	4702
861.388	4782
861.521	5364
861.653	4721
861.786	4759
861.918	4748
862.05	4790
862.183	4835
862.315	4885
862.447	4949
862.58	4877
862.712	4782
862.844	4801
862.976	4881
863.108	4862
863.24	5337
863.372	4858
863.504	4961
863.636	4942
863.768	4984
863.9	4949
864.032	4972
864.164	4980
864.296	5060
864.428	5143
864.559	5159
864.691	5132
864.823	5147
864.954	5075
865.086	5170
865.217	5151
865.349	5102
865.48	5235
865.612	5250
865.743	5303
865.875	5212
866.006	5189
866.137	5204
866.269	5261
866.4	5250
866.531	5174
866.662	5239
866.793	5280
866.924	5277
867.055	5364
867.186	5318
867.317	5334
867.448	5318
867.579	5425
867.71	5395
867.841	5395
867.972	5478
868.103	5471
868.233	5570
868.364	5486
868.495	5554
868.625	5680
868.756	5821
868.886	5661
869.017	5760
869.147	5859
869.278	5870
869.408	5840
869.539	5836
869.669	5939
869.799	5916
869.929	5980
870.06	6011
870.19	6216
870.32	6197
870.45	6258
870.58	6308
870.71	6433
870.84	6490
870.97	6399
871.1	6437
871.23	6650
871.36	6692
871.489	6650
871.619	6760
871.749	6810
871.879	6856
872.008	7008
872.138	6985
872.267	7038
872.397	6947
872.526	7038
872.656	7149
872.785	7236
872.915	7434
873.044	7506
873.173	7563
873.303	7643
873.432	7830
873.561	7902
873.69	7871
873.819	8008
873.948	8191
874.077	8225
874.206	8336
874.335	8518
874.464	8667
874.593	8887
874.722	8956
874.851	9207
874.979	9253
875.108	9348
875.237	9420
875.365	9519
875.494	9625
875.623	9892
875.751	9850
875.88	9975
876.008	10181
876.136	10341
876.265	10538
876.393	10645
876.521	10771
876.65	10854
876.778	10927
876.906	10934
877.034	10957
877.162	11060
877.29	11090
877.418	11292
877.546	11391
877.674	11414
877.802	11501
877.93	11592
878.058	11646
878.185	11699
878.313	11714
878.441	11821
878.568	11646
878.696	11809
878.824	11798
878.951	11904
879.079	12098
879.206	12064
879.333	12110
879.461	12022
879.588	12079
879.715	12079
879.842	12285
879.97	12064
880.097	11935
880.224	11889
880.351	11939
880.478	11931
880.605	11904
880.732	11775
880.859	11980
880.986	11764
881.112	11790
881.239	11726
881.366	11695
881.493	11695
881.619	11467
881.746	11581
881.872	11471
881.999	11520
882.125	11459
882.252	11619
882.378	11516
882.505	11505
882.631	11383
882.757	11421
882.883	11372
883.01	11303
883.136	11201
883.262	11166
883.388	11086
883.514	11284
883.64	11140
883.766	11109
883.892	10968
884.018	10953
884.143	11006
884.269	11086
884.395	10900
884.52	10824
884.646	10782
884.772	10805
884.897	10748
885.023	10649
885.148	10710
885.274	10771
885.399	10687
885.524	10565
885.65	10565
885.775	10618
885.9	10546
886.025	10565
886.15	10611
886.275	10443
886.4	10398
886.525	10462
886.65	10375
886.775	10363
886.9	10508
887.025	10512
887.149	10386
887.274	10242
887.399	10219
887.523	10093
887.648	10249
887.773	10166
887.897	10257
888.021	10280
888.146	10139
888.27	10215
888.395	10230
888.519	10215
888.643	10196
888.767	10128
888.891	10093
889.015	10074
889.139	9983
889.263	9983
889.387	10055
889.511	10097
889.635	10082
889.759	10059
889.883	9983
890.006	10090
890.13	10135
890.254	10017
890.377	10010
890.501	9865
890.624	9892
890.748	9880
890.871	9876
890.995	9724
891.118	9679
891.241	9812
891.364	9762
891.488	9804
891.611	9701
891.734	9732
891.857	9766
891.98	9720
892.103	9724
892.226	9705
892.349	9740
892.471	9542
892.594	9618
892.717	9644
892.839	9622
892.962	9641
893.085	9663
893.207	9599
893.33	9549
893.452	9584
893.575	9564
893.697	9564
893.819	9698
893.941	9629
894.064	9633
894.186	9466
894.308	9389
894.43	9507
894.552	9576
894.674	9507
894.796	9412
894.918	9389
895.04	9325
895.161	9348
895.283	9405
895.405	9253
895.526	9211
895.648	9203
895.769	9256
895.891	9245
896.012	9359
896.134	9207
896.255	9195
896.376	9119
896.498	9070
896.619	9138
896.74	9066
896.861	9119
896.982	9199
897.103	9279
897.224	9188
897.345	9165
897.466	9039
897.587	8982
897.708	9047
897.828	9055
897.949	8925
898.07	8864
898.19	8880
898.311	9005
898.431	8986
898.552	8834
898.672	8979
898.792	8986
898.913	8891
899.033	8849
899.153	8750
899.273	8617
899.393	8731
899.513	8739
899.633	8727
899.753	8739
899.873	8731
899.993	8758
900.113	8773
900.232	8716
900.352	8621
900.472	8610
900.591	8606
900.711	8610
900.83	8571
900.95	8670
901.069	8766
901.189	8598
901.308	8381
901.427	8442
901.546	8473
901.665	8450
901.784	8499
901.904	8427
902.023	8370
902.141	8259
902.26	8240
902.379	8298
902.498	8256
902.617	8176
902.735	8305
902.854	8309
902.973	8298
903.091	8142
903.21	8149
903.328	8240
903.446	8084
903.565	8073
903.683	8145
903.801	7997
903.919	8168
904.038	8081
904.156	7993
904.274	8123
904.392	7993
904.51	8103
904.627	8126
904.745	8103
904.863	8077
904.981	7978
905.098	7898
905.216	7860
905.334	7928
905.451	7868
905.569	7940
905.686	7959
905.803	7947
905.921	7788
906.038	7833
906.155	7871
906.272	7723
906.389	7636
906.506	7628
906.623	7670
906.74	7609
906.857	7613
906.974	7601
907.091	7647
907.208	7719
907.324	7624
907.441	7540
907.557	7521
907.674	7460
907.79	7396
907.907	7339
908.023	7415
908.139	7430
908.256	7343
908.372	7407
908.488	7392
908.604	7301
908.72	7198
908.836	7365
908.952	7244
909.068	7152
909.184	7343
909.3	7266
909.415	7320
909.531	7339
909.647	7126
909.762	7149
909.878	7160
909.993	7118
910.108	7084
910.224	7088
910.339	7053
910.454	7023
910.57	7031
910.685	7000
910.8	7171
910.915	7168
911.03	6996
911.145	6894
911.259	6852
911.374	6837
911.489	6818
911.604	6840
911.718	6700
911.833	6738
911.947	6681
912.062	6677
912.176	6688
912.291	6692
912.405	6669
912.519	6787
912.633	6878
912.748	6722
912.862	6642
912.976	6612
913.09	6589
913.204	6620
913.318	6658
913.431	6730
913.545	6684
913.659	6677
913.772	6662
913.886	6563
914	6574
914.113	6646
914.226	6612
914.34	6631
914.453	6555
914.566	6612
914.68	6433
914.793	6536
914.906	6460
915.019	6475
915.132	6380
915.245	6441
915.358	6403
915.47	6445
915.583	6445
915.696	6551
915.809	6570
915.921	6563
916.034	6426
916.146	6460
916.259	6372
916.371	6494
916.483	6502
916.595	6372
916.708	6407
916.82	6395
916.932	6399
917.044	6426
917.156	6441
917.268	6319
917.38	6327
917.491	6334
917.603	6365
917.715	6422
917.826	6437
917.938	6292
918.049	6228
918.161	6372
918.272	6391
918.384	6414
918.495	6353
918.606	6273
918.717	6273
918.828	6281
918.939	6228
919.05	6216
919.161	6216
919.272	6098
919.383	6171
919.494	6273
919.604	6403
919.715	6350
919.826	6178
919.936	6270
920.047	6372
920.157	6311
920.267	6509
920.378	6285
920.488	6308
920.598	6483
920.708	6536
920.818	6471
920.928	6570
921.038	6642
921.148	6601
921.258	6353
921.368	6300
921.477	6232
921.587	6247
921.697	6125
921.806	6129
921.916	6110
922.025	5958
922.134	5935
922.244	5866
922.353	5942
922.462	5847
922.571	5863
922.68	5771
922.789	5718
922.898	5752
923.007	5661
923.116	5729
923.224	5623
923.333	5718
923.442	5623
923.55	5608
923.659	5653
923.767	5646
923.876	5585
923.984	5611
924.092	5509
924.201	5535
924.309	5509
924.417	5554
924.525	5554
924.633	5516
924.741	6083
924.849	5406
924.956	5516
925.064	5421
925.172	5284
925.279	5307
925.387	5436
925.494	5357
925.602	5425
925.709	5387
925.816	5315
925.924	5315
926.031	5326
926.138	5326
926.245	5353
926.352	5223
926.459	5318
926.566	5357
926.673	5223
926.779	5124
926.886	5128
926.993	5079
927.099	4953
927.206	5010
927.312	4957
927.419	4984
927.525	4980
927.631	5025
927.737	4885
927.843	4904
927.95	4790
928.056	4831
928.162	4793
928.267	4870
928.373	5360
928.479	4889
928.585	4702
928.69	4820
928.796	4797
928.901	4698
929.007	4607
929.112	4664
929.218	4672
929.323	4622
929.428	4596
929.533	4622
929.638	4500
929.743	4508
929.848	4550
929.953	4542
930.058	4443
930.163	4352
930.267	4325
930.372	4440
930.477	4352
930.581	4516
930.685	4402
930.79	4238
930.894	4257
930.998	4284
931.103	4390
931.207	4124
931.311	4048
931.415	4082
931.519	3968
931.623	3975
