Data from glass_V78500241_1202.txt Node
Date: Wed Sep 01 19:22:49 CST 2021
User: usil
Spectrometer: V785-0024
Trigger mode: 0
Integration Time (sec): 4.000000E-1
Scans to average: 1
Nonlinearity correction enabled: false
Boxcar width: 0
Storing dark spectrum: false
XAxis mode: Wavelengths
Number of Pixels in Spectrum: 1024
>>>>>Begin Spectral Data<<<<<
801.071	3774
801.214	3755
801.356	3717
801.499	3759
801.641	3720
801.783	3797
801.926	3888
802.068	3835
802.211	3892
802.353	3846
802.496	3835
802.638	3903
802.78	3896
802.923	3949
803.065	3964
803.208	3876
803.35	3861
803.492	3930
803.635	3945
803.777	3827
803.919	3918
804.061	4188
804.204	3915
804.346	3975
804.488	3892
804.63	4063
804.773	3960
804.915	4021
805.057	4135
805.199	4078
805.341	4097
805.483	4109
805.626	4162
805.768	4135
805.91	4276
806.052	4276
806.194	4204
806.336	4356
806.478	4227
806.62	4173
806.762	4185
806.904	4246
807.046	4295
807.188	4185
807.33	4215
807.472	4276
807.614	4166
807.756	4268
807.898	4230
808.04	4223
808.182	4265
808.324	4314
808.465	4386
808.607	4478
808.749	4459
808.891	4440
809.033	4516
809.174	4409
809.316	4253
809.458	4246
809.6	4150
809.741	4147
809.883	4143
810.025	4223
810.166	4192
810.308	4257
810.45	4249
810.591	4219
810.733	4306
810.875	4512
811.016	4873
811.158	5204
811.299	5277
811.441	5288
811.582	5056
811.724	4733
811.865	4478
812.007	4474
812.148	4443
812.29	4436
812.431	4440
812.573	4421
812.714	4402
812.855	4421
812.997	4390
813.138	4497
813.279	4440
813.421	4363
813.562	4363
813.703	4344
813.845	4390
813.986	4227
814.127	4223
814.268	4268
814.41	4314
814.551	4253
814.692	4344
814.833	4314
814.974	4295
815.115	4356
815.256	4242
815.397	4230
815.539	4230
815.68	4234
815.821	4207
815.962	4284
816.103	4310
816.244	4246
816.385	4196
816.526	4284
816.666	4188
816.807	4116
816.948	4147
817.089	4181
817.23	4109
817.371	4071
817.512	4071
817.653	4093
817.793	4090
817.934	4051
818.075	4101
818.216	4071
818.356	4093
818.497	4021
818.638	3953
818.778	3930
818.919	3937
819.06	3880
819.2	3953
819.341	3876
819.481	3827
819.622	3892
819.762	4032
819.903	3953
820.043	3892
820.184	3854
820.324	3831
820.465	3911
820.605	3899
820.746	3907
820.886	3789
821.026	3926
821.167	3930
821.307	3960
821.447	3972
821.588	3934
821.728	3956
821.868	3972
822.008	3865
822.149	3911
822.289	3968
822.429	3789
822.569	3770
822.709	3797
822.849	3720
822.99	3762
823.13	3789
823.27	3797
823.41	3736
823.55	3774
823.69	3728
823.83	3736
823.97	3705
824.11	3629
824.25	3599
824.389	3633
824.529	3644
824.669	3625
824.809	3705
824.949	3770
825.089	3732
825.228	3732
825.368	3595
825.508	3572
825.648	3538
825.787	3648
825.927	3648
826.067	3629
826.206	3701
826.346	3812
826.485	3838
826.625	3934
826.765	4002
826.904	3797
827.044	3633
827.183	3553
827.323	3431
827.462	3469
827.601	3462
827.741	3416
827.88	3450
828.02	3386
828.159	3473
828.298	3469
828.437	3542
828.577	3458
828.716	3587
828.855	3515
828.994	3359
829.134	3382
829.273	3374
829.412	3332
829.551	3336
829.69	3336
829.829	3443
829.968	3538
830.107	3488
830.246	3431
830.385	3447
830.524	3344
830.663	3310
830.802	3249
830.941	3207
831.08	3214
831.219	3279
831.357	3272
831.496	3412
831.635	3268
831.774	3245
831.913	3192
832.051	3188
832.19	3131
832.329	3203
832.467	3154
832.606	3093
832.744	3180
832.883	3184
833.022	3195
833.16	3260
833.299	3302
833.437	3370
833.576	3389
833.714	3389
833.852	3431
833.991	3481
834.129	3492
834.267	3439
834.406	3412
834.544	3431
834.682	3416
834.821	3409
834.959	3568
835.097	3424
835.235	3553
835.373	3526
835.511	3504
835.65	3439
835.788	3492
835.926	3386
836.064	3401
836.202	3405
836.34	3572
836.478	3595
836.615	3538
836.753	3629
836.891	3625
837.029	3606
837.167	3599
837.305	3568
837.443	3511
837.58	3481
837.718	3587
837.856	3591
837.993	3538
838.131	3591
838.269	3591
838.406	3648
838.544	3568
838.681	3481
838.819	3450
838.956	3378
839.094	3367
839.231	3454
839.369	3568
839.506	3759
839.643	3622
839.781	3492
839.918	3469
840.055	3519
840.193	3576
840.33	3549
840.467	3564
840.604	3595
840.742	3827
840.879	3557
841.016	3561
841.153	3591
841.29	3759
841.427	3720
841.564	3736
841.701	3732
841.838	3705
841.975	3690
842.112	3679
842.249	3614
842.385	3644
842.522	3819
842.659	3694
842.796	3709
842.933	3690
843.069	3667
843.206	3713
843.343	3808
843.479	3766
843.616	3804
843.752	3705
843.889	3663
844.025	3850
844.162	3686
844.298	3850
844.435	3743
844.571	3770
844.708	3915
844.844	4025
844.98	4006
845.117	3991
845.253	3949
845.389	3907
845.525	3956
845.661	3998
845.798	3968
845.934	4010
846.07	3998
846.206	4059
846.342	4147
846.478	4017
846.614	4010
846.75	3949
846.886	3896
847.022	4029
847.158	3972
847.294	4021
847.429	4044
847.565	4002
847.701	4177
847.837	3915
847.972	3911
848.108	4010
848.244	3956
848.379	3857
848.515	3838
848.65	3812
848.786	3831
848.921	3892
849.057	3918
849.192	3991
849.328	3907
849.463	3926
849.598	3888
849.734	3869
849.869	3831
850.004	3793
850.14	3846
850.275	3789
850.41	3743
850.545	3724
850.68	3766
850.815	3823
850.95	3781
851.085	3930
851.22	3896
851.355	3865
851.49	3755
851.625	3827
851.76	3800
851.895	3766
852.03	3759
852.165	3846
852.299	3884
852.434	3911
852.569	3911
852.703	3876
852.838	3972
852.973	3991
853.107	3979
853.242	3930
853.376	3861
853.511	3759
853.645	3865
853.78	3972
853.914	3850
854.048	3930
854.183	3918
854.317	3896
854.451	4105
854.585	4010
854.72	3915
854.854	4120
854.988	3941
855.122	3998
855.256	3915
855.39	3979
855.524	4154
855.658	4063
855.792	4120
855.926	4139
856.06	4124
856.194	4219
856.327	4147
856.461	4120
856.595	4181
856.729	4204
856.862	4287
856.996	4276
857.13	4344
857.263	4341
857.397	4367
857.53	4310
857.664	4367
857.797	4409
857.931	4481
858.064	4402
858.197	4455
858.331	4394
858.464	4386
858.597	4344
858.731	4470
858.864	4497
858.997	4451
859.13	4481
859.263	4569
859.396	4580
859.529	4569
859.662	4588
859.795	4565
859.928	4637
860.061	4755
860.194	4717
860.327	4660
860.46	4637
860.592	4744
860.725	4759
860.858	4752
860.99	4721
861.123	4706
861.256	4706
861.388	4782
861.521	5402
861.653	4740
861.786	4714
861.918	4755
862.05	4820
862.183	4850
862.315	4915
862.447	4930
862.58	4915
862.712	4790
862.844	4733
862.976	4873
863.108	4854
863.24	5166
863.372	4778
863.504	4957
863.636	4889
863.768	4995
863.9	4965
864.032	4946
864.164	4938
864.296	4987
864.428	5140
864.559	5121
864.691	5181
864.823	5140
864.954	5136
865.086	5117
865.217	5124
865.349	5098
865.48	5185
865.612	5201
865.743	5261
865.875	5181
866.006	5181
866.137	5204
866.269	5246
866.4	5201
866.531	5261
866.662	5242
866.793	5242
866.924	5303
867.055	5360
867.186	5341
867.317	5357
867.448	5318
867.579	5376
867.71	5406
867.841	5368
867.972	5452
868.103	5490
868.233	5512
868.364	5505
868.495	5551
868.625	5718
868.756	5813
868.886	5642
869.017	5688
869.147	5809
869.278	5885
869.408	5756
869.539	5821
869.669	5961
869.799	5950
869.929	5992
870.06	5999
870.19	6201
870.32	6205
870.45	6346
870.58	6296
870.71	6475
870.84	6448
870.97	6388
871.1	6486
871.23	6681
871.36	6665
871.489	6620
871.619	6787
871.749	6787
871.879	6901
872.008	6985
872.138	7023
872.267	7080
872.397	7019
872.526	7034
872.656	7110
872.785	7240
872.915	7403
873.044	7525
873.173	7575
873.303	7605
873.432	7776
873.561	7902
873.69	7852
873.819	8050
873.948	8176
874.077	8180
874.206	8324
874.335	8514
874.464	8686
874.593	8918
874.722	8941
874.851	9192
874.979	9233
875.108	9435
875.237	9447
875.365	9519
875.494	9614
875.623	9869
875.751	9880
875.88	9930
876.008	10112
876.136	10257
876.265	10417
876.393	10710
876.521	10618
876.65	10858
876.778	10892
876.906	10877
877.034	10919
877.162	11067
877.29	11128
877.418	11296
877.546	11330
877.674	11493
877.802	11554
877.93	11493
878.058	11554
878.185	11619
878.313	11665
878.441	11855
878.568	11646
878.696	11748
878.824	11851
878.951	11954
879.079	12038
879.206	12178
879.333	12064
879.461	12060
879.588	12057
879.715	12045
879.842	12220
879.97	12087
880.097	11927
880.224	11885
880.351	11840
880.478	11942
880.605	11878
880.732	11889
880.859	12049
880.986	11824
881.112	11847
881.239	11767
881.366	11642
881.493	11688
881.619	11433
881.746	11535
881.872	11539
881.999	11497
882.125	11509
882.252	11490
882.378	11433
882.505	11638
882.631	11421
882.757	11254
882.883	11349
883.01	11349
883.136	11128
883.262	11189
883.388	11094
883.514	11265
883.64	11242
883.766	11147
883.892	10991
884.018	10915
884.143	11178
884.269	11056
884.395	10934
884.52	10767
884.646	10759
884.772	10767
884.897	10637
885.023	10733
885.148	10793
885.274	10782
885.399	10710
885.524	10691
885.65	10592
885.775	10588
885.9	10592
886.025	10653
886.15	10516
886.275	10447
886.4	10402
886.525	10413
886.65	10402
886.775	10413
886.9	10421
887.025	10523
887.149	10352
887.274	10200
887.399	10173
887.523	10162
887.648	10215
887.773	9998
887.897	10253
888.021	10276
888.146	10082
888.27	10242
888.395	10211
888.519	10249
888.643	10196
888.767	10154
888.891	10029
889.015	10044
889.139	10055
889.263	10029
889.387	10063
889.511	10071
889.635	10112
889.759	9987
889.883	9915
890.006	10044
890.13	10074
890.254	10063
890.377	9991
890.501	9838
890.624	9880
890.748	9922
890.871	9793
890.995	9781
891.118	9694
891.241	9755
891.364	9751
891.488	9876
891.611	9778
891.734	9759
891.857	9819
891.98	9743
892.103	9785
892.226	9774
892.349	9709
892.471	9523
892.594	9652
892.717	9660
892.839	9637
892.962	9614
893.085	9694
893.207	9584
893.33	9492
893.452	9572
893.575	9610
893.697	9534
893.819	9576
893.941	9595
894.064	9622
894.186	9443
894.308	9397
894.43	9610
894.552	9622
894.674	9587
894.796	9363
894.918	9336
895.04	9302
895.161	9348
895.283	9408
895.405	9176
895.526	9268
895.648	9332
895.769	9298
895.891	9294
896.012	9302
896.134	9241
896.255	9195
896.376	9127
896.498	9131
896.619	9108
896.74	9108
896.861	9104
896.982	9226
897.103	9351
897.224	9161
897.345	9055
897.466	8982
897.587	8929
897.708	9135
897.828	9005
897.949	8941
898.07	8845
898.19	8868
898.311	9062
898.431	8880
898.552	8948
898.672	8929
898.792	8990
898.913	8963
899.033	8834
899.153	8746
899.273	8682
899.393	8659
899.513	8766
899.633	8743
899.753	8708
899.873	8766
899.993	8731
900.113	8735
900.232	8682
900.352	8670
900.472	8560
900.591	8537
900.711	8617
900.83	8552
900.95	8670
901.069	8678
901.189	8617
901.308	8427
901.427	8374
901.546	8446
901.665	8446
901.784	8480
901.904	8358
902.023	8271
902.141	8244
902.26	8195
902.379	8290
902.498	8202
902.617	8214
902.735	8267
902.854	8294
902.973	8324
903.091	8149
903.21	8176
903.328	8172
903.446	8119
903.565	8073
903.683	8069
903.801	8005
903.919	8134
904.038	8142
904.156	8054
904.274	8119
904.392	7970
904.51	8050
904.627	8020
904.745	8111
904.863	8100
904.981	7967
905.098	7864
905.216	7864
905.334	7860
905.451	7883
905.569	7894
905.686	7940
905.803	7890
905.921	7746
906.038	7898
906.155	7814
906.272	7746
906.389	7738
906.506	7636
906.623	7636
906.74	7639
906.857	7537
906.974	7582
907.091	7666
907.208	7712
907.324	7655
907.441	7597
907.557	7445
907.674	7464
907.79	7400
907.907	7407
908.023	7434
908.139	7495
908.256	7422
908.372	7305
908.488	7285
908.604	7251
908.72	7209
908.836	7301
908.952	7270
909.068	7312
909.184	7274
909.3	7232
909.415	7312
909.531	7320
909.647	7149
909.762	7160
909.878	7088
909.993	7126
910.108	7099
910.224	7057
910.339	7137
910.454	7031
910.57	7031
910.685	6897
910.8	7194
910.915	7110
911.03	7038
911.145	6905
911.259	6935
911.374	6935
911.489	6844
911.604	6852
911.718	6665
911.833	6757
911.947	6726
912.062	6555
912.176	6722
912.291	6677
912.405	6642
912.519	6791
912.633	6852
912.748	6783
912.862	6703
912.976	6627
913.09	6475
913.204	6608
913.318	6635
913.431	6658
913.545	6681
913.659	6741
913.772	6642
913.886	6642
914	6589
914.113	6642
914.226	6673
914.34	6639
914.453	6551
914.566	6544
914.68	6528
914.793	6551
914.906	6414
915.019	6395
915.132	6410
915.245	6380
915.358	6486
915.47	6452
915.583	6437
915.696	6456
915.809	6521
915.921	6563
916.034	6464
916.146	6372
916.259	6429
916.371	6517
916.483	6494
916.595	6445
916.708	6426
916.82	6410
916.932	6429
917.044	6403
917.156	6391
917.268	6270
917.38	6380
917.491	6338
917.603	6391
917.715	6357
917.826	6403
917.938	6296
918.049	6311
918.161	6376
918.272	6448
918.384	6410
918.495	6365
918.606	6266
918.717	6171
918.828	6262
918.939	6243
919.05	6220
919.161	6201
919.272	6106
919.383	6182
919.494	6285
919.604	6361
919.715	6285
919.826	6194
919.936	6319
920.047	6342
920.157	6220
920.267	6467
920.378	6304
920.488	6254
920.598	6437
920.708	6612
920.818	6441
920.928	6483
921.038	6574
921.148	6593
921.258	6327
921.368	6292
921.477	6197
921.587	6182
921.697	6114
921.806	6232
921.916	6098
922.025	5969
922.134	5946
922.244	5923
922.353	5923
922.462	5859
922.571	5771
922.68	5676
922.789	5703
922.898	5718
923.007	5657
923.116	5699
923.224	5676
923.333	5695
923.442	5604
923.55	5638
923.659	5611
923.767	5615
923.876	5554
923.984	5630
924.092	5493
924.201	5532
924.309	5623
924.417	5535
924.525	5490
924.633	5459
924.741	6376
924.849	5330
924.956	5493
925.064	5334
925.172	5292
925.279	5353
925.387	5307
925.494	5334
925.602	5455
925.709	5318
925.816	5296
925.924	5307
926.031	5349
926.138	5326
926.245	5368
926.352	5231
926.459	5364
926.566	5318
926.673	5284
926.779	5117
926.886	5143
926.993	5018
927.099	4987
927.206	4991
927.312	4946
927.419	5025
927.525	5067
927.631	4995
927.737	4892
927.843	4881
927.95	4774
928.056	4831
928.162	4892
928.267	4858
928.373	5360
928.479	4847
928.585	4660
928.69	4740
928.796	4778
928.901	4706
929.007	4626
929.112	4744
929.218	4645
929.323	4550
929.428	4588
929.533	4706
929.638	4535
929.743	4550
929.848	4561
929.953	4497
930.058	4413
930.163	4333
930.267	4360
930.372	4481
930.477	4299
930.581	4459
930.685	4375
930.79	4265
930.894	4314
930.998	4276
931.103	4398
931.207	4135
931.311	4109
931.415	4040
931.519	3930
931.623	3983
