Data from glass_V78500241_2864.txt Node
Date: Wed Sep 01 19:34:21 CST 2021
User: usil
Spectrometer: V785-0024
Trigger mode: 0
Integration Time (sec): 4.000000E-1
Scans to average: 1
Nonlinearity correction enabled: false
Boxcar width: 0
Storing dark spectrum: false
XAxis mode: Wavelengths
Number of Pixels in Spectrum: 1024
>>>>>Begin Spectral Data<<<<<
801.071	3732
801.214	3705
801.356	3705
801.499	3766
801.641	3717
801.783	3743
801.926	3876
802.068	3781
802.211	3846
802.353	3896
802.496	3804
802.638	3838
802.78	3861
802.923	3865
803.065	3865
803.208	3823
803.35	3842
803.492	3903
803.635	3869
803.777	3797
803.919	3907
804.061	4105
804.204	3918
804.346	3937
804.488	3892
804.63	4036
804.773	3945
804.915	4002
805.057	4147
805.199	4055
805.341	4067
805.483	4147
805.626	4124
805.768	4093
805.91	4177
806.052	4196
806.194	4223
806.336	4333
806.478	4185
806.62	4131
806.762	4211
806.904	4211
807.046	4272
807.188	4185
807.33	4139
807.472	4185
807.614	4147
807.756	4257
807.898	4196
808.04	4272
808.182	4272
808.324	4371
808.465	4348
808.607	4428
808.749	4409
808.891	4436
809.033	4459
809.174	4394
809.316	4268
809.458	4200
809.6	4101
809.741	4067
809.883	4150
810.025	4200
810.166	4207
810.308	4200
810.45	4253
810.591	4219
810.733	4215
810.875	4474
811.016	4828
811.158	5102
811.299	5239
811.441	5212
811.582	5048
811.724	4679
811.865	4478
812.007	4428
812.148	4485
812.29	4405
812.431	4428
812.573	4375
812.714	4329
812.855	4386
812.997	4394
813.138	4424
813.279	4398
813.421	4379
813.562	4379
813.703	4257
813.845	4344
813.986	4272
814.127	4204
814.268	4287
814.41	4276
814.551	4227
814.692	4287
814.833	4242
814.974	4291
815.115	4337
815.256	4272
815.397	4261
815.539	4230
815.68	4215
815.821	4169
815.962	4272
816.103	4246
816.244	4238
816.385	4204
816.526	4188
816.666	4215
816.807	4097
816.948	4162
817.089	4169
817.23	4135
817.371	4055
817.512	4055
817.653	4071
817.793	4055
817.934	4017
818.075	4063
818.216	4017
818.356	4032
818.497	3975
818.638	3880
818.778	3892
818.919	3880
819.06	3846
819.2	3857
819.341	3850
819.481	3827
819.622	3857
819.762	3975
819.903	3922
820.043	3831
820.184	3793
820.324	3823
820.465	3846
820.605	3857
820.746	3759
820.886	3762
821.026	3911
821.167	3884
821.307	3930
821.447	3972
821.588	3937
821.728	3880
821.868	3880
822.008	3842
822.149	3903
822.289	3907
822.429	3797
822.569	3743
822.709	3793
822.849	3675
822.99	3679
823.13	3747
823.27	3778
823.41	3679
823.55	3694
823.69	3747
823.83	3720
823.97	3663
824.11	3603
824.25	3553
824.389	3644
824.529	3644
824.669	3622
824.809	3698
824.949	3759
825.089	3671
825.228	3701
825.368	3564
825.508	3534
825.648	3538
825.787	3557
825.927	3603
826.067	3599
826.206	3652
826.346	3762
826.485	3816
826.625	3785
826.765	3907
826.904	3793
827.044	3564
827.183	3549
827.323	3397
827.462	3500
827.601	3443
827.741	3401
827.88	3428
828.02	3355
828.159	3435
828.298	3447
828.437	3504
828.577	3389
828.716	3584
828.855	3481
828.994	3386
829.134	3344
829.273	3363
829.412	3348
829.551	3313
829.69	3363
829.829	3447
829.968	3526
830.107	3428
830.246	3409
830.385	3355
830.524	3321
830.663	3317
830.802	3268
830.941	3169
831.08	3173
831.219	3268
831.357	3253
831.496	3409
831.635	3237
831.774	3161
831.913	3188
832.051	3142
832.19	3157
832.329	3173
832.467	3138
832.606	3074
832.744	3123
832.883	3146
833.022	3161
833.16	3275
833.299	3287
833.437	3291
833.576	3325
833.714	3370
833.852	3412
833.991	3420
834.129	3458
834.267	3420
834.406	3389
834.544	3435
834.682	3378
834.821	3397
834.959	3557
835.097	3405
835.235	3515
835.373	3473
835.511	3492
835.65	3431
835.788	3504
835.926	3374
836.064	3359
836.202	3401
836.34	3595
836.478	3606
836.615	3545
836.753	3553
836.891	3675
837.029	3564
837.167	3526
837.305	3549
837.443	3492
837.58	3504
837.718	3625
837.856	3542
837.993	3523
838.131	3542
838.269	3576
838.406	3549
838.544	3564
838.681	3435
838.819	3409
838.956	3378
839.094	3355
839.231	3454
839.369	3496
839.506	3709
839.643	3606
839.781	3458
839.918	3466
840.055	3549
840.193	3519
840.33	3469
840.467	3576
840.604	3587
840.742	3766
840.879	3530
841.016	3553
841.153	3553
841.29	3728
841.427	3698
841.564	3724
841.701	3701
841.838	3690
841.975	3701
842.112	3705
842.249	3606
842.385	3667
842.522	3793
842.659	3686
842.796	3618
842.933	3675
843.069	3679
843.206	3686
843.343	3789
843.479	3743
843.616	3789
843.752	3618
843.889	3644
844.025	3861
844.162	3705
844.298	3819
844.435	3751
844.571	3770
844.708	3899
844.844	3941
844.98	3975
845.117	3987
845.253	3888
845.389	3880
845.525	3926
845.661	3949
845.798	3861
845.934	3983
846.07	3964
846.206	4006
846.342	4082
846.478	4044
846.614	3956
846.75	3934
846.886	3892
847.022	4067
847.158	3953
847.294	3972
847.429	4032
847.565	3979
847.701	4204
847.837	3857
847.972	3869
848.108	3968
848.244	3956
848.379	3873
848.515	3823
848.65	3785
848.786	3797
848.921	3835
849.057	3873
849.192	3937
849.328	3865
849.463	3842
849.598	3876
849.734	3816
849.869	3869
850.004	3762
850.14	3819
850.275	3762
850.41	3720
850.545	3709
850.68	3804
850.815	3789
850.95	3785
851.085	3918
851.22	3793
851.355	3800
851.49	3755
851.625	3808
851.76	3816
851.895	3766
852.03	3732
852.165	3762
852.299	3823
852.434	3838
852.569	3800
852.703	3865
852.838	3918
852.973	3994
853.107	3945
853.242	3896
853.376	3854
853.511	3743
853.645	3804
853.78	3918
853.914	3888
854.048	3846
854.183	3892
854.317	3941
854.451	4067
854.585	3934
854.72	3934
854.854	4048
854.988	3915
855.122	3975
855.256	3888
855.39	4055
855.524	4067
855.658	4071
855.792	4086
855.926	4154
856.06	4166
856.194	4227
856.327	4116
856.461	4112
856.595	4116
856.729	4074
856.862	4276
856.996	4219
857.13	4246
857.263	4333
857.397	4360
857.53	4280
857.664	4348
857.797	4367
857.931	4367
858.064	4405
858.197	4451
858.331	4383
858.464	4337
858.597	4356
858.731	4390
858.864	4402
858.997	4367
859.13	4428
859.263	4504
859.396	4588
859.529	4542
859.662	4531
859.795	4497
859.928	4565
860.061	4637
860.194	4687
860.327	4588
860.46	4611
860.592	4668
860.725	4736
860.858	4721
860.99	4675
861.123	4687
861.256	4637
861.388	4683
861.521	5341
861.653	4702
861.786	4710
861.918	4710
862.05	4721
862.183	4816
862.315	4843
862.447	4900
862.58	4850
862.712	4801
862.844	4771
862.976	4850
863.108	4828
863.24	5201
863.372	4797
863.504	4915
863.636	4889
863.768	4946
863.9	4949
864.032	4873
864.164	4896
864.296	5029
864.428	5018
864.559	5067
864.691	5045
864.823	5086
864.954	5083
865.086	5056
865.217	5086
865.349	5079
865.48	5159
865.612	5159
865.743	5273
865.875	5128
866.006	5181
866.137	5227
866.269	5204
866.4	5197
866.531	5261
866.662	5189
866.793	5261
866.924	5284
867.055	5284
867.186	5345
867.317	5299
867.448	5284
867.579	5368
867.71	5357
867.841	5368
867.972	5452
868.103	5478
868.233	5512
868.364	5463
868.495	5566
868.625	5623
868.756	5764
868.886	5661
869.017	5726
869.147	5805
869.278	5863
869.408	5775
869.539	5802
869.669	5901
869.799	5916
869.929	5908
870.06	5973
870.19	6201
870.32	6182
870.45	6213
870.58	6319
870.71	6448
870.84	6448
870.97	6388
871.1	6429
871.23	6547
871.36	6635
871.489	6639
871.619	6692
871.749	6810
871.879	6829
872.008	6939
872.138	6947
872.267	6973
872.397	6962
872.526	7038
872.656	7057
872.785	7168
872.915	7373
873.044	7464
873.173	7586
873.303	7662
873.432	7700
873.561	7845
873.69	7982
873.819	8020
873.948	8142
874.077	8218
874.206	8362
874.335	8370
874.464	8629
874.593	8845
874.722	8876
874.851	9112
874.979	9268
875.108	9325
875.237	9355
875.365	9462
875.494	9599
875.623	9778
875.751	9816
875.88	10017
876.008	10139
876.136	10272
876.265	10497
876.393	10679
876.521	10675
876.65	10854
876.778	10847
876.906	10900
877.034	10911
877.162	11045
877.29	11117
877.418	11250
877.546	11349
877.674	11414
877.802	11452
877.93	11486
878.058	11562
878.185	11551
878.313	11627
878.441	11767
878.568	11585
878.696	11802
878.824	11802
878.951	11882
879.079	11935
879.206	12175
879.333	12072
879.461	11920
879.588	12045
879.715	12034
879.842	12152
879.97	12003
880.097	11828
880.224	11832
880.351	11775
880.478	11802
880.605	11760
880.732	11843
880.859	12034
880.986	11836
881.112	11775
881.239	11737
881.366	11745
881.493	11554
881.619	11497
881.746	11543
881.872	11467
881.999	11528
882.125	11520
882.252	11528
882.378	11448
882.505	11528
882.631	11387
882.757	11258
882.883	11318
883.01	11189
883.136	11181
883.262	11048
883.388	11022
883.514	11124
883.64	11197
883.766	11166
883.892	10877
884.018	10904
884.143	10991
884.269	11086
884.395	10782
884.52	10839
884.646	10793
884.772	10691
884.897	10588
885.023	10675
885.148	10774
885.274	10782
885.399	10668
885.524	10565
885.65	10577
885.775	10599
885.9	10516
886.025	10626
886.15	10599
886.275	10421
886.4	10390
886.525	10375
886.65	10333
886.775	10310
886.9	10455
887.025	10546
887.149	10386
887.274	10242
887.399	10143
887.523	10139
887.648	10093
887.773	10097
887.897	10200
888.021	10215
888.146	10055
888.27	10185
888.395	10143
888.519	10086
888.643	10177
888.767	10188
888.891	10032
889.015	9987
889.139	10006
889.263	9979
889.387	10055
889.511	10112
889.635	10002
889.759	9998
889.883	9922
890.006	10021
890.13	10021
890.254	9941
890.377	9865
890.501	9831
890.624	9793
890.748	9899
890.871	9846
890.995	9724
891.118	9793
891.241	9732
891.364	9671
891.488	9785
891.611	9770
891.734	9736
891.857	9728
891.98	9724
892.103	9766
892.226	9682
892.349	9641
892.471	9526
892.594	9576
892.717	9618
892.839	9511
892.962	9564
893.085	9625
893.207	9530
893.33	9515
893.452	9515
893.575	9595
893.697	9450
893.819	9519
893.941	9587
894.064	9599
894.186	9462
894.308	9389
894.43	9466
894.552	9584
894.674	9477
894.796	9306
894.918	9370
895.04	9351
895.161	9363
895.283	9348
895.405	9321
895.526	9188
895.648	9268
895.769	9302
895.891	9180
896.012	9294
896.134	9180
896.255	9131
896.376	9161
896.498	9093
896.619	9108
896.74	9089
896.861	9108
896.982	9233
897.103	9199
897.224	9135
897.345	9043
897.466	8933
897.587	9043
897.708	9085
897.828	8982
897.949	8956
898.07	8876
898.19	8891
898.311	8960
898.431	8864
898.552	8883
898.672	8956
898.792	8929
898.913	8914
899.033	8796
899.153	8746
899.273	8697
899.393	8693
899.513	8697
899.633	8705
899.753	8727
899.873	8682
899.993	8693
900.113	8697
900.232	8678
900.352	8655
900.472	8602
900.591	8514
900.711	8590
900.83	8590
900.95	8697
901.069	8663
901.189	8530
901.308	8374
901.427	8393
901.546	8438
901.665	8454
901.784	8461
901.904	8358
902.023	8320
902.141	8221
902.26	8157
902.379	8271
902.498	8229
902.617	8256
902.735	8317
902.854	8347
902.973	8183
903.091	8142
903.21	8054
903.328	8157
903.446	8103
903.565	8012
903.683	8073
903.801	8005
903.919	8062
904.038	8103
904.156	8035
904.274	8161
904.392	8005
904.51	8062
904.627	7978
904.745	8096
904.863	8062
904.981	7913
905.098	7799
905.216	7849
905.334	7887
905.451	7879
905.569	7814
905.686	7879
905.803	7932
905.921	7708
906.038	7875
906.155	7765
906.272	7708
906.389	7719
906.506	7685
906.623	7605
906.74	7609
906.857	7487
906.974	7548
907.091	7643
907.208	7662
907.324	7643
907.441	7514
907.557	7403
907.674	7445
907.79	7362
907.907	7407
908.023	7457
908.139	7388
908.256	7327
908.372	7392
908.488	7297
908.604	7228
908.72	7190
908.836	7259
908.952	7217
909.068	7198
909.184	7282
909.3	7228
909.415	7259
909.531	7228
909.647	7084
909.762	7091
909.878	7023
909.993	7145
910.108	7095
910.224	7061
910.339	7088
910.454	7053
910.57	7023
910.685	6962
910.8	7168
910.915	7088
911.03	7034
911.145	6897
911.259	6829
911.374	6913
911.489	6802
911.604	6802
911.718	6696
911.833	6696
911.947	6623
912.062	6551
912.176	6688
912.291	6669
912.405	6669
912.519	6821
912.633	6795
912.748	6658
912.862	6677
912.976	6604
913.09	6513
913.204	6536
913.318	6623
913.431	6635
913.545	6669
913.659	6696
913.772	6635
913.886	6551
914	6528
914.113	6555
914.226	6597
914.34	6566
914.453	6448
914.566	6563
914.68	6490
914.793	6506
914.906	6388
915.019	6384
915.132	6380
915.245	6391
915.358	6437
915.47	6388
915.583	6403
915.696	6437
915.809	6498
915.921	6479
916.034	6395
916.146	6448
916.259	6319
916.371	6414
916.483	6399
916.595	6422
916.708	6311
916.82	6395
916.932	6346
917.044	6346
917.156	6334
917.268	6281
917.38	6266
917.491	6296
917.603	6296
917.715	6395
917.826	6384
917.938	6353
918.049	6247
918.161	6346
918.272	6407
918.384	6403
918.495	6300
918.606	6194
918.717	6285
918.828	6243
918.939	6258
919.05	6140
919.161	6254
919.272	6095
919.383	6060
919.494	6281
919.604	6384
919.715	6258
919.826	6171
919.936	6308
920.047	6331
920.157	6262
920.267	6414
920.378	6308
920.488	6251
920.598	6429
920.708	6536
920.818	6407
920.928	6418
921.038	6555
921.148	6513
921.258	6289
921.368	6251
921.477	6201
921.587	6140
921.697	6045
921.806	6171
921.916	5980
922.025	5935
922.134	5870
922.244	5805
922.353	5927
922.462	5821
922.571	5756
922.68	5672
922.789	5634
922.898	5710
923.007	5634
923.116	5649
923.224	5615
923.333	5604
923.442	5585
923.55	5577
923.659	5570
923.767	5657
923.876	5585
923.984	5577
924.092	5516
924.201	5547
924.309	5547
924.417	5482
924.525	5474
924.633	5501
924.741	6072
924.849	5379
924.956	5459
925.064	5322
925.172	5273
925.279	5318
925.387	5322
925.494	5345
925.602	5368
925.709	5391
925.816	5223
925.924	5273
926.031	5299
926.138	5284
926.245	5334
926.352	5220
926.459	5254
926.566	5227
926.673	5170
926.779	5109
926.886	5102
926.993	5029
927.099	5003
927.206	4976
927.312	4919
927.419	4991
927.525	4961
927.631	4984
927.737	4866
927.843	4850
927.95	4763
928.056	4797
928.162	4850
928.267	4828
928.373	5220
928.479	4862
928.585	4683
928.69	4717
928.796	4782
928.901	4687
929.007	4584
929.112	4694
929.218	4634
929.323	4580
929.428	4531
929.533	4584
929.638	4531
929.743	4531
929.848	4519
929.953	4474
930.058	4440
930.163	4280
930.267	4299
930.372	4428
930.477	4299
930.581	4424
930.685	4329
930.79	4185
930.894	4268
930.998	4242
931.103	4363
931.207	4097
931.311	4074
931.415	4067
931.519	3911
931.623	3880
