Data from glass_V78500241_49.txt Node
Date: Wed Sep 01 19:14:50 CST 2021
User: usil
Spectrometer: V785-0024
Trigger mode: 0
Integration Time (sec): 4.000000E-1
Scans to average: 1
Nonlinearity correction enabled: false
Boxcar width: 0
Storing dark spectrum: false
XAxis mode: Wavelengths
Number of Pixels in Spectrum: 1024
>>>>>Begin Spectral Data<<<<<
801.071	3774
801.214	3724
801.356	3720
801.499	3747
801.641	3770
801.783	3759
801.926	3850
802.068	3827
802.211	3876
802.353	3899
802.496	3861
802.638	3896
802.78	3880
802.923	3956
803.065	3937
803.208	3846
803.35	3869
803.492	3903
803.635	3911
803.777	3812
803.919	3918
804.061	4181
804.204	3983
804.346	3949
804.488	3930
804.63	4082
804.773	3994
804.915	4051
805.057	4120
805.199	4105
805.341	4101
805.483	4131
805.626	4162
805.768	4124
805.91	4249
806.052	4242
806.194	4215
806.336	4375
806.478	4242
806.62	4177
806.762	4227
806.904	4295
807.046	4337
807.188	4215
807.33	4204
807.472	4299
807.614	4200
807.756	4261
807.898	4246
808.04	4200
808.182	4287
808.324	4348
808.465	4352
808.607	4417
808.749	4470
808.891	4485
809.033	4493
809.174	4402
809.316	4303
809.458	4246
809.6	4143
809.741	4124
809.883	4147
810.025	4276
810.166	4192
810.308	4234
810.45	4246
810.591	4261
810.733	4310
810.875	4504
811.016	4816
811.158	5147
811.299	5227
811.441	5296
811.582	5098
811.724	4683
811.865	4485
812.007	4474
812.148	4474
812.29	4440
812.431	4424
812.573	4413
812.714	4356
812.855	4470
812.997	4440
813.138	4489
813.279	4379
813.421	4363
813.562	4394
813.703	4375
813.845	4344
813.986	4257
814.127	4265
814.268	4253
814.41	4284
814.551	4253
814.692	4341
814.833	4287
814.974	4325
815.115	4371
815.256	4253
815.397	4242
815.539	4276
815.68	4169
815.821	4211
815.962	4341
816.103	4272
816.244	4272
816.385	4253
816.526	4253
816.666	4200
816.807	4135
816.948	4162
817.089	4192
817.23	4162
817.371	4040
817.512	4067
817.653	4097
817.793	4067
817.934	4101
818.075	4078
818.216	4055
818.356	4116
818.497	4032
818.638	3953
818.778	3960
818.919	3934
819.06	3857
819.2	3930
819.341	3850
819.481	3854
819.622	3926
819.762	4017
819.903	4021
820.043	3903
820.184	3831
820.324	3838
820.465	3922
820.605	3876
820.746	3880
820.886	3766
821.026	3949
821.167	3930
821.307	4021
821.447	4002
821.588	3994
821.728	3987
821.868	3949
822.008	3899
822.149	3972
822.289	3945
822.429	3804
822.569	3759
822.709	3861
822.849	3701
822.99	3736
823.13	3781
823.27	3819
823.41	3743
823.55	3720
823.69	3709
823.83	3743
823.97	3694
824.11	3614
824.25	3663
824.389	3641
824.529	3686
824.669	3644
824.809	3740
824.949	3720
825.089	3762
825.228	3705
825.368	3572
825.508	3587
825.648	3587
825.787	3648
825.927	3644
826.067	3652
826.206	3675
826.346	3823
826.485	3869
826.625	3896
826.765	3956
826.904	3842
827.044	3633
827.183	3500
827.323	3428
827.462	3511
827.601	3401
827.741	3424
827.88	3469
828.02	3389
828.159	3500
828.298	3485
828.437	3542
828.577	3488
828.716	3610
828.855	3515
828.994	3386
829.134	3401
829.273	3443
829.412	3386
829.551	3378
829.69	3412
829.829	3450
829.968	3561
830.107	3466
830.246	3439
830.385	3378
830.524	3378
830.663	3344
830.802	3253
830.941	3214
831.08	3207
831.219	3294
831.357	3253
831.496	3458
831.635	3218
831.774	3199
831.913	3214
832.051	3138
832.19	3138
832.329	3218
832.467	3154
832.606	3119
832.744	3169
832.883	3188
833.022	3195
833.16	3256
833.299	3321
833.437	3382
833.576	3374
833.714	3428
833.852	3481
833.991	3431
834.129	3469
834.267	3473
834.406	3409
834.544	3424
834.682	3450
834.821	3424
834.959	3591
835.097	3443
835.235	3549
835.373	3515
835.511	3553
835.65	3458
835.788	3515
835.926	3401
836.064	3405
836.202	3447
836.34	3564
836.478	3633
836.615	3557
836.753	3591
836.891	3633
837.029	3622
837.167	3606
837.305	3580
837.443	3549
837.58	3553
837.718	3595
837.856	3595
837.993	3564
838.131	3610
838.269	3572
838.406	3591
838.544	3618
838.681	3519
838.819	3496
838.956	3447
839.094	3409
839.231	3496
839.369	3545
839.506	3724
839.643	3694
839.781	3481
839.918	3473
840.055	3561
840.193	3519
840.33	3568
840.467	3564
840.604	3553
840.742	3869
840.879	3534
841.016	3610
841.153	3610
841.29	3778
841.427	3736
841.564	3717
841.701	3728
841.838	3713
841.975	3709
842.112	3747
842.249	3660
842.385	3663
842.522	3808
842.659	3709
842.796	3698
842.933	3720
843.069	3743
843.206	3720
843.343	3861
843.479	3812
843.616	3846
843.752	3675
843.889	3686
844.025	3861
844.162	3743
844.298	3880
844.435	3804
844.571	3835
844.708	3941
844.844	4013
844.98	4002
845.117	4044
845.253	3953
845.389	3922
845.525	3987
845.661	3987
845.798	3960
845.934	4040
846.07	3998
846.206	4048
846.342	4139
846.478	4051
846.614	4032
846.75	3975
846.886	3903
847.022	3994
847.158	4010
847.294	3991
847.429	4017
847.565	3991
847.701	4253
847.837	3880
847.972	3865
848.108	3991
848.244	3953
848.379	3884
848.515	3838
848.65	3823
848.786	3846
848.921	3876
849.057	3941
849.192	3975
849.328	3949
849.463	3918
849.598	3911
849.734	3915
849.869	3880
850.004	3816
850.14	3812
850.275	3770
850.41	3770
850.545	3724
850.68	3774
850.815	3800
850.95	3835
851.085	3987
851.22	3918
851.355	3854
851.49	3793
851.625	3797
851.76	3823
851.895	3724
852.03	3747
852.165	3808
852.299	3835
852.434	3915
852.569	3831
852.703	3915
852.838	3915
852.973	4055
853.107	3991
853.242	3953
853.376	3827
853.511	3781
853.645	3857
853.78	3987
853.914	3945
854.048	3922
854.183	3896
854.317	3956
854.451	4055
854.585	3979
854.72	3968
854.854	4063
854.988	3968
855.122	4013
855.256	3972
855.39	3979
855.524	4131
855.658	4124
855.792	4112
855.926	4185
856.06	4215
856.194	4238
856.327	4173
856.461	4143
856.595	4166
856.729	4177
856.862	4284
856.996	4299
857.13	4295
857.263	4337
857.397	4375
857.53	4314
857.664	4344
857.797	4394
857.931	4398
858.064	4459
858.197	4485
858.331	4432
858.464	4371
858.597	4344
858.731	4474
858.864	4470
858.997	4402
859.13	4603
859.263	4550
859.396	4626
859.529	4550
859.662	4565
859.795	4516
859.928	4611
860.061	4767
860.194	4786
860.327	4694
860.46	4679
860.592	4782
860.725	4786
860.858	4748
860.99	4691
861.123	4698
861.256	4664
861.388	4759
861.521	5395
861.653	4740
861.786	4698
861.918	4759
862.05	4820
862.183	4850
862.315	4892
862.447	4930
862.58	4919
862.712	4812
862.844	4812
862.976	4885
863.108	4915
863.24	5349
863.372	4771
863.504	4949
863.636	4919
863.768	4972
863.9	5014
864.032	4942
864.164	4923
864.296	5010
864.428	5143
864.559	5136
864.691	5124
864.823	5136
864.954	5094
865.086	5117
865.217	5090
865.349	5098
865.48	5174
865.612	5170
865.743	5299
865.875	5265
866.006	5181
866.137	5258
866.269	5235
866.4	5299
866.531	5223
866.662	5258
866.793	5299
866.924	5337
867.055	5326
867.186	5353
867.317	5334
867.448	5368
867.579	5440
867.71	5360
867.841	5395
867.972	5444
868.103	5459
868.233	5493
868.364	5539
868.495	5577
868.625	5676
868.756	5802
868.886	5649
869.017	5786
869.147	5908
869.278	5828
869.408	5836
869.539	5859
869.669	5992
869.799	5855
869.929	5999
870.06	6057
870.19	6216
870.32	6152
870.45	6270
870.58	6384
870.71	6456
870.84	6471
870.97	6452
871.1	6475
871.23	6654
871.36	6734
871.489	6665
871.619	6688
871.749	6783
871.879	6886
872.008	6996
872.138	7023
872.267	7008
872.397	7015
872.526	7103
872.656	7095
872.785	7236
872.915	7392
873.044	7571
873.173	7594
873.303	7689
873.432	7780
873.561	7879
873.69	7875
873.819	7997
873.948	8111
874.077	8248
874.206	8343
874.335	8469
874.464	8667
874.593	8815
874.722	8929
874.851	9127
874.979	9253
875.108	9351
875.237	9363
875.365	9511
875.494	9618
875.623	9842
875.751	9880
875.88	10002
876.008	10211
876.136	10291
876.265	10554
876.393	10645
876.521	10721
876.65	10809
876.778	10858
876.906	10862
877.034	10968
877.162	11128
877.29	11178
877.418	11284
877.546	11296
877.674	11493
877.802	11478
877.93	11520
878.058	11680
878.185	11589
878.313	11722
878.441	11691
878.568	11745
878.696	11771
878.824	11847
878.951	11893
879.079	12091
879.206	12091
879.333	11996
879.461	11973
879.588	12076
879.715	12114
879.842	12311
879.97	12076
880.097	11920
880.224	11863
880.351	11817
880.478	11870
880.605	11961
880.732	11809
880.859	12041
880.986	11790
881.112	11866
881.239	11665
881.366	11691
881.493	11672
881.619	11493
881.746	11581
881.872	11623
881.999	11516
882.125	11493
882.252	11577
882.378	11501
882.505	11520
882.631	11395
882.757	11307
882.883	11356
883.01	11318
883.136	11159
883.262	11159
883.388	11102
883.514	11201
883.64	11159
883.766	11113
883.892	11067
884.018	11052
884.143	11162
884.269	11132
884.395	10839
884.52	10858
884.646	10866
884.772	10721
884.897	10717
885.023	10691
885.148	10744
885.274	10691
885.399	10645
885.524	10558
885.65	10759
885.775	10611
885.9	10535
886.025	10615
886.15	10535
886.275	10428
886.4	10481
886.525	10417
886.65	10481
886.775	10299
886.9	10546
887.025	10519
887.149	10333
887.274	10227
887.399	10223
887.523	10219
887.648	10147
887.773	10150
887.897	10246
888.021	10246
888.146	10185
888.27	10211
888.395	10230
888.519	10192
888.643	10177
888.767	10265
888.891	10112
889.015	10013
889.139	10032
889.263	10036
889.387	10097
889.511	10112
889.635	10112
889.759	9983
889.883	9975
890.006	9987
890.13	10120
890.254	9953
890.377	9949
890.501	9842
890.624	9835
890.748	9911
890.871	9728
890.995	9793
891.118	9732
891.241	9717
891.364	9724
891.488	9869
891.611	9736
891.734	9736
891.857	9800
891.98	9728
892.103	9831
892.226	9755
892.349	9671
892.471	9549
892.594	9580
892.717	9644
892.839	9561
892.962	9614
893.085	9667
893.207	9618
893.33	9538
893.452	9515
893.575	9633
893.697	9584
893.819	9656
893.941	9663
894.064	9515
894.186	9485
894.308	9401
894.43	9496
894.552	9629
894.674	9545
894.796	9412
894.918	9378
895.04	9370
895.161	9401
895.283	9359
895.405	9351
895.526	9298
895.648	9313
895.769	9241
895.891	9306
896.012	9321
896.134	9268
896.255	9195
896.376	9074
896.498	9199
896.619	9142
896.74	9119
896.861	9157
896.982	9336
897.103	9310
897.224	9184
897.345	9047
897.466	9013
897.587	9081
897.708	9062
897.828	9036
897.949	8979
898.07	8807
898.19	8845
898.311	9100
898.431	8906
898.552	8899
898.672	8952
898.792	8963
898.913	8971
899.033	8743
899.153	8758
899.273	8651
899.393	8712
899.513	8792
899.633	8769
899.753	8754
899.873	8629
899.993	8811
900.113	8716
900.232	8724
900.352	8636
900.472	8686
900.591	8530
900.711	8613
900.83	8571
900.95	8663
901.069	8663
901.189	8564
901.308	8461
901.427	8499
901.546	8457
901.665	8438
901.784	8476
901.904	8412
902.023	8347
902.141	8210
902.26	8275
902.379	8320
902.498	8221
902.617	8176
902.735	8290
902.854	8328
902.973	8290
903.091	8119
903.21	8157
903.328	8149
903.446	8134
903.565	8115
903.683	8092
903.801	8031
903.919	8142
904.038	8123
904.156	8035
904.274	8123
904.392	8050
904.51	8043
904.627	8058
904.745	8069
904.863	8149
904.981	7917
905.098	7921
905.216	7887
905.334	7906
905.451	7875
905.569	7875
905.686	7951
905.803	7902
905.921	7772
906.038	7830
906.155	7875
906.272	7693
906.389	7670
906.506	7655
906.623	7647
906.74	7571
906.857	7567
906.974	7552
907.091	7708
907.208	7681
907.324	7674
907.441	7586
907.557	7483
907.674	7468
907.79	7346
907.907	7377
908.023	7518
908.139	7464
908.256	7403
908.372	7483
908.488	7381
908.604	7293
908.72	7255
908.836	7282
908.952	7285
909.068	7285
909.184	7346
909.3	7263
909.415	7343
909.531	7266
909.647	7103
909.762	7076
909.878	7076
909.993	7103
910.108	7152
910.224	7072
910.339	7160
910.454	7076
910.57	7031
910.685	6989
910.8	7137
910.915	7107
911.03	7034
911.145	6901
911.259	6825
911.374	6894
911.489	6863
911.604	6875
911.718	6722
911.833	6783
911.947	6658
912.062	6646
912.176	6688
912.291	6772
912.405	6654
912.519	6856
912.633	6916
912.748	6745
912.862	6738
912.976	6597
913.09	6536
913.204	6578
913.318	6639
913.431	6642
913.545	6700
913.659	6734
913.772	6658
913.886	6559
914	6597
914.113	6688
914.226	6627
914.34	6597
914.453	6540
914.566	6616
914.68	6517
914.793	6536
914.906	6445
915.019	6429
915.132	6353
915.245	6479
915.358	6426
915.47	6452
915.583	6494
915.696	6467
915.809	6536
915.921	6563
916.034	6471
916.146	6369
916.259	6445
916.371	6509
916.483	6452
916.595	6372
916.708	6429
916.82	6429
916.932	6395
917.044	6407
917.156	6448
917.268	6331
917.38	6418
917.491	6342
917.603	6391
917.715	6433
917.826	6410
917.938	6395
918.049	6292
918.161	6350
918.272	6418
918.384	6437
918.495	6342
918.606	6311
918.717	6186
918.828	6315
918.939	6342
919.05	6213
919.161	6308
919.272	6148
919.383	6190
919.494	6315
919.604	6464
919.715	6266
919.826	6235
919.936	6292
920.047	6399
920.157	6270
920.267	6429
920.378	6311
920.488	6281
920.598	6486
920.708	6585
920.818	6498
920.928	6517
921.038	6597
921.148	6578
921.258	6357
921.368	6308
921.477	6270
921.587	6159
921.697	6117
921.806	6197
921.916	6038
922.025	5969
922.134	5988
922.244	5920
922.353	5950
922.462	5889
922.571	5805
922.68	5661
922.789	5699
922.898	5756
923.007	5661
923.116	5760
923.224	5623
923.333	5627
923.442	5642
923.55	5623
923.659	5642
923.767	5653
923.876	5592
923.984	5627
924.092	5505
924.201	5566
924.309	5596
924.417	5566
924.525	5535
924.633	5501
924.741	6357
924.849	5421
924.956	5455
925.064	5326
925.172	5334
925.279	5322
925.387	5379
925.494	5372
925.602	5452
925.709	5425
925.816	5303
925.924	5330
926.031	5357
926.138	5284
926.245	5322
926.352	5242
926.459	5326
926.566	5353
926.673	5189
926.779	5117
926.886	5136
926.993	5048
927.099	5033
927.206	5003
927.312	4984
927.419	5014
927.525	4957
927.631	5033
927.737	4919
927.843	4835
927.95	4797
928.056	4839
928.162	4843
928.267	4889
928.373	5341
928.479	4862
928.585	4710
928.69	4790
928.796	4809
928.901	4683
929.007	4630
929.112	4710
929.218	4649
929.323	4618
929.428	4580
929.533	4656
929.638	4565
929.743	4565
929.848	4535
929.953	4519
930.058	4485
930.163	4299
930.267	4333
930.372	4474
930.477	4341
930.581	4481
930.685	4379
930.79	4257
930.894	4268
930.998	4314
931.103	4398
931.207	4143
931.311	4143
931.415	4036
931.519	3983
931.623	3926
