Data from glass_V78500241_2829.txt Node
Date: Wed Sep 01 19:34:06 CST 2021
User: usil
Spectrometer: V785-0024
Trigger mode: 0
Integration Time (sec): 4.000000E-1
Scans to average: 1
Nonlinearity correction enabled: false
Boxcar width: 0
Storing dark spectrum: false
XAxis mode: Wavelengths
Number of Pixels in Spectrum: 1024
>>>>>Begin Spectral Data<<<<<
801.071	3732
801.214	3736
801.356	3660
801.499	3732
801.641	3705
801.783	3800
801.926	3812
802.068	3781
802.211	3850
802.353	3827
802.496	3785
802.638	3838
802.78	3884
802.923	3926
803.065	3899
803.208	3827
803.35	3827
803.492	3873
803.635	3930
803.777	3789
803.919	3876
804.061	4120
804.204	3975
804.346	3960
804.488	3903
804.63	3991
804.773	3934
804.915	4006
805.057	4124
805.199	4048
805.341	4048
805.483	4112
805.626	4128
805.768	4090
805.91	4169
806.052	4207
806.194	4181
806.336	4295
806.478	4177
806.62	4124
806.762	4181
806.904	4291
807.046	4318
807.188	4185
807.33	4143
807.472	4196
807.614	4200
807.756	4223
807.898	4147
808.04	4177
808.182	4272
808.324	4314
808.465	4360
808.607	4459
808.749	4447
808.891	4451
809.033	4489
809.174	4383
809.316	4253
809.458	4242
809.6	4139
809.741	4135
809.883	4192
810.025	4173
810.166	4181
810.308	4219
810.45	4215
810.591	4249
810.733	4249
810.875	4478
811.016	4824
811.158	5136
811.299	5235
811.441	5212
811.582	5014
811.724	4698
811.865	4440
812.007	4424
812.148	4440
812.29	4379
812.431	4413
812.573	4375
812.714	4363
812.855	4371
812.997	4386
813.138	4417
813.279	4375
813.421	4375
813.562	4344
813.703	4299
813.845	4344
813.986	4204
814.127	4185
814.268	4207
814.41	4261
814.551	4207
814.692	4314
814.833	4268
814.974	4265
815.115	4333
815.256	4207
815.397	4246
815.539	4253
815.68	4147
815.821	4185
815.962	4261
816.103	4287
816.244	4234
816.385	4238
816.526	4265
816.666	4207
816.807	4040
816.948	4135
817.089	4173
817.23	4112
817.371	4013
817.512	4032
817.653	4059
817.793	3979
817.934	4017
818.075	4116
818.216	4082
818.356	4067
818.497	3972
818.638	3899
818.778	3873
818.919	3865
819.06	3755
819.2	3915
819.341	3808
819.481	3816
819.622	3865
819.762	3968
819.903	3945
820.043	3873
820.184	3812
820.324	3793
820.465	3899
820.605	3892
820.746	3857
820.886	3816
821.026	3896
821.167	3907
821.307	3968
821.447	3994
821.588	3926
821.728	3918
821.868	3926
822.008	3846
822.149	3911
822.289	3956
822.429	3778
822.569	3747
822.709	3766
822.849	3701
822.99	3698
823.13	3694
823.27	3785
823.41	3686
823.55	3709
823.69	3705
823.83	3705
823.97	3644
824.11	3603
824.25	3603
824.389	3633
824.529	3679
824.669	3652
824.809	3671
824.949	3743
825.089	3690
825.228	3682
825.368	3553
825.508	3576
825.648	3557
825.787	3614
825.927	3652
826.067	3603
826.206	3663
826.346	3740
826.485	3831
826.625	3850
826.765	3899
826.904	3819
827.044	3584
827.183	3511
827.323	3420
827.462	3492
827.601	3443
827.741	3351
827.88	3424
828.02	3378
828.159	3428
828.298	3462
828.437	3530
828.577	3466
828.716	3568
828.855	3443
828.994	3321
829.134	3367
829.273	3374
829.412	3302
829.551	3294
829.69	3397
829.829	3412
829.968	3500
830.107	3439
830.246	3450
830.385	3374
830.524	3370
830.663	3294
830.802	3264
830.941	3180
831.08	3180
831.219	3256
831.357	3218
831.496	3431
831.635	3222
831.774	3146
831.913	3184
832.051	3089
832.19	3154
832.329	3226
832.467	3097
832.606	3062
832.744	3138
832.883	3135
833.022	3176
833.16	3264
833.299	3275
833.437	3336
833.576	3359
833.714	3378
833.852	3443
833.991	3412
834.129	3439
834.267	3420
834.406	3397
834.544	3428
834.682	3416
834.821	3386
834.959	3572
835.097	3420
835.235	3523
835.373	3462
835.511	3485
835.65	3485
835.788	3431
835.926	3416
836.064	3378
836.202	3382
836.34	3538
836.478	3591
836.615	3507
836.753	3591
836.891	3610
837.029	3591
837.167	3576
837.305	3591
837.443	3530
837.58	3492
837.718	3584
837.856	3545
837.993	3488
838.131	3549
838.269	3542
838.406	3553
838.544	3530
838.681	3500
838.819	3428
838.956	3325
839.094	3348
839.231	3370
839.369	3538
839.506	3728
839.643	3603
839.781	3477
839.918	3454
840.055	3492
840.193	3519
840.33	3519
840.467	3515
840.604	3606
840.742	3755
840.879	3549
841.016	3534
841.153	3568
841.29	3759
841.427	3701
841.564	3667
841.701	3682
841.838	3686
841.975	3652
842.112	3713
842.249	3641
842.385	3587
842.522	3808
842.659	3652
842.796	3671
842.933	3701
843.069	3713
843.206	3728
843.343	3781
843.479	3747
843.616	3785
843.752	3648
843.889	3671
844.025	3861
844.162	3644
844.298	3838
844.435	3743
844.571	3747
844.708	3903
844.844	3953
844.98	3964
845.117	4021
845.253	3915
845.389	3854
845.525	3937
845.661	3937
845.798	3892
845.934	3945
846.07	3949
846.206	4029
846.342	4071
846.478	3998
846.614	3945
846.75	3953
846.886	3911
847.022	4010
847.158	3937
847.294	3972
847.429	3987
847.565	3945
847.701	4223
847.837	3880
847.972	3804
848.108	4013
848.244	3911
848.379	3850
848.515	3759
848.65	3816
848.786	3827
848.921	3850
849.057	3857
849.192	3964
849.328	3888
849.463	3915
849.598	3861
849.734	3842
849.869	3816
850.004	3762
850.14	3770
850.275	3762
850.41	3740
850.545	3785
850.68	3740
850.815	3797
850.95	3762
851.085	3915
851.22	3861
851.355	3789
851.49	3770
851.625	3797
851.76	3808
851.895	3709
852.03	3713
852.165	3759
852.299	3835
852.434	3876
852.569	3854
852.703	3808
852.838	3861
852.973	3972
853.107	3987
853.242	3873
853.376	3812
853.511	3743
853.645	3819
853.78	3934
853.914	3865
854.048	3869
854.183	3842
854.317	3892
854.451	4013
854.585	3934
854.72	3926
854.854	4059
854.988	3903
855.122	4025
855.256	3926
855.39	4025
855.524	4120
855.658	4101
855.792	4143
855.926	4063
856.06	4109
856.194	4185
856.327	4116
856.461	4048
856.595	4086
856.729	4147
856.862	4257
856.996	4253
857.13	4299
857.263	4333
857.397	4356
857.53	4287
857.664	4348
857.797	4413
857.931	4371
858.064	4375
858.197	4371
858.331	4386
858.464	4356
858.597	4363
858.731	4451
858.864	4447
858.997	4413
859.13	4535
859.263	4512
859.396	4584
859.529	4508
859.662	4519
859.795	4516
859.928	4607
860.061	4694
860.194	4656
860.327	4618
860.46	4630
860.592	4721
860.725	4721
860.858	4748
860.99	4615
861.123	4710
861.256	4641
861.388	4767
861.521	5250
861.653	4668
861.786	4649
861.918	4736
862.05	4782
862.183	4824
862.315	4828
862.447	4892
862.58	4889
862.712	4812
862.844	4793
862.976	4915
863.108	4839
863.24	5174
863.372	4812
863.504	4839
863.636	4854
863.768	4919
863.9	4972
864.032	4850
864.164	4930
864.296	4976
864.428	5033
864.559	5029
864.691	5056
864.823	5117
864.954	5121
865.086	5128
865.217	5151
865.349	5113
865.48	5185
865.612	5220
865.743	5235
865.875	5204
866.006	5201
866.137	5227
866.269	5178
866.4	5231
866.531	5220
866.662	5204
866.793	5250
866.924	5315
867.055	5315
867.186	5357
867.317	5299
867.448	5296
867.579	5368
867.71	5376
867.841	5357
867.972	5433
868.103	5463
868.233	5482
868.364	5501
868.495	5490
868.625	5699
868.756	5783
868.886	5638
869.017	5699
869.147	5794
869.278	5821
869.408	5832
869.539	5813
869.669	5931
869.799	5878
869.929	5992
870.06	5988
870.19	6186
870.32	6167
870.45	6251
870.58	6292
870.71	6437
870.84	6422
870.97	6353
871.1	6445
871.23	6585
871.36	6662
871.489	6654
871.619	6772
871.749	6837
871.879	6840
872.008	6947
872.138	7023
872.267	6996
872.397	6970
872.526	6947
872.656	7080
872.785	7217
872.915	7346
873.044	7499
873.173	7518
873.303	7510
873.432	7765
873.561	7795
873.69	7871
873.819	7993
873.948	8202
874.077	8202
874.206	8305
874.335	8480
874.464	8644
874.593	8861
874.722	8914
874.851	9062
874.979	9173
875.108	9336
875.237	9435
875.365	9363
875.494	9603
875.623	9709
875.751	9823
875.88	10002
876.008	10074
876.136	10299
876.265	10546
876.393	10679
876.521	10740
876.65	10786
876.778	10892
876.906	10900
877.034	10976
877.162	11117
877.29	11174
877.418	11303
877.546	11406
877.674	11505
877.802	11406
877.93	11471
878.058	11528
878.185	11490
878.313	11668
878.441	11695
878.568	11638
878.696	11729
878.824	11832
878.951	11939
879.079	11946
879.206	12106
879.333	12049
879.461	11958
879.588	11996
879.715	12171
879.842	12235
879.97	12072
880.097	11821
880.224	11912
880.351	11859
880.478	11893
880.605	11790
880.732	11805
880.859	11958
880.986	11748
881.112	11798
881.239	11691
881.366	11646
881.493	11615
881.619	11516
881.746	11535
881.872	11474
881.999	11528
882.125	11410
882.252	11505
882.378	11467
882.505	11524
882.631	11376
882.757	11280
882.883	11326
883.01	11242
883.136	11189
883.262	11052
883.388	11102
883.514	11113
883.64	11086
883.766	11086
883.892	10968
884.018	11006
884.143	10995
884.269	11086
884.395	10809
884.52	10744
884.646	10710
884.772	10672
884.897	10653
885.023	10626
885.148	10809
885.274	10828
885.399	10729
885.524	10622
885.65	10615
885.775	10607
885.9	10558
886.025	10584
886.15	10489
886.275	10443
886.4	10371
886.525	10440
886.65	10451
886.775	10417
886.9	10413
887.025	10519
887.149	10459
887.274	10147
887.399	10211
887.523	10158
887.648	10147
887.773	10071
887.897	10185
888.021	10230
888.146	10109
888.27	10242
888.395	10204
888.519	10207
888.643	10154
888.767	10223
888.891	10067
889.015	9987
889.139	10036
889.263	9930
889.387	10071
889.511	10112
889.635	9979
889.759	9987
889.883	9975
890.006	9956
890.13	9956
890.254	9972
890.377	9968
890.501	9861
890.624	9934
890.748	9903
890.871	9797
890.995	9709
891.118	9709
891.241	9766
891.364	9720
891.488	9827
891.611	9808
891.734	9682
891.857	9774
891.98	9671
892.103	9766
892.226	9686
892.349	9724
892.471	9492
892.594	9587
892.717	9545
892.839	9606
892.962	9625
893.085	9690
893.207	9584
893.33	9401
893.452	9515
893.575	9576
893.697	9507
893.819	9690
893.941	9606
894.064	9610
894.186	9450
894.308	9397
894.43	9553
894.552	9519
894.674	9473
894.796	9355
894.918	9458
895.04	9351
895.161	9283
895.283	9348
895.405	9253
895.526	9230
895.648	9317
895.769	9275
895.891	9264
896.012	9298
896.134	9230
896.255	9214
896.376	9077
896.498	9135
896.619	9123
896.74	9074
896.861	9055
896.982	9157
897.103	9302
897.224	9138
897.345	9020
897.466	9077
897.587	9001
897.708	9013
897.828	9051
897.949	8910
898.07	8819
898.19	8925
898.311	8948
898.431	8864
898.552	8933
898.672	8967
898.792	8914
898.913	8899
899.033	8880
899.153	8697
899.273	8632
899.393	8636
899.513	8800
899.633	8648
899.753	8720
899.873	8655
899.993	8785
900.113	8651
900.232	8716
900.352	8651
900.472	8594
900.591	8629
900.711	8556
900.83	8469
900.95	8644
901.069	8644
901.189	8556
901.308	8476
901.427	8385
901.546	8423
901.665	8427
901.784	8503
901.904	8374
902.023	8290
902.141	8214
902.26	8176
902.379	8275
902.498	8176
902.617	8263
902.735	8267
902.854	8275
902.973	8202
903.091	8088
903.21	8164
903.328	8100
903.446	8103
903.565	8123
903.683	8145
903.801	7978
903.919	8153
904.038	8065
904.156	7974
904.274	8138
904.392	8024
904.51	8058
904.627	8008
904.745	8103
904.863	8043
904.981	7833
905.098	7830
905.216	7947
905.334	7875
905.451	7879
905.569	7890
905.686	7913
905.803	7917
905.921	7772
906.038	7818
906.155	7712
906.272	7696
906.389	7712
906.506	7616
906.623	7639
906.74	7590
906.857	7548
906.974	7590
907.091	7651
907.208	7723
907.324	7567
907.441	7548
907.557	7441
907.674	7468
907.79	7365
907.907	7373
908.023	7419
908.139	7343
908.256	7381
908.372	7369
908.488	7362
908.604	7278
908.72	7240
908.836	7259
908.952	7202
909.068	7202
909.184	7293
909.3	7213
909.415	7293
909.531	7255
909.647	7118
909.762	7114
909.878	7107
909.993	7110
910.108	7122
910.224	7114
910.339	7042
910.454	6989
910.57	7034
910.685	6943
910.8	7118
910.915	7023
911.03	6989
911.145	6825
911.259	6882
911.374	6901
911.489	6848
911.604	6787
911.718	6719
911.833	6741
911.947	6658
912.062	6555
912.176	6646
912.291	6707
912.405	6639
912.519	6791
912.633	6818
912.748	6764
912.862	6623
912.976	6616
913.09	6532
913.204	6559
913.318	6563
913.431	6623
913.545	6662
913.659	6722
913.772	6673
913.886	6544
914	6585
914.113	6547
914.226	6646
914.34	6597
914.453	6460
914.566	6570
914.68	6490
914.793	6513
914.906	6429
915.019	6399
915.132	6414
915.245	6429
915.358	6410
915.47	6418
915.583	6464
915.696	6486
915.809	6483
915.921	6517
916.034	6380
916.146	6399
916.259	6365
916.371	6471
916.483	6448
916.595	6403
916.708	6407
916.82	6380
916.932	6372
917.044	6342
917.156	6399
917.268	6319
917.38	6353
917.491	6334
917.603	6338
917.715	6361
917.826	6441
917.938	6315
918.049	6220
918.161	6289
918.272	6369
918.384	6410
918.495	6311
918.606	6304
918.717	6216
918.828	6304
918.939	6254
919.05	6140
919.161	6262
919.272	6076
919.383	6152
919.494	6292
919.604	6422
919.715	6258
919.826	6171
919.936	6182
920.047	6258
920.157	6159
920.267	6410
920.378	6304
920.488	6292
920.598	6467
920.708	6555
920.818	6471
920.928	6410
921.038	6597
921.148	6601
921.258	6300
921.368	6254
921.477	6182
921.587	6125
921.697	6102
921.806	6144
921.916	6079
922.025	5912
922.134	5920
922.244	5882
922.353	5931
922.462	5832
922.571	5726
922.68	5707
922.789	5566
922.898	5699
923.007	5615
923.116	5684
923.224	5676
923.333	5688
923.442	5676
923.55	5535
923.659	5551
923.767	5676
923.876	5467
923.984	5562
924.092	5490
924.201	5535
924.309	5566
924.417	5505
924.525	5493
924.633	5509
924.741	6285
924.849	5398
924.956	5440
925.064	5345
925.172	5357
925.279	5311
925.387	5383
925.494	5235
925.602	5417
925.709	5341
925.816	5273
925.924	5292
926.031	5303
926.138	5341
926.245	5273
926.352	5220
926.459	5277
926.566	5326
926.673	5208
926.779	5128
926.886	5102
926.993	5041
927.099	4987
927.206	4942
927.312	4915
927.419	4908
927.525	4946
927.631	5010
927.737	4843
927.843	4843
927.95	4767
928.056	4828
928.162	4820
928.267	4850
928.373	5292
928.479	4828
928.585	4599
928.69	4706
928.796	4733
928.901	4637
929.007	4573
929.112	4683
929.218	4615
929.323	4569
929.428	4565
929.533	4611
929.638	4504
929.743	4531
929.848	4512
929.953	4478
930.058	4394
930.163	4322
930.267	4314
930.372	4402
930.477	4306
930.581	4436
930.685	4363
930.79	4227
930.894	4265
930.998	4234
931.103	4383
931.207	4162
931.311	4051
931.415	4013
931.519	3926
931.623	3937
