Data from glass_V78500241_2134.txt Node
Date: Wed Sep 01 19:29:17 CST 2021
User: usil
Spectrometer: V785-0024
Trigger mode: 0
Integration Time (sec): 4.000000E-1
Scans to average: 1
Nonlinearity correction enabled: false
Boxcar width: 0
Storing dark spectrum: false
XAxis mode: Wavelengths
Number of Pixels in Spectrum: 1024
>>>>>Begin Spectral Data<<<<<
801.071	3762
801.214	3736
801.356	3736
801.499	3759
801.641	3728
801.783	3800
801.926	3835
802.068	3842
802.211	3785
802.353	3896
802.496	3850
802.638	3865
802.78	3941
802.923	3896
803.065	3861
803.208	3865
803.35	3884
803.492	3876
803.635	3869
803.777	3797
803.919	3880
804.061	4185
804.204	3949
804.346	3930
804.488	3941
804.63	4032
804.773	3960
804.915	3983
805.057	4131
805.199	4082
805.341	4082
805.483	4147
805.626	4139
805.768	4169
805.91	4207
806.052	4238
806.194	4207
806.336	4329
806.478	4230
806.62	4177
806.762	4173
806.904	4268
807.046	4310
807.188	4234
807.33	4230
807.472	4223
807.614	4207
807.756	4291
807.898	4211
808.04	4253
808.182	4314
808.324	4322
808.465	4333
808.607	4428
808.749	4455
808.891	4436
809.033	4561
809.174	4379
809.316	4249
809.458	4211
809.6	4143
809.741	4139
809.883	4120
810.025	4219
810.166	4188
810.308	4253
810.45	4215
810.591	4303
810.733	4295
810.875	4516
811.016	4843
811.158	5117
811.299	5284
811.441	5246
811.582	5064
811.724	4679
811.865	4466
812.007	4462
812.148	4379
812.29	4379
812.431	4383
812.573	4440
812.714	4322
812.855	4398
812.997	4451
813.138	4474
813.279	4398
813.421	4386
813.562	4386
813.703	4295
813.845	4383
813.986	4265
814.127	4234
814.268	4261
814.41	4227
814.551	4227
814.692	4303
814.833	4249
814.974	4314
815.115	4341
815.256	4227
815.397	4276
815.539	4227
815.68	4204
815.821	4177
815.962	4310
816.103	4272
816.244	4223
816.385	4234
816.526	4238
816.666	4185
816.807	4090
816.948	4162
817.089	4143
817.23	4131
817.371	4048
817.512	4055
817.653	4097
817.793	4013
817.934	4055
818.075	4074
818.216	4044
818.356	4139
818.497	3983
818.638	3937
818.778	3945
818.919	3945
819.06	3869
819.2	3918
819.341	3888
819.481	3808
819.622	3892
819.762	3987
819.903	3953
820.043	3835
820.184	3846
820.324	3804
820.465	3888
820.605	3831
820.746	3857
820.886	3759
821.026	3903
821.167	3903
821.307	3956
821.447	3983
821.588	3960
821.728	3937
821.868	3964
822.008	3899
822.149	3873
822.289	3926
822.429	3755
822.569	3766
822.709	3816
822.849	3705
822.99	3713
823.13	3762
823.27	3770
823.41	3717
823.55	3701
823.69	3743
823.83	3740
823.97	3675
824.11	3614
824.25	3603
824.389	3644
824.529	3667
824.669	3637
824.809	3701
824.949	3770
825.089	3724
825.228	3724
825.368	3614
825.508	3542
825.648	3496
825.787	3622
825.927	3641
826.067	3633
826.206	3675
826.346	3762
826.485	3850
826.625	3827
826.765	3945
826.904	3770
827.044	3587
827.183	3584
827.323	3435
827.462	3481
827.601	3409
827.741	3431
827.88	3435
828.02	3340
828.159	3443
828.298	3481
828.437	3511
828.577	3450
828.716	3584
828.855	3488
828.994	3382
829.134	3409
829.273	3420
829.412	3355
829.551	3325
829.69	3332
829.829	3428
829.968	3488
830.107	3416
830.246	3450
830.385	3367
830.524	3340
830.663	3348
830.802	3287
830.941	3203
831.08	3237
831.219	3226
831.357	3264
831.496	3401
831.635	3199
831.774	3157
831.913	3222
832.051	3138
832.19	3100
832.329	3226
832.467	3142
832.606	3112
832.744	3146
832.883	3184
833.022	3169
833.16	3214
833.299	3294
833.437	3344
833.576	3351
833.714	3386
833.852	3458
833.991	3439
834.129	3466
834.267	3412
834.406	3386
834.544	3393
834.682	3378
834.821	3405
834.959	3553
835.097	3439
835.235	3496
835.373	3485
835.511	3485
835.65	3424
835.788	3492
835.926	3382
836.064	3336
836.202	3378
836.34	3519
836.478	3599
836.615	3534
836.753	3587
836.891	3629
837.029	3641
837.167	3564
837.305	3557
837.443	3515
837.58	3454
837.718	3572
837.856	3530
837.993	3523
838.131	3564
838.269	3557
838.406	3587
838.544	3572
838.681	3492
838.819	3485
838.956	3351
839.094	3409
839.231	3435
839.369	3534
839.506	3686
839.643	3572
839.781	3500
839.918	3485
840.055	3557
840.193	3496
840.33	3507
840.467	3553
840.604	3587
840.742	3800
840.879	3561
841.016	3545
841.153	3606
841.29	3766
841.427	3705
841.564	3717
841.701	3762
841.838	3663
841.975	3728
842.112	3747
842.249	3618
842.385	3671
842.522	3781
842.659	3675
842.796	3671
842.933	3667
843.069	3701
843.206	3698
843.343	3778
843.479	3778
843.616	3827
843.752	3698
843.889	3652
844.025	3838
844.162	3736
844.298	3819
844.435	3857
844.571	3747
844.708	3873
844.844	3998
844.98	3987
845.117	3994
845.253	3922
845.389	3880
845.525	3941
845.661	3941
845.798	3937
845.934	3987
846.07	3937
846.206	3960
846.342	4082
846.478	4067
846.614	3964
846.75	3888
846.886	3854
847.022	4025
847.158	3945
847.294	3979
847.429	3972
847.565	3972
847.701	4196
847.837	3873
847.972	3888
848.108	4017
848.244	3941
848.379	3888
848.515	3846
848.65	3804
848.786	3850
848.921	3896
849.057	3926
849.192	3911
849.328	3915
849.463	3926
849.598	3869
849.734	3846
849.869	3835
850.004	3778
850.14	3819
850.275	3797
850.41	3740
850.545	3762
850.68	3770
850.815	3759
850.95	3785
851.085	3934
851.22	3865
851.355	3835
851.49	3774
851.625	3838
851.76	3804
851.895	3717
852.03	3720
852.165	3774
852.299	3755
852.434	3918
852.569	3857
852.703	3915
852.838	3941
852.973	3956
853.107	3975
853.242	3850
853.376	3850
853.511	3781
853.645	3781
853.78	3964
853.914	3892
854.048	3846
854.183	3838
854.317	3949
854.451	4032
854.585	3968
854.72	3926
854.854	4040
854.988	3934
855.122	3960
855.256	3918
855.39	4017
855.524	4059
855.658	4063
855.792	4090
855.926	4131
856.06	4150
856.194	4192
856.327	4139
856.461	4097
856.595	4169
856.729	4185
856.862	4280
856.996	4272
857.13	4268
857.263	4341
857.397	4363
857.53	4230
857.664	4306
857.797	4360
857.931	4402
858.064	4394
858.197	4459
858.331	4394
858.464	4409
858.597	4333
858.731	4421
858.864	4470
858.997	4417
859.13	4470
859.263	4527
859.396	4569
859.529	4535
859.662	4504
859.795	4516
859.928	4596
860.061	4687
860.194	4717
860.327	4618
860.46	4618
860.592	4691
860.725	4759
860.858	4729
860.99	4691
861.123	4653
861.256	4717
861.388	4759
861.521	5330
861.653	4744
861.786	4706
861.918	4725
862.05	4847
862.183	4812
862.315	4812
862.447	4885
862.58	4866
862.712	4721
862.844	4733
862.976	4839
863.108	4881
863.24	5140
863.372	4801
863.504	4930
863.636	4911
863.768	4957
863.9	4938
864.032	4881
864.164	4934
864.296	5067
864.428	5105
864.559	5056
864.691	5121
864.823	5079
864.954	5094
865.086	5151
865.217	5128
865.349	5079
865.48	5197
865.612	5170
865.743	5288
865.875	5189
866.006	5227
866.137	5216
866.269	5216
866.4	5261
866.531	5231
866.662	5189
866.793	5280
866.924	5311
867.055	5292
867.186	5349
867.317	5398
867.448	5288
867.579	5353
867.71	5330
867.841	5303
867.972	5486
868.103	5482
868.233	5448
868.364	5486
868.495	5566
868.625	5661
868.756	5786
868.886	5646
869.017	5699
869.147	5821
869.278	5844
869.408	5805
869.539	5832
869.669	5882
869.799	5904
869.929	5965
870.06	6022
870.19	6155
870.32	6171
870.45	6235
870.58	6338
870.71	6369
870.84	6437
870.97	6441
871.1	6494
871.23	6604
871.36	6677
871.489	6684
871.619	6677
871.749	6814
871.879	6779
872.008	6962
872.138	6954
872.267	6973
872.397	6970
872.526	7046
872.656	7080
872.785	7236
872.915	7392
873.044	7468
873.173	7571
873.303	7609
873.432	7742
873.561	7852
873.69	7890
873.819	8016
873.948	8161
874.077	8218
874.206	8290
874.335	8408
874.464	8678
874.593	8826
874.722	8937
874.851	9119
874.979	9211
875.108	9329
875.237	9370
875.365	9477
875.494	9709
875.623	9800
875.751	9835
875.88	9987
876.008	10166
876.136	10238
876.265	10466
876.393	10752
876.521	10706
876.65	10759
876.778	10847
876.906	10934
877.034	11003
877.162	11109
877.29	11147
877.418	11326
877.546	11315
877.674	11478
877.802	11497
877.93	11482
878.058	11505
878.185	11425
878.313	11691
878.441	11764
878.568	11608
878.696	11813
878.824	11885
878.951	11935
879.079	11973
879.206	12091
879.333	12011
879.461	12045
879.588	12095
879.715	12114
879.842	12194
879.97	12125
880.097	11901
880.224	11824
880.351	11973
880.478	11916
880.605	11885
880.732	11714
880.859	11996
880.986	11771
881.112	11855
881.239	11745
881.366	11718
881.493	11551
881.619	11592
881.746	11585
881.872	11512
881.999	11547
882.125	11497
882.252	11615
882.378	11421
882.505	11630
882.631	11356
882.757	11269
882.883	11376
883.01	11220
883.136	11143
883.262	11223
883.388	11079
883.514	11162
883.64	11132
883.766	11079
883.892	10957
884.018	10923
884.143	11048
884.269	11083
884.395	10752
884.52	10759
884.646	10778
884.772	10641
884.897	10687
885.023	10736
885.148	10714
885.274	10778
885.399	10702
885.524	10691
885.65	10626
885.775	10630
885.9	10485
886.025	10580
886.15	10504
886.275	10485
886.4	10424
886.525	10390
886.65	10443
886.775	10318
886.9	10531
887.025	10527
887.149	10379
887.274	10272
887.399	10276
887.523	10120
887.648	10143
887.773	10166
887.897	10162
888.021	10181
888.146	10097
888.27	10211
888.395	10147
888.519	10154
888.643	10116
888.767	10150
888.891	10128
889.015	10074
889.139	10112
889.263	9998
889.387	10082
889.511	10177
889.635	10040
889.759	9949
889.883	10029
890.006	10048
890.13	10025
890.254	9983
890.377	9918
890.501	9888
890.624	9922
890.748	9899
890.871	9789
890.995	9701
891.118	9690
891.241	9705
891.364	9713
891.488	9831
891.611	9682
891.734	9785
891.857	9778
891.98	9698
892.103	9713
892.226	9667
892.349	9709
892.471	9572
892.594	9511
892.717	9641
892.839	9549
892.962	9675
893.085	9709
893.207	9530
893.33	9477
893.452	9542
893.575	9671
893.697	9538
893.819	9580
893.941	9618
894.064	9641
894.186	9397
894.308	9431
894.43	9447
894.552	9515
894.674	9507
894.796	9386
894.918	9401
895.04	9374
895.161	9370
895.283	9382
895.405	9253
895.526	9279
895.648	9253
895.769	9256
895.891	9226
896.012	9264
896.134	9211
896.255	9123
896.376	9100
896.498	9173
896.619	9127
896.74	9116
896.861	9093
896.982	9291
897.103	9268
897.224	9150
897.345	9009
897.466	8982
897.587	9058
897.708	9020
897.828	9116
897.949	8861
898.07	8906
898.19	8921
898.311	9001
898.431	8845
898.552	8887
898.672	8967
898.792	8891
898.913	8891
899.033	8743
899.153	8746
899.273	8667
899.393	8644
899.513	8705
899.633	8659
899.753	8750
899.873	8693
899.993	8716
900.113	8705
900.232	8697
900.352	8541
900.472	8590
900.591	8594
900.711	8644
900.83	8579
900.95	8621
901.069	8743
901.189	8625
901.308	8408
901.427	8412
901.546	8446
901.665	8465
901.784	8457
901.904	8438
902.023	8339
902.141	8183
902.26	8161
902.379	8259
902.498	8176
902.617	8240
902.735	8355
902.854	8286
902.973	8294
903.091	8115
903.21	8210
903.328	8168
903.446	8103
903.565	8035
903.683	8043
903.801	8012
903.919	8088
904.038	8058
904.156	8031
904.274	7974
904.392	8031
904.51	8119
904.627	8012
904.745	8161
904.863	8035
904.981	7894
905.098	7856
905.216	7852
905.334	7894
905.451	7852
905.569	7909
905.686	7917
905.803	7883
905.921	7814
906.038	7795
906.155	7765
906.272	7677
906.389	7677
906.506	7693
906.623	7628
906.74	7662
906.857	7518
906.974	7605
907.091	7616
907.208	7738
907.324	7655
907.441	7552
907.557	7419
907.674	7460
907.79	7396
907.907	7472
908.023	7415
908.139	7377
908.256	7327
908.372	7327
908.488	7305
908.604	7251
908.72	7213
908.836	7308
908.952	7259
909.068	7236
909.184	7297
909.3	7206
909.415	7320
909.531	7278
909.647	7118
909.762	7107
909.878	7129
909.993	7084
910.108	7072
910.224	7076
910.339	7129
910.454	7008
910.57	6981
910.685	6993
910.8	7179
910.915	7050
911.03	6996
911.145	6863
911.259	6795
911.374	6878
911.489	6810
911.604	6810
911.718	6681
911.833	6719
911.947	6627
912.062	6673
912.176	6604
912.291	6684
912.405	6681
912.519	6856
912.633	6871
912.748	6707
912.862	6700
912.976	6631
913.09	6506
913.204	6608
913.318	6616
913.431	6646
913.545	6700
913.659	6753
913.772	6642
913.886	6597
914	6570
914.113	6585
914.226	6627
914.34	6536
914.453	6456
914.566	6623
914.68	6490
914.793	6498
914.906	6433
915.019	6395
915.132	6353
915.245	6350
915.358	6418
915.47	6460
915.583	6422
915.696	6426
915.809	6566
915.921	6597
916.034	6399
916.146	6410
916.259	6464
916.371	6513
916.483	6445
916.595	6418
916.708	6342
916.82	6342
916.932	6380
917.044	6357
917.156	6334
917.268	6315
917.38	6376
917.491	6289
917.603	6384
917.715	6441
917.826	6395
917.938	6338
918.049	6205
918.161	6300
918.272	6426
918.384	6471
918.495	6273
918.606	6273
918.717	6209
918.828	6235
918.939	6270
919.05	6194
919.161	6258
919.272	6095
919.383	6163
919.494	6258
919.604	6429
919.715	6266
919.826	6224
919.936	6216
920.047	6292
920.157	6243
920.267	6429
920.378	6243
920.488	6277
920.598	6388
920.708	6559
920.818	6460
920.928	6452
921.038	6578
921.148	6608
921.258	6357
921.368	6228
921.477	6178
921.587	6175
921.697	6125
921.806	6220
921.916	6095
922.025	5969
922.134	5942
922.244	5859
922.353	5996
922.462	5832
922.571	5832
922.68	5737
922.789	5668
922.898	5718
923.007	5589
923.116	5627
923.224	5649
923.333	5638
923.442	5604
923.55	5551
923.659	5554
923.767	5592
923.876	5528
923.984	5562
924.092	5459
924.201	5577
924.309	5547
924.417	5558
924.525	5463
924.633	5543
924.741	6205
924.849	5334
924.956	5429
925.064	5391
925.172	5261
925.279	5364
925.387	5387
925.494	5292
925.602	5398
925.709	5368
925.816	5280
925.924	5311
926.031	5303
926.138	5296
926.245	5349
926.352	5181
926.459	5307
926.566	5372
926.673	5239
926.779	5094
926.886	5121
926.993	5045
927.099	4949
927.206	4961
927.312	4900
927.419	4991
927.525	4938
927.631	4980
927.737	4881
927.843	4850
927.95	4790
928.056	4828
928.162	4843
928.267	4870
928.373	5360
928.479	4892
928.585	4702
928.69	4755
928.796	4744
928.901	4653
929.007	4577
929.112	4626
929.218	4637
929.323	4607
929.428	4596
929.533	4694
929.638	4508
929.743	4512
929.848	4561
929.953	4489
930.058	4459
930.163	4322
930.267	4299
930.372	4409
930.477	4329
930.581	4440
930.685	4337
930.79	4261
930.894	4207
930.998	4219
931.103	4363
931.207	4124
931.311	4097
931.415	4059
931.519	3934
931.623	3975
