Data from glass_V78500241_1818.txt Node
Date: Wed Sep 01 19:27:06 CST 2021
User: usil
Spectrometer: V785-0024
Trigger mode: 0
Integration Time (sec): 4.000000E-1
Scans to average: 1
Nonlinearity correction enabled: false
Boxcar width: 0
Storing dark spectrum: false
XAxis mode: Wavelengths
Number of Pixels in Spectrum: 1024
>>>>>Begin Spectral Data<<<<<
801.071	3785
801.214	3724
801.356	3679
801.499	3740
801.641	3724
801.783	3781
801.926	3846
802.068	3789
802.211	3819
802.353	3884
802.496	3850
802.638	3838
802.78	3899
802.923	3941
803.065	3899
803.208	3857
803.35	3903
803.492	3892
803.635	3876
803.777	3819
803.919	3880
804.061	4169
804.204	3979
804.346	3941
804.488	3899
804.63	4013
804.773	3972
804.915	4044
805.057	4131
805.199	4071
805.341	4048
805.483	4154
805.626	4162
805.768	4135
805.91	4185
806.052	4234
806.194	4192
806.336	4360
806.478	4211
806.62	4162
806.762	4207
806.904	4280
807.046	4337
807.188	4204
807.33	4185
807.472	4207
807.614	4200
807.756	4219
807.898	4207
808.04	4211
808.182	4261
808.324	4314
808.465	4363
808.607	4485
808.749	4447
808.891	4462
809.033	4470
809.174	4417
809.316	4272
809.458	4230
809.6	4162
809.741	4116
809.883	4147
810.025	4230
810.166	4219
810.308	4234
810.45	4253
810.591	4211
810.733	4280
810.875	4519
811.016	4793
811.158	5132
811.299	5311
811.441	5273
811.582	5052
811.724	4694
811.865	4485
812.007	4508
812.148	4436
812.29	4413
812.431	4405
812.573	4413
812.714	4341
812.855	4405
812.997	4409
813.138	4424
813.279	4462
813.421	4394
813.562	4402
813.703	4306
813.845	4303
813.986	4287
814.127	4207
814.268	4227
814.41	4284
814.551	4234
814.692	4299
814.833	4257
814.974	4287
815.115	4325
815.256	4242
815.397	4230
815.539	4280
815.68	4162
815.821	4166
815.962	4303
816.103	4284
816.244	4192
816.385	4238
816.526	4265
816.666	4177
816.807	4093
816.948	4204
817.089	4181
817.23	4120
817.371	4059
817.512	4055
817.653	4093
817.793	4040
817.934	4082
818.075	4162
818.216	4051
818.356	4048
818.497	3968
818.638	3903
818.778	3918
818.919	3880
819.06	3854
819.2	3884
819.341	3884
819.481	3842
819.622	3922
819.762	3991
819.903	3991
820.043	3842
820.184	3846
820.324	3785
820.465	3884
820.605	3876
820.746	3880
820.886	3838
821.026	3918
821.167	3918
821.307	3964
821.447	3983
821.588	3930
821.728	3979
821.868	3930
822.008	3854
822.149	3922
822.289	3949
822.429	3816
822.569	3808
822.709	3774
822.849	3671
822.99	3705
823.13	3778
823.27	3789
823.41	3705
823.55	3713
823.69	3694
823.83	3770
823.97	3675
824.11	3595
824.25	3618
824.389	3637
824.529	3686
824.669	3660
824.809	3747
824.949	3755
825.089	3720
825.228	3686
825.368	3591
825.508	3568
825.648	3538
825.787	3610
825.927	3625
826.067	3610
826.206	3656
826.346	3774
826.485	3762
826.625	3869
826.765	3964
826.904	3846
827.044	3595
827.183	3519
827.323	3397
827.462	3496
827.601	3405
827.741	3431
827.88	3439
828.02	3348
828.159	3424
828.298	3485
828.437	3553
828.577	3462
828.716	3557
828.855	3504
828.994	3382
829.134	3348
829.273	3363
829.412	3378
829.551	3302
829.69	3382
829.829	3420
829.968	3534
830.107	3416
830.246	3462
830.385	3382
830.524	3351
830.663	3291
830.802	3226
830.941	3154
831.08	3195
831.219	3253
831.357	3211
831.496	3389
831.635	3245
831.774	3176
831.913	3203
832.051	3119
832.19	3146
832.329	3230
832.467	3157
832.606	3100
832.744	3195
832.883	3192
833.022	3176
833.16	3222
833.299	3283
833.437	3340
833.576	3370
833.714	3321
833.852	3435
833.991	3428
834.129	3466
834.267	3469
834.406	3420
834.544	3424
834.682	3450
834.821	3378
834.959	3587
835.097	3397
835.235	3511
835.373	3481
835.511	3504
835.65	3462
835.788	3492
835.926	3378
836.064	3401
836.202	3409
836.34	3572
836.478	3614
836.615	3553
836.753	3603
836.891	3606
837.029	3587
837.167	3504
837.305	3511
837.443	3504
837.58	3500
837.718	3595
837.856	3500
837.993	3549
838.131	3591
838.269	3591
838.406	3580
838.544	3549
838.681	3443
838.819	3466
838.956	3382
839.094	3374
839.231	3439
839.369	3519
839.506	3713
839.643	3671
839.781	3515
839.918	3469
840.055	3538
840.193	3496
840.33	3530
840.467	3488
840.604	3591
840.742	3819
840.879	3542
841.016	3576
841.153	3580
841.29	3747
841.427	3728
841.564	3709
841.701	3728
841.838	3755
841.975	3698
842.112	3720
842.249	3595
842.385	3629
842.522	3816
842.659	3709
842.796	3656
842.933	3686
843.069	3656
843.206	3762
843.343	3835
843.479	3800
843.616	3850
843.752	3618
843.889	3679
844.025	3876
844.162	3663
844.298	3819
844.435	3797
844.571	3762
844.708	3876
844.844	4036
844.98	4002
845.117	4025
845.253	3922
845.389	3876
845.525	3945
845.661	3964
845.798	3922
845.934	4010
846.07	3922
846.206	4051
846.342	4131
846.478	4078
846.614	3991
846.75	3915
846.886	3876
847.022	4032
847.158	3968
847.294	3972
847.429	4051
847.565	3991
847.701	4257
847.837	3922
847.972	3857
848.108	4002
848.244	3975
848.379	3861
848.515	3835
848.65	3785
848.786	3846
848.921	3846
849.057	3945
849.192	3930
849.328	3873
849.463	3880
849.598	3880
849.734	3854
849.869	3850
850.004	3789
850.14	3838
850.275	3804
850.41	3728
850.545	3736
850.68	3789
850.815	3823
850.95	3785
851.085	3964
851.22	3876
851.355	3762
851.49	3793
851.625	3789
851.76	3743
851.895	3759
852.03	3720
852.165	3797
852.299	3835
852.434	3873
852.569	3873
852.703	3865
852.838	3915
852.973	4025
853.107	3972
853.242	3846
853.376	3861
853.511	3789
853.645	3819
853.78	3949
853.914	3937
854.048	3869
854.183	3876
854.317	3956
854.451	4051
854.585	3972
854.72	3918
854.854	4044
854.988	3934
855.122	3991
855.256	3953
855.39	4021
855.524	4097
855.658	4082
855.792	4071
855.926	4112
856.06	4128
856.194	4200
856.327	4207
856.461	4112
856.595	4158
856.729	4158
856.862	4257
856.996	4265
857.13	4287
857.263	4310
857.397	4341
857.53	4253
857.664	4291
857.797	4367
857.931	4428
858.064	4379
858.197	4455
858.331	4424
858.464	4367
858.597	4344
858.731	4424
858.864	4485
858.997	4447
859.13	4466
859.263	4493
859.396	4573
859.529	4535
859.662	4500
859.795	4523
859.928	4599
860.061	4668
860.194	4733
860.327	4653
860.46	4637
860.592	4710
860.725	4706
860.858	4733
860.99	4706
861.123	4660
861.256	4721
861.388	4740
861.521	5376
861.653	4710
861.786	4668
861.918	4755
862.05	4793
862.183	4862
862.315	4866
862.447	4965
862.58	4915
862.712	4786
862.844	4755
862.976	4877
863.108	4908
863.24	5242
863.372	4824
863.504	4892
863.636	4900
863.768	4976
863.9	4911
864.032	4934
864.164	4968
864.296	5003
864.428	5079
864.559	5117
864.691	5090
864.823	5102
864.954	5090
865.086	5121
865.217	5201
865.349	5079
865.48	5113
865.612	5204
865.743	5277
865.875	5201
866.006	5170
866.137	5204
866.269	5258
866.4	5258
866.531	5193
866.662	5261
866.793	5284
866.924	5311
867.055	5322
867.186	5360
867.317	5292
867.448	5277
867.579	5410
867.71	5368
867.841	5357
867.972	5467
868.103	5471
868.233	5493
868.364	5509
868.495	5520
868.625	5657
868.756	5786
868.886	5668
869.017	5710
869.147	5882
869.278	5851
869.408	5844
869.539	5805
869.669	5870
869.799	5882
869.929	5969
870.06	6034
870.19	6228
870.32	6216
870.45	6224
870.58	6331
870.71	6422
870.84	6490
870.97	6327
871.1	6426
871.23	6654
871.36	6700
871.489	6669
871.619	6738
871.749	6772
871.879	6875
872.008	7008
872.138	6989
872.267	6943
872.397	7015
872.526	6966
872.656	7122
872.785	7202
872.915	7403
873.044	7563
873.173	7540
873.303	7704
873.432	7818
873.561	7849
873.69	7921
873.819	8050
873.948	8103
874.077	8225
874.206	8324
874.335	8412
874.464	8724
874.593	8902
874.722	8895
874.851	9081
874.979	9184
875.108	9382
875.237	9405
875.365	9454
875.494	9587
875.623	9789
875.751	9827
875.88	10032
876.008	10143
876.136	10265
876.265	10550
876.393	10664
876.521	10618
876.65	10839
876.778	10938
876.906	10866
877.034	10908
877.162	11041
877.29	11197
877.418	11250
877.546	11379
877.674	11493
877.802	11414
877.93	11551
878.058	11535
878.185	11562
878.313	11688
878.441	11798
878.568	11596
878.696	11729
878.824	11843
878.951	11908
879.079	12026
879.206	12144
879.333	12117
879.461	11920
879.588	11992
879.715	12030
879.842	12152
879.97	12045
880.097	11771
880.224	11904
880.351	11885
880.478	11885
880.605	11813
880.732	11908
880.859	12072
880.986	11832
881.112	11790
881.239	11695
881.366	11589
881.493	11661
881.619	11524
881.746	11604
881.872	11543
881.999	11539
882.125	11501
882.252	11509
882.378	11425
882.505	11509
882.631	11414
882.757	11299
882.883	11322
883.01	11231
883.136	11216
883.262	11128
883.388	11098
883.514	11231
883.64	11159
883.766	11052
883.892	11083
884.018	11079
884.143	11041
884.269	11090
884.395	10812
884.52	10831
884.646	10774
884.772	10702
884.897	10710
885.023	10653
885.148	10725
885.274	10786
885.399	10694
885.524	10592
885.65	10634
885.775	10668
885.9	10580
886.025	10622
886.15	10554
886.275	10447
886.4	10325
886.525	10360
886.65	10363
886.775	10299
886.9	10508
887.025	10577
887.149	10360
887.274	10223
887.399	10238
887.523	10173
887.648	10086
887.773	10120
887.897	10280
888.021	10181
888.146	10158
888.27	10196
888.395	10188
888.519	10162
888.643	10150
888.767	10109
888.891	10006
889.015	10021
889.139	10086
889.263	9983
889.387	10048
889.511	10188
889.635	10067
889.759	9907
889.883	9911
890.006	10006
890.13	10158
890.254	9979
890.377	9895
890.501	9880
890.624	9816
890.748	9926
890.871	9740
890.995	9709
891.118	9766
891.241	9762
891.364	9751
891.488	9785
891.611	9759
891.734	9690
891.857	9720
891.98	9614
892.103	9740
892.226	9701
892.349	9599
892.471	9538
892.594	9625
892.717	9576
892.839	9584
892.962	9599
893.085	9644
893.207	9561
893.33	9534
893.452	9564
893.575	9557
893.697	9500
893.819	9629
893.941	9610
894.064	9538
894.186	9408
894.308	9412
894.43	9420
894.552	9637
894.674	9439
894.796	9306
894.918	9386
895.04	9416
895.161	9302
895.283	9340
895.405	9188
895.526	9264
895.648	9272
895.769	9176
895.891	9222
896.012	9237
896.134	9207
896.255	9268
896.376	9097
896.498	9142
896.619	9169
896.74	9093
896.861	9104
896.982	9275
897.103	9291
897.224	9123
897.345	9135
897.466	8998
897.587	9028
897.708	9066
897.828	9055
897.949	8986
898.07	8857
898.19	8918
898.311	9051
898.431	8990
898.552	8910
898.672	8994
898.792	8948
898.913	8925
899.033	8777
899.153	8678
899.273	8663
899.393	8674
899.513	8739
899.633	8674
899.753	8720
899.873	8674
899.993	8743
900.113	8701
900.232	8670
900.352	8613
900.472	8568
900.591	8579
900.711	8571
900.83	8552
900.95	8670
901.069	8735
901.189	8549
901.308	8442
901.427	8412
901.546	8400
901.665	8408
901.784	8511
901.904	8431
902.023	8320
902.141	8259
902.26	8221
902.379	8279
902.498	8183
902.617	8202
902.735	8290
902.854	8279
902.973	8221
903.091	8119
903.21	8115
903.328	8142
903.446	8130
903.565	8020
903.683	8058
903.801	8027
903.919	8123
904.038	8149
904.156	8020
904.274	8134
904.392	7959
904.51	8027
904.627	8027
904.745	8035
904.863	8107
904.981	7936
905.098	7837
905.216	7879
905.334	7906
905.451	7921
905.569	7921
905.686	7913
905.803	7871
905.921	7822
906.038	7902
906.155	7742
906.272	7681
906.389	7685
906.506	7647
906.623	7628
906.74	7514
906.857	7525
906.974	7578
907.091	7658
907.208	7681
907.324	7616
907.441	7582
907.557	7407
907.674	7483
907.79	7369
907.907	7415
908.023	7514
908.139	7434
908.256	7384
908.372	7316
908.488	7350
908.604	7240
908.72	7278
908.836	7240
908.952	7247
909.068	7247
909.184	7331
909.3	7259
909.415	7240
909.531	7305
909.647	7072
909.762	7141
909.878	7046
909.993	7129
910.108	7099
910.224	7091
910.339	7072
910.454	7015
910.57	6985
910.685	6943
910.8	7168
910.915	7065
911.03	7053
911.145	6909
911.259	6916
911.374	6871
911.489	6802
911.604	6798
911.718	6696
911.833	6764
911.947	6665
912.062	6574
912.176	6734
912.291	6696
912.405	6703
912.519	6753
912.633	6844
912.748	6703
912.862	6616
912.976	6654
913.09	6585
913.204	6601
913.318	6623
913.431	6623
913.545	6662
913.659	6749
913.772	6642
913.886	6559
914	6521
914.113	6650
914.226	6639
914.34	6616
914.453	6513
914.566	6574
914.68	6471
914.793	6479
914.906	6467
915.019	6414
915.132	6410
915.245	6445
915.358	6395
915.47	6471
915.583	6479
915.696	6433
915.809	6471
915.921	6509
916.034	6448
916.146	6391
916.259	6353
916.371	6494
916.483	6460
916.595	6388
916.708	6429
916.82	6407
916.932	6376
917.044	6357
917.156	6365
917.268	6262
917.38	6346
917.491	6224
917.603	6327
917.715	6380
917.826	6429
917.938	6384
918.049	6232
918.161	6353
918.272	6407
918.384	6391
918.495	6315
918.606	6281
918.717	6220
918.828	6285
918.939	6228
919.05	6190
919.161	6266
919.272	6167
919.383	6155
919.494	6270
919.604	6452
919.715	6270
919.826	6247
919.936	6281
920.047	6315
920.157	6300
920.267	6448
920.378	6281
920.488	6254
920.598	6407
920.708	6547
920.818	6460
920.928	6486
921.038	6635
921.148	6566
921.258	6361
921.368	6273
921.477	6175
921.587	6194
921.697	6136
921.806	6163
921.916	6110
922.025	5965
922.134	5935
922.244	5855
922.353	5996
922.462	5847
922.571	5794
922.68	5718
922.789	5657
922.898	5699
923.007	5596
923.116	5710
923.224	5718
923.333	5634
923.442	5562
923.55	5566
923.659	5547
923.767	5615
923.876	5547
923.984	5566
924.092	5505
924.201	5585
924.309	5528
924.417	5573
924.525	5486
924.633	5467
924.741	6300
924.849	5372
924.956	5448
925.064	5360
925.172	5303
925.279	5311
925.387	5315
925.494	5330
925.602	5429
925.709	5360
925.816	5246
925.924	5288
926.031	5357
926.138	5273
926.245	5326
926.352	5197
926.459	5296
926.566	5299
926.673	5181
926.779	5143
926.886	5113
926.993	5048
927.099	5041
927.206	4949
927.312	4961
927.419	4995
927.525	4938
927.631	5018
927.737	4900
927.843	4847
927.95	4793
928.056	4793
928.162	4809
928.267	4930
928.373	5311
928.479	4831
928.585	4675
928.69	4706
928.796	4793
928.901	4649
929.007	4607
929.112	4656
929.218	4649
929.323	4599
929.428	4535
929.533	4653
929.638	4493
929.743	4584
929.848	4538
929.953	4504
930.058	4485
930.163	4352
930.267	4348
930.372	4379
930.477	4257
930.581	4478
930.685	4371
930.79	4249
930.894	4303
930.998	4246
931.103	4394
931.207	4124
931.311	4071
931.415	4051
931.519	3918
931.623	3953
