Data from glass_V78500241_2559.txt Node
Date: Wed Sep 01 19:32:14 CST 2021
User: usil
Spectrometer: V785-0024
Trigger mode: 0
Integration Time (sec): 4.000000E-1
Scans to average: 1
Nonlinearity correction enabled: false
Boxcar width: 0
Storing dark spectrum: false
XAxis mode: Wavelengths
Number of Pixels in Spectrum: 1024
>>>>>Begin Spectral Data<<<<<
801.071	3747
801.214	3679
801.356	3667
801.499	3766
801.641	3755
801.783	3759
801.926	3846
802.068	3823
802.211	3861
802.353	3865
802.496	3816
802.638	3880
802.78	3907
802.923	3907
803.065	3903
803.208	3857
803.35	3876
803.492	3915
803.635	3884
803.777	3804
803.919	3899
804.061	4143
804.204	3926
804.346	3937
804.488	3968
804.63	3983
804.773	3991
804.915	4006
805.057	4131
805.199	4036
805.341	4071
805.483	4131
805.626	4135
805.768	4131
805.91	4200
806.052	4207
806.194	4181
806.336	4352
806.478	4196
806.62	4158
806.762	4207
806.904	4257
807.046	4352
807.188	4154
807.33	4219
807.472	4211
807.614	4215
807.756	4261
807.898	4192
808.04	4257
808.182	4280
808.324	4295
808.465	4337
808.607	4462
808.749	4451
808.891	4455
809.033	4474
809.174	4390
809.316	4261
809.458	4234
809.6	4181
809.741	4147
809.883	4150
810.025	4185
810.166	4207
810.308	4257
810.45	4268
810.591	4253
810.733	4242
810.875	4478
811.016	4835
811.158	5105
811.299	5265
811.441	5318
811.582	5060
811.724	4649
811.865	4489
812.007	4421
812.148	4447
812.29	4428
812.431	4379
812.573	4394
812.714	4363
812.855	4417
812.997	4405
813.138	4466
813.279	4394
813.421	4352
813.562	4348
813.703	4291
813.845	4318
813.986	4192
814.127	4192
814.268	4246
814.41	4276
814.551	4227
814.692	4322
814.833	4291
814.974	4291
815.115	4310
815.256	4238
815.397	4188
815.539	4219
815.68	4169
815.821	4177
815.962	4276
816.103	4280
816.244	4238
816.385	4223
816.526	4246
816.666	4169
816.807	4078
816.948	4135
817.089	4204
817.23	4120
817.371	4048
817.512	4051
817.653	4074
817.793	4032
817.934	4010
818.075	4086
818.216	4086
818.356	4086
818.497	3994
818.638	3903
818.778	3937
818.919	3892
819.06	3842
819.2	3930
819.341	3915
819.481	3854
819.622	3884
819.762	4021
819.903	3926
820.043	3861
820.184	3804
820.324	3865
820.465	3896
820.605	3812
820.746	3869
820.886	3789
821.026	3941
821.167	3892
821.307	3972
821.447	3937
821.588	3926
821.728	3926
821.868	3930
822.008	3861
822.149	3949
822.289	3896
822.429	3804
822.569	3740
822.709	3747
822.849	3728
822.99	3717
823.13	3709
823.27	3781
823.41	3698
823.55	3778
823.69	3694
823.83	3770
823.97	3663
824.11	3564
824.25	3610
824.389	3622
824.529	3648
824.669	3599
824.809	3709
824.949	3728
825.089	3682
825.228	3728
825.368	3553
825.508	3591
825.648	3584
825.787	3572
825.927	3595
826.067	3614
826.206	3663
826.346	3747
826.485	3812
826.625	3838
826.765	3911
826.904	3892
827.044	3587
827.183	3515
827.323	3428
827.462	3538
827.601	3378
827.741	3416
827.88	3431
828.02	3386
828.159	3439
828.298	3462
828.437	3519
828.577	3428
828.716	3568
828.855	3450
828.994	3389
829.134	3344
829.273	3393
829.412	3329
829.551	3344
829.69	3351
829.829	3412
829.968	3469
830.107	3424
830.246	3439
830.385	3393
830.524	3363
830.663	3291
830.802	3233
830.941	3199
831.08	3199
831.219	3256
831.357	3298
831.496	3378
831.635	3211
831.774	3180
831.913	3165
832.051	3123
832.19	3165
832.329	3184
832.467	3131
832.606	3070
832.744	3207
832.883	3184
833.022	3157
833.16	3245
833.299	3310
833.437	3302
833.576	3367
833.714	3378
833.852	3424
833.991	3424
834.129	3469
834.267	3431
834.406	3409
834.544	3420
834.682	3382
834.821	3370
834.959	3561
835.097	3367
835.235	3526
835.373	3469
835.511	3523
835.65	3473
835.788	3485
835.926	3382
836.064	3378
836.202	3405
836.34	3561
836.478	3591
836.615	3515
836.753	3545
836.891	3603
837.029	3576
837.167	3545
837.305	3504
837.443	3519
837.58	3469
837.718	3618
837.856	3618
837.993	3526
838.131	3599
838.269	3553
838.406	3572
838.544	3564
838.681	3492
838.819	3420
838.956	3378
839.094	3363
839.231	3454
839.369	3530
839.506	3701
839.643	3652
839.781	3477
839.918	3462
840.055	3515
840.193	3507
840.33	3515
840.467	3603
840.604	3591
840.742	3789
840.879	3511
841.016	3557
841.153	3545
841.29	3743
841.427	3762
841.564	3682
841.701	3770
841.838	3701
841.975	3667
842.112	3686
842.249	3622
842.385	3591
842.522	3838
842.659	3724
842.796	3679
842.933	3705
843.069	3656
843.206	3740
843.343	3800
843.479	3808
843.616	3816
843.752	3644
843.889	3656
844.025	3808
844.162	3690
844.298	3850
844.435	3701
844.571	3755
844.708	3869
844.844	3975
844.98	4021
845.117	3998
845.253	3880
845.389	3854
845.525	3911
845.661	3983
845.798	3876
845.934	3975
846.07	3941
846.206	4071
846.342	4074
846.478	4078
846.614	3979
846.75	3911
846.886	3869
847.022	4059
847.158	3934
847.294	3975
847.429	3991
847.565	4002
847.701	4227
847.837	3873
847.972	3876
848.108	3956
848.244	3937
848.379	3869
848.515	3781
848.65	3827
848.786	3804
848.921	3816
849.057	3922
849.192	3968
849.328	3896
849.463	3903
849.598	3873
849.734	3838
849.869	3827
850.004	3804
850.14	3808
850.275	3732
850.41	3720
850.545	3709
850.68	3804
850.815	3823
850.95	3857
851.085	3930
851.22	3854
851.355	3808
851.49	3762
851.625	3781
851.76	3774
851.895	3705
852.03	3755
852.165	3778
852.299	3816
852.434	3896
852.569	3835
852.703	3838
852.838	3934
852.973	3991
853.107	3972
853.242	3873
853.376	3823
853.511	3793
853.645	3842
853.78	3998
853.914	3857
854.048	3903
854.183	3884
854.317	3937
854.451	4090
854.585	3922
854.72	3945
854.854	4029
854.988	3899
855.122	3991
855.256	3922
855.39	3994
855.524	4112
855.658	4082
855.792	4086
855.926	4078
856.06	4166
856.194	4207
856.327	4173
856.461	4097
856.595	4116
856.729	4196
856.862	4287
856.996	4223
857.13	4318
857.263	4325
857.397	4363
857.53	4238
857.664	4371
857.797	4371
857.931	4383
858.064	4375
858.197	4421
858.331	4367
858.464	4352
858.597	4322
858.731	4428
858.864	4451
858.997	4428
859.13	4493
859.263	4527
859.396	4580
859.529	4504
859.662	4516
859.795	4523
859.928	4561
860.061	4687
860.194	4710
860.327	4611
860.46	4649
860.592	4733
860.725	4717
860.858	4744
860.99	4679
861.123	4675
861.256	4706
861.388	4721
861.521	5334
861.653	4637
861.786	4668
861.918	4763
862.05	4790
862.183	4862
862.315	4877
862.447	4938
862.58	4816
862.712	4767
862.844	4786
862.976	4858
863.108	4854
863.24	5147
863.372	4831
863.504	4904
863.636	4854
863.768	4984
863.9	4942
864.032	4892
864.164	4968
864.296	5037
864.428	5064
864.559	5094
864.691	5060
864.823	5124
864.954	5071
865.086	5140
865.217	5105
865.349	5094
865.48	5147
865.612	5216
865.743	5273
865.875	5193
866.006	5185
866.137	5197
866.269	5193
866.4	5261
866.531	5250
866.662	5235
866.793	5280
866.924	5269
867.055	5353
867.186	5330
867.317	5326
867.448	5311
867.579	5364
867.71	5376
867.841	5337
867.972	5486
868.103	5471
868.233	5486
868.364	5497
868.495	5539
868.625	5703
868.756	5790
868.886	5657
869.017	5733
869.147	5859
869.278	5893
869.408	5851
869.539	5817
869.669	5935
869.799	5912
869.929	5961
870.06	5996
870.19	6201
870.32	6159
870.45	6209
870.58	6365
870.71	6388
870.84	6418
870.97	6429
871.1	6426
871.23	6620
871.36	6639
871.489	6627
871.619	6768
871.749	6814
871.879	6920
872.008	6985
872.138	7004
872.267	6977
872.397	7023
872.526	7012
872.656	7095
872.785	7179
872.915	7373
873.044	7525
873.173	7586
873.303	7613
873.432	7761
873.561	7883
873.69	7921
873.819	8008
873.948	8233
874.077	8210
874.206	8320
874.335	8419
874.464	8674
874.593	8792
874.722	8899
874.851	9074
874.979	9195
875.108	9317
875.237	9435
875.365	9447
875.494	9652
875.623	9876
875.751	9831
875.88	9949
876.008	10071
876.136	10287
876.265	10523
876.393	10660
876.521	10729
876.65	10889
876.778	10892
876.906	10942
877.034	10968
877.162	11029
877.29	11174
877.418	11303
877.546	11349
877.674	11467
877.802	11440
877.93	11497
878.058	11512
878.185	11608
878.313	11634
878.441	11779
878.568	11581
878.696	11786
878.824	11882
878.951	11931
879.079	12011
879.206	12148
879.333	12076
879.461	12019
879.588	12064
879.715	12175
879.842	12201
879.97	12117
880.097	11866
880.224	11855
880.351	11851
880.478	11813
880.605	11832
880.732	11878
880.859	12064
880.986	11802
881.112	11855
881.239	11688
881.366	11657
881.493	11604
881.619	11490
881.746	11600
881.872	11490
881.999	11440
882.125	11493
882.252	11570
882.378	11512
882.505	11482
882.631	11379
882.757	11330
882.883	11220
883.01	11197
883.136	11128
883.262	11159
883.388	11124
883.514	11216
883.64	11197
883.766	11075
883.892	10984
884.018	11029
884.143	11045
884.269	11048
884.395	10824
884.52	10774
884.646	10790
884.772	10786
884.897	10733
885.023	10702
885.148	10736
885.274	10736
885.399	10710
885.524	10622
885.65	10634
885.775	10596
885.9	10550
886.025	10637
886.15	10573
886.275	10390
886.4	10360
886.525	10398
886.65	10303
886.775	10356
886.9	10417
887.025	10500
887.149	10276
887.274	10223
887.399	10135
887.523	10131
887.648	10162
887.773	10101
887.897	10257
888.021	10211
888.146	10150
888.27	10223
888.395	10185
888.519	10143
888.643	10207
888.767	10215
888.891	10135
889.015	9991
889.139	10063
889.263	10059
889.387	10059
889.511	10128
889.635	10036
889.759	9972
889.883	10048
890.006	9975
890.13	10032
890.254	9953
890.377	9960
890.501	9861
890.624	9895
890.748	9945
890.871	9789
890.995	9709
891.118	9732
891.241	9789
891.364	9793
891.488	9728
891.611	9766
891.734	9701
891.857	9835
891.98	9736
892.103	9724
892.226	9694
892.349	9724
892.471	9553
892.594	9561
892.717	9625
892.839	9580
892.962	9644
893.085	9584
893.207	9584
893.33	9469
893.452	9462
893.575	9561
893.697	9538
893.819	9507
893.941	9610
894.064	9591
894.186	9443
894.308	9473
894.43	9492
894.552	9504
894.674	9542
894.796	9412
894.918	9374
895.04	9275
895.161	9393
895.283	9294
895.405	9272
895.526	9302
895.648	9268
895.769	9329
895.891	9268
896.012	9275
896.134	9253
896.255	9253
896.376	9047
896.498	9123
896.619	9150
896.74	9039
896.861	9081
896.982	9245
897.103	9256
897.224	9161
897.345	9108
897.466	8982
897.587	8998
897.708	9009
897.828	8948
897.949	8948
898.07	8853
898.19	8960
898.311	9043
898.431	8918
898.552	8868
898.672	8960
898.792	8979
898.913	8868
899.033	8804
899.153	8754
899.273	8651
899.393	8731
899.513	8750
899.633	8746
899.753	8693
899.873	8705
899.993	8731
900.113	8689
900.232	8708
900.352	8598
900.472	8651
900.591	8587
900.711	8590
900.83	8579
900.95	8644
901.069	8632
901.189	8552
901.308	8400
901.427	8404
901.546	8419
901.665	8434
901.784	8450
901.904	8400
902.023	8415
902.141	8221
902.26	8202
902.379	8279
902.498	8199
902.617	8172
902.735	8301
902.854	8229
902.973	8244
903.091	8157
903.21	8142
903.328	8168
903.446	8039
903.565	8054
903.683	8065
903.801	8084
903.919	8142
904.038	8092
904.156	7982
904.274	8069
904.392	8062
904.51	8084
904.627	8100
904.745	8069
904.863	8138
904.981	7947
905.098	7959
905.216	7864
905.334	7852
905.451	7928
905.569	7898
905.686	7902
905.803	7917
905.921	7852
906.038	7894
906.155	7750
906.272	7784
906.389	7734
906.506	7647
906.623	7609
906.74	7582
906.857	7529
906.974	7533
907.091	7689
907.208	7689
907.324	7647
907.441	7533
907.557	7392
907.674	7369
907.79	7392
907.907	7392
908.023	7411
908.139	7350
908.256	7327
908.372	7305
908.488	7339
908.604	7278
908.72	7194
908.836	7270
908.952	7244
909.068	7244
909.184	7255
909.3	7190
909.415	7293
909.531	7202
909.647	7118
909.762	7091
909.878	7053
909.993	7114
910.108	7046
910.224	6981
910.339	7069
910.454	7004
910.57	7012
910.685	6954
910.8	7129
910.915	7110
911.03	6962
911.145	6848
911.259	6837
911.374	6867
911.489	6776
911.604	6802
911.718	6658
911.833	6749
911.947	6681
912.062	6582
912.176	6707
912.291	6715
912.405	6623
912.519	6837
912.633	6863
912.748	6745
912.862	6715
912.976	6635
913.09	6544
913.204	6692
913.318	6635
913.431	6707
913.545	6585
913.659	6646
913.772	6642
913.886	6593
914	6547
914.113	6597
914.226	6601
914.34	6570
914.453	6464
914.566	6578
914.68	6601
914.793	6471
914.906	6422
915.019	6388
915.132	6353
915.245	6418
915.358	6433
915.47	6456
915.583	6479
915.696	6437
915.809	6521
915.921	6559
916.034	6460
916.146	6353
916.259	6380
916.371	6517
916.483	6448
916.595	6369
916.708	6414
916.82	6395
916.932	6353
917.044	6395
917.156	6372
917.268	6262
917.38	6350
917.491	6304
917.603	6327
917.715	6403
917.826	6433
917.938	6258
918.049	6254
918.161	6346
918.272	6414
918.384	6403
918.495	6327
918.606	6251
918.717	6213
918.828	6292
918.939	6209
919.05	6247
919.161	6251
919.272	6121
919.383	6144
919.494	6262
919.604	6388
919.715	6331
919.826	6239
919.936	6239
920.047	6319
920.157	6239
920.267	6471
920.378	6315
920.488	6277
920.598	6532
920.708	6555
920.818	6494
920.928	6452
921.038	6601
921.148	6578
921.258	6308
921.368	6262
921.477	6159
921.587	6087
921.697	6121
921.806	6144
921.916	6007
922.025	5946
922.134	5923
922.244	5897
922.353	5920
922.462	5851
922.571	5813
922.68	5699
922.789	5668
922.898	5668
923.007	5642
923.116	5676
923.224	5668
923.333	5627
923.442	5554
923.55	5589
923.659	5528
923.767	5562
923.876	5585
923.984	5592
924.092	5478
924.201	5535
924.309	5589
924.417	5554
924.525	5486
924.633	5493
924.741	6285
924.849	5372
924.956	5463
925.064	5357
925.172	5318
925.279	5299
925.387	5387
925.494	5292
925.602	5448
925.709	5353
925.816	5261
925.924	5299
926.031	5395
926.138	5307
926.245	5311
926.352	5208
926.459	5296
926.566	5292
926.673	5193
926.779	5124
926.886	5105
926.993	5056
927.099	4991
927.206	4972
927.312	4896
927.419	5025
927.525	4999
927.631	5003
927.737	4877
927.843	4854
927.95	4755
928.056	4786
928.162	4782
928.267	4812
928.373	5277
928.479	4828
928.585	4656
928.69	4740
928.796	4755
928.901	4664
929.007	4577
929.112	4649
929.218	4672
929.323	4569
929.428	4565
929.533	4664
929.638	4516
929.743	4485
929.848	4573
929.953	4523
930.058	4417
930.163	4303
930.267	4341
930.372	4470
930.477	4303
930.581	4440
930.685	4360
930.79	4242
930.894	4230
930.998	4242
931.103	4352
931.207	4143
931.311	4120
931.415	4044
931.519	3922
931.623	3945
