Data from glass_V78500241_782.txt Node
Date: Wed Sep 01 19:19:55 CST 2021
User: usil
Spectrometer: V785-0024
Trigger mode: 0
Integration Time (sec): 4.000000E-1
Scans to average: 1
Nonlinearity correction enabled: false
Boxcar width: 0
Storing dark spectrum: false
XAxis mode: Wavelengths
Number of Pixels in Spectrum: 1024
>>>>>Begin Spectral Data<<<<<
801.071	3774
801.214	3732
801.356	3751
801.499	3778
801.641	3781
801.783	3804
801.926	3911
802.068	3781
802.211	3865
802.353	3876
802.496	3808
802.638	3884
802.78	3911
802.923	3896
803.065	3865
803.208	3892
803.35	3899
803.492	3949
803.635	3964
803.777	3816
803.919	3861
804.061	4139
804.204	3930
804.346	3937
804.488	3953
804.63	4032
804.773	3964
804.915	4010
805.057	4200
805.199	4093
805.341	4105
805.483	4135
805.626	4101
805.768	4128
805.91	4211
806.052	4223
806.194	4215
806.336	4371
806.478	4219
806.62	4196
806.762	4207
806.904	4261
807.046	4341
807.188	4188
807.33	4177
807.472	4253
807.614	4185
807.756	4265
807.898	4215
808.04	4204
808.182	4265
808.324	4318
808.465	4413
808.607	4516
808.749	4432
808.891	4459
809.033	4466
809.174	4405
809.316	4253
809.458	4211
809.6	4177
809.741	4135
809.883	4105
810.025	4215
810.166	4223
810.308	4173
810.45	4234
810.591	4280
810.733	4337
810.875	4519
811.016	4828
811.158	5102
811.299	5296
811.441	5307
811.582	5086
811.724	4694
811.865	4440
812.007	4470
812.148	4451
812.29	4424
812.431	4455
812.573	4405
812.714	4363
812.855	4432
812.997	4413
813.138	4489
813.279	4478
813.421	4447
813.562	4363
813.703	4356
813.845	4325
813.986	4257
814.127	4215
814.268	4306
814.41	4280
814.551	4265
814.692	4360
814.833	4272
814.974	4310
815.115	4333
815.256	4284
815.397	4246
815.539	4261
815.68	4211
815.821	4234
815.962	4299
816.103	4265
816.244	4287
816.385	4272
816.526	4303
816.666	4223
816.807	4116
816.948	4158
817.089	4169
817.23	4090
817.371	4082
817.512	4116
817.653	4067
817.793	4006
817.934	4040
818.075	4116
818.216	4059
818.356	4150
818.497	3998
818.638	3907
818.778	3937
818.919	3896
819.06	3865
819.2	3922
819.341	3846
819.481	3884
819.622	3934
819.762	3987
819.903	3930
820.043	3876
820.184	3812
820.324	3823
820.465	3869
820.605	3861
820.746	3854
820.886	3831
821.026	3975
821.167	3945
821.307	3998
821.447	4002
821.588	3949
821.728	3937
821.868	3937
822.008	3865
822.149	3899
822.289	3896
822.429	3812
822.569	3800
822.709	3808
822.849	3705
822.99	3743
823.13	3736
823.27	3816
823.41	3736
823.55	3766
823.69	3732
823.83	3755
823.97	3652
824.11	3633
824.25	3633
824.389	3690
824.529	3690
824.669	3682
824.809	3720
824.949	3770
825.089	3766
825.228	3705
825.368	3610
825.508	3587
825.648	3614
825.787	3603
825.927	3667
826.067	3656
826.206	3690
826.346	3838
826.485	3838
826.625	3831
826.765	3915
826.904	3865
827.044	3625
827.183	3519
827.323	3458
827.462	3511
827.601	3477
827.741	3454
827.88	3473
828.02	3386
828.159	3477
828.298	3500
828.437	3564
828.577	3519
828.716	3603
828.855	3511
828.994	3393
829.134	3389
829.273	3378
829.412	3336
829.551	3313
829.69	3370
829.829	3412
829.968	3542
830.107	3424
830.246	3473
830.385	3397
830.524	3329
830.663	3355
830.802	3256
830.941	3214
831.08	3203
831.219	3260
831.357	3253
831.496	3420
831.635	3260
831.774	3192
831.913	3199
832.051	3157
832.19	3150
832.329	3233
832.467	3180
832.606	3154
832.744	3184
832.883	3169
833.022	3226
833.16	3256
833.299	3306
833.437	3370
833.576	3325
833.714	3409
833.852	3450
833.991	3454
834.129	3473
834.267	3454
834.406	3424
834.544	3450
834.682	3485
834.821	3412
834.959	3591
835.097	3397
835.235	3542
835.373	3530
835.511	3507
835.65	3466
835.788	3469
835.926	3409
836.064	3344
836.202	3428
836.34	3557
836.478	3603
836.615	3553
836.753	3580
836.891	3667
837.029	3629
837.167	3587
837.305	3568
837.443	3580
837.58	3557
837.718	3625
837.856	3584
837.993	3568
838.131	3595
838.269	3595
838.406	3591
838.544	3572
838.681	3488
838.819	3473
838.956	3420
839.094	3401
839.231	3443
839.369	3553
839.506	3732
839.643	3625
839.781	3530
839.918	3492
840.055	3530
840.193	3572
840.33	3515
840.467	3580
840.604	3629
840.742	3857
840.879	3595
841.016	3564
841.153	3580
841.29	3766
841.427	3720
841.564	3743
841.701	3759
841.838	3751
841.975	3648
842.112	3755
842.249	3644
842.385	3641
842.522	3823
842.659	3724
842.796	3690
842.933	3713
843.069	3717
843.206	3701
843.343	3831
843.479	3778
843.616	3854
843.752	3671
843.889	3663
844.025	3857
844.162	3743
844.298	3846
844.435	3793
844.571	3812
844.708	3915
844.844	3972
844.98	4044
845.117	4044
845.253	3994
845.389	3907
845.525	3991
845.661	4021
845.798	3892
845.934	3964
846.07	3960
846.206	4055
846.342	4124
846.478	4082
846.614	3987
846.75	3956
846.886	3930
847.022	4036
847.158	4017
847.294	4013
847.429	4002
847.565	3983
847.701	4253
847.837	3884
847.972	3903
848.108	3979
848.244	3964
848.379	3880
848.515	3854
848.65	3846
848.786	3857
848.921	3846
849.057	3918
849.192	3953
849.328	3888
849.463	3937
849.598	3896
849.734	3884
849.869	3831
850.004	3797
850.14	3842
850.275	3793
850.41	3709
850.545	3728
850.68	3781
850.815	3808
850.95	3812
851.085	3918
851.22	3926
851.355	3865
851.49	3816
851.625	3816
851.76	3793
851.895	3751
852.03	3785
852.165	3766
852.299	3850
852.434	3926
852.569	3865
852.703	3884
852.838	3991
852.973	3983
853.107	3991
853.242	3899
853.376	3876
853.511	3766
853.645	3797
853.78	3960
853.914	3918
854.048	3918
854.183	3911
854.317	3941
854.451	4078
854.585	3991
854.72	3949
854.854	4044
854.988	3941
855.122	3987
855.256	3941
855.39	4029
855.524	4101
855.658	4150
855.792	4112
855.926	4143
856.06	4177
856.194	4207
856.327	4166
856.461	4154
856.595	4188
856.729	4173
856.862	4299
856.996	4230
857.13	4333
857.263	4360
857.397	4375
857.53	4306
857.664	4356
857.797	4375
857.931	4409
858.064	4405
858.197	4451
858.331	4390
858.464	4367
858.597	4398
858.731	4478
858.864	4417
858.997	4470
859.13	4493
859.263	4535
859.396	4558
859.529	4512
859.662	4577
859.795	4516
859.928	4584
860.061	4740
860.194	4759
860.327	4653
860.46	4668
860.592	4710
860.725	4767
860.858	4786
860.99	4736
861.123	4626
861.256	4694
861.388	4805
861.521	5493
861.653	4725
861.786	4683
861.918	4771
862.05	4816
862.183	4847
862.315	4908
862.447	4968
862.58	4892
862.712	4843
862.844	4797
862.976	4839
863.108	4862
863.24	5254
863.372	4854
863.504	4877
863.636	4927
863.768	4965
863.9	4976
864.032	5006
864.164	4953
864.296	5052
864.428	5052
864.559	5075
864.691	5159
864.823	5147
864.954	5109
865.086	5170
865.217	5090
865.349	5098
865.48	5147
865.612	5223
865.743	5288
865.875	5246
866.006	5212
866.137	5296
866.269	5208
866.4	5273
866.531	5303
866.662	5250
866.793	5273
866.924	5357
867.055	5345
867.186	5307
867.317	5372
867.448	5349
867.579	5391
867.71	5410
867.841	5383
867.972	5486
868.103	5501
868.233	5486
868.364	5551
868.495	5554
868.625	5699
868.756	5798
868.886	5688
869.017	5695
869.147	5817
869.278	5916
869.408	5790
869.539	5821
869.669	5893
869.799	5904
869.929	5935
870.06	6030
870.19	6216
870.32	6220
870.45	6213
870.58	6380
870.71	6426
870.84	6433
870.97	6422
871.1	6525
871.23	6627
871.36	6772
871.489	6700
871.619	6764
871.749	6783
871.879	6875
872.008	7031
872.138	6993
872.267	7015
872.397	7019
872.526	6966
872.656	7145
872.785	7202
872.915	7392
873.044	7529
873.173	7601
873.303	7647
873.432	7742
873.561	7940
873.69	7944
873.819	8012
873.948	8164
874.077	8229
874.206	8305
874.335	8438
874.464	8678
874.593	8849
874.722	8956
874.851	9112
874.979	9294
875.108	9412
875.237	9374
875.365	9424
875.494	9644
875.623	9857
875.751	9884
875.88	9983
876.008	10135
876.136	10306
876.265	10504
876.393	10698
876.521	10687
876.65	10744
876.778	10911
876.906	10957
877.034	10968
877.162	11010
877.29	11220
877.418	11334
877.546	11353
877.674	11448
877.802	11486
877.93	11539
878.058	11509
878.185	11585
878.313	11615
878.441	11600
878.568	11695
878.696	11809
878.824	11828
878.951	11916
879.079	12064
879.206	12175
879.333	12060
879.461	11988
879.588	12098
879.715	12136
879.842	12148
879.97	12110
880.097	11889
880.224	11897
880.351	11855
880.478	11927
880.605	11893
880.732	11889
880.859	12038
880.986	11870
881.112	11863
881.239	11688
881.366	11726
881.493	11535
881.619	11554
881.746	11661
881.872	11524
881.999	11570
882.125	11512
882.252	11619
882.378	11524
882.505	11509
882.631	11425
882.757	11322
882.883	11356
883.01	11326
883.136	11174
883.262	11162
883.388	11166
883.514	11292
883.64	11178
883.766	11124
883.892	11064
884.018	10980
884.143	11075
884.269	11151
884.395	10790
884.52	10858
884.646	10809
884.772	10714
884.897	10637
885.023	10675
885.148	10736
885.274	10892
885.399	10710
885.524	10656
885.65	10607
885.775	10721
885.9	10531
886.025	10656
886.15	10542
886.275	10481
886.4	10417
886.525	10538
886.65	10344
886.775	10398
886.9	10394
887.025	10504
887.149	10295
887.274	10230
887.399	10223
887.523	10230
887.648	10105
887.773	10086
887.897	10265
888.021	10242
888.146	10120
888.27	10215
888.395	10257
888.519	10185
888.643	10173
888.767	10188
888.891	10078
889.015	10002
889.139	10093
889.263	10013
889.387	10074
889.511	10169
889.635	10173
889.759	9922
889.883	10002
890.006	9983
890.13	10067
890.254	9968
890.377	9945
890.501	9911
890.624	9880
890.748	9915
890.871	9762
890.995	9736
891.118	9736
891.241	9766
891.364	9705
891.488	9819
891.611	9667
891.734	9755
891.857	9652
891.98	9717
892.103	9766
892.226	9736
892.349	9720
892.471	9523
892.594	9523
892.717	9625
892.839	9576
892.962	9663
893.085	9595
893.207	9622
893.33	9576
893.452	9523
893.575	9584
893.697	9439
893.819	9629
893.941	9644
894.064	9584
894.186	9530
894.308	9424
894.43	9519
894.552	9599
894.674	9469
894.796	9340
894.918	9412
895.04	9329
895.161	9374
895.283	9344
895.405	9298
895.526	9294
895.648	9256
895.769	9260
895.891	9313
896.012	9313
896.134	9203
896.255	9195
896.376	9165
896.498	9112
896.619	9123
896.74	9070
896.861	9104
896.982	9332
897.103	9363
897.224	9135
897.345	9081
897.466	9020
897.587	9055
897.708	9150
897.828	9123
897.949	9001
898.07	8941
898.19	8914
898.311	9070
898.431	8902
898.552	8982
898.672	8967
898.792	8956
898.913	8948
899.033	8807
899.153	8826
899.273	8655
899.393	8766
899.513	8762
899.633	8735
899.753	8746
899.873	8663
899.993	8735
900.113	8769
900.232	8712
900.352	8644
900.472	8629
900.591	8640
900.711	8594
900.83	8560
900.95	8667
901.069	8617
901.189	8537
901.308	8450
901.427	8374
901.546	8454
901.665	8522
901.784	8511
901.904	8415
902.023	8301
902.141	8256
902.26	8210
902.379	8374
902.498	8225
902.617	8248
902.735	8294
902.854	8309
902.973	8229
903.091	8195
903.21	8172
903.328	8195
903.446	8123
903.565	8043
903.683	8046
903.801	8001
903.919	8081
904.038	8180
904.156	8084
904.274	8138
904.392	8005
904.51	8050
904.627	8050
904.745	8134
904.863	8123
904.981	7974
905.098	7814
905.216	7906
905.334	7989
905.451	7879
905.569	7864
905.686	7947
905.803	7890
905.921	7769
906.038	7826
906.155	7738
906.272	7731
906.389	7742
906.506	7597
906.623	7643
906.74	7548
906.857	7590
906.974	7590
907.091	7723
907.208	7776
907.324	7647
907.441	7571
907.557	7502
907.674	7483
907.79	7392
907.907	7396
908.023	7403
908.139	7426
908.256	7403
908.372	7377
908.488	7415
908.604	7270
908.72	7320
908.836	7221
908.952	7198
909.068	7263
909.184	7327
909.3	7183
909.415	7240
909.531	7278
909.647	7080
909.762	7061
909.878	7091
909.993	7168
910.108	7103
910.224	7145
910.339	7091
910.454	7061
910.57	7046
910.685	6924
910.8	7221
910.915	7160
911.03	7008
911.145	6973
911.259	6897
911.374	6951
911.489	6852
911.604	6806
911.718	6749
911.833	6734
911.947	6696
912.062	6646
912.176	6726
912.291	6711
912.405	6726
912.519	6833
912.633	6833
912.748	6764
912.862	6722
912.976	6646
913.09	6517
913.204	6616
913.318	6582
913.431	6715
913.545	6684
913.659	6776
913.772	6681
913.886	6574
914	6570
914.113	6627
914.226	6688
914.34	6635
914.453	6517
914.566	6650
914.68	6532
914.793	6566
914.906	6433
915.019	6403
915.132	6388
915.245	6376
915.358	6479
915.47	6479
915.583	6437
915.696	6460
915.809	6513
915.921	6574
916.034	6445
916.146	6490
916.259	6372
916.371	6483
916.483	6464
916.595	6380
916.708	6376
916.82	6391
916.932	6441
917.044	6369
917.156	6399
917.268	6315
917.38	6376
917.491	6327
917.603	6369
917.715	6410
917.826	6391
917.938	6399
918.049	6243
918.161	6372
918.272	6391
918.384	6498
918.495	6414
918.606	6289
918.717	6254
918.828	6262
918.939	6247
919.05	6277
919.161	6247
919.272	6098
919.383	6110
919.494	6365
919.604	6407
919.715	6319
919.826	6277
919.936	6262
920.047	6338
920.157	6247
920.267	6418
920.378	6334
920.488	6273
920.598	6483
920.708	6551
920.818	6471
920.928	6445
921.038	6623
921.148	6578
921.258	6289
921.368	6331
921.477	6194
921.587	6171
921.697	6106
921.806	6171
921.916	6079
922.025	5939
922.134	5950
922.244	5923
922.353	5988
922.462	5904
922.571	5802
922.68	5771
922.789	5680
922.898	5703
923.007	5688
923.116	5726
923.224	5771
923.333	5688
923.442	5657
923.55	5596
923.659	5585
923.767	5573
923.876	5566
923.984	5581
924.092	5543
924.201	5577
924.309	5554
924.417	5539
924.525	5505
924.633	5501
924.741	6140
924.849	5326
924.956	5463
925.064	5360
925.172	5345
925.279	5318
925.387	5334
925.494	5372
925.602	5436
925.709	5421
925.816	5303
925.924	5277
926.031	5345
926.138	5330
926.245	5341
926.352	5216
926.459	5315
926.566	5334
926.673	5216
926.779	5151
926.886	5143
926.993	5010
927.099	5010
927.206	4938
927.312	4968
927.419	5064
927.525	5029
927.631	4968
927.737	4881
927.843	4896
927.95	4778
928.056	4847
928.162	4831
928.267	4850
928.373	5376
928.479	4870
928.585	4733
928.69	4805
928.796	4793
928.901	4702
929.007	4634
929.112	4660
929.218	4664
929.323	4607
929.428	4546
929.533	4637
929.638	4531
929.743	4573
929.848	4588
929.953	4478
930.058	4489
930.163	4325
930.267	4390
930.372	4459
930.477	4337
930.581	4474
930.685	4379
930.79	4223
930.894	4268
930.998	4238
931.103	4352
931.207	4150
931.311	4105
931.415	4044
931.519	3930
931.623	3975
