Data from glass_V78500241_2468.txt Node
Date: Wed Sep 01 19:31:36 CST 2021
User: usil
Spectrometer: V785-0024
Trigger mode: 0
Integration Time (sec): 4.000000E-1
Scans to average: 1
Nonlinearity correction enabled: false
Boxcar width: 0
Storing dark spectrum: false
XAxis mode: Wavelengths
Number of Pixels in Spectrum: 1024
>>>>>Begin Spectral Data<<<<<
801.071	3698
801.214	3694
801.356	3705
801.499	3751
801.641	3705
801.783	3800
801.926	3888
802.068	3785
802.211	3842
802.353	3854
802.496	3812
802.638	3896
802.78	3899
802.923	3926
803.065	3884
803.208	3857
803.35	3846
803.492	3896
803.635	3907
803.777	3816
803.919	3880
804.061	4139
804.204	3972
804.346	3998
804.488	3918
804.63	4086
804.773	4002
804.915	4032
805.057	4143
805.199	4051
805.341	4063
805.483	4173
805.626	4128
805.768	4120
805.91	4188
806.052	4185
806.194	4200
806.336	4337
806.478	4238
806.62	4120
806.762	4158
806.904	4227
807.046	4337
807.188	4196
807.33	4181
807.472	4223
807.614	4207
807.756	4234
807.898	4223
808.04	4200
808.182	4265
808.324	4276
808.465	4390
808.607	4478
808.749	4428
808.891	4497
809.033	4516
809.174	4363
809.316	4253
809.458	4215
809.6	4128
809.741	4116
809.883	4112
810.025	4166
810.166	4204
810.308	4227
810.45	4242
810.591	4211
810.733	4280
810.875	4531
811.016	4786
811.158	5124
811.299	5254
811.441	5193
811.582	5060
811.724	4694
811.865	4500
812.007	4440
812.148	4413
812.29	4405
812.431	4398
812.573	4390
812.714	4363
812.855	4421
812.997	4398
813.138	4428
813.279	4424
813.421	4371
813.562	4341
813.703	4341
813.845	4291
813.986	4253
814.127	4219
814.268	4234
814.41	4310
814.551	4249
814.692	4314
814.833	4280
814.974	4310
815.115	4322
815.256	4207
815.397	4219
815.539	4215
815.68	4162
815.821	4257
815.962	4291
816.103	4249
816.244	4257
816.385	4234
816.526	4295
816.666	4211
816.807	4086
816.948	4173
817.089	4181
817.23	4173
817.371	4017
817.512	4044
817.653	3998
817.793	4055
817.934	4036
818.075	4078
818.216	4101
818.356	4067
818.497	4010
818.638	3953
818.778	3896
818.919	3865
819.06	3819
819.2	3911
819.341	3865
819.481	3827
819.622	3930
819.762	3998
819.903	3926
820.043	3842
820.184	3819
820.324	3850
820.465	3835
820.605	3869
820.746	3884
820.886	3819
821.026	3911
821.167	3949
821.307	3964
821.447	4006
821.588	3918
821.728	3945
821.868	3941
822.008	3857
822.149	3934
822.289	3934
822.429	3797
822.569	3759
822.709	3816
822.849	3675
822.99	3667
823.13	3732
823.27	3751
823.41	3717
823.55	3762
823.69	3698
823.83	3698
823.97	3701
824.11	3625
824.25	3644
824.389	3622
824.529	3652
824.669	3637
824.809	3709
824.949	3709
825.089	3713
825.228	3675
825.368	3576
825.508	3545
825.648	3580
825.787	3584
825.927	3599
826.067	3610
826.206	3679
826.346	3797
826.485	3846
826.625	3861
826.765	3907
826.904	3808
827.044	3618
827.183	3564
827.323	3405
827.462	3542
827.601	3420
827.741	3424
827.88	3416
828.02	3382
828.159	3469
828.298	3481
828.437	3515
828.577	3469
828.716	3561
828.855	3488
828.994	3405
829.134	3405
829.273	3336
829.412	3367
829.551	3332
829.69	3367
829.829	3420
829.968	3519
830.107	3473
830.246	3447
830.385	3386
830.524	3310
830.663	3291
830.802	3294
830.941	3199
831.08	3192
831.219	3253
831.357	3253
831.496	3389
831.635	3241
831.774	3180
831.913	3188
832.051	3123
832.19	3142
832.329	3203
832.467	3112
832.606	3131
832.744	3180
832.883	3138
833.022	3207
833.16	3275
833.299	3287
833.437	3351
833.576	3359
833.714	3370
833.852	3412
833.991	3409
834.129	3420
834.267	3397
834.406	3386
834.544	3401
834.682	3424
834.821	3397
834.959	3557
835.097	3428
835.235	3492
835.373	3485
835.511	3488
835.65	3447
835.788	3488
835.926	3321
836.064	3363
836.202	3359
836.34	3530
836.478	3633
836.615	3530
836.753	3614
836.891	3625
837.029	3587
837.167	3603
837.305	3553
837.443	3519
837.58	3496
837.718	3599
837.856	3553
837.993	3500
838.131	3599
838.269	3591
838.406	3580
838.544	3568
838.681	3454
838.819	3496
838.956	3420
839.094	3397
839.231	3435
839.369	3485
839.506	3724
839.643	3618
839.781	3511
839.918	3443
840.055	3530
840.193	3538
840.33	3507
840.467	3511
840.604	3591
840.742	3797
840.879	3542
841.016	3576
841.153	3595
841.29	3762
841.427	3720
841.564	3694
841.701	3705
841.838	3675
841.975	3675
842.112	3717
842.249	3629
842.385	3603
842.522	3831
842.659	3690
842.796	3660
842.933	3694
843.069	3705
843.206	3709
843.343	3850
843.479	3774
843.616	3781
843.752	3629
843.889	3656
844.025	3838
844.162	3660
844.298	3823
844.435	3759
844.571	3755
844.708	3918
844.844	3960
844.98	4002
845.117	3987
845.253	3937
845.389	3892
845.525	3945
845.661	3934
845.798	3907
845.934	4017
846.07	3907
846.206	4109
846.342	4101
846.478	4048
846.614	3937
846.75	3922
846.886	3888
847.022	4040
847.158	3941
847.294	3975
847.429	3987
847.565	3983
847.701	4204
847.837	3869
847.972	3903
848.108	3964
848.244	3987
848.379	3831
848.515	3816
848.65	3819
848.786	3827
848.921	3823
849.057	3930
849.192	3945
849.328	3892
849.463	3899
849.598	3850
849.734	3846
849.869	3827
850.004	3759
850.14	3835
850.275	3759
850.41	3690
850.545	3781
850.68	3770
850.815	3800
850.95	3804
851.085	3915
851.22	3865
851.355	3816
851.49	3766
851.625	3766
851.76	3774
851.895	3705
852.03	3747
852.165	3797
852.299	3838
852.434	3903
852.569	3854
852.703	3842
852.838	3930
852.973	3998
853.107	3991
853.242	3892
853.376	3781
853.511	3762
853.645	3869
853.78	3964
853.914	3907
854.048	3903
854.183	3880
854.317	3937
854.451	4055
854.585	3960
854.72	3876
854.854	4017
854.988	3926
855.122	3991
855.256	3903
855.39	3994
855.524	4086
855.658	4051
855.792	4090
855.926	4147
856.06	4158
856.194	4173
856.327	4124
856.461	4143
856.595	4116
856.729	4181
856.862	4261
856.996	4215
857.13	4265
857.263	4284
857.397	4360
857.53	4261
857.664	4280
857.797	4360
857.931	4424
858.064	4386
858.197	4462
858.331	4409
858.464	4409
858.597	4356
858.731	4443
858.864	4398
858.997	4409
859.13	4500
859.263	4580
859.396	4561
859.529	4504
859.662	4554
859.795	4478
859.928	4592
860.061	4656
860.194	4748
860.327	4615
860.46	4679
860.592	4752
860.725	4752
860.858	4748
860.99	4672
861.123	4637
861.256	4687
861.388	4710
861.521	5505
861.653	4774
861.786	4687
861.918	4771
862.05	4774
862.183	4828
862.315	4877
862.447	4866
862.58	4873
862.712	4774
862.844	4763
862.976	4854
863.108	4881
863.24	5212
863.372	4839
863.504	4904
863.636	4885
863.768	4938
863.9	4965
864.032	4995
864.164	4984
864.296	5048
864.428	5071
864.559	5113
864.691	5102
864.823	5124
864.954	5067
865.086	5098
865.217	5083
865.349	5079
865.48	5124
865.612	5170
865.743	5280
865.875	5185
866.006	5193
866.137	5189
866.269	5231
866.4	5235
866.531	5216
866.662	5280
866.793	5201
866.924	5246
867.055	5364
867.186	5311
867.317	5353
867.448	5261
867.579	5337
867.71	5398
867.841	5387
867.972	5436
868.103	5478
868.233	5463
868.364	5532
868.495	5547
868.625	5646
868.756	5821
868.886	5615
869.017	5737
869.147	5821
869.278	5844
869.408	5802
869.539	5771
869.669	5859
869.799	5885
869.929	5946
870.06	6015
870.19	6163
870.32	6220
870.45	6239
870.58	6395
870.71	6422
870.84	6448
870.97	6384
871.1	6445
871.23	6654
871.36	6726
871.489	6662
871.619	6730
871.749	6734
871.879	6852
872.008	6951
872.138	6954
872.267	6958
872.397	6958
872.526	7008
872.656	7076
872.785	7247
872.915	7274
873.044	7510
873.173	7559
873.303	7632
873.432	7734
873.561	7860
873.69	7936
873.819	8039
873.948	8088
874.077	8206
874.206	8301
874.335	8423
874.464	8629
874.593	8872
874.722	8906
874.851	9173
874.979	9260
875.108	9306
875.237	9412
875.365	9523
875.494	9637
875.623	9857
875.751	9770
875.88	9945
876.008	10082
876.136	10291
876.265	10558
876.393	10691
876.521	10698
876.65	10812
876.778	10949
876.906	10854
877.034	10934
877.162	11045
877.29	11201
877.418	11261
877.546	11345
877.674	11486
877.802	11501
877.93	11558
878.058	11558
878.185	11520
878.313	11672
878.441	11771
878.568	11627
878.696	11779
878.824	11824
878.951	11973
879.079	12038
879.206	12068
879.333	11988
879.461	11999
879.588	12022
879.715	12079
879.842	12155
879.97	12091
880.097	11912
880.224	11939
880.351	11927
880.478	11836
880.605	11745
880.732	11802
880.859	11923
880.986	11779
881.112	11775
881.239	11760
881.366	11642
881.493	11665
881.619	11532
881.746	11516
881.872	11471
881.999	11501
882.125	11444
882.252	11551
882.378	11478
882.505	11585
882.631	11391
882.757	11372
882.883	11261
883.01	11318
883.136	11128
883.262	11117
883.388	11128
883.514	11170
883.64	11098
883.766	11136
883.892	11006
884.018	10953
884.143	11033
884.269	11052
884.395	10839
884.52	10801
884.646	10691
884.772	10710
884.897	10687
885.023	10660
885.148	10721
885.274	10736
885.399	10653
885.524	10611
885.65	10622
885.775	10538
885.9	10485
886.025	10554
886.15	10504
886.275	10421
886.4	10535
886.525	10367
886.65	10386
886.775	10299
886.9	10428
887.025	10508
887.149	10299
887.274	10188
887.399	10139
887.523	10211
887.648	10131
887.773	10105
887.897	10223
888.021	10284
888.146	10105
888.27	10192
888.395	10196
888.519	10169
888.643	10192
888.767	10211
888.891	10059
889.015	9998
889.139	10017
889.263	10002
889.387	10078
889.511	9994
889.635	10013
889.759	9953
889.883	9895
890.006	9975
890.13	10086
890.254	9911
890.377	9899
890.501	9922
890.624	9869
890.748	9797
890.871	9778
890.995	9728
891.118	9698
891.241	9720
891.364	9778
891.488	9827
891.611	9686
891.734	9720
891.857	9778
891.98	9762
892.103	9800
892.226	9709
892.349	9511
892.471	9545
892.594	9652
892.717	9595
892.839	9584
892.962	9599
893.085	9629
893.207	9538
893.33	9469
893.452	9530
893.575	9633
893.697	9454
893.819	9572
893.941	9686
894.064	9637
894.186	9450
894.308	9397
894.43	9462
894.552	9614
894.674	9481
894.796	9374
894.918	9351
895.04	9348
895.161	9428
895.283	9351
895.405	9138
895.526	9294
895.648	9256
895.769	9207
895.891	9245
896.012	9298
896.134	9241
896.255	9188
896.376	9085
896.498	9157
896.619	9135
896.74	9085
896.861	9135
896.982	9332
897.103	9298
897.224	9180
897.345	9055
897.466	8963
897.587	8941
897.708	9093
897.828	8990
897.949	8941
898.07	8834
898.19	8891
898.311	9020
898.431	8910
898.552	8944
898.672	8982
898.792	8883
898.913	8906
899.033	8777
899.153	8678
899.273	8640
899.393	8716
899.513	8667
899.633	8648
899.753	8735
899.873	8693
899.993	8754
900.113	8659
900.232	8670
900.352	8689
900.472	8613
900.591	8579
900.711	8560
900.83	8522
900.95	8754
901.069	8720
901.189	8511
901.308	8377
901.427	8396
901.546	8480
901.665	8526
901.784	8423
901.904	8393
902.023	8279
902.141	8309
902.26	8176
902.379	8282
902.498	8191
902.617	8187
902.735	8240
902.854	8336
902.973	8233
903.091	8088
903.21	8126
903.328	8123
903.446	8077
903.565	8107
903.683	8092
903.801	8020
903.919	8123
904.038	8111
904.156	8043
904.274	8126
904.392	8054
904.51	7989
904.627	7978
904.745	8069
904.863	8043
904.981	7936
905.098	7769
905.216	7852
905.334	7875
905.451	7921
905.569	7909
905.686	7925
905.803	7917
905.921	7750
906.038	7841
906.155	7807
906.272	7776
906.389	7666
906.506	7605
906.623	7620
906.74	7582
906.857	7552
906.974	7540
907.091	7632
907.208	7700
907.324	7643
907.441	7514
907.557	7415
907.674	7460
907.79	7419
907.907	7415
908.023	7396
908.139	7373
908.256	7381
908.372	7388
908.488	7297
908.604	7266
908.72	7270
908.836	7247
908.952	7266
909.068	7282
909.184	7358
909.3	7228
909.415	7293
909.531	7244
909.647	7110
909.762	7149
909.878	7057
909.993	7099
910.108	7050
910.224	7091
910.339	7133
910.454	7012
910.57	6996
910.685	6985
910.8	7122
910.915	7091
911.03	7046
911.145	6909
911.259	6840
911.374	6791
911.489	6825
911.604	6829
911.718	6719
911.833	6776
911.947	6665
912.062	6566
912.176	6669
912.291	6650
912.405	6669
912.519	6776
912.633	6863
912.748	6692
912.862	6768
912.976	6627
913.09	6509
913.204	6616
913.318	6540
913.431	6696
913.545	6703
913.659	6722
913.772	6662
913.886	6528
914	6471
914.113	6623
914.226	6639
914.34	6597
914.453	6486
914.566	6608
914.68	6525
914.793	6502
914.906	6418
915.019	6376
915.132	6372
915.245	6433
915.358	6433
915.47	6460
915.583	6445
915.696	6422
915.809	6479
915.921	6494
916.034	6388
916.146	6399
916.259	6350
916.371	6452
916.483	6471
916.595	6365
916.708	6445
916.82	6361
916.932	6361
917.044	6323
917.156	6403
917.268	6304
917.38	6395
917.491	6277
917.603	6346
917.715	6319
917.826	6407
917.938	6331
918.049	6228
918.161	6304
918.272	6414
918.384	6395
918.495	6311
918.606	6171
918.717	6186
918.828	6228
918.939	6258
919.05	6194
919.161	6228
919.272	6114
919.383	6140
919.494	6277
919.604	6346
919.715	6331
919.826	6171
919.936	6251
920.047	6372
920.157	6224
920.267	6467
920.378	6315
920.488	6266
920.598	6441
920.708	6582
920.818	6399
920.928	6479
921.038	6578
921.148	6551
921.258	6357
921.368	6323
921.477	6213
921.587	6209
921.697	6095
921.806	6186
921.916	6076
922.025	5950
922.134	5889
922.244	5840
922.353	5935
922.462	5882
922.571	5767
922.68	5672
922.789	5718
922.898	5726
923.007	5634
923.116	5699
923.224	5668
923.333	5680
923.442	5573
923.55	5566
923.659	5592
923.767	5634
923.876	5551
923.984	5642
924.092	5524
924.201	5497
924.309	5570
924.417	5562
924.525	5474
924.633	5505
924.741	6114
924.849	5383
924.956	5490
925.064	5376
925.172	5357
925.279	5322
925.387	5345
925.494	5341
925.602	5429
925.709	5368
925.816	5269
925.924	5307
926.031	5364
926.138	5284
926.245	5280
926.352	5197
926.459	5292
926.566	5284
926.673	5197
926.779	5143
926.886	5105
926.993	5033
927.099	4957
927.206	4987
927.312	4927
927.419	4995
927.525	4961
927.631	5022
927.737	4892
927.843	4839
927.95	4733
928.056	4801
928.162	4778
928.267	4820
928.373	5242
928.479	4805
928.585	4672
928.69	4782
928.796	4755
928.901	4706
929.007	4565
929.112	4630
929.218	4622
929.323	4573
929.428	4531
929.533	4653
929.638	4546
929.743	4516
929.848	4527
929.953	4489
930.058	4440
930.163	4333
930.267	4325
930.372	4375
930.477	4299
930.581	4417
930.685	4333
930.79	4211
930.894	4280
930.998	4261
931.103	4390
931.207	4074
931.311	4086
931.415	4002
931.519	3911
931.623	3987
