Data from glass_V78500241_1492.txt Node
Date: Wed Sep 01 19:24:50 CST 2021
User: usil
Spectrometer: V785-0024
Trigger mode: 0
Integration Time (sec): 4.000000E-1
Scans to average: 1
Nonlinearity correction enabled: false
Boxcar width: 0
Storing dark spectrum: false
XAxis mode: Wavelengths
Number of Pixels in Spectrum: 1024
>>>>>Begin Spectral Data<<<<<
801.071	3732
801.214	3759
801.356	3717
801.499	3770
801.641	3747
801.783	3759
801.926	3865
802.068	3819
802.211	3812
802.353	3892
802.496	3842
802.638	3854
802.78	3911
802.923	3896
803.065	3899
803.208	3876
803.35	3918
803.492	3903
803.635	3915
803.777	3778
803.919	3915
804.061	4158
804.204	3956
804.346	3964
804.488	3918
804.63	4048
804.773	3991
804.915	3991
805.057	4150
805.199	4048
805.341	4124
805.483	4154
805.626	4154
805.768	4116
805.91	4207
806.052	4185
806.194	4234
806.336	4295
806.478	4192
806.62	4230
806.762	4188
806.904	4276
807.046	4318
807.188	4211
807.33	4185
807.472	4219
807.614	4200
807.756	4261
807.898	4207
808.04	4227
808.182	4306
808.324	4303
808.465	4329
808.607	4497
808.749	4485
808.891	4459
809.033	4504
809.174	4436
809.316	4257
809.458	4234
809.6	4116
809.741	4150
809.883	4158
810.025	4246
810.166	4253
810.308	4234
810.45	4196
810.591	4204
810.733	4287
810.875	4519
811.016	4824
811.158	5155
811.299	5280
811.441	5258
811.582	5033
811.724	4698
811.865	4470
812.007	4531
812.148	4417
812.29	4402
812.431	4413
812.573	4417
812.714	4352
812.855	4436
812.997	4417
813.138	4504
813.279	4409
813.421	4386
813.562	4409
813.703	4352
813.845	4314
813.986	4268
814.127	4207
814.268	4310
814.41	4265
814.551	4242
814.692	4367
814.833	4223
814.974	4280
815.115	4306
815.256	4272
815.397	4227
815.539	4268
815.68	4211
815.821	4234
815.962	4287
816.103	4299
816.244	4246
816.385	4215
816.526	4272
816.666	4196
816.807	4143
816.948	4173
817.089	4207
817.23	4105
817.371	4044
817.512	4048
817.653	4055
817.793	4025
817.934	4051
818.075	4101
818.216	4082
818.356	4093
818.497	3983
818.638	3915
818.778	3926
818.919	3880
819.06	3884
819.2	3937
819.341	3865
819.481	3865
819.622	3930
819.762	4048
819.903	3934
820.043	3827
820.184	3857
820.324	3816
820.465	3892
820.605	3865
820.746	3865
820.886	3827
821.026	3918
821.167	3926
821.307	3964
821.447	3964
821.588	3926
821.728	3956
821.868	3956
822.008	3903
822.149	3915
822.289	3899
822.429	3740
822.569	3789
822.709	3778
822.849	3717
822.99	3701
823.13	3740
823.27	3808
823.41	3717
823.55	3732
823.69	3747
823.83	3724
823.97	3675
824.11	3637
824.25	3641
824.389	3656
824.529	3667
824.669	3652
824.809	3713
824.949	3720
825.089	3717
825.228	3679
825.368	3629
825.508	3507
825.648	3557
825.787	3587
825.927	3580
826.067	3648
826.206	3652
826.346	3781
826.485	3804
826.625	3907
826.765	3922
826.904	3842
827.044	3660
827.183	3526
827.323	3458
827.462	3504
827.601	3431
827.741	3435
827.88	3443
828.02	3386
828.159	3428
828.298	3485
828.437	3526
828.577	3435
828.716	3606
828.855	3504
828.994	3393
829.134	3401
829.273	3393
829.412	3344
829.551	3412
829.69	3393
829.829	3439
829.968	3466
830.107	3458
830.246	3485
830.385	3382
830.524	3359
830.663	3306
830.802	3287
830.941	3195
831.08	3214
831.219	3283
831.357	3241
831.496	3405
831.635	3275
831.774	3207
831.913	3203
832.051	3127
832.19	3154
832.329	3180
832.467	3123
832.606	3116
832.744	3195
832.883	3180
833.022	3203
833.16	3294
833.299	3325
833.437	3321
833.576	3393
833.714	3409
833.852	3458
833.991	3450
834.129	3469
834.267	3424
834.406	3382
834.544	3435
834.682	3412
834.821	3397
834.959	3610
835.097	3412
835.235	3576
835.373	3500
835.511	3481
835.65	3466
835.788	3492
835.926	3389
836.064	3397
836.202	3424
836.34	3580
836.478	3576
836.615	3557
836.753	3576
836.891	3656
837.029	3587
837.167	3599
837.305	3534
837.443	3553
837.58	3553
837.718	3580
837.856	3580
837.993	3507
838.131	3610
838.269	3610
838.406	3576
838.544	3587
838.681	3469
838.819	3462
838.956	3355
839.094	3363
839.231	3458
839.369	3519
839.506	3740
839.643	3648
839.781	3492
839.918	3507
840.055	3500
840.193	3542
840.33	3557
840.467	3572
840.604	3576
840.742	3819
840.879	3580
841.016	3568
841.153	3584
841.29	3774
841.427	3728
841.564	3686
841.701	3740
841.838	3667
841.975	3701
842.112	3759
842.249	3633
842.385	3629
842.522	3846
842.659	3671
842.796	3667
842.933	3743
843.069	3705
843.206	3793
843.343	3766
843.479	3823
843.616	3812
843.752	3728
843.889	3675
844.025	3854
844.162	3671
844.298	3846
844.435	3804
844.571	3770
844.708	3876
844.844	3941
844.98	4032
845.117	4029
845.253	3903
845.389	3949
845.525	3964
845.661	3964
845.798	3880
845.934	4006
846.07	3918
846.206	4048
846.342	4105
846.478	4002
846.614	3979
846.75	3896
846.886	3934
847.022	4051
847.158	3987
847.294	4025
847.429	4013
847.565	3998
847.701	4200
847.837	3861
847.972	3880
848.108	3979
848.244	3964
848.379	3831
848.515	3808
848.65	3838
848.786	3812
848.921	3888
849.057	3979
849.192	3930
849.328	3918
849.463	3888
849.598	3854
849.734	3876
849.869	3835
850.004	3743
850.14	3831
850.275	3800
850.41	3720
850.545	3736
850.68	3766
850.815	3827
850.95	3804
851.085	3903
851.22	3823
851.355	3816
851.49	3808
851.625	3770
851.76	3831
851.895	3751
852.03	3747
852.165	3804
852.299	3869
852.434	3903
852.569	3842
852.703	3888
852.838	3918
852.973	4006
853.107	3991
853.242	3857
853.376	3850
853.511	3781
853.645	3842
853.78	3941
853.914	3926
854.048	3930
854.183	3911
854.317	3968
854.451	4025
854.585	3930
854.72	3964
854.854	4055
854.988	3968
855.122	4013
855.256	3899
855.39	4048
855.524	4086
855.658	4116
855.792	4116
855.926	4158
856.06	4181
856.194	4173
856.327	4135
856.461	4112
856.595	4169
856.729	4158
856.862	4284
856.996	4253
857.13	4314
857.263	4303
857.397	4356
857.53	4287
857.664	4348
857.797	4428
857.931	4409
858.064	4379
858.197	4443
858.331	4443
858.464	4409
858.597	4405
858.731	4447
858.864	4447
858.997	4504
859.13	4470
859.263	4512
859.396	4565
859.529	4504
859.662	4527
859.795	4485
859.928	4599
860.061	4675
860.194	4740
860.327	4668
860.46	4691
860.592	4755
860.725	4755
860.858	4828
860.99	4691
861.123	4717
861.256	4672
861.388	4812
861.521	5425
861.653	4698
861.786	4717
861.918	4740
862.05	4805
862.183	4839
862.315	4892
862.447	4946
862.58	4908
862.712	4774
862.844	4763
862.976	4847
863.108	4870
863.24	5235
863.372	4805
863.504	4919
863.636	4900
863.768	4965
863.9	4946
864.032	4938
864.164	4927
864.296	5010
864.428	5048
864.559	5147
864.691	5178
864.823	5113
864.954	5143
865.086	5143
865.217	5155
865.349	5132
865.48	5208
865.612	5128
865.743	5269
865.875	5212
866.006	5178
866.137	5235
866.269	5250
866.4	5292
866.531	5208
866.662	5235
866.793	5261
866.924	5288
867.055	5353
867.186	5360
867.317	5341
867.448	5326
867.579	5398
867.71	5337
867.841	5379
867.972	5467
868.103	5455
868.233	5493
868.364	5478
868.495	5554
868.625	5722
868.756	5779
868.886	5729
869.017	5722
869.147	5855
869.278	5836
869.408	5817
869.539	5836
869.669	5927
869.799	5912
869.929	5977
870.06	6030
870.19	6216
870.32	6186
870.45	6281
870.58	6388
870.71	6418
870.84	6433
870.97	6441
871.1	6460
871.23	6642
871.36	6620
871.489	6692
871.619	6734
871.749	6867
871.879	6867
872.008	6973
872.138	6993
872.267	7012
872.397	6913
872.526	7084
872.656	7110
872.785	7217
872.915	7350
873.044	7499
873.173	7563
873.303	7662
873.432	7799
873.561	7822
873.69	7898
873.819	8024
873.948	8180
874.077	8206
874.206	8355
874.335	8438
874.464	8678
874.593	8830
874.722	8963
874.851	9169
874.979	9325
875.108	9355
875.237	9443
875.365	9454
875.494	9698
875.623	9854
875.751	9854
875.88	9876
876.008	10112
876.136	10325
876.265	10508
876.393	10691
876.521	10759
876.65	10881
876.778	10812
876.906	11006
877.034	10987
877.162	11121
877.29	11155
877.418	11307
877.546	11368
877.674	11474
877.802	11467
877.93	11516
878.058	11539
878.185	11608
878.313	11649
878.441	11764
878.568	11604
878.696	11836
878.824	11870
878.951	12007
879.079	12064
879.206	12144
879.333	12011
879.461	11942
879.588	12060
879.715	12019
879.842	12201
879.97	12060
880.097	11790
880.224	11920
880.351	11912
880.478	11859
880.605	11851
880.732	11786
880.859	12019
880.986	11878
881.112	11851
881.239	11745
881.366	11672
881.493	11558
881.619	11566
881.746	11627
881.872	11497
881.999	11562
882.125	11486
882.252	11570
882.378	11524
882.505	11615
882.631	11383
882.757	11235
882.883	11311
883.01	11318
883.136	11189
883.262	11121
883.388	11033
883.514	11208
883.64	11178
883.766	11060
883.892	10908
884.018	10923
884.143	11056
884.269	11124
884.395	10812
884.52	10725
884.646	10831
884.772	10694
884.897	10599
885.023	10694
885.148	10740
885.274	10660
885.399	10736
885.524	10554
885.65	10599
885.775	10649
885.9	10489
886.025	10588
886.15	10546
886.275	10508
886.4	10386
886.525	10367
886.65	10363
886.775	10265
886.9	10519
887.025	10470
887.149	10394
887.274	10329
887.399	10200
887.523	10131
887.648	10097
887.773	10116
887.897	10268
888.021	10219
888.146	10188
888.27	10314
888.395	10207
888.519	10120
888.643	10177
888.767	10139
888.891	10021
889.015	10006
889.139	10112
889.263	10021
889.387	10131
889.511	10090
889.635	10032
889.759	9922
889.883	10063
890.006	9960
890.13	10090
890.254	9979
890.377	9994
890.501	9808
890.624	9873
890.748	9827
890.871	9781
890.995	9720
891.118	9861
891.241	9717
891.364	9755
891.488	9823
891.611	9770
891.734	9789
891.857	9690
891.98	9774
892.103	9804
892.226	9747
892.349	9637
892.471	9466
892.594	9603
892.717	9606
892.839	9587
892.962	9717
893.085	9641
893.207	9553
893.33	9557
893.452	9538
893.575	9587
893.697	9447
893.819	9679
893.941	9663
894.064	9641
894.186	9469
894.308	9435
894.43	9519
894.552	9545
894.674	9534
894.796	9389
894.918	9466
895.04	9447
895.161	9363
895.283	9370
895.405	9283
895.526	9233
895.648	9207
895.769	9260
895.891	9218
896.012	9321
896.134	9306
896.255	9165
896.376	9119
896.498	9150
896.619	9154
896.74	9070
896.861	9154
896.982	9310
897.103	9287
897.224	9146
897.345	9119
897.466	8967
897.587	8982
897.708	9108
897.828	8994
897.949	8975
898.07	8807
898.19	8971
898.311	9024
898.431	8906
898.552	9009
898.672	8952
898.792	8967
898.913	8902
899.033	8777
899.153	8807
899.273	8689
899.393	8766
899.513	8754
899.633	8739
899.753	8785
899.873	8682
899.993	8762
900.113	8625
900.232	8777
900.352	8739
900.472	8571
900.591	8598
900.711	8598
900.83	8522
900.95	8716
901.069	8686
901.189	8503
901.308	8431
901.427	8370
901.546	8454
901.665	8511
901.784	8495
901.904	8336
902.023	8320
902.141	8210
902.26	8279
902.379	8294
902.498	8172
902.617	8275
902.735	8298
902.854	8267
902.973	8286
903.091	8111
903.21	8126
903.328	8149
903.446	8081
903.565	8130
903.683	8092
903.801	8069
903.919	8176
904.038	8092
904.156	8027
904.274	8123
904.392	8016
904.51	7982
904.627	7982
904.745	8024
904.863	8092
904.981	7932
905.098	7837
905.216	7845
905.334	7875
905.451	7864
905.569	7928
905.686	7909
905.803	7925
905.921	7772
906.038	7822
906.155	7807
906.272	7658
906.389	7712
906.506	7666
906.623	7628
906.74	7605
906.857	7563
906.974	7521
907.091	7632
907.208	7719
907.324	7689
907.441	7567
907.557	7472
907.674	7460
907.79	7384
907.907	7438
908.023	7491
908.139	7441
908.256	7396
908.372	7324
908.488	7346
908.604	7274
908.72	7282
908.836	7285
908.952	7225
909.068	7308
909.184	7377
909.3	7244
909.415	7297
909.531	7297
909.647	7091
909.762	7141
909.878	7129
909.993	7168
910.108	7122
910.224	7095
910.339	7122
910.454	7084
910.57	7053
910.685	6977
910.8	7240
910.915	7122
911.03	7008
911.145	6901
911.259	6871
911.374	6848
911.489	6859
911.604	6833
911.718	6642
911.833	6753
911.947	6650
912.062	6631
912.176	6662
912.291	6715
912.405	6779
912.519	6791
912.633	6833
912.748	6749
912.862	6715
912.976	6563
913.09	6509
913.204	6582
913.318	6631
913.431	6601
913.545	6665
913.659	6696
913.772	6578
913.886	6593
914	6589
914.113	6589
914.226	6635
914.34	6574
914.453	6506
914.566	6563
914.68	6471
914.793	6506
914.906	6445
915.019	6414
915.132	6342
915.245	6399
915.358	6517
915.47	6437
915.583	6437
915.696	6429
915.809	6528
915.921	6536
916.034	6448
916.146	6376
916.259	6365
916.371	6494
916.483	6467
916.595	6350
916.708	6403
916.82	6426
916.932	6353
917.044	6380
917.156	6456
917.268	6323
917.38	6331
917.491	6296
917.603	6346
917.715	6319
917.826	6388
917.938	6292
918.049	6232
918.161	6338
918.272	6403
918.384	6433
918.495	6289
918.606	6285
918.717	6201
918.828	6254
918.939	6251
919.05	6194
919.161	6277
919.272	6098
919.383	6102
919.494	6262
919.604	6429
919.715	6228
919.826	6247
919.936	6243
920.047	6281
920.157	6232
920.267	6486
920.378	6369
920.488	6281
920.598	6410
920.708	6513
920.818	6479
920.928	6471
921.038	6582
921.148	6551
921.258	6315
921.368	6308
921.477	6201
921.587	6201
921.697	6034
921.806	6228
921.916	6102
922.025	6022
922.134	5939
922.244	5874
922.353	5939
922.462	5836
922.571	5767
922.68	5760
922.789	5646
922.898	5695
923.007	5615
923.116	5642
923.224	5688
923.333	5710
923.442	5600
923.55	5573
923.659	5528
923.767	5649
923.876	5524
923.984	5649
924.092	5482
924.201	5562
924.309	5528
924.417	5589
924.525	5501
924.633	5558
924.741	6152
924.849	5337
924.956	5482
925.064	5364
925.172	5315
925.279	5303
925.387	5303
925.494	5345
925.602	5433
925.709	5383
925.816	5277
925.924	5296
926.031	5398
926.138	5322
926.245	5330
926.352	5242
926.459	5322
926.566	5303
926.673	5220
926.779	5128
926.886	5136
926.993	5041
927.099	4995
927.206	4961
927.312	4965
927.419	5086
927.525	4999
927.631	4972
927.737	4881
927.843	4877
927.95	4752
928.056	4805
928.162	4805
928.267	4828
928.373	5258
928.479	4873
928.585	4725
928.69	4736
928.796	4786
928.901	4702
929.007	4596
929.112	4721
929.218	4675
929.323	4611
929.428	4565
929.533	4656
929.638	4542
929.743	4535
929.848	4561
929.953	4481
930.058	4497
930.163	4291
930.267	4310
930.372	4436
930.477	4306
930.581	4455
930.685	4371
930.79	4234
930.894	4272
930.998	4272
931.103	4398
931.207	4124
931.311	4082
931.415	4086
931.519	3953
931.623	3903
