Data from glass_V78500241_1527.txt Node
Date: Wed Sep 01 19:25:05 CST 2021
User: usil
Spectrometer: V785-0024
Trigger mode: 0
Integration Time (sec): 4.000000E-1
Scans to average: 1
Nonlinearity correction enabled: false
Boxcar width: 0
Storing dark spectrum: false
XAxis mode: Wavelengths
Number of Pixels in Spectrum: 1024
>>>>>Begin Spectral Data<<<<<
801.071	3713
801.214	3785
801.356	3770
801.499	3724
801.641	3751
801.783	3797
801.926	3865
802.068	3831
802.211	3827
802.353	3884
802.496	3865
802.638	3888
802.78	3899
802.923	3934
803.065	3896
803.208	3827
803.35	3835
803.492	3876
803.635	3937
803.777	3770
803.919	3876
804.061	4166
804.204	4017
804.346	3953
804.488	3941
804.63	4032
804.773	4029
804.915	4032
805.057	4185
805.199	4051
805.341	4063
805.483	4128
805.626	4131
805.768	4086
805.91	4188
806.052	4211
806.194	4207
806.336	4295
806.478	4215
806.62	4162
806.762	4162
806.904	4223
807.046	4390
807.188	4230
807.33	4169
807.472	4230
807.614	4207
807.756	4261
807.898	4196
808.04	4204
808.182	4268
808.324	4329
808.465	4386
808.607	4440
808.749	4451
808.891	4508
809.033	4493
809.174	4402
809.316	4230
809.458	4242
809.6	4177
809.741	4166
809.883	4135
810.025	4227
810.166	4223
810.308	4173
810.45	4211
810.591	4230
810.733	4299
810.875	4512
811.016	4843
811.158	5147
811.299	5265
811.441	5227
811.582	5067
811.724	4733
811.865	4474
812.007	4470
812.148	4432
812.29	4440
812.431	4379
812.573	4383
812.714	4405
812.855	4417
812.997	4413
813.138	4497
813.279	4443
813.421	4344
813.562	4352
813.703	4341
813.845	4329
813.986	4257
814.127	4257
814.268	4322
814.41	4291
814.551	4253
814.692	4295
814.833	4306
814.974	4299
815.115	4303
815.256	4196
815.397	4249
815.539	4261
815.68	4200
815.821	4207
815.962	4314
816.103	4333
816.244	4234
816.385	4265
816.526	4295
816.666	4166
816.807	4086
816.948	4211
817.089	4158
817.23	4185
817.371	4082
817.512	4044
817.653	4093
817.793	4044
817.934	4044
818.075	4090
818.216	4078
818.356	4078
818.497	4017
818.638	3903
818.778	3884
818.919	3892
819.06	3915
819.2	3896
819.341	3827
819.481	3850
819.622	3918
819.762	4010
819.903	3930
820.043	3857
820.184	3842
820.324	3819
820.465	3880
820.605	3884
820.746	3876
820.886	3804
821.026	3937
821.167	3896
821.307	3960
821.447	3968
821.588	3956
821.728	3979
821.868	3926
822.008	3804
822.149	3918
822.289	3884
822.429	3762
822.569	3781
822.709	3789
822.849	3709
822.99	3686
823.13	3774
823.27	3743
823.41	3686
823.55	3747
823.69	3751
823.83	3766
823.97	3625
824.11	3675
824.25	3568
824.389	3660
824.529	3690
824.669	3656
824.809	3686
824.949	3759
825.089	3705
825.228	3686
825.368	3568
825.508	3584
825.648	3572
825.787	3641
825.927	3603
826.067	3629
826.206	3656
826.346	3762
826.485	3823
826.625	3903
826.765	3949
826.904	3808
827.044	3603
827.183	3530
827.323	3416
827.462	3469
827.601	3447
827.741	3416
827.88	3481
828.02	3359
828.159	3447
828.298	3473
828.437	3496
828.577	3496
828.716	3580
828.855	3507
828.994	3340
829.134	3363
829.273	3393
829.412	3374
829.551	3344
829.69	3363
829.829	3435
829.968	3523
830.107	3431
830.246	3443
830.385	3428
830.524	3389
830.663	3298
830.802	3279
830.941	3195
831.08	3165
831.219	3253
831.357	3302
831.496	3393
831.635	3233
831.774	3199
831.913	3203
832.051	3135
832.19	3127
832.329	3222
832.467	3146
832.606	3123
832.744	3097
832.883	3214
833.022	3188
833.16	3253
833.299	3321
833.437	3348
833.576	3393
833.714	3382
833.852	3397
833.991	3462
834.129	3481
834.267	3473
834.406	3386
834.544	3409
834.682	3443
834.821	3431
834.959	3572
835.097	3405
835.235	3542
835.373	3469
835.511	3481
835.65	3454
835.788	3473
835.926	3401
836.064	3374
836.202	3409
836.34	3599
836.478	3584
836.615	3542
836.753	3625
836.891	3633
837.029	3606
837.167	3618
837.305	3572
837.443	3553
837.58	3526
837.718	3561
837.856	3618
837.993	3526
838.131	3644
838.269	3557
838.406	3557
838.544	3587
838.681	3481
838.819	3458
838.956	3405
839.094	3386
839.231	3405
839.369	3511
839.506	3705
839.643	3618
839.781	3504
839.918	3473
840.055	3526
840.193	3519
840.33	3542
840.467	3614
840.604	3595
840.742	3766
840.879	3545
841.016	3534
841.153	3568
841.29	3778
841.427	3698
841.564	3743
841.701	3720
841.838	3709
841.975	3644
842.112	3720
842.249	3679
842.385	3660
842.522	3793
842.659	3701
842.796	3656
842.933	3740
843.069	3701
843.206	3705
843.343	3785
843.479	3770
843.616	3800
843.752	3698
843.889	3660
844.025	3896
844.162	3705
844.298	3842
844.435	3743
844.571	3785
844.708	3896
844.844	3987
844.98	3979
845.117	4021
845.253	3945
845.389	3857
845.525	3964
845.661	3960
845.798	3899
845.934	3953
846.07	3972
846.206	4002
846.342	4124
846.478	4071
846.614	4002
846.75	3937
846.886	3937
847.022	4048
847.158	3991
847.294	3991
847.429	3994
847.565	3979
847.701	4280
847.837	3896
847.972	3831
848.108	3998
848.244	3956
848.379	3888
848.515	3831
848.65	3797
848.786	3861
848.921	3873
849.057	3880
849.192	3949
849.328	3892
849.463	3903
849.598	3865
849.734	3907
849.869	3823
850.004	3747
850.14	3800
850.275	3838
850.41	3732
850.545	3766
850.68	3831
850.815	3831
850.95	3804
851.085	3945
851.22	3865
851.355	3854
851.49	3793
851.625	3755
851.76	3800
851.895	3713
852.03	3717
852.165	3766
852.299	3838
852.434	3876
852.569	3819
852.703	3903
852.838	3949
852.973	3964
853.107	3994
853.242	3941
853.376	3869
853.511	3819
853.645	3865
853.78	4002
853.914	3930
854.048	3907
854.183	3934
854.317	3915
854.451	4082
854.585	3968
854.72	3953
854.854	4017
854.988	3922
855.122	3987
855.256	3937
855.39	4055
855.524	4101
855.658	4078
855.792	4109
855.926	4150
856.06	4150
856.194	4162
856.327	4143
856.461	4097
856.595	4143
856.729	4211
856.862	4303
856.996	4246
857.13	4318
857.263	4337
857.397	4375
857.53	4268
857.664	4390
857.797	4417
857.931	4417
858.064	4356
858.197	4402
858.331	4424
858.464	4367
858.597	4379
858.731	4386
858.864	4478
858.997	4447
859.13	4485
859.263	4527
859.396	4573
859.529	4497
859.662	4550
859.795	4569
859.928	4630
860.061	4725
860.194	4752
860.327	4649
860.46	4630
860.592	4698
860.725	4790
860.858	4767
860.99	4733
861.123	4668
861.256	4668
861.388	4767
861.521	5486
861.653	4729
861.786	4710
861.918	4744
862.05	4831
862.183	4862
862.315	4854
862.447	4911
862.58	4934
862.712	4778
862.844	4748
862.976	4850
863.108	4881
863.24	5254
863.372	4828
863.504	4877
863.636	4892
863.768	4942
863.9	4987
864.032	4930
864.164	4942
864.296	5014
864.428	5102
864.559	5075
864.691	5117
864.823	5162
864.954	5151
865.086	5170
865.217	5105
865.349	5132
865.48	5185
865.612	5204
865.743	5307
865.875	5193
866.006	5140
866.137	5220
866.269	5235
866.4	5261
866.531	5258
866.662	5185
866.793	5299
866.924	5258
867.055	5349
867.186	5357
867.317	5334
867.448	5330
867.579	5337
867.71	5402
867.841	5360
867.972	5474
868.103	5436
868.233	5486
868.364	5532
868.495	5520
868.625	5638
868.756	5786
868.886	5688
869.017	5714
869.147	5832
869.278	5851
869.408	5756
869.539	5851
869.669	5901
869.799	5908
869.929	6007
870.06	5996
870.19	6197
870.32	6205
870.45	6266
870.58	6277
870.71	6433
870.84	6452
870.97	6403
871.1	6460
871.23	6646
871.36	6677
871.489	6650
871.619	6722
871.749	6802
871.879	6878
872.008	6928
872.138	6958
872.267	6970
872.397	7012
872.526	7042
872.656	7034
872.785	7232
872.915	7396
873.044	7510
873.173	7544
873.303	7616
873.432	7757
873.561	7940
873.69	7898
873.819	8020
873.948	8206
874.077	8191
874.206	8370
874.335	8446
874.464	8655
874.593	8910
874.722	8952
874.851	9104
874.979	9294
875.108	9367
875.237	9431
875.365	9428
875.494	9591
875.623	9781
875.751	9831
875.88	9972
876.008	10105
876.136	10276
876.265	10497
876.393	10694
876.521	10702
876.65	10831
876.778	10889
876.906	10923
877.034	10991
877.162	11105
877.29	11174
877.418	11204
877.546	11433
877.674	11471
877.802	11490
877.93	11459
878.058	11539
878.185	11478
878.313	11657
878.441	11752
878.568	11722
878.696	11828
878.824	11859
878.951	11935
879.079	11984
879.206	12117
879.333	12053
879.461	12003
879.588	12057
879.715	12133
879.842	12197
879.97	11961
880.097	11893
880.224	11870
880.351	11897
880.478	11878
880.605	11874
880.732	11771
880.859	11901
880.986	11817
881.112	11836
881.239	11688
881.366	11737
881.493	11570
881.619	11566
881.746	11554
881.872	11478
881.999	11471
882.125	11467
882.252	11573
882.378	11478
882.505	11646
882.631	11353
882.757	11334
882.883	11368
883.01	11231
883.136	11162
883.262	11162
883.388	11113
883.514	11185
883.64	11151
883.766	11143
883.892	10972
884.018	10972
884.143	11029
884.269	11098
884.395	10850
884.52	10816
884.646	10824
884.772	10744
884.897	10649
885.023	10611
885.148	10755
885.274	10748
885.399	10698
885.524	10577
885.65	10607
885.775	10660
885.9	10508
886.025	10554
886.15	10546
886.275	10451
886.4	10440
886.525	10390
886.65	10379
886.775	10230
886.9	10512
887.025	10535
887.149	10386
887.274	10249
887.399	10128
887.523	10234
887.648	10135
887.773	10101
887.897	10246
888.021	10219
888.146	10036
888.27	10249
888.395	10272
888.519	10120
888.643	10242
888.767	10200
888.891	10128
889.015	10010
889.139	10059
889.263	9903
889.387	10093
889.511	10139
889.635	10013
889.759	10025
889.883	9941
890.006	9949
890.13	10082
890.254	9903
890.377	10013
890.501	9884
890.624	9876
890.748	9876
890.871	9781
890.995	9720
891.118	9747
891.241	9694
891.364	9728
891.488	9842
891.611	9740
891.734	9762
891.857	9720
891.98	9724
892.103	9778
892.226	9713
892.349	9622
892.471	9568
892.594	9652
892.717	9542
892.839	9671
892.962	9580
893.085	9622
893.207	9511
893.33	9511
893.452	9488
893.575	9652
893.697	9545
893.819	9614
893.941	9633
894.064	9542
894.186	9431
894.308	9428
894.43	9568
894.552	9553
894.674	9587
894.796	9488
894.918	9389
895.04	9374
895.161	9416
895.283	9321
895.405	9310
895.526	9237
895.648	9207
895.769	9279
895.891	9283
896.012	9321
896.134	9203
896.255	9154
896.376	9169
896.498	9176
896.619	9077
896.74	9058
896.861	9119
896.982	9256
897.103	9310
897.224	9127
897.345	9093
897.466	9028
897.587	9058
897.708	9157
897.828	9093
897.949	8925
898.07	8868
898.19	8895
898.311	9001
898.431	8906
898.552	8925
898.672	8929
898.792	8948
898.913	8861
899.033	8800
899.153	8781
899.273	8602
899.393	8731
899.513	8750
899.633	8758
899.753	8663
899.873	8651
899.993	8697
900.113	8644
900.232	8686
900.352	8632
900.472	8651
900.591	8552
900.711	8552
900.83	8522
900.95	8610
901.069	8659
901.189	8568
901.308	8427
901.427	8396
901.546	8423
901.665	8518
901.784	8514
901.904	8294
902.023	8313
902.141	8240
902.26	8199
902.379	8244
902.498	8256
902.617	8199
902.735	8305
902.854	8271
902.973	8275
903.091	8107
903.21	8149
903.328	8100
903.446	8145
903.565	8100
903.683	8100
903.801	8043
903.919	8077
904.038	8096
904.156	8039
904.274	8107
904.392	7959
904.51	8020
904.627	8035
904.745	8081
904.863	8107
904.981	7932
905.098	7856
905.216	7845
905.334	7944
905.451	7898
905.569	7883
905.686	7890
905.803	7967
905.921	7731
906.038	7906
906.155	7803
906.272	7723
906.389	7769
906.506	7666
906.623	7658
906.74	7647
906.857	7578
906.974	7616
907.091	7639
907.208	7753
907.324	7639
907.441	7590
907.557	7529
907.674	7419
907.79	7400
907.907	7407
908.023	7468
908.139	7384
908.256	7369
908.372	7331
908.488	7354
908.604	7255
908.72	7232
908.836	7293
908.952	7266
909.068	7221
909.184	7278
909.3	7350
909.415	7308
909.531	7293
909.647	7156
909.762	7145
909.878	7171
909.993	7069
910.108	7057
910.224	7065
910.339	7061
910.454	7053
910.57	6981
910.685	6939
910.8	7168
910.915	7137
911.03	7057
911.145	6916
911.259	6905
911.374	6913
911.489	6840
911.604	6806
911.718	6745
911.833	6783
911.947	6635
912.062	6582
912.176	6707
912.291	6772
912.405	6726
912.519	6833
912.633	6844
912.748	6734
912.862	6673
912.976	6582
913.09	6563
913.204	6582
913.318	6616
913.431	6658
913.545	6662
913.659	6760
913.772	6654
913.886	6563
914	6578
914.113	6616
914.226	6616
914.34	6612
914.453	6498
914.566	6662
914.68	6490
914.793	6517
914.906	6422
915.019	6361
915.132	6388
915.245	6467
915.358	6407
915.47	6407
915.583	6486
915.696	6475
915.809	6479
915.921	6547
916.034	6369
916.146	6391
916.259	6418
916.371	6509
916.483	6441
916.595	6391
916.708	6414
916.82	6391
916.932	6422
917.044	6384
917.156	6350
917.268	6311
917.38	6399
917.491	6270
917.603	6365
917.715	6334
917.826	6433
917.938	6315
918.049	6228
918.161	6338
918.272	6369
918.384	6437
918.495	6300
918.606	6220
918.717	6251
918.828	6285
918.939	6277
919.05	6205
919.161	6292
919.272	6106
919.383	6155
919.494	6251
919.604	6369
919.715	6239
919.826	6220
919.936	6319
920.047	6342
920.157	6209
920.267	6448
920.378	6289
920.488	6342
920.598	6433
920.708	6566
920.818	6467
920.928	6448
921.038	6532
921.148	6490
921.258	6391
921.368	6300
921.477	6209
921.587	6167
921.697	6144
921.806	6186
921.916	6152
922.025	5931
922.134	5870
922.244	5889
922.353	5999
922.462	5760
922.571	5752
922.68	5672
922.789	5729
922.898	5707
923.007	5592
923.116	5691
923.224	5714
923.333	5665
923.442	5619
923.55	5600
923.659	5604
923.767	5630
923.876	5558
923.984	5512
924.092	5509
924.201	5547
924.309	5539
924.417	5619
924.525	5467
924.633	5528
924.741	6136
924.849	5315
924.956	5474
925.064	5364
925.172	5273
925.279	5296
925.387	5315
925.494	5296
925.602	5429
925.709	5406
925.816	5250
925.924	5368
926.031	5345
926.138	5311
926.245	5322
926.352	5254
926.459	5284
926.566	5376
926.673	5197
926.779	5189
926.886	5136
926.993	5029
927.099	5003
927.206	4972
927.312	4968
927.419	5067
927.525	4961
927.631	4919
927.737	4927
927.843	4881
927.95	4771
928.056	4866
928.162	4866
928.267	4866
928.373	5334
928.479	4828
928.585	4679
928.69	4744
928.796	4786
928.901	4694
929.007	4588
929.112	4675
929.218	4607
929.323	4626
929.428	4546
929.533	4649
929.638	4508
929.743	4580
929.848	4561
929.953	4504
930.058	4466
930.163	4318
930.267	4348
930.372	4417
930.477	4287
930.581	4440
930.685	4314
930.79	4257
930.894	4291
930.998	4223
931.103	4371
931.207	4101
931.311	4082
931.415	4017
931.519	3972
931.623	3911
