Data from glass_V78500241_1871.txt Node
Date: Wed Sep 01 19:27:28 CST 2021
User: usil
Spectrometer: V785-0024
Trigger mode: 0
Integration Time (sec): 4.000000E-1
Scans to average: 1
Nonlinearity correction enabled: false
Boxcar width: 0
Storing dark spectrum: false
XAxis mode: Wavelengths
Number of Pixels in Spectrum: 1024
>>>>>Begin Spectral Data<<<<<
801.071	3759
801.214	3747
801.356	3713
801.499	3698
801.641	3728
801.783	3747
801.926	3808
802.068	3823
802.211	3854
802.353	3850
802.496	3831
802.638	3869
802.78	3869
802.923	3896
803.065	3915
803.208	3876
803.35	3846
803.492	3899
803.635	3918
803.777	3785
803.919	3880
804.061	4150
804.204	3907
804.346	3956
804.488	3918
804.63	4055
804.773	3998
804.915	4029
805.057	4150
805.199	4032
805.341	4082
805.483	4105
805.626	4139
805.768	4090
805.91	4230
806.052	4234
806.194	4211
806.336	4295
806.478	4230
806.62	4158
806.762	4204
806.904	4284
807.046	4337
807.188	4234
807.33	4204
807.472	4276
807.614	4196
807.756	4272
807.898	4219
808.04	4238
808.182	4249
808.324	4303
808.465	4356
808.607	4413
808.749	4424
808.891	4493
809.033	4512
809.174	4379
809.316	4249
809.458	4215
809.6	4120
809.741	4185
809.883	4135
810.025	4257
810.166	4207
810.308	4204
810.45	4299
810.591	4261
810.733	4265
810.875	4466
811.016	4835
811.158	5117
811.299	5269
811.441	5280
811.582	5105
811.724	4679
811.865	4447
812.007	4493
812.148	4413
812.29	4383
812.431	4432
812.573	4375
812.714	4379
812.855	4386
812.997	4379
813.138	4466
813.279	4375
813.421	4352
813.562	4417
813.703	4325
813.845	4363
813.986	4303
814.127	4249
814.268	4261
814.41	4265
814.551	4291
814.692	4318
814.833	4272
814.974	4344
815.115	4318
815.256	4227
815.397	4265
815.539	4253
815.68	4211
815.821	4177
815.962	4310
816.103	4265
816.244	4223
816.385	4284
816.526	4280
816.666	4242
816.807	4135
816.948	4109
817.089	4227
817.23	4109
817.371	4055
817.512	4006
817.653	4074
817.793	4029
817.934	4055
818.075	4048
818.216	4044
818.356	4074
818.497	3979
818.638	3869
818.778	3907
818.919	3850
819.06	3835
819.2	3960
819.341	3876
819.481	3838
819.622	3892
819.762	3949
819.903	3888
820.043	3846
820.184	3804
820.324	3827
820.465	3854
820.605	3850
820.746	3854
820.886	3823
821.026	3991
821.167	3899
821.307	3987
821.447	4021
821.588	3922
821.728	3964
821.868	3911
822.008	3880
822.149	3949
822.289	3918
822.429	3808
822.569	3728
822.709	3793
822.849	3736
822.99	3698
823.13	3720
823.27	3778
823.41	3705
823.55	3743
823.69	3743
823.83	3728
823.97	3629
824.11	3633
824.25	3629
824.389	3675
824.529	3663
824.669	3603
824.809	3694
824.949	3713
825.089	3740
825.228	3709
825.368	3584
825.508	3515
825.648	3576
825.787	3561
825.927	3610
826.067	3618
826.206	3682
826.346	3770
826.485	3861
826.625	3838
826.765	3934
826.904	3831
827.044	3599
827.183	3545
827.323	3435
827.462	3469
827.601	3435
827.741	3443
827.88	3462
828.02	3370
828.159	3469
828.298	3496
828.437	3511
828.577	3492
828.716	3614
828.855	3462
828.994	3386
829.134	3367
829.273	3367
829.412	3325
829.551	3344
829.69	3386
829.829	3443
829.968	3500
830.107	3439
830.246	3420
830.385	3397
830.524	3378
830.663	3291
830.802	3275
830.941	3161
831.08	3192
831.219	3245
831.357	3291
831.496	3412
831.635	3245
831.774	3173
831.913	3169
832.051	3119
832.19	3127
832.329	3180
832.467	3116
832.606	3097
832.744	3176
832.883	3195
833.022	3184
833.16	3264
833.299	3298
833.437	3325
833.576	3393
833.714	3374
833.852	3405
833.991	3443
834.129	3485
834.267	3420
834.406	3409
834.544	3424
834.682	3370
834.821	3416
834.959	3557
835.097	3458
835.235	3534
835.373	3469
835.511	3462
835.65	3431
835.788	3485
835.926	3416
836.064	3393
836.202	3416
836.34	3545
836.478	3644
836.615	3557
836.753	3584
836.891	3660
837.029	3614
837.167	3580
837.305	3523
837.443	3542
837.58	3500
837.718	3603
837.856	3553
837.993	3534
838.131	3644
838.269	3584
838.406	3553
838.544	3561
838.681	3431
838.819	3462
838.956	3405
839.094	3401
839.231	3450
839.369	3534
839.506	3724
839.643	3652
839.781	3492
839.918	3458
840.055	3526
840.193	3515
840.33	3553
840.467	3580
840.604	3637
840.742	3789
840.879	3534
841.016	3519
841.153	3610
841.29	3728
841.427	3686
841.564	3759
841.701	3755
841.838	3656
841.975	3709
842.112	3694
842.249	3603
842.385	3663
842.522	3835
842.659	3717
842.796	3667
842.933	3740
843.069	3705
843.206	3728
843.343	3793
843.479	3766
843.616	3800
843.752	3656
843.889	3652
844.025	3831
844.162	3694
844.298	3838
844.435	3804
844.571	3751
844.708	3899
844.844	3998
844.98	4036
845.117	4021
845.253	3926
845.389	3911
845.525	3979
845.661	3937
845.798	3945
845.934	3994
846.07	3968
846.206	4025
846.342	4147
846.478	4010
846.614	3987
846.75	3930
846.886	3892
847.022	4013
847.158	3979
847.294	3987
847.429	4017
847.565	3979
847.701	4227
847.837	3884
847.972	3857
848.108	3956
848.244	3956
848.379	3835
848.515	3835
848.65	3823
848.786	3804
848.921	3842
849.057	3922
849.192	3926
849.328	3899
849.463	3911
849.598	3857
849.734	3865
849.869	3842
850.004	3781
850.14	3827
850.275	3793
850.41	3713
850.545	3751
850.68	3789
850.815	3770
850.95	3789
851.085	3991
851.22	3850
851.355	3819
851.49	3762
851.625	3823
851.76	3789
851.895	3713
852.03	3705
852.165	3827
852.299	3876
852.434	3888
852.569	3850
852.703	3899
852.838	3899
852.973	3987
853.107	3983
853.242	3884
853.376	3842
853.511	3740
853.645	3804
853.78	3956
853.914	3896
854.048	3930
854.183	3896
854.317	3930
854.451	4074
854.585	3945
854.72	3964
854.854	4067
854.988	3922
855.122	3991
855.256	3945
855.39	4017
855.524	4086
855.658	4120
855.792	4109
855.926	4139
856.06	4158
856.194	4211
856.327	4147
856.461	4128
856.595	4158
856.729	4150
856.862	4257
856.996	4265
857.13	4238
857.263	4287
857.397	4344
857.53	4329
857.664	4379
857.797	4424
857.931	4424
858.064	4390
858.197	4451
858.331	4386
858.464	4379
858.597	4341
858.731	4386
858.864	4466
858.997	4413
859.13	4512
859.263	4535
859.396	4611
859.529	4527
859.662	4550
859.795	4508
859.928	4573
860.061	4634
860.194	4721
860.327	4645
860.46	4622
860.592	4729
860.725	4759
860.858	4740
860.99	4679
861.123	4706
861.256	4664
861.388	4782
861.521	5414
861.653	4660
861.786	4656
861.918	4744
862.05	4782
862.183	4824
862.315	4820
862.447	4946
862.58	4839
862.712	4790
862.844	4782
862.976	4908
863.108	4854
863.24	5147
863.372	4831
863.504	4900
863.636	4862
863.768	4953
863.9	4995
864.032	4923
864.164	4961
864.296	5041
864.428	5056
864.559	5048
864.691	5098
864.823	5109
864.954	5140
865.086	5147
865.217	5109
865.349	5136
865.48	5102
865.612	5117
865.743	5273
865.875	5216
866.006	5185
866.137	5223
866.269	5216
866.4	5239
866.531	5212
866.662	5239
866.793	5296
866.924	5269
867.055	5341
867.186	5307
867.317	5318
867.448	5284
867.579	5379
867.71	5353
867.841	5414
867.972	5463
868.103	5425
868.233	5509
868.364	5493
868.495	5592
868.625	5661
868.756	5794
868.886	5688
869.017	5688
869.147	5836
869.278	5859
869.408	5844
869.539	5859
869.669	5923
869.799	5908
869.929	5977
870.06	6011
870.19	6144
870.32	6171
870.45	6216
870.58	6319
870.71	6407
870.84	6460
870.97	6395
871.1	6441
871.23	6623
871.36	6688
871.489	6627
871.619	6745
871.749	6821
871.879	6825
872.008	6954
872.138	6935
872.267	6932
872.397	6996
872.526	7031
872.656	7126
872.785	7225
872.915	7411
873.044	7487
873.173	7552
873.303	7639
873.432	7784
873.561	7860
873.69	7898
873.819	8065
873.948	8145
874.077	8259
874.206	8374
874.335	8450
874.464	8625
874.593	8804
874.722	8963
874.851	9108
874.979	9230
875.108	9325
875.237	9428
875.365	9481
875.494	9709
875.623	9812
875.751	9819
875.88	9956
876.008	10154
876.136	10223
876.265	10508
876.393	10755
876.521	10649
876.65	10820
876.778	10873
876.906	10911
877.034	10957
877.162	11151
877.29	11231
877.418	11242
877.546	11356
877.674	11448
877.802	11551
877.93	11573
878.058	11520
878.185	11520
878.313	11600
878.441	11748
878.568	11676
878.696	11832
878.824	11889
878.951	11961
879.079	11999
879.206	12144
879.333	11927
879.461	12076
879.588	12114
879.715	12057
879.842	12201
879.97	12110
880.097	11817
880.224	11870
880.351	11954
880.478	11817
880.605	11836
880.732	11840
880.859	12019
880.986	11805
881.112	11817
881.239	11748
881.366	11661
881.493	11615
881.619	11520
881.746	11524
881.872	11459
881.999	11509
882.125	11398
882.252	11581
882.378	11505
882.505	11581
882.631	11334
882.757	11307
882.883	11322
883.01	11246
883.136	11254
883.262	11098
883.388	11075
883.514	11193
883.64	11143
883.766	11105
883.892	11006
884.018	11025
884.143	11124
884.269	11113
884.395	10820
884.52	10786
884.646	10733
884.772	10710
884.897	10702
885.023	10679
885.148	10691
885.274	10771
885.399	10782
885.524	10611
885.65	10622
885.775	10615
885.9	10637
886.025	10584
886.15	10474
886.275	10360
886.4	10432
886.525	10325
886.65	10352
886.775	10299
886.9	10512
887.025	10459
887.149	10318
887.274	10192
887.399	10246
887.523	10162
887.648	10162
887.773	10143
887.897	10200
888.021	10150
888.146	10067
888.27	10211
888.395	10185
888.519	10158
888.643	10154
888.767	10249
888.891	10082
889.015	10040
889.139	10048
889.263	9975
889.387	10112
889.511	10124
889.635	10010
889.759	9975
889.883	10010
890.006	9983
890.13	10147
890.254	9956
890.377	9968
890.501	9869
890.624	9838
890.748	9850
890.871	9816
890.995	9812
891.118	9656
891.241	9648
891.364	9663
891.488	9804
891.611	9747
891.734	9774
891.857	9743
891.98	9751
892.103	9816
892.226	9675
892.349	9618
892.471	9481
892.594	9477
892.717	9625
892.839	9572
892.962	9576
893.085	9572
893.207	9530
893.33	9492
893.452	9507
893.575	9595
893.697	9561
893.819	9580
893.941	9686
894.064	9519
894.186	9408
894.308	9393
894.43	9443
894.552	9526
894.674	9507
894.796	9359
894.918	9408
895.04	9321
895.161	9439
895.283	9363
895.405	9287
895.526	9287
895.648	9298
895.769	9192
895.891	9249
896.012	9241
896.134	9249
896.255	9108
896.376	9116
896.498	9093
896.619	9199
896.74	9108
896.861	9112
896.982	9230
897.103	9321
897.224	9214
897.345	9058
897.466	8937
897.587	8929
897.708	9142
897.828	9047
897.949	8929
898.07	8842
898.19	8925
898.311	9017
898.431	8895
898.552	8956
898.672	8914
898.792	8933
898.913	8887
899.033	8849
899.153	8720
899.273	8648
899.393	8727
899.513	8739
899.633	8640
899.753	8735
899.873	8697
899.993	8796
900.113	8686
900.232	8712
900.352	8613
900.472	8598
900.591	8583
900.711	8571
900.83	8552
900.95	8689
901.069	8705
901.189	8594
901.308	8457
901.427	8381
901.546	8419
901.665	8454
901.784	8526
901.904	8355
902.023	8355
902.141	8214
902.26	8206
902.379	8313
902.498	8225
902.617	8195
902.735	8271
902.854	8336
902.973	8298
903.091	8065
903.21	8130
903.328	8157
903.446	8187
903.565	8046
903.683	8046
903.801	8039
903.919	8142
904.038	8138
904.156	8020
904.274	8123
904.392	8020
904.51	8020
904.627	8027
904.745	8043
904.863	8111
904.981	7978
905.098	7822
905.216	7856
905.334	7868
905.451	7879
905.569	7856
905.686	7970
905.803	7925
905.921	7772
906.038	7837
906.155	7811
906.272	7689
906.389	7689
906.506	7605
906.623	7681
906.74	7594
906.857	7506
906.974	7590
907.091	7677
907.208	7681
907.324	7636
907.441	7556
907.557	7460
907.674	7487
907.79	7441
907.907	7403
908.023	7434
908.139	7430
908.256	7346
908.372	7403
908.488	7392
908.604	7270
908.72	7187
908.836	7221
908.952	7194
909.068	7312
909.184	7339
909.3	7259
909.415	7274
909.531	7274
909.647	7099
909.762	7088
909.878	7046
909.993	7133
910.108	7114
910.224	7107
910.339	7137
910.454	7027
910.57	6970
910.685	6989
910.8	7202
910.915	7129
911.03	7019
911.145	6939
911.259	6825
911.374	6886
911.489	6806
911.604	6776
911.718	6700
911.833	6772
911.947	6688
912.062	6635
912.176	6692
912.291	6707
912.405	6700
912.519	6840
912.633	6852
912.748	6768
912.862	6673
912.976	6677
913.09	6555
913.204	6544
913.318	6612
913.431	6707
913.545	6684
913.659	6677
913.772	6616
913.886	6551
914	6521
914.113	6639
914.226	6665
914.34	6555
914.453	6490
914.566	6570
914.68	6551
914.793	6479
914.906	6403
915.019	6410
915.132	6384
915.245	6509
915.358	6445
915.47	6494
915.583	6418
915.696	6486
915.809	6471
915.921	6490
916.034	6426
916.146	6410
916.259	6407
916.371	6479
916.483	6483
916.595	6395
916.708	6372
916.82	6410
916.932	6384
917.044	6410
917.156	6426
917.268	6338
917.38	6319
917.491	6361
917.603	6384
917.715	6399
917.826	6410
917.938	6300
918.049	6216
918.161	6407
918.272	6403
918.384	6395
918.495	6391
918.606	6292
918.717	6197
918.828	6224
918.939	6258
919.05	6186
919.161	6224
919.272	6129
919.383	6186
919.494	6266
919.604	6429
919.715	6277
919.826	6201
919.936	6285
920.047	6342
920.157	6327
920.267	6452
920.378	6315
920.488	6277
920.598	6433
920.708	6578
920.818	6437
920.928	6418
921.038	6593
921.148	6604
921.258	6334
921.368	6239
921.477	6254
921.587	6136
921.697	6083
921.806	6186
921.916	6098
922.025	5939
922.134	5885
922.244	5942
922.353	6019
922.462	5813
922.571	5783
922.68	5703
922.789	5634
922.898	5707
923.007	5596
923.116	5695
923.224	5646
923.333	5672
923.442	5627
923.55	5589
923.659	5570
923.767	5570
923.876	5577
923.984	5581
924.092	5501
924.201	5543
924.309	5566
924.417	5482
924.525	5486
924.633	5505
924.741	6304
924.849	5349
924.956	5512
925.064	5322
925.172	5322
925.279	5242
925.387	5337
925.494	5349
925.602	5425
925.709	5360
925.816	5318
925.924	5322
926.031	5357
926.138	5292
926.245	5330
926.352	5181
926.459	5326
926.566	5349
926.673	5162
926.779	5064
926.886	5147
926.993	5025
927.099	5006
927.206	4980
927.312	4968
927.419	5041
927.525	5018
927.631	4976
927.737	4908
927.843	4896
927.95	4828
928.056	4831
928.162	4835
928.267	4873
928.373	5239
928.479	4839
928.585	4698
928.69	4759
928.796	4782
928.901	4714
929.007	4573
929.112	4683
929.218	4645
929.323	4584
929.428	4558
929.533	4649
929.638	4573
929.743	4500
929.848	4523
929.953	4497
930.058	4455
930.163	4306
930.267	4295
930.372	4462
930.477	4303
930.581	4481
930.685	4360
930.79	4249
930.894	4265
930.998	4276
931.103	4360
931.207	4128
931.311	4002
931.415	4032
931.519	3926
931.623	3972
