Data from glass_V78500241_110.txt Node
Date: Wed Sep 01 19:15:15 CST 2021
User: usil
Spectrometer: V785-0024
Trigger mode: 0
Integration Time (sec): 4.000000E-1
Scans to average: 1
Nonlinearity correction enabled: false
Boxcar width: 0
Storing dark spectrum: false
XAxis mode: Wavelengths
Number of Pixels in Spectrum: 1024
>>>>>Begin Spectral Data<<<<<
801.071	3705
801.214	3778
801.356	3766
801.499	3800
801.641	3751
801.783	3762
801.926	3850
802.068	3869
802.211	3873
802.353	3896
802.496	3854
802.638	3896
802.78	3934
802.923	3934
803.065	3926
803.208	3873
803.35	3884
803.492	3934
803.635	3873
803.777	3823
803.919	3918
804.061	4150
804.204	3949
804.346	3968
804.488	3918
804.63	4048
804.773	3956
804.915	4059
805.057	4185
805.199	4086
805.341	4074
805.483	4162
805.626	4150
805.768	4162
805.91	4207
806.052	4318
806.194	4188
806.336	4356
806.478	4207
806.62	4207
806.762	4230
806.904	4234
807.046	4337
807.188	4261
807.33	4192
807.472	4287
807.614	4215
807.756	4276
807.898	4223
808.04	4253
808.182	4303
808.324	4348
808.465	4375
808.607	4481
808.749	4485
808.891	4485
809.033	4497
809.174	4386
809.316	4284
809.458	4261
809.6	4162
809.741	4131
809.883	4185
810.025	4200
810.166	4272
810.308	4246
810.45	4291
810.591	4234
810.733	4291
810.875	4542
811.016	4854
811.158	5128
811.299	5254
811.441	5311
811.582	5071
811.724	4725
811.865	4497
812.007	4504
812.148	4500
812.29	4421
812.431	4402
812.573	4405
812.714	4356
812.855	4402
812.997	4398
813.138	4516
813.279	4428
813.421	4417
813.562	4375
813.703	4367
813.845	4367
813.986	4268
814.127	4219
814.268	4303
814.41	4337
814.551	4333
814.692	4337
814.833	4276
814.974	4329
815.115	4371
815.256	4287
815.397	4272
815.539	4280
815.68	4181
815.821	4265
815.962	4341
816.103	4318
816.244	4257
816.385	4257
816.526	4306
816.666	4227
816.807	4109
816.948	4147
817.089	4169
817.23	4139
817.371	4067
817.512	4112
817.653	4097
817.793	4063
817.934	4063
818.075	4128
818.216	4124
818.356	4105
818.497	3987
818.638	3953
818.778	3922
818.919	3896
819.06	3842
819.2	3945
819.341	3873
819.481	3869
819.622	3918
819.762	4017
819.903	3983
820.043	3888
820.184	3842
820.324	3827
820.465	3896
820.605	3865
820.746	3831
820.886	3842
821.026	3949
821.167	3941
821.307	3972
821.447	4017
821.588	4025
821.728	3975
821.868	3941
822.008	3850
822.149	3892
822.289	3861
822.429	3785
822.569	3751
822.709	3823
822.849	3740
822.99	3728
823.13	3751
823.27	3804
823.41	3705
823.55	3751
823.69	3705
823.83	3778
823.97	3720
824.11	3625
824.25	3584
824.389	3595
824.529	3713
824.669	3648
824.809	3720
824.949	3759
825.089	3778
825.228	3770
825.368	3584
825.508	3622
825.648	3606
825.787	3584
825.927	3675
826.067	3660
826.206	3705
826.346	3800
826.485	3831
826.625	3869
826.765	3926
826.904	3819
827.044	3641
827.183	3542
827.323	3454
827.462	3526
827.601	3435
827.741	3405
827.88	3500
828.02	3378
828.159	3409
828.298	3488
828.437	3545
828.577	3500
828.716	3591
828.855	3485
828.994	3412
829.134	3424
829.273	3401
829.412	3359
829.551	3317
829.69	3393
829.829	3447
829.968	3561
830.107	3412
830.246	3450
830.385	3397
830.524	3386
830.663	3310
830.802	3291
830.941	3256
831.08	3161
831.219	3264
831.357	3264
831.496	3428
831.635	3241
831.774	3195
831.913	3237
832.051	3142
832.19	3184
832.329	3203
832.467	3097
832.606	3123
832.744	3169
832.883	3199
833.022	3214
833.16	3310
833.299	3279
833.437	3348
833.576	3397
833.714	3386
833.852	3439
833.991	3447
834.129	3454
834.267	3447
834.406	3401
834.544	3447
834.682	3447
834.821	3435
834.959	3606
835.097	3454
835.235	3572
835.373	3496
835.511	3504
835.65	3473
835.788	3492
835.926	3435
836.064	3397
836.202	3424
836.34	3587
836.478	3637
836.615	3557
836.753	3633
836.891	3644
837.029	3606
837.167	3644
837.305	3530
837.443	3549
837.58	3523
837.718	3610
837.856	3603
837.993	3538
838.131	3629
838.269	3595
838.406	3599
838.544	3572
838.681	3428
838.819	3466
838.956	3370
839.094	3409
839.231	3443
839.369	3511
839.506	3720
839.643	3641
839.781	3526
839.918	3492
840.055	3557
840.193	3549
840.33	3545
840.467	3606
840.604	3629
840.742	3861
840.879	3549
841.016	3576
841.153	3606
841.29	3770
841.427	3781
841.564	3762
841.701	3743
841.838	3751
841.975	3728
842.112	3747
842.249	3686
842.385	3694
842.522	3831
842.659	3671
842.796	3698
842.933	3705
843.069	3679
843.206	3774
843.343	3789
843.479	3850
843.616	3865
843.752	3656
843.889	3675
844.025	3888
844.162	3736
844.298	3850
844.435	3781
844.571	3808
844.708	3880
844.844	3991
844.98	4010
845.117	3994
845.253	3953
845.389	3918
845.525	3964
845.661	3979
845.798	3960
845.934	4025
846.07	3918
846.206	4090
846.342	4128
846.478	4128
846.614	4017
846.75	3972
846.886	3949
847.022	4055
847.158	3991
847.294	4010
847.429	4040
847.565	4017
847.701	4219
847.837	3899
847.972	3899
848.108	4002
848.244	3979
848.379	3873
848.515	3808
848.65	3846
848.786	3835
848.921	3823
849.057	3934
849.192	3979
849.328	3911
849.463	3945
849.598	3892
849.734	3884
849.869	3823
850.004	3759
850.14	3823
850.275	3819
850.41	3740
850.545	3778
850.68	3838
850.815	3785
850.95	3804
851.085	4025
851.22	3907
851.355	3865
851.49	3842
851.625	3819
851.76	3823
851.895	3740
852.03	3740
852.165	3804
852.299	3857
852.434	3953
852.569	3880
852.703	3903
852.838	3915
852.973	4032
853.107	4006
853.242	3918
853.376	3896
853.511	3819
853.645	3797
853.78	3953
853.914	3896
854.048	3960
854.183	3934
854.317	3899
854.451	4105
854.585	3972
854.72	3945
854.854	4048
854.988	3941
855.122	4010
855.256	3922
855.39	4082
855.524	4139
855.658	4112
855.792	4112
855.926	4143
856.06	4166
856.194	4246
856.327	4158
856.461	4131
856.595	4185
856.729	4181
856.862	4284
856.996	4246
857.13	4280
857.263	4337
857.397	4375
857.53	4329
857.664	4390
857.797	4413
857.931	4413
858.064	4375
858.197	4462
858.331	4409
858.464	4417
858.597	4379
858.731	4421
858.864	4440
858.997	4466
859.13	4527
859.263	4584
859.396	4607
859.529	4538
859.662	4596
859.795	4550
859.928	4637
860.061	4710
860.194	4778
860.327	4656
860.46	4626
860.592	4729
860.725	4755
860.858	4786
860.99	4717
861.123	4687
861.256	4721
861.388	4782
861.521	5528
861.653	4748
861.786	4691
861.918	4752
862.05	4835
862.183	4850
862.315	4828
862.447	5003
862.58	4881
862.712	4828
862.844	4736
862.976	4896
863.108	4896
863.24	5277
863.372	4820
863.504	4900
863.636	4870
863.768	4923
863.9	4934
864.032	4946
864.164	4980
864.296	5056
864.428	5132
864.559	5136
864.691	5140
864.823	5155
864.954	5132
865.086	5174
865.217	5155
865.349	5143
865.48	5193
865.612	5193
865.743	5315
865.875	5239
866.006	5181
866.137	5227
866.269	5273
866.4	5273
866.531	5223
866.662	5197
866.793	5242
866.924	5322
867.055	5345
867.186	5368
867.317	5311
867.448	5402
867.579	5360
867.71	5417
867.841	5444
867.972	5478
868.103	5493
868.233	5501
868.364	5493
868.495	5558
868.625	5710
868.756	5779
868.886	5710
869.017	5840
869.147	5828
869.278	5836
869.408	5840
869.539	5813
869.669	5912
869.799	5912
869.929	5954
870.06	6041
870.19	6220
870.32	6186
870.45	6262
870.58	6315
870.71	6429
870.84	6464
870.97	6437
871.1	6448
871.23	6627
871.36	6700
871.489	6650
871.619	6738
871.749	6833
871.879	6909
872.008	6970
872.138	6996
872.267	7038
872.397	6989
872.526	7038
872.656	7126
872.785	7225
872.915	7419
873.044	7521
873.173	7499
873.303	7693
873.432	7792
873.561	7860
873.69	7963
873.819	7974
873.948	8191
874.077	8240
874.206	8286
874.335	8492
874.464	8716
874.593	8891
874.722	8941
874.851	9176
874.979	9184
875.108	9355
875.237	9469
875.365	9504
875.494	9701
875.623	9808
875.751	9812
875.88	10093
876.008	10128
876.136	10318
876.265	10603
876.393	10721
876.521	10656
876.65	10805
876.778	10858
876.906	10919
877.034	11006
877.162	11025
877.29	11128
877.418	11288
877.546	11376
877.674	11410
877.802	11516
877.93	11478
878.058	11535
878.185	11573
878.313	11665
878.441	11794
878.568	11592
878.696	11688
878.824	11912
878.951	11931
879.079	12049
879.206	12091
879.333	12045
879.461	12045
879.588	12095
879.715	12133
879.842	12076
879.97	12095
880.097	11843
880.224	11824
880.351	11870
880.478	11828
880.605	11878
880.732	11828
880.859	12041
880.986	11851
881.112	11893
881.239	11764
881.366	11608
881.493	11707
881.619	11585
881.746	11589
881.872	11566
881.999	11490
882.125	11558
882.252	11547
882.378	11486
882.505	11570
882.631	11349
882.757	11353
882.883	11303
883.01	11227
883.136	11197
883.262	11140
883.388	11102
883.514	11178
883.64	11102
883.766	11105
883.892	11037
884.018	10984
884.143	11014
884.269	11136
884.395	10915
884.52	10790
884.646	10744
884.772	10675
884.897	10664
885.023	10710
885.148	10698
885.274	10744
885.399	10592
885.524	10679
885.65	10558
885.775	10626
885.9	10603
886.025	10603
886.15	10500
886.275	10443
886.4	10409
886.525	10432
886.65	10443
886.775	10352
886.9	10481
887.025	10550
887.149	10341
887.274	10227
887.399	10295
887.523	10128
887.648	10128
887.773	10143
887.897	10185
888.021	10246
888.146	10105
888.27	10204
888.395	10276
888.519	10265
888.643	10215
888.767	10169
888.891	10067
889.015	10010
889.139	10078
889.263	9972
889.387	10017
889.511	10124
889.635	10154
889.759	9949
889.883	10032
890.006	10002
890.13	10090
890.254	10002
890.377	10017
890.501	9854
890.624	9850
890.748	9895
890.871	9797
890.995	9713
891.118	9728
891.241	9778
891.364	9793
891.488	9842
891.611	9781
891.734	9717
891.857	9755
891.98	9736
892.103	9781
892.226	9747
892.349	9652
892.471	9629
892.594	9561
892.717	9648
892.839	9622
892.962	9580
893.085	9717
893.207	9530
893.33	9500
893.452	9549
893.575	9572
893.697	9462
893.819	9606
893.941	9587
894.064	9515
894.186	9458
894.308	9477
894.43	9481
894.552	9584
894.674	9488
894.796	9359
894.918	9389
895.04	9367
895.161	9401
895.283	9367
895.405	9355
895.526	9260
895.648	9233
895.769	9241
895.891	9245
896.012	9279
896.134	9245
896.255	9214
896.376	9150
896.498	9123
896.619	9036
896.74	9089
896.861	9127
896.982	9268
897.103	9359
897.224	9165
897.345	9173
897.466	9043
897.587	9077
897.708	9089
897.828	9028
897.949	8990
898.07	8880
898.19	8925
898.311	9001
898.431	8910
898.552	8910
898.672	9032
898.792	8960
898.913	8956
899.033	8792
899.153	8762
899.273	8625
899.393	8682
899.513	8815
899.633	8788
899.753	8724
899.873	8754
899.993	8636
900.113	8689
900.232	8746
900.352	8773
900.472	8579
900.591	8640
900.711	8651
900.83	8610
900.95	8667
901.069	8720
901.189	8583
901.308	8454
901.427	8438
901.546	8423
901.665	8503
901.784	8454
901.904	8339
902.023	8298
902.141	8252
902.26	8187
902.379	8267
902.498	8221
902.617	8259
902.735	8290
902.854	8237
902.973	8328
903.091	8164
903.21	8164
903.328	8168
903.446	8180
903.565	8081
903.683	8096
903.801	8107
903.919	8153
904.038	8145
904.156	8008
904.274	8092
904.392	8027
904.51	7967
904.627	8123
904.745	8123
904.863	8081
904.981	7989
905.098	7951
905.216	7856
905.334	7909
905.451	7894
905.569	7925
905.686	7921
905.803	7849
905.921	7795
906.038	7864
906.155	7837
906.272	7681
906.389	7727
906.506	7670
906.623	7624
906.74	7597
906.857	7533
906.974	7605
907.091	7632
907.208	7727
907.324	7658
907.441	7544
907.557	7457
907.674	7426
907.79	7468
907.907	7384
908.023	7483
908.139	7430
908.256	7419
908.372	7392
908.488	7362
908.604	7373
908.72	7240
908.836	7232
908.952	7278
909.068	7320
909.184	7270
909.3	7209
909.415	7293
909.531	7312
909.647	7156
909.762	7217
909.878	7034
909.993	7110
910.108	7141
910.224	7129
910.339	7129
910.454	7076
910.57	7027
910.685	6973
910.8	7156
910.915	7091
911.03	7042
911.145	6920
911.259	6920
911.374	6886
911.489	6787
911.604	6825
911.718	6802
911.833	6749
911.947	6719
912.062	6650
912.176	6772
912.291	6730
912.405	6673
912.519	6779
912.633	6760
912.748	6738
912.862	6677
912.976	6612
913.09	6582
913.204	6631
913.318	6604
913.431	6681
913.545	6662
913.659	6829
913.772	6654
913.886	6589
914	6570
914.113	6650
914.226	6585
914.34	6547
914.453	6551
914.566	6597
914.68	6532
914.793	6547
914.906	6464
915.019	6407
915.132	6372
915.245	6479
915.358	6464
915.47	6475
915.583	6429
915.696	6509
915.809	6502
915.921	6559
916.034	6410
916.146	6418
916.259	6483
916.371	6460
916.483	6456
916.595	6407
916.708	6426
916.82	6410
916.932	6441
917.044	6414
917.156	6388
917.268	6327
917.38	6350
917.491	6353
917.603	6323
917.715	6445
917.826	6399
917.938	6384
918.049	6281
918.161	6372
918.272	6448
918.384	6452
918.495	6365
918.606	6296
918.717	6243
918.828	6281
918.939	6304
919.05	6258
919.161	6247
919.272	6129
919.383	6125
919.494	6289
919.604	6414
919.715	6342
919.826	6228
919.936	6270
920.047	6327
920.157	6270
920.267	6517
920.378	6346
920.488	6315
920.598	6483
920.708	6547
920.818	6502
920.928	6464
921.038	6627
921.148	6639
921.258	6376
921.368	6315
921.477	6220
921.587	6197
921.697	6038
921.806	6197
921.916	6106
922.025	5958
922.134	5958
922.244	5908
922.353	5931
922.462	5847
922.571	5786
922.68	5741
922.789	5676
922.898	5745
923.007	5646
923.116	5710
923.224	5684
923.333	5630
923.442	5642
923.55	5611
923.659	5585
923.767	5630
923.876	5642
923.984	5634
924.092	5497
924.201	5566
924.309	5562
924.417	5573
924.525	5501
924.633	5459
924.741	6175
924.849	5379
924.956	5471
925.064	5417
925.172	5334
925.279	5337
925.387	5379
925.494	5315
925.602	5406
925.709	5444
925.816	5288
925.924	5368
926.031	5433
926.138	5277
926.245	5360
926.352	5265
926.459	5379
926.566	5326
926.673	5246
926.779	5170
926.886	5166
926.993	5071
927.099	5045
927.206	4976
927.312	4968
927.419	5010
927.525	4953
927.631	5033
927.737	4961
927.843	4927
927.95	4828
928.056	4858
928.162	4873
928.267	4885
928.373	5376
928.479	4885
928.585	4679
928.69	4771
928.796	4782
928.901	4691
929.007	4596
929.112	4702
929.218	4603
929.323	4611
929.428	4603
929.533	4691
929.638	4554
929.743	4542
929.848	4561
929.953	4554
930.058	4451
930.163	4348
930.267	4348
930.372	4455
930.477	4348
930.581	4474
930.685	4383
930.79	4272
930.894	4318
930.998	4242
931.103	4394
931.207	4173
931.311	4082
931.415	4025
931.519	3941
931.623	3968
