Data from glass_V78500241_1608.txt Node
Date: Wed Sep 01 19:25:38 CST 2021
User: usil
Spectrometer: V785-0024
Trigger mode: 0
Integration Time (sec): 4.000000E-1
Scans to average: 1
Nonlinearity correction enabled: false
Boxcar width: 0
Storing dark spectrum: false
XAxis mode: Wavelengths
Number of Pixels in Spectrum: 1024
>>>>>Begin Spectral Data<<<<<
801.071	3751
801.214	3747
801.356	3690
801.499	3774
801.641	3701
801.783	3732
801.926	3873
802.068	3831
802.211	3896
802.353	3884
802.496	3850
802.638	3896
802.78	3884
802.923	3918
803.065	3972
803.208	3816
803.35	3911
803.492	3854
803.635	3907
803.777	3819
803.919	3907
804.061	4173
804.204	3979
804.346	3979
804.488	3892
804.63	4025
804.773	3953
804.915	4029
805.057	4162
805.199	4032
805.341	4105
805.483	4143
805.626	4116
805.768	4128
805.91	4227
806.052	4238
806.194	4234
806.336	4348
806.478	4268
806.62	4196
806.762	4185
806.904	4227
807.046	4398
807.188	4227
807.33	4177
807.472	4265
807.614	4196
807.756	4284
807.898	4215
808.04	4196
808.182	4257
808.324	4329
808.465	4375
808.607	4459
808.749	4436
808.891	4489
809.033	4443
809.174	4417
809.316	4287
809.458	4253
809.6	4154
809.741	4097
809.883	4204
810.025	4246
810.166	4253
810.308	4238
810.45	4219
810.591	4268
810.733	4299
810.875	4485
811.016	4778
811.158	5174
811.299	5254
811.441	5292
811.582	5075
811.724	4752
811.865	4424
812.007	4443
812.148	4402
812.29	4421
812.431	4428
812.573	4363
812.714	4402
812.855	4432
812.997	4402
813.138	4500
813.279	4428
813.421	4383
813.562	4337
813.703	4295
813.845	4284
813.986	4211
814.127	4181
814.268	4276
814.41	4325
814.551	4291
814.692	4386
814.833	4280
814.974	4284
815.115	4341
815.256	4219
815.397	4257
815.539	4287
815.68	4223
815.821	4234
815.962	4333
816.103	4249
816.244	4219
816.385	4204
816.526	4299
816.666	4227
816.807	4131
816.948	4166
817.089	4158
817.23	4120
817.371	4029
817.512	4040
817.653	4116
817.793	3994
817.934	4074
818.075	4109
818.216	4086
818.356	4090
818.497	4006
818.638	3896
818.778	3876
818.919	3880
819.06	3892
819.2	3926
819.341	3915
819.481	3865
819.622	3907
819.762	3994
819.903	3892
820.043	3816
820.184	3884
820.324	3819
820.465	3857
820.605	3823
820.746	3873
820.886	3835
821.026	3934
821.167	3915
821.307	3949
821.447	3983
821.588	3964
821.728	3949
821.868	3934
822.008	3846
822.149	3865
822.289	3964
822.429	3804
822.569	3778
822.709	3789
822.849	3686
822.99	3759
823.13	3747
823.27	3797
823.41	3724
823.55	3747
823.69	3720
823.83	3755
823.97	3660
824.11	3591
824.25	3618
824.389	3644
824.529	3698
824.669	3660
824.809	3675
824.949	3720
825.089	3774
825.228	3671
825.368	3580
825.508	3538
825.648	3549
825.787	3610
825.927	3679
826.067	3610
826.206	3656
826.346	3766
826.485	3842
826.625	3850
826.765	3945
826.904	3808
827.044	3606
827.183	3576
827.323	3435
827.462	3485
827.601	3450
827.741	3416
827.88	3458
828.02	3344
828.159	3469
828.298	3504
828.437	3530
828.577	3469
828.716	3629
828.855	3530
828.994	3416
829.134	3348
829.273	3405
829.412	3355
829.551	3336
829.69	3351
829.829	3431
829.968	3515
830.107	3416
830.246	3412
830.385	3367
830.524	3321
830.663	3317
830.802	3249
830.941	3192
831.08	3218
831.219	3256
831.357	3272
831.496	3378
831.635	3233
831.774	3161
831.913	3226
832.051	3119
832.19	3161
832.329	3249
832.467	3093
832.606	3085
832.744	3192
832.883	3165
833.022	3203
833.16	3230
833.299	3283
833.437	3310
833.576	3370
833.714	3386
833.852	3496
833.991	3466
834.129	3485
834.267	3462
834.406	3409
834.544	3420
834.682	3454
834.821	3409
834.959	3561
835.097	3431
835.235	3519
835.373	3496
835.511	3477
835.65	3492
835.788	3488
835.926	3416
836.064	3382
836.202	3431
836.34	3545
836.478	3625
836.615	3534
836.753	3606
836.891	3690
837.029	3660
837.167	3561
837.305	3572
837.443	3549
837.58	3504
837.718	3584
837.856	3599
837.993	3542
838.131	3549
838.269	3553
838.406	3587
838.544	3595
838.681	3450
838.819	3466
838.956	3355
839.094	3389
839.231	3450
839.369	3515
839.506	3720
839.643	3637
839.781	3526
839.918	3435
840.055	3519
840.193	3523
840.33	3557
840.467	3564
840.604	3618
840.742	3823
840.879	3526
841.016	3595
841.153	3610
841.29	3766
841.427	3663
841.564	3705
841.701	3751
841.838	3682
841.975	3682
842.112	3717
842.249	3633
842.385	3637
842.522	3808
842.659	3675
842.796	3660
842.933	3732
843.069	3694
843.206	3728
843.343	3797
843.479	3835
843.616	3823
843.752	3671
843.889	3656
844.025	3819
844.162	3755
844.298	3793
844.435	3766
844.571	3827
844.708	3884
844.844	3998
844.98	4006
845.117	3972
845.253	3930
845.389	3876
845.525	3915
845.661	3991
845.798	3911
845.934	3998
846.07	3911
846.206	4036
846.342	4150
846.478	4021
846.614	3945
846.75	3922
846.886	3892
847.022	4021
847.158	3975
847.294	3991
847.429	4010
847.565	4002
847.701	4249
847.837	3846
847.972	3880
848.108	4025
848.244	3926
848.379	3880
848.515	3819
848.65	3816
848.786	3835
848.921	3842
849.057	3937
849.192	3922
849.328	3918
849.463	3884
849.598	3915
849.734	3899
849.869	3850
850.004	3774
850.14	3838
850.275	3789
850.41	3694
850.545	3778
850.68	3789
850.815	3842
850.95	3816
851.085	3915
851.22	3854
851.355	3819
851.49	3785
851.625	3816
851.76	3781
851.895	3717
852.03	3747
852.165	3797
852.299	3850
852.434	3903
852.569	3838
852.703	3888
852.838	3918
852.973	3972
853.107	3949
853.242	3896
853.376	3876
853.511	3770
853.645	3827
853.78	3960
853.914	3896
854.048	3876
854.183	3846
854.317	3926
854.451	4051
854.585	3956
854.72	3979
854.854	4025
854.988	3915
855.122	3975
855.256	3922
855.39	4032
855.524	4101
855.658	4086
855.792	4071
855.926	4116
856.06	4192
856.194	4242
856.327	4162
856.461	4188
856.595	4177
856.729	4120
856.862	4246
856.996	4211
857.13	4333
857.263	4314
857.397	4344
857.53	4280
857.664	4371
857.797	4409
857.931	4440
858.064	4363
858.197	4447
858.331	4447
858.464	4394
858.597	4348
858.731	4474
858.864	4424
858.997	4478
859.13	4538
859.263	4527
859.396	4618
859.529	4508
859.662	4546
859.795	4462
859.928	4603
860.061	4767
860.194	4801
860.327	4630
860.46	4668
860.592	4771
860.725	4824
860.858	4733
860.99	4721
861.123	4687
861.256	4637
861.388	4729
861.521	5478
861.653	4733
861.786	4710
861.918	4736
862.05	4793
862.183	4858
862.315	4850
862.447	4919
862.58	4885
862.712	4801
862.844	4778
862.976	4847
863.108	4858
863.24	5242
863.372	4820
863.504	4946
863.636	4877
863.768	4984
863.9	4949
864.032	4908
864.164	4942
864.296	5022
864.428	5090
864.559	5136
864.691	5113
864.823	5136
864.954	5090
865.086	5098
865.217	5128
865.349	5079
865.48	5185
865.612	5189
865.743	5235
865.875	5170
866.006	5189
866.137	5231
866.269	5258
866.4	5174
866.531	5254
866.662	5189
866.793	5292
866.924	5299
867.055	5322
867.186	5288
867.317	5326
867.448	5311
867.579	5368
867.71	5383
867.841	5395
867.972	5455
868.103	5471
868.233	5490
868.364	5505
868.495	5562
868.625	5691
868.756	5813
868.886	5672
869.017	5703
869.147	5828
869.278	5824
869.408	5836
869.539	5855
869.669	5897
869.799	5923
869.929	5950
870.06	6041
870.19	6182
870.32	6205
870.45	6224
870.58	6327
870.71	6407
870.84	6467
870.97	6426
871.1	6441
871.23	6612
871.36	6719
871.489	6696
871.619	6749
871.749	6837
871.879	6833
872.008	7050
872.138	6943
872.267	7053
872.397	6985
872.526	7046
872.656	7137
872.785	7179
872.915	7392
873.044	7537
873.173	7594
873.303	7639
873.432	7780
873.561	7894
873.69	7925
873.819	7993
873.948	8214
874.077	8225
874.206	8351
874.335	8438
874.464	8644
874.593	8845
874.722	8899
874.851	9116
874.979	9298
875.108	9401
875.237	9420
875.365	9511
875.494	9641
875.623	9812
875.751	9842
875.88	9968
876.008	10181
876.136	10215
876.265	10516
876.393	10714
876.521	10710
876.65	10752
876.778	10786
876.906	10850
877.034	10957
877.162	11094
877.29	11052
877.418	11353
877.546	11379
877.674	11402
877.802	11482
877.93	11539
878.058	11524
878.185	11566
878.313	11707
878.441	11775
878.568	11688
878.696	11817
878.824	11885
878.951	11939
879.079	12060
879.206	12148
879.333	12011
879.461	11977
879.588	12095
879.715	12076
879.842	12091
879.97	12072
880.097	11958
880.224	11809
880.351	11946
880.478	11946
880.605	11954
880.732	11874
880.859	11920
880.986	11836
881.112	11897
881.239	11722
881.366	11627
881.493	11509
881.619	11474
881.746	11653
881.872	11528
881.999	11520
882.125	11474
882.252	11547
882.378	11490
882.505	11554
882.631	11360
882.757	11265
882.883	11227
883.01	11280
883.136	11239
883.262	11132
883.388	11124
883.514	11170
883.64	11121
883.766	11109
883.892	11029
884.018	11067
884.143	11102
884.269	11124
884.395	10900
884.52	10759
884.646	10805
884.772	10714
884.897	10706
885.023	10736
885.148	10656
885.274	10752
885.399	10668
885.524	10687
885.65	10622
885.775	10542
885.9	10554
886.025	10584
886.15	10500
886.275	10451
886.4	10402
886.525	10386
886.65	10390
886.775	10360
886.9	10554
887.025	10519
887.149	10325
887.274	10223
887.399	10211
887.523	10227
887.648	10162
887.773	10173
887.897	10173
888.021	10162
888.146	10139
888.27	10242
888.395	10246
888.519	10158
888.643	10124
888.767	10219
888.891	10139
889.015	10013
889.139	10063
889.263	10010
889.387	10090
889.511	10120
889.635	10044
889.759	9987
889.883	9964
890.006	10010
890.13	10105
890.254	9941
890.377	9998
890.501	9888
890.624	9934
890.748	9922
890.871	9701
890.995	9774
891.118	9682
891.241	9785
891.364	9778
891.488	9789
891.611	9812
891.734	9679
891.857	9762
891.98	9724
892.103	9842
892.226	9732
892.349	9690
892.471	9523
892.594	9599
892.717	9572
892.839	9618
892.962	9580
893.085	9663
893.207	9568
893.33	9542
893.452	9534
893.575	9542
893.697	9549
893.819	9603
893.941	9538
894.064	9553
894.186	9408
894.308	9443
894.43	9568
894.552	9603
894.674	9519
894.796	9393
894.918	9363
895.04	9374
895.161	9401
895.283	9249
895.405	9226
895.526	9245
895.648	9233
895.769	9169
895.891	9294
896.012	9241
896.134	9237
896.255	9188
896.376	9081
896.498	9127
896.619	9146
896.74	9138
896.861	9043
896.982	9233
897.103	9279
897.224	9154
897.345	9112
897.466	8998
897.587	8990
897.708	9138
897.828	9020
897.949	9032
898.07	8929
898.19	8895
898.311	9036
898.431	8994
898.552	8952
898.672	8929
898.792	8982
898.913	8933
899.033	8769
899.153	8739
899.273	8682
899.393	8659
899.513	8727
899.633	8766
899.753	8785
899.873	8701
899.993	8762
900.113	8682
900.232	8743
900.352	8689
900.472	8587
900.591	8617
900.711	8579
900.83	8514
900.95	8644
901.069	8720
901.189	8571
901.308	8427
901.427	8370
901.546	8419
901.665	8537
901.784	8564
901.904	8427
902.023	8309
902.141	8256
902.26	8279
902.379	8305
902.498	8202
902.617	8237
902.735	8328
902.854	8229
902.973	8237
903.091	8138
903.21	8168
903.328	8176
903.446	8081
903.565	8107
903.683	8092
903.801	8043
903.919	8183
904.038	8153
904.156	8035
904.274	8161
904.392	8016
904.51	8092
904.627	8065
904.745	8123
904.863	8103
904.981	7917
905.098	7913
905.216	7868
905.334	7925
905.451	7898
905.569	7868
905.686	7944
905.803	7898
905.921	7670
906.038	7852
906.155	7795
906.272	7746
906.389	7734
906.506	7670
906.623	7628
906.74	7575
906.857	7575
906.974	7563
907.091	7685
907.208	7696
907.324	7590
907.441	7537
907.557	7457
907.674	7480
907.79	7358
907.907	7369
908.023	7483
908.139	7400
908.256	7358
908.372	7346
908.488	7339
908.604	7240
908.72	7297
908.836	7278
908.952	7232
909.068	7259
909.184	7339
909.3	7244
909.415	7255
909.531	7240
909.647	7126
909.762	7118
909.878	7118
909.993	7187
910.108	7107
910.224	7088
910.339	7053
910.454	7076
910.57	6989
910.685	6958
910.8	7168
910.915	7137
911.03	7050
911.145	6935
911.259	6867
911.374	6821
911.489	6791
911.604	6825
911.718	6749
911.833	6700
911.947	6665
912.062	6589
912.176	6684
912.291	6730
912.405	6658
912.519	6825
912.633	6833
912.748	6719
912.862	6730
912.976	6616
913.09	6536
913.204	6616
913.318	6623
913.431	6646
913.545	6707
913.659	6802
913.772	6688
913.886	6563
914	6540
914.113	6604
914.226	6635
914.34	6620
914.453	6540
914.566	6593
914.68	6506
914.793	6578
914.906	6475
915.019	6399
915.132	6395
915.245	6418
915.358	6486
915.47	6452
915.583	6498
915.696	6498
915.809	6563
915.921	6574
916.034	6372
916.146	6464
916.259	6395
916.371	6467
916.483	6429
916.595	6456
916.708	6467
916.82	6441
916.932	6346
917.044	6445
917.156	6384
917.268	6315
917.38	6372
917.491	6391
917.603	6319
917.715	6403
917.826	6331
917.938	6304
918.049	6247
918.161	6292
918.272	6418
918.384	6418
918.495	6346
918.606	6285
918.717	6232
918.828	6216
918.939	6251
919.05	6235
919.161	6273
919.272	6091
919.383	6201
919.494	6304
919.604	6509
919.715	6224
919.826	6197
919.936	6235
920.047	6372
920.157	6296
920.267	6445
920.378	6338
920.488	6289
920.598	6460
920.708	6582
920.818	6452
920.928	6426
921.038	6582
921.148	6601
921.258	6308
921.368	6311
921.477	6228
921.587	6129
921.697	6053
921.806	6190
921.916	6087
922.025	5923
922.134	5916
922.244	5882
922.353	5973
922.462	5851
922.571	5832
922.68	5703
922.789	5684
922.898	5710
923.007	5627
923.116	5684
923.224	5665
923.333	5695
923.442	5619
923.55	5581
923.659	5570
923.767	5619
923.876	5505
923.984	5623
924.092	5455
924.201	5551
924.309	5573
924.417	5608
924.525	5516
924.633	5490
924.741	6251
924.849	5368
924.956	5501
925.064	5379
925.172	5360
925.279	5284
925.387	5307
925.494	5334
925.602	5440
925.709	5349
925.816	5280
925.924	5299
926.031	5341
926.138	5330
926.245	5330
926.352	5223
926.459	5349
926.566	5303
926.673	5208
926.779	5083
926.886	5151
926.993	5060
927.099	5010
927.206	4927
927.312	4976
927.419	5014
927.525	5037
927.631	4980
927.737	4877
927.843	4870
927.95	4771
928.056	4782
928.162	4908
928.267	4900
928.373	5307
928.479	4831
928.585	4683
928.69	4767
928.796	4763
928.901	4656
929.007	4584
929.112	4664
929.218	4607
929.323	4615
929.428	4569
929.533	4649
929.638	4489
929.743	4527
929.848	4584
929.953	4455
930.058	4443
930.163	4284
930.267	4379
930.372	4413
930.477	4276
930.581	4500
930.685	4352
930.79	4284
930.894	4299
930.998	4246
931.103	4371
931.207	4112
931.311	4055
931.415	4074
931.519	3922
931.623	3949
