Data from glass_V78500241_1075.txt Node
Date: Wed Sep 01 19:21:57 CST 2021
User: usil
Spectrometer: V785-0024
Trigger mode: 0
Integration Time (sec): 4.000000E-1
Scans to average: 1
Nonlinearity correction enabled: false
Boxcar width: 0
Storing dark spectrum: false
XAxis mode: Wavelengths
Number of Pixels in Spectrum: 1024
>>>>>Begin Spectral Data<<<<<
801.071	3816
801.214	3789
801.356	3705
801.499	3743
801.641	3713
801.783	3781
801.926	3876
802.068	3804
802.211	3854
802.353	3926
802.496	3797
802.638	3934
802.78	3911
802.923	3892
803.065	3926
803.208	3892
803.35	3873
803.492	3926
803.635	4006
803.777	3816
803.919	3918
804.061	4112
804.204	3975
804.346	3960
804.488	3930
804.63	4044
804.773	4010
804.915	4078
805.057	4139
805.199	4071
805.341	4086
805.483	4128
805.626	4177
805.768	4067
805.91	4196
806.052	4280
806.194	4234
806.336	4360
806.478	4223
806.62	4181
806.762	4177
806.904	4261
807.046	4344
807.188	4207
807.33	4219
807.472	4253
807.614	4188
807.756	4284
807.898	4204
808.04	4227
808.182	4284
808.324	4341
808.465	4394
808.607	4424
808.749	4470
808.891	4466
809.033	4451
809.174	4443
809.316	4291
809.458	4265
809.6	4166
809.741	4143
809.883	4169
810.025	4219
810.166	4204
810.308	4215
810.45	4242
810.591	4227
810.733	4249
810.875	4497
811.016	4835
811.158	5162
811.299	5296
811.441	5269
811.582	5022
811.724	4714
811.865	4462
812.007	4497
812.148	4440
812.29	4421
812.431	4417
812.573	4405
812.714	4379
812.855	4443
812.997	4398
813.138	4478
813.279	4432
813.421	4363
813.562	4402
813.703	4329
813.845	4325
813.986	4227
814.127	4211
814.268	4287
814.41	4318
814.551	4295
814.692	4329
814.833	4287
814.974	4322
815.115	4325
815.256	4272
815.397	4242
815.539	4268
815.68	4207
815.821	4219
815.962	4390
816.103	4341
816.244	4295
816.385	4227
816.526	4265
816.666	4230
816.807	4105
816.948	4196
817.089	4215
817.23	4116
817.371	4067
817.512	4032
817.653	4055
817.793	4036
817.934	4086
818.075	4124
818.216	4139
818.356	4067
818.497	4021
818.638	3926
818.778	3945
818.919	3896
819.06	3857
819.2	3953
819.341	3861
819.481	3857
819.622	3915
819.762	4017
819.903	3926
820.043	3854
820.184	3861
820.324	3876
820.465	3857
820.605	3857
820.746	3873
820.886	3827
821.026	3911
821.167	3941
821.307	3998
821.447	3956
821.588	3956
821.728	3949
821.868	3934
822.008	3899
822.149	3911
822.289	3896
822.429	3816
822.569	3808
822.709	3804
822.849	3728
822.99	3778
823.13	3740
823.27	3819
823.41	3713
823.55	3774
823.69	3728
823.83	3793
823.97	3663
824.11	3584
824.25	3587
824.389	3660
824.529	3671
824.669	3675
824.809	3736
824.949	3755
825.089	3732
825.228	3724
825.368	3561
825.508	3530
825.648	3568
825.787	3606
825.927	3644
826.067	3663
826.206	3671
826.346	3789
826.485	3857
826.625	3896
826.765	3930
826.904	3846
827.044	3618
827.183	3526
827.323	3439
827.462	3462
827.601	3435
827.741	3416
827.88	3447
828.02	3321
828.159	3458
828.298	3462
828.437	3515
828.577	3481
828.716	3610
828.855	3519
828.994	3412
829.134	3382
829.273	3420
829.412	3344
829.551	3351
829.69	3325
829.829	3428
829.968	3553
830.107	3454
830.246	3447
830.385	3447
830.524	3363
830.663	3291
830.802	3264
830.941	3218
831.08	3218
831.219	3253
831.357	3287
831.496	3416
831.635	3241
831.774	3195
831.913	3176
832.051	3108
832.19	3161
832.329	3241
832.467	3119
832.606	3123
832.744	3188
832.883	3188
833.022	3211
833.16	3275
833.299	3294
833.437	3332
833.576	3405
833.714	3420
833.852	3428
833.991	3450
834.129	3477
834.267	3439
834.406	3397
834.544	3401
834.682	3428
834.821	3412
834.959	3572
835.097	3450
835.235	3515
835.373	3481
835.511	3507
835.65	3481
835.788	3492
835.926	3370
836.064	3412
836.202	3412
836.34	3557
836.478	3618
836.615	3534
836.753	3599
836.891	3656
837.029	3629
837.167	3557
837.305	3561
837.443	3576
837.58	3492
837.718	3561
837.856	3545
837.993	3523
838.131	3618
838.269	3553
838.406	3610
838.544	3584
838.681	3473
838.819	3458
838.956	3389
839.094	3397
839.231	3439
839.369	3530
839.506	3724
839.643	3603
839.781	3511
839.918	3477
840.055	3542
840.193	3542
840.33	3526
840.467	3580
840.604	3584
840.742	3842
840.879	3519
841.016	3538
841.153	3629
841.29	3747
841.427	3690
841.564	3671
841.701	3724
841.838	3717
841.975	3698
842.112	3740
842.249	3705
842.385	3652
842.522	3816
842.659	3686
842.796	3644
842.933	3713
843.069	3717
843.206	3709
843.343	3865
843.479	3751
843.616	3808
843.752	3679
843.889	3728
844.025	3854
844.162	3740
844.298	3831
844.435	3800
844.571	3781
844.708	3915
844.844	4010
844.98	4017
845.117	3994
845.253	3953
845.389	3892
845.525	3964
845.661	3983
845.798	3960
845.934	4017
846.07	3979
846.206	4055
846.342	4143
846.478	4078
846.614	3979
846.75	3945
846.886	3907
847.022	4044
847.158	4017
847.294	3998
847.429	4006
847.565	4017
847.701	4200
847.837	3888
847.972	3892
848.108	4006
848.244	3964
848.379	3873
848.515	3842
848.65	3797
848.786	3854
848.921	3846
849.057	3964
849.192	3949
849.328	3926
849.463	3930
849.598	3861
849.734	3869
849.869	3850
850.004	3827
850.14	3819
850.275	3812
850.41	3736
850.545	3812
850.68	3778
850.815	3831
850.95	3808
851.085	3945
851.22	3903
851.355	3819
851.49	3778
851.625	3793
851.76	3823
851.895	3736
852.03	3804
852.165	3831
852.299	3888
852.434	3903
852.569	3857
852.703	3865
852.838	3884
852.973	4021
853.107	4025
853.242	3930
853.376	3812
853.511	3781
853.645	3854
853.78	3941
853.914	3896
854.048	3903
854.183	3888
854.317	3956
854.451	4120
854.585	3991
854.72	3907
854.854	4036
854.988	3899
855.122	4002
855.256	3937
855.39	4040
855.524	4131
855.658	4128
855.792	4124
855.926	4093
856.06	4192
856.194	4204
856.327	4143
856.461	4135
856.595	4124
856.729	4188
856.862	4276
856.996	4185
857.13	4306
857.263	4371
857.397	4322
857.53	4291
857.664	4333
857.797	4421
857.931	4478
858.064	4405
858.197	4466
858.331	4398
858.464	4440
858.597	4329
858.731	4432
858.864	4485
858.997	4470
859.13	4459
859.263	4512
859.396	4588
859.529	4512
859.662	4550
859.795	4500
859.928	4626
860.061	4721
860.194	4729
860.327	4649
860.46	4668
860.592	4687
860.725	4797
860.858	4714
860.99	4641
861.123	4656
861.256	4706
861.388	4801
861.521	5398
861.653	4736
861.786	4710
861.918	4733
862.05	4767
862.183	4824
862.315	4862
862.447	4915
862.58	4885
862.712	4786
862.844	4812
862.976	4881
863.108	4930
863.24	5235
863.372	4870
863.504	4915
863.636	4934
863.768	4987
863.9	4923
864.032	4942
864.164	5003
864.296	5041
864.428	5090
864.559	5105
864.691	5128
864.823	5117
864.954	5124
865.086	5178
865.217	5132
865.349	5124
865.48	5227
865.612	5227
865.743	5280
865.875	5223
866.006	5201
866.137	5235
866.269	5201
866.4	5280
866.531	5227
866.662	5307
866.793	5254
866.924	5292
867.055	5326
867.186	5364
867.317	5318
867.448	5341
867.579	5379
867.71	5414
867.841	5452
867.972	5467
868.103	5444
868.233	5490
868.364	5516
868.495	5573
868.625	5722
868.756	5809
868.886	5668
869.017	5783
869.147	5874
869.278	5904
869.408	5790
869.539	5824
869.669	5958
869.799	5897
869.929	6015
870.06	6041
870.19	6186
870.32	6171
870.45	6285
870.58	6365
870.71	6418
870.84	6483
870.97	6479
871.1	6456
871.23	6646
871.36	6707
871.489	6639
871.619	6741
871.749	6798
871.879	6840
872.008	7015
872.138	6924
872.267	7031
872.397	6989
872.526	7110
872.656	7061
872.785	7225
872.915	7350
873.044	7559
873.173	7563
873.303	7658
873.432	7795
873.561	7898
873.69	7894
873.819	8024
873.948	8191
874.077	8221
874.206	8320
874.335	8434
874.464	8674
874.593	8811
874.722	8933
874.851	9184
874.979	9253
875.108	9363
875.237	9401
875.365	9469
875.494	9641
875.623	9804
875.751	9823
875.88	10074
876.008	10078
876.136	10287
876.265	10493
876.393	10660
876.521	10755
876.65	10809
876.778	10877
876.906	10900
877.034	10930
877.162	11067
877.29	11128
877.418	11341
877.546	11337
877.674	11490
877.802	11455
877.93	11596
878.058	11562
878.185	11596
878.313	11684
878.441	11646
878.568	11688
878.696	11752
878.824	11851
878.951	11889
879.079	12076
879.206	12148
879.333	12098
879.461	11965
879.588	12030
879.715	12072
879.842	12152
879.97	12041
880.097	11897
880.224	11836
880.351	11851
880.478	11923
880.605	11904
880.732	11847
880.859	11977
880.986	11836
881.112	11889
881.239	11691
881.366	11748
881.493	11596
881.619	11547
881.746	11566
881.872	11566
881.999	11547
882.125	11455
882.252	11551
882.378	11433
882.505	11581
882.631	11452
882.757	11356
882.883	11284
883.01	11322
883.136	11204
883.262	11166
883.388	11098
883.514	11201
883.64	11204
883.766	11204
883.892	11083
884.018	10980
884.143	11037
884.269	11105
884.395	10839
884.52	10771
884.646	10778
884.772	10755
884.897	10714
885.023	10733
885.148	10664
885.274	10698
885.399	10683
885.524	10675
885.65	10626
885.775	10603
885.9	10508
886.025	10592
886.15	10535
886.275	10512
886.4	10428
886.525	10443
886.65	10394
886.775	10382
886.9	10489
887.025	10512
887.149	10455
887.274	10223
887.399	10215
887.523	10249
887.648	10204
887.773	10185
887.897	10200
888.021	10246
888.146	10082
888.27	10325
888.395	10261
888.519	10177
888.643	10154
888.767	10169
888.891	10086
889.015	9972
889.139	10063
889.263	10063
889.387	10196
889.511	10169
889.635	10048
889.759	9926
889.883	10048
890.006	9998
890.13	10109
890.254	10021
890.377	9979
890.501	9835
890.624	9915
890.748	9861
890.871	9816
890.995	9778
891.118	9743
891.241	9831
891.364	9660
891.488	9766
891.611	9785
891.734	9755
891.857	9720
891.98	9762
892.103	9808
892.226	9778
892.349	9682
892.471	9610
892.594	9682
892.717	9622
892.839	9629
892.962	9629
893.085	9625
893.207	9557
893.33	9511
893.452	9496
893.575	9564
893.697	9572
893.819	9572
893.941	9618
894.064	9587
894.186	9473
894.308	9370
894.43	9507
894.552	9557
894.674	9492
894.796	9408
894.918	9416
895.04	9348
895.161	9386
895.283	9363
895.405	9264
895.526	9344
895.648	9237
895.769	9218
895.891	9363
896.012	9291
896.134	9211
896.255	9127
896.376	9116
896.498	9116
896.619	9173
896.74	9081
896.861	9077
896.982	9291
897.103	9321
897.224	9195
897.345	9085
897.466	9047
897.587	9081
897.708	9146
897.828	9081
897.949	8971
898.07	8883
898.19	8887
898.311	8979
898.431	8937
898.552	8929
898.672	8979
898.792	8933
898.913	8963
899.033	8766
899.153	8735
899.273	8670
899.393	8743
899.513	8762
899.633	8689
899.753	8781
899.873	8648
899.993	8777
900.113	8727
900.232	8716
900.352	8663
900.472	8629
900.591	8594
900.711	8636
900.83	8564
900.95	8659
901.069	8651
901.189	8507
901.308	8480
901.427	8400
901.546	8389
901.665	8549
901.784	8503
901.904	8454
902.023	8389
902.141	8259
902.26	8180
902.379	8290
902.498	8240
902.617	8183
902.735	8256
902.854	8279
902.973	8233
903.091	8161
903.21	8145
903.328	8180
903.446	8130
903.565	8115
903.683	8115
903.801	8046
903.919	8130
904.038	8142
904.156	8054
904.274	8103
904.392	8039
904.51	8035
904.627	8065
904.745	8058
904.863	8123
904.981	7959
905.098	7944
905.216	7894
905.334	7951
905.451	7883
905.569	7887
905.686	7894
905.803	7936
905.921	7826
906.038	7883
906.155	7860
906.272	7708
906.389	7715
906.506	7643
906.623	7613
906.74	7590
906.857	7578
906.974	7556
907.091	7693
907.208	7685
907.324	7666
907.441	7567
907.557	7483
907.674	7407
907.79	7354
907.907	7362
908.023	7487
908.139	7449
908.256	7346
908.372	7407
908.488	7369
908.604	7293
908.72	7255
908.836	7305
908.952	7305
909.068	7346
909.184	7316
909.3	7225
909.415	7331
909.531	7282
909.647	7118
909.762	7145
909.878	7110
909.993	7088
910.108	7095
910.224	7072
910.339	7095
910.454	7069
910.57	7072
910.685	6993
910.8	7225
910.915	7099
911.03	7008
911.145	6924
911.259	6848
911.374	6875
911.489	6814
911.604	6821
911.718	6734
911.833	6791
911.947	6703
912.062	6654
912.176	6696
912.291	6776
912.405	6681
912.519	6859
912.633	6844
912.748	6726
912.862	6684
912.976	6574
913.09	6559
913.204	6589
913.318	6642
913.431	6722
913.545	6734
913.659	6726
913.772	6684
913.886	6563
914	6582
914.113	6616
914.226	6635
914.34	6601
914.453	6494
914.566	6612
914.68	6502
914.793	6555
914.906	6448
915.019	6437
915.132	6346
915.245	6426
915.358	6391
915.47	6471
915.583	6483
915.696	6452
915.809	6566
915.921	6506
916.034	6407
916.146	6372
916.259	6414
916.371	6471
916.483	6452
916.595	6380
916.708	6422
916.82	6437
916.932	6380
917.044	6395
917.156	6361
917.268	6315
917.38	6380
917.491	6338
917.603	6353
917.715	6422
917.826	6445
917.938	6350
918.049	6273
918.161	6350
918.272	6445
918.384	6445
918.495	6285
918.606	6247
918.717	6178
918.828	6270
918.939	6285
919.05	6258
919.161	6296
919.272	6110
919.383	6171
919.494	6323
919.604	6418
919.715	6266
919.826	6155
919.936	6235
920.047	6380
920.157	6304
920.267	6456
920.378	6395
920.488	6285
920.598	6441
920.708	6620
920.818	6479
920.928	6479
921.038	6566
921.148	6578
921.258	6353
921.368	6311
921.477	6228
921.587	6228
921.697	6144
921.806	6213
921.916	6087
922.025	5916
922.134	5973
922.244	5904
922.353	5939
922.462	5844
922.571	5775
922.68	5748
922.789	5695
922.898	5729
923.007	5649
923.116	5733
923.224	5691
923.333	5684
923.442	5615
923.55	5562
923.659	5535
923.767	5630
923.876	5573
923.984	5615
924.092	5478
924.201	5554
924.309	5516
924.417	5577
924.525	5512
924.633	5505
924.741	6273
924.849	5414
924.956	5478
925.064	5368
925.172	5349
925.279	5330
925.387	5341
925.494	5334
925.602	5425
925.709	5391
925.816	5277
925.924	5303
926.031	5398
926.138	5345
926.245	5322
926.352	5220
926.459	5337
926.566	5330
926.673	5227
926.779	5155
926.886	5094
926.993	5083
927.099	5025
927.206	4949
927.312	4991
927.419	5018
927.525	4999
927.631	4972
927.737	4885
927.843	4862
927.95	4778
928.056	4870
928.162	4889
928.267	4873
928.373	5376
928.479	4835
928.585	4698
928.69	4755
928.796	4790
928.901	4721
929.007	4599
929.112	4714
929.218	4641
929.323	4599
929.428	4561
929.533	4649
929.638	4523
929.743	4565
929.848	4565
929.953	4561
930.058	4432
930.163	4322
930.267	4379
930.372	4462
930.477	4322
930.581	4512
930.685	4367
930.79	4238
930.894	4295
930.998	4284
931.103	4428
931.207	4154
931.311	4086
931.415	4055
931.519	3930
931.623	3930
