Data from glass_V78500241_1585.txt Node
Date: Wed Sep 01 19:25:29 CST 2021
User: usil
Spectrometer: V785-0024
Trigger mode: 0
Integration Time (sec): 4.000000E-1
Scans to average: 1
Nonlinearity correction enabled: false
Boxcar width: 0
Storing dark spectrum: false
XAxis mode: Wavelengths
Number of Pixels in Spectrum: 1024
>>>>>Begin Spectral Data<<<<<
801.071	3755
801.214	3747
801.356	3717
801.499	3724
801.641	3720
801.783	3789
801.926	3899
802.068	3816
802.211	3823
802.353	3892
802.496	3819
802.638	3888
802.78	3876
802.923	3937
803.065	3945
803.208	3846
803.35	3892
803.492	3922
803.635	3899
803.777	3819
803.919	3861
804.061	4131
804.204	3918
804.346	3911
804.488	3926
804.63	3998
804.773	3915
804.915	4051
805.057	4128
805.199	4071
805.341	4109
805.483	4143
805.626	4078
805.768	4105
805.91	4219
806.052	4234
806.194	4211
806.336	4344
806.478	4219
806.62	4181
806.762	4219
806.904	4246
807.046	4306
807.188	4223
807.33	4196
807.472	4280
807.614	4253
807.756	4257
807.898	4188
808.04	4257
808.182	4280
808.324	4318
808.465	4379
808.607	4489
808.749	4436
808.891	4497
809.033	4440
809.174	4417
809.316	4219
809.458	4276
809.6	4162
809.741	4169
809.883	4173
810.025	4215
810.166	4169
810.308	4234
810.45	4268
810.591	4246
810.733	4276
810.875	4512
811.016	4797
811.158	5083
811.299	5299
811.441	5292
811.582	5041
811.724	4698
811.865	4497
812.007	4428
812.148	4470
812.29	4386
812.431	4386
812.573	4371
812.714	4405
812.855	4428
812.997	4390
813.138	4459
813.279	4451
813.421	4405
813.562	4390
813.703	4348
813.845	4352
813.986	4272
814.127	4173
814.268	4291
814.41	4299
814.551	4284
814.692	4341
814.833	4306
814.974	4265
815.115	4329
815.256	4268
815.397	4215
815.539	4242
815.68	4204
815.821	4249
815.962	4329
816.103	4272
816.244	4204
816.385	4223
816.526	4272
816.666	4242
816.807	4082
816.948	4158
817.089	4169
817.23	4143
817.371	4048
817.512	4036
817.653	4086
817.793	4040
817.934	4029
818.075	4090
818.216	4109
818.356	4074
818.497	3998
818.638	3937
818.778	3903
818.919	3911
819.06	3892
819.2	3964
819.341	3854
819.481	3835
819.622	3911
819.762	4017
819.903	3911
820.043	3892
820.184	3838
820.324	3835
820.465	3899
820.605	3884
820.746	3861
820.886	3808
821.026	3892
821.167	3884
821.307	3987
821.447	3975
821.588	3922
821.728	3922
821.868	3884
822.008	3850
822.149	3956
822.289	3911
822.429	3781
822.569	3793
822.709	3793
822.849	3732
822.99	3717
823.13	3732
823.27	3793
823.41	3705
823.55	3713
823.69	3705
823.83	3755
823.97	3660
824.11	3610
824.25	3614
824.389	3629
824.529	3633
824.669	3599
824.809	3709
824.949	3751
825.089	3747
825.228	3720
825.368	3576
825.508	3576
825.648	3610
825.787	3629
825.927	3625
826.067	3633
826.206	3633
826.346	3797
826.485	3850
826.625	3907
826.765	3956
826.904	3861
827.044	3633
827.183	3526
827.323	3431
827.462	3519
827.601	3450
827.741	3405
827.88	3454
828.02	3420
828.159	3424
828.298	3462
828.437	3534
828.577	3420
828.716	3549
828.855	3488
828.994	3412
829.134	3393
829.273	3401
829.412	3389
829.551	3329
829.69	3348
829.829	3439
829.968	3515
830.107	3431
830.246	3447
830.385	3359
830.524	3336
830.663	3291
830.802	3256
830.941	3218
831.08	3214
831.219	3237
831.357	3260
831.496	3412
831.635	3207
831.774	3180
831.913	3230
832.051	3138
832.19	3176
832.329	3214
832.467	3135
832.606	3108
832.744	3192
832.883	3176
833.022	3192
833.16	3272
833.299	3275
833.437	3344
833.576	3374
833.714	3367
833.852	3466
833.991	3439
834.129	3443
834.267	3424
834.406	3382
834.544	3424
834.682	3420
834.821	3450
834.959	3561
835.097	3378
835.235	3534
835.373	3488
835.511	3515
835.65	3450
835.788	3507
835.926	3428
836.064	3351
836.202	3416
836.34	3561
836.478	3614
836.615	3511
836.753	3576
836.891	3694
837.029	3618
837.167	3580
837.305	3557
837.443	3553
837.58	3526
837.718	3618
837.856	3591
837.993	3580
838.131	3587
838.269	3542
838.406	3564
838.544	3549
838.681	3439
838.819	3416
838.956	3374
839.094	3420
839.231	3424
839.369	3553
839.506	3717
839.643	3618
839.781	3500
839.918	3431
840.055	3515
840.193	3549
840.33	3523
840.467	3591
840.604	3606
840.742	3781
840.879	3526
841.016	3526
841.153	3587
841.29	3762
841.427	3724
841.564	3720
841.701	3728
841.838	3671
841.975	3713
842.112	3698
842.249	3637
842.385	3652
842.522	3797
842.659	3675
842.796	3698
842.933	3732
843.069	3724
843.206	3698
843.343	3808
843.479	3759
843.616	3850
843.752	3637
843.889	3656
844.025	3819
844.162	3747
844.298	3854
844.435	3793
844.571	3823
844.708	3911
844.844	3937
844.98	4029
845.117	3975
845.253	3983
845.389	3884
845.525	3987
845.661	3884
845.798	3907
845.934	4017
846.07	3945
846.206	4032
846.342	4124
846.478	4071
846.614	4006
846.75	3930
846.886	3934
847.022	4051
847.158	4017
847.294	3983
847.429	3998
847.565	3998
847.701	4234
847.837	3880
847.972	3880
848.108	4013
848.244	3956
848.379	3888
848.515	3819
848.65	3785
848.786	3808
848.921	3838
849.057	3987
849.192	3922
849.328	3945
849.463	3949
849.598	3846
849.734	3869
849.869	3831
850.004	3797
850.14	3793
850.275	3778
850.41	3751
850.545	3762
850.68	3766
850.815	3785
850.95	3762
851.085	3915
851.22	3892
851.355	3838
851.49	3793
851.625	3778
851.76	3789
851.895	3740
852.03	3732
852.165	3812
852.299	3831
852.434	3892
852.569	3831
852.703	3884
852.838	3907
852.973	4059
853.107	3994
853.242	3873
853.376	3827
853.511	3785
853.645	3793
853.78	4002
853.914	3918
854.048	3869
854.183	3888
854.317	3915
854.451	4055
854.585	3926
854.72	3945
854.854	4067
854.988	3949
855.122	4006
855.256	3899
855.39	4078
855.524	4135
855.658	4112
855.792	4040
855.926	4139
856.06	4173
856.194	4215
856.327	4150
856.461	4063
856.595	4177
856.729	4173
856.862	4204
856.996	4257
857.13	4356
857.263	4303
857.397	4390
857.53	4249
857.664	4390
857.797	4398
857.931	4451
858.064	4375
858.197	4440
858.331	4398
858.464	4386
858.597	4329
858.731	4428
858.864	4447
858.997	4466
859.13	4504
859.263	4527
859.396	4603
859.529	4512
859.662	4535
859.795	4538
859.928	4569
860.061	4683
860.194	4733
860.327	4656
860.46	4622
860.592	4698
860.725	4790
860.858	4790
860.99	4668
861.123	4660
861.256	4679
861.388	4790
861.521	5528
861.653	4725
861.786	4759
861.918	4733
862.05	4774
862.183	4850
862.315	4919
862.447	4942
862.58	4892
862.712	4774
862.844	4786
862.976	4877
863.108	4870
863.24	5273
863.372	4862
863.504	4885
863.636	4870
863.768	4953
863.9	4938
864.032	4896
864.164	4987
864.296	4995
864.428	5090
864.559	5105
864.691	5155
864.823	5094
864.954	5109
865.086	5151
865.217	5124
865.349	5098
865.48	5132
865.612	5166
865.743	5322
865.875	5185
866.006	5258
866.137	5258
866.269	5239
866.4	5277
866.531	5227
866.662	5254
866.793	5284
866.924	5296
867.055	5345
867.186	5345
867.317	5318
867.448	5345
867.579	5391
867.71	5383
867.841	5364
867.972	5436
868.103	5471
868.233	5474
868.364	5493
868.495	5524
868.625	5657
868.756	5771
868.886	5707
869.017	5745
869.147	5821
869.278	5851
869.408	5836
869.539	5870
869.669	5939
869.799	5874
869.929	6022
870.06	6030
870.19	6125
870.32	6171
870.45	6315
870.58	6304
870.71	6448
870.84	6513
870.97	6471
871.1	6388
871.23	6684
871.36	6726
871.489	6688
871.619	6783
871.749	6787
871.879	6825
872.008	6973
872.138	6981
872.267	7019
872.397	6993
872.526	6996
872.656	7099
872.785	7206
872.915	7400
873.044	7514
873.173	7533
873.303	7628
873.432	7795
873.561	7868
873.69	7955
873.819	8084
873.948	8138
874.077	8240
874.206	8381
874.335	8480
874.464	8606
874.593	8811
874.722	8948
874.851	9142
874.979	9253
875.108	9367
875.237	9416
875.365	9526
875.494	9641
875.623	9793
875.751	9857
875.88	10036
876.008	10162
876.136	10230
876.265	10565
876.393	10622
876.521	10801
876.65	10850
876.778	10839
876.906	10995
877.034	11006
877.162	11128
877.29	11121
877.418	11284
877.546	11391
877.674	11505
877.802	11478
877.93	11520
878.058	11520
878.185	11570
878.313	11672
878.441	11840
878.568	11642
878.696	11805
878.824	11901
878.951	11870
879.079	11923
879.206	12152
879.333	12095
879.461	11973
879.588	12064
879.715	12072
879.842	12270
879.97	12102
880.097	11851
880.224	11866
880.351	11904
880.478	11866
880.605	11771
880.732	11802
880.859	11992
880.986	11741
881.112	11790
881.239	11733
881.366	11642
881.493	11604
881.619	11554
881.746	11608
881.872	11592
881.999	11589
882.125	11486
882.252	11490
882.378	11528
882.505	11539
882.631	11410
882.757	11356
882.883	11383
883.01	11322
883.136	11212
883.262	11140
883.388	11071
883.514	11170
883.64	11128
883.766	11132
883.892	10999
884.018	11014
884.143	11067
884.269	11181
884.395	10816
884.52	10805
884.646	10736
884.772	10687
884.897	10622
885.023	10721
885.148	10645
885.274	10835
885.399	10645
885.524	10550
885.65	10641
885.775	10603
885.9	10584
886.025	10550
886.15	10508
886.275	10481
886.4	10413
886.525	10432
886.65	10386
886.775	10284
886.9	10489
887.025	10470
887.149	10356
887.274	10238
887.399	10166
887.523	10090
887.648	10219
887.773	10105
887.897	10215
888.021	10192
888.146	10169
888.27	10268
888.395	10162
888.519	10200
888.643	10139
888.767	10211
888.891	10109
889.015	10040
889.139	9987
889.263	9975
889.387	10090
889.511	10154
889.635	10025
889.759	9880
889.883	9991
890.006	10059
890.13	9983
890.254	10032
890.377	9972
890.501	9846
890.624	9869
890.748	9857
890.871	9831
890.995	9778
891.118	9713
891.241	9762
891.364	9785
891.488	9766
891.611	9648
891.734	9785
891.857	9831
891.98	9682
892.103	9755
892.226	9667
892.349	9701
892.471	9526
892.594	9591
892.717	9549
892.839	9618
892.962	9549
893.085	9614
893.207	9591
893.33	9477
893.452	9469
893.575	9591
893.697	9450
893.819	9591
893.941	9622
894.064	9568
894.186	9462
894.308	9447
894.43	9534
894.552	9557
894.674	9545
894.796	9443
894.918	9340
895.04	9313
895.161	9443
895.283	9378
895.405	9260
895.526	9321
895.648	9302
895.769	9268
895.891	9287
896.012	9245
896.134	9287
896.255	9188
896.376	9230
896.498	9127
896.619	9127
896.74	9077
896.861	9085
896.982	9264
897.103	9363
897.224	9222
897.345	9013
897.466	9051
897.587	9039
897.708	9138
897.828	9001
897.949	8880
898.07	8902
898.19	8838
898.311	8979
898.431	8921
898.552	8925
898.672	8994
898.792	8910
898.913	8948
899.033	8815
899.153	8773
899.273	8727
899.393	8640
899.513	8758
899.633	8712
899.753	8693
899.873	8648
899.993	8758
900.113	8724
900.232	8712
900.352	8682
900.472	8571
900.591	8564
900.711	8522
900.83	8583
900.95	8655
901.069	8735
901.189	8560
901.308	8450
901.427	8400
901.546	8438
901.665	8492
901.784	8434
901.904	8415
902.023	8339
902.141	8259
902.26	8267
902.379	8317
902.498	8202
902.617	8214
902.735	8271
902.854	8324
902.973	8282
903.091	8100
903.21	8210
903.328	8168
903.446	8084
903.565	8027
903.683	8065
903.801	8008
903.919	8126
904.038	8153
904.156	8024
904.274	8073
904.392	8031
904.51	7993
904.627	7978
904.745	8062
904.863	8157
904.981	7894
905.098	7860
905.216	7849
905.334	7947
905.451	7909
905.569	7913
905.686	7909
905.803	7833
905.921	7818
906.038	7928
906.155	7795
906.272	7651
906.389	7658
906.506	7674
906.623	7537
906.74	7590
906.857	7533
906.974	7533
907.091	7597
907.208	7723
907.324	7647
907.441	7563
907.557	7510
907.674	7403
907.79	7377
907.907	7419
908.023	7438
908.139	7419
908.256	7381
908.372	7350
908.488	7339
908.604	7289
908.72	7202
908.836	7244
908.952	7270
909.068	7320
909.184	7343
909.3	7278
909.415	7251
909.531	7308
909.647	7110
909.762	7091
909.878	7072
909.993	7133
910.108	7034
910.224	7053
910.339	7091
910.454	7061
910.57	7107
910.685	6989
910.8	7145
910.915	7061
911.03	6985
911.145	6901
911.259	6894
911.374	6939
911.489	6810
911.604	6825
911.718	6719
911.833	6741
911.947	6662
912.062	6616
912.176	6772
912.291	6696
912.405	6642
912.519	6791
912.633	6821
912.748	6703
912.862	6692
912.976	6711
913.09	6532
913.204	6608
913.318	6623
913.431	6650
913.545	6684
913.659	6745
913.772	6677
913.886	6623
914	6506
914.113	6688
914.226	6677
914.34	6658
914.453	6448
914.566	6681
914.68	6456
914.793	6540
914.906	6475
915.019	6372
915.132	6376
915.245	6388
915.358	6391
915.47	6410
915.583	6395
915.696	6464
915.809	6536
915.921	6521
916.034	6464
916.146	6399
916.259	6338
916.371	6460
916.483	6456
916.595	6403
916.708	6414
916.82	6399
916.932	6376
917.044	6391
917.156	6445
917.268	6353
917.38	6388
917.491	6308
917.603	6334
917.715	6361
917.826	6437
917.938	6262
918.049	6216
918.161	6338
918.272	6475
918.384	6452
918.495	6342
918.606	6251
918.717	6216
918.828	6251
918.939	6308
919.05	6254
919.161	6243
919.272	6133
919.383	6072
919.494	6331
919.604	6426
919.715	6334
919.826	6232
919.936	6270
920.047	6296
920.157	6228
920.267	6456
920.378	6311
920.488	6285
920.598	6429
920.708	6627
920.818	6490
920.928	6479
921.038	6650
921.148	6555
921.258	6350
921.368	6251
921.477	6205
921.587	6186
921.697	6060
921.806	6178
921.916	6076
922.025	5996
922.134	5923
922.244	5882
922.353	5954
922.462	5863
922.571	5805
922.68	5699
922.789	5668
922.898	5745
923.007	5630
923.116	5737
923.224	5691
923.333	5649
923.442	5638
923.55	5570
923.659	5573
923.767	5634
923.876	5539
923.984	5619
924.092	5493
924.201	5467
924.309	5558
924.417	5482
924.525	5512
924.633	5535
924.741	6133
924.849	5353
924.956	5459
925.064	5383
925.172	5277
925.279	5299
925.387	5383
925.494	5277
925.602	5414
925.709	5357
925.816	5337
925.924	5261
926.031	5398
926.138	5303
926.245	5326
926.352	5223
926.459	5326
926.566	5334
926.673	5242
926.779	5193
926.886	5121
926.993	5006
927.099	5014
927.206	4934
927.312	4946
927.419	5041
927.525	4999
927.631	4968
927.737	4885
927.843	4873
927.95	4759
928.056	4866
928.162	4793
928.267	4873
928.373	5337
928.479	4831
928.585	4653
928.69	4797
928.796	4786
928.901	4637
929.007	4592
929.112	4717
929.218	4626
929.323	4592
929.428	4584
929.533	4660
929.638	4459
929.743	4546
929.848	4531
929.953	4459
930.058	4474
930.163	4333
930.267	4310
930.372	4447
930.477	4322
930.581	4478
930.685	4363
930.79	4230
930.894	4234
930.998	4230
931.103	4379
931.207	4128
931.311	4105
931.415	4029
931.519	3899
931.623	3937
