Data from glass_V78500241_1666.txt Node
Date: Wed Sep 01 19:26:02 CST 2021
User: usil
Spectrometer: V785-0024
Trigger mode: 0
Integration Time (sec): 4.000000E-1
Scans to average: 1
Nonlinearity correction enabled: false
Boxcar width: 0
Storing dark spectrum: false
XAxis mode: Wavelengths
Number of Pixels in Spectrum: 1024
>>>>>Begin Spectral Data<<<<<
801.071	3717
801.214	3793
801.356	3705
801.499	3759
801.641	3724
801.783	3785
801.926	3850
802.068	3816
802.211	3857
802.353	3915
802.496	3835
802.638	3892
802.78	3861
802.923	3918
803.065	3907
803.208	3850
803.35	3896
803.492	3915
803.635	3911
803.777	3797
803.919	3937
804.061	4143
804.204	3987
804.346	3934
804.488	3892
804.63	4013
804.773	3953
804.915	4044
805.057	4139
805.199	4063
805.341	4067
805.483	4150
805.626	4131
805.768	4120
805.91	4215
806.052	4242
806.194	4200
806.336	4356
806.478	4211
806.62	4131
806.762	4177
806.904	4287
807.046	4318
807.188	4162
807.33	4166
807.472	4227
807.614	4188
807.756	4306
807.898	4238
808.04	4238
808.182	4295
808.324	4333
808.465	4360
808.607	4516
808.749	4421
808.891	4451
809.033	4485
809.174	4421
809.316	4261
809.458	4257
809.6	4185
809.741	4139
809.883	4135
810.025	4242
810.166	4204
810.308	4196
810.45	4257
810.591	4257
810.733	4265
810.875	4508
811.016	4835
811.158	5121
811.299	5280
811.441	5311
811.582	5045
811.724	4710
811.865	4481
812.007	4516
812.148	4424
812.29	4428
812.431	4443
812.573	4440
812.714	4306
812.855	4383
812.997	4405
813.138	4470
813.279	4394
813.421	4367
813.562	4405
813.703	4356
813.845	4356
813.986	4227
814.127	4230
814.268	4284
814.41	4306
814.551	4238
814.692	4344
814.833	4268
814.974	4314
815.115	4329
815.256	4287
815.397	4215
815.539	4249
815.68	4147
815.821	4219
815.962	4341
816.103	4291
816.244	4188
816.385	4268
816.526	4268
816.666	4192
816.807	4101
816.948	4207
817.089	4192
817.23	4128
817.371	4059
817.512	4055
817.653	4093
817.793	4013
817.934	4051
818.075	4074
818.216	4044
818.356	4025
818.497	3994
818.638	3937
818.778	3918
818.919	3911
819.06	3876
819.2	3892
819.341	3857
819.481	3854
819.622	3953
819.762	4036
819.903	3964
820.043	3873
820.184	3812
820.324	3842
820.465	3922
820.605	3884
820.746	3850
820.886	3812
821.026	3918
821.167	3915
821.307	3964
821.447	3964
821.588	3945
821.728	3907
821.868	3941
822.008	3823
822.149	3865
822.289	3930
822.429	3770
822.569	3774
822.709	3823
822.849	3682
822.99	3705
823.13	3774
823.27	3778
823.41	3694
823.55	3736
823.69	3740
823.83	3743
823.97	3644
824.11	3580
824.25	3614
824.389	3644
824.529	3625
824.669	3606
824.809	3694
824.949	3770
825.089	3709
825.228	3663
825.368	3591
825.508	3580
825.648	3618
825.787	3576
825.927	3633
826.067	3644
826.206	3656
826.346	3819
826.485	3800
826.625	3846
826.765	3968
826.904	3831
827.044	3610
827.183	3507
827.323	3439
827.462	3439
827.601	3454
827.741	3435
827.88	3458
828.02	3370
828.159	3462
828.298	3488
828.437	3530
828.577	3485
828.716	3606
828.855	3485
828.994	3367
829.134	3355
829.273	3409
829.412	3363
829.551	3378
829.69	3344
829.829	3420
829.968	3500
830.107	3447
830.246	3424
830.385	3351
830.524	3344
830.663	3329
830.802	3264
830.941	3161
831.08	3207
831.219	3283
831.357	3260
831.496	3386
831.635	3245
831.774	3203
831.913	3199
832.051	3119
832.19	3146
832.329	3214
832.467	3127
832.606	3119
832.744	3211
832.883	3184
833.022	3192
833.16	3253
833.299	3332
833.437	3317
833.576	3374
833.714	3409
833.852	3416
833.991	3431
834.129	3504
834.267	3469
834.406	3401
834.544	3401
834.682	3401
834.821	3412
834.959	3534
835.097	3397
835.235	3534
835.373	3507
835.511	3500
835.65	3496
835.788	3492
835.926	3424
836.064	3348
836.202	3420
836.34	3576
836.478	3610
836.615	3519
836.753	3587
836.891	3603
837.029	3625
837.167	3584
837.305	3557
837.443	3534
837.58	3515
837.718	3603
837.856	3542
837.993	3515
838.131	3557
838.269	3568
838.406	3572
838.544	3549
838.681	3447
838.819	3477
838.956	3367
839.094	3416
839.231	3420
839.369	3507
839.506	3759
839.643	3648
839.781	3500
839.918	3462
840.055	3507
840.193	3515
840.33	3545
840.467	3599
840.604	3564
840.742	3800
840.879	3572
841.016	3618
841.153	3614
841.29	3755
841.427	3705
841.564	3709
841.701	3724
841.838	3709
841.975	3686
842.112	3694
842.249	3652
842.385	3599
842.522	3823
842.659	3732
842.796	3660
842.933	3755
843.069	3679
843.206	3713
843.343	3812
843.479	3743
843.616	3800
843.752	3656
843.889	3648
844.025	3823
844.162	3698
844.298	3831
844.435	3793
844.571	3766
844.708	3926
844.844	3934
844.98	3983
845.117	4010
845.253	3930
845.389	3873
845.525	3975
845.661	4017
845.798	3949
845.934	4025
846.07	3960
846.206	4051
846.342	4124
846.478	4097
846.614	3968
846.75	3911
846.886	3926
847.022	4036
847.158	3983
847.294	3972
847.429	4036
847.565	3998
847.701	4234
847.837	3880
847.972	3861
848.108	4010
848.244	3987
848.379	3854
848.515	3793
848.65	3808
848.786	3831
848.921	3850
849.057	3896
849.192	3937
849.328	3934
849.463	3937
849.598	3907
849.734	3873
849.869	3831
850.004	3770
850.14	3816
850.275	3789
850.41	3743
850.545	3781
850.68	3785
850.815	3793
850.95	3804
851.085	3926
851.22	3876
851.355	3880
851.49	3793
851.625	3793
851.76	3842
851.895	3732
852.03	3747
852.165	3766
852.299	3812
852.434	3926
852.569	3819
852.703	3854
852.838	3907
852.973	3953
853.107	3991
853.242	3945
853.376	3854
853.511	3747
853.645	3854
853.78	3960
853.914	3922
854.048	3896
854.183	3911
854.317	3994
854.451	4097
854.585	3934
854.72	3979
854.854	4071
854.988	3960
855.122	4025
855.256	3873
855.39	4029
855.524	4112
855.658	4105
855.792	4093
855.926	4158
856.06	4185
856.194	4188
856.327	4135
856.461	4105
856.595	4166
856.729	4200
856.862	4272
856.996	4257
857.13	4299
857.263	4348
857.397	4360
857.53	4291
857.664	4333
857.797	4409
857.931	4379
858.064	4352
858.197	4470
858.331	4421
858.464	4352
858.597	4314
858.731	4390
858.864	4424
858.997	4447
859.13	4546
859.263	4508
859.396	4550
859.529	4573
859.662	4527
859.795	4531
859.928	4626
860.061	4706
860.194	4717
860.327	4702
860.46	4683
860.592	4755
860.725	4755
860.858	4721
860.99	4717
861.123	4675
861.256	4672
861.388	4763
861.521	5383
861.653	4736
861.786	4736
861.918	4702
862.05	4847
862.183	4873
862.315	4908
862.447	4927
862.58	4892
862.712	4763
862.844	4771
862.976	4885
863.108	4835
863.24	5189
863.372	4835
863.504	4942
863.636	4915
863.768	4946
863.9	4972
864.032	4900
864.164	4965
864.296	4961
864.428	5090
864.559	5121
864.691	5117
864.823	5079
864.954	5140
865.086	5117
865.217	5113
865.349	5151
865.48	5197
865.612	5197
865.743	5341
865.875	5185
866.006	5147
866.137	5250
866.269	5220
866.4	5208
866.531	5277
866.662	5197
866.793	5299
866.924	5288
867.055	5398
867.186	5353
867.317	5376
867.448	5330
867.579	5357
867.71	5341
867.841	5330
867.972	5455
868.103	5482
868.233	5486
868.364	5524
868.495	5551
868.625	5688
868.756	5771
868.886	5657
869.017	5718
869.147	5859
869.278	5844
869.408	5844
869.539	5840
869.669	5901
869.799	5893
869.929	5961
870.06	6026
870.19	6190
870.32	6163
870.45	6270
870.58	6262
870.71	6407
870.84	6429
870.97	6448
871.1	6414
871.23	6669
871.36	6681
871.489	6646
871.619	6719
871.749	6806
871.879	6802
872.008	6962
872.138	6935
872.267	7008
872.397	7031
872.526	7042
872.656	7110
872.785	7209
872.915	7373
873.044	7521
873.173	7567
873.303	7643
873.432	7795
873.561	7849
873.69	7875
873.819	8050
873.948	8149
874.077	8214
874.206	8320
874.335	8400
874.464	8651
874.593	8921
874.722	8861
874.851	9070
874.979	9180
875.108	9393
875.237	9439
875.365	9477
875.494	9603
875.623	9835
875.751	9838
875.88	9975
876.008	10169
876.136	10230
876.265	10481
876.393	10717
876.521	10725
876.65	10759
876.778	10885
876.906	10915
877.034	10987
877.162	11083
877.29	11178
877.418	11277
877.546	11303
877.674	11387
877.802	11478
877.93	11554
878.058	11505
878.185	11581
878.313	11722
878.441	11756
878.568	11642
878.696	11786
878.824	11752
878.951	11984
879.079	12007
879.206	12117
879.333	12114
879.461	11931
879.588	12102
879.715	12083
879.842	12270
879.97	12072
880.097	11878
880.224	11824
880.351	11855
880.478	11927
880.605	11866
880.732	11866
880.859	12019
880.986	11878
881.112	11870
881.239	11722
881.366	11623
881.493	11570
881.619	11611
881.746	11497
881.872	11482
881.999	11551
882.125	11497
882.252	11482
882.378	11474
882.505	11577
882.631	11402
882.757	11235
882.883	11292
883.01	11322
883.136	11143
883.262	11239
883.388	11086
883.514	11140
883.64	11185
883.766	11090
883.892	10999
884.018	11018
884.143	11048
884.269	11136
884.395	10835
884.52	10805
884.646	10816
884.772	10641
884.897	10637
885.023	10664
885.148	10755
885.274	10733
885.399	10706
885.524	10656
885.65	10645
885.775	10656
885.9	10542
886.025	10573
886.15	10504
886.275	10409
886.4	10382
886.525	10428
886.65	10352
886.775	10367
886.9	10466
887.025	10504
887.149	10356
887.274	10181
887.399	10223
887.523	10120
887.648	10116
887.773	10147
887.897	10257
888.021	10249
888.146	10109
888.27	10249
888.395	10215
888.519	10147
888.643	10185
888.767	10249
888.891	10105
889.015	10006
889.139	10032
889.263	9994
889.387	10055
889.511	10101
889.635	10090
889.759	9941
889.883	9972
890.006	10013
890.13	10116
890.254	9964
890.377	10010
890.501	9850
890.624	9827
890.748	9915
890.871	9812
890.995	9816
891.118	9701
891.241	9690
891.364	9804
891.488	9880
891.611	9694
891.734	9663
891.857	9759
891.98	9732
892.103	9755
892.226	9675
892.349	9656
892.471	9542
892.594	9648
892.717	9568
892.839	9595
892.962	9591
893.085	9675
893.207	9568
893.33	9515
893.452	9462
893.575	9610
893.697	9557
893.819	9587
893.941	9641
894.064	9595
894.186	9435
894.308	9405
894.43	9549
894.552	9584
894.674	9458
894.796	9412
894.918	9469
895.04	9367
895.161	9351
895.283	9378
895.405	9298
895.526	9283
895.648	9253
895.769	9256
895.891	9211
896.012	9241
896.134	9218
896.255	9169
896.376	9142
896.498	9138
896.619	9093
896.74	9036
896.861	9089
896.982	9275
897.103	9348
897.224	9214
897.345	9024
897.466	8933
897.587	8914
897.708	9043
897.828	9001
897.949	8933
898.07	8887
898.19	8944
898.311	9028
898.431	8941
898.552	8944
898.672	8956
898.792	8971
898.913	8971
899.033	8823
899.153	8800
899.273	8636
899.393	8670
899.513	8773
899.633	8712
899.753	8766
899.873	8762
899.993	8724
900.113	8682
900.232	8659
900.352	8659
900.472	8606
900.591	8507
900.711	8629
900.83	8541
900.95	8613
901.069	8686
901.189	8560
901.308	8492
901.427	8431
901.546	8412
901.665	8454
901.784	8495
901.904	8362
902.023	8324
902.141	8218
902.26	8202
902.379	8240
902.498	8267
902.617	8252
902.735	8355
902.854	8294
902.973	8233
903.091	8153
903.21	8088
903.328	8248
903.446	8149
903.565	8100
903.683	8065
903.801	8065
903.919	8164
904.038	8153
904.156	8062
904.274	8062
904.392	7982
904.51	7993
904.627	8039
904.745	8092
904.863	8054
904.981	7944
905.098	7906
905.216	7894
905.334	7856
905.451	7887
905.569	7925
905.686	7955
905.803	7883
905.921	7734
906.038	7852
906.155	7799
906.272	7731
906.389	7723
906.506	7632
906.623	7601
906.74	7609
906.857	7533
906.974	7575
907.091	7651
907.208	7662
907.324	7670
907.441	7521
907.557	7438
907.674	7434
907.79	7422
907.907	7403
908.023	7468
908.139	7373
908.256	7422
908.372	7354
908.488	7384
908.604	7270
908.72	7259
908.836	7240
908.952	7209
909.068	7225
909.184	7324
909.3	7263
909.415	7346
909.531	7270
909.647	7145
909.762	7076
909.878	7053
909.993	7046
910.108	7103
910.224	7057
910.339	7076
910.454	7008
910.57	6993
910.685	6928
910.8	7145
910.915	7084
911.03	6985
911.145	6932
911.259	6825
911.374	6825
911.489	6844
911.604	6753
911.718	6806
911.833	6749
911.947	6627
912.062	6578
912.176	6650
912.291	6684
912.405	6665
912.519	6783
912.633	6810
912.748	6749
912.862	6696
912.976	6616
913.09	6570
913.204	6563
913.318	6635
913.431	6681
913.545	6684
913.659	6734
913.772	6662
913.886	6578
914	6551
914.113	6642
914.226	6639
914.34	6665
914.453	6479
914.566	6589
914.68	6502
914.793	6517
914.906	6403
915.019	6391
915.132	6410
915.245	6460
915.358	6365
915.47	6429
915.583	6502
915.696	6486
915.809	6502
915.921	6540
916.034	6414
916.146	6369
916.259	6388
916.371	6456
916.483	6441
916.595	6319
916.708	6452
916.82	6376
916.932	6403
917.044	6376
917.156	6448
917.268	6331
917.38	6399
917.491	6273
917.603	6304
917.715	6353
917.826	6433
917.938	6239
918.049	6228
918.161	6350
918.272	6388
918.384	6456
918.495	6376
918.606	6289
918.717	6251
918.828	6216
918.939	6334
919.05	6232
919.161	6270
919.272	6079
919.383	6209
919.494	6323
919.604	6357
919.715	6319
919.826	6243
919.936	6254
920.047	6285
920.157	6300
920.267	6475
920.378	6304
920.488	6243
920.598	6475
920.708	6555
920.818	6479
920.928	6502
921.038	6593
921.148	6574
921.258	6342
921.368	6304
921.477	6167
921.587	6182
921.697	6121
921.806	6144
921.916	6117
922.025	5927
922.134	5923
922.244	5935
922.353	5942
922.462	5859
922.571	5847
922.68	5714
922.789	5661
922.898	5745
923.007	5642
923.116	5718
923.224	5703
923.333	5684
923.442	5649
923.55	5547
923.659	5646
923.767	5680
923.876	5562
923.984	5573
924.092	5486
924.201	5547
924.309	5505
924.417	5596
924.525	5490
924.633	5478
924.741	6239
924.849	5349
924.956	5474
925.064	5318
925.172	5261
925.279	5345
925.387	5357
925.494	5349
925.602	5425
925.709	5395
925.816	5212
925.924	5326
926.031	5337
926.138	5292
926.245	5315
926.352	5185
926.459	5299
926.566	5353
926.673	5223
926.779	5174
926.886	5083
926.993	5033
927.099	4991
927.206	4957
927.312	4946
927.419	4976
927.525	4972
927.631	4987
927.737	4908
927.843	4870
927.95	4763
928.056	4812
928.162	4816
928.267	4854
928.373	5349
928.479	4858
928.585	4653
928.69	4752
928.796	4736
928.901	4664
929.007	4569
929.112	4672
929.218	4634
929.323	4580
929.428	4550
929.533	4679
929.638	4519
929.743	4523
929.848	4615
929.953	4523
930.058	4455
930.163	4299
930.267	4341
930.372	4455
930.477	4268
930.581	4481
930.685	4371
930.79	4238
930.894	4249
930.998	4242
931.103	4363
931.207	4139
931.311	4082
931.415	4071
931.519	3979
931.623	3991
