Data from glass_V78500241_1061.txt Node
Date: Wed Sep 01 19:21:51 CST 2021
User: usil
Spectrometer: V785-0024
Trigger mode: 0
Integration Time (sec): 4.000000E-1
Scans to average: 1
Nonlinearity correction enabled: false
Boxcar width: 0
Storing dark spectrum: false
XAxis mode: Wavelengths
Number of Pixels in Spectrum: 1024
>>>>>Begin Spectral Data<<<<<
801.071	3770
801.214	3743
801.356	3740
801.499	3747
801.641	3736
801.783	3781
801.926	3922
802.068	3842
802.211	3831
802.353	3854
802.496	3861
802.638	3915
802.78	3888
802.923	3979
803.065	3896
803.208	3918
803.35	3911
803.492	3975
803.635	3926
803.777	3797
803.919	3892
804.061	4215
804.204	3983
804.346	3975
804.488	3922
804.63	4013
804.773	3949
804.915	4040
805.057	4116
805.199	4071
805.341	4131
805.483	4131
805.626	4120
805.768	4128
805.91	4188
806.052	4227
806.194	4227
806.336	4356
806.478	4242
806.62	4200
806.762	4173
806.904	4238
807.046	4375
807.188	4238
807.33	4158
807.472	4238
807.614	4185
807.756	4280
807.898	4238
808.04	4188
808.182	4325
808.324	4310
808.465	4348
808.607	4436
808.749	4466
808.891	4466
809.033	4535
809.174	4402
809.316	4272
809.458	4261
809.6	4196
809.741	4181
809.883	4162
810.025	4223
810.166	4246
810.308	4215
810.45	4272
810.591	4261
810.733	4310
810.875	4535
811.016	4786
811.158	5178
811.299	5235
811.441	5288
811.582	5037
811.724	4675
811.865	4451
812.007	4504
812.148	4424
812.29	4443
812.431	4383
812.573	4405
812.714	4402
812.855	4375
812.997	4436
813.138	4519
813.279	4455
813.421	4398
813.562	4402
813.703	4322
813.845	4398
813.986	4253
814.127	4230
814.268	4287
814.41	4284
814.551	4276
814.692	4348
814.833	4257
814.974	4329
815.115	4329
815.256	4242
815.397	4238
815.539	4265
815.68	4185
815.821	4246
815.962	4295
816.103	4299
816.244	4227
816.385	4249
816.526	4280
816.666	4265
816.807	4124
816.948	4234
817.089	4192
817.23	4101
817.371	4044
817.512	4051
817.653	4036
817.793	4025
817.934	4074
818.075	4135
818.216	4059
818.356	4074
818.497	3994
818.638	3941
818.778	3903
818.919	3922
819.06	3903
819.2	3953
819.341	3880
819.481	3857
819.622	3922
819.762	4044
819.903	3960
820.043	3892
820.184	3846
820.324	3778
820.465	3880
820.605	3835
820.746	3876
820.886	3804
821.026	3953
821.167	3949
821.307	3960
821.447	3991
821.588	3899
821.728	3949
821.868	3945
822.008	3892
822.149	3934
822.289	3922
822.429	3838
822.569	3770
822.709	3838
822.849	3728
822.99	3717
823.13	3800
823.27	3751
823.41	3751
823.55	3762
823.69	3720
823.83	3751
823.97	3709
824.11	3641
824.25	3610
824.389	3698
824.529	3682
824.669	3618
824.809	3728
824.949	3736
825.089	3724
825.228	3675
825.368	3603
825.508	3572
825.648	3576
825.787	3625
825.927	3656
826.067	3622
826.206	3690
826.346	3808
826.485	3831
826.625	3873
826.765	3949
826.904	3827
827.044	3625
827.183	3511
827.323	3473
827.462	3473
827.601	3435
827.741	3424
827.88	3481
828.02	3401
828.159	3477
828.298	3523
828.437	3507
828.577	3511
828.716	3629
828.855	3511
828.994	3389
829.134	3367
829.273	3420
829.412	3348
829.551	3336
829.69	3382
829.829	3477
829.968	3496
830.107	3458
830.246	3450
830.385	3393
830.524	3340
830.663	3306
830.802	3283
830.941	3207
831.08	3199
831.219	3332
831.357	3279
831.496	3412
831.635	3214
831.774	3203
831.913	3222
832.051	3138
832.19	3127
832.329	3211
832.467	3131
832.606	3108
832.744	3188
832.883	3207
833.022	3192
833.16	3279
833.299	3317
833.437	3321
833.576	3351
833.714	3420
833.852	3450
833.991	3458
834.129	3488
834.267	3454
834.406	3412
834.544	3454
834.682	3397
834.821	3393
834.959	3584
835.097	3416
835.235	3534
835.373	3504
835.511	3504
835.65	3458
835.788	3534
835.926	3370
836.064	3374
836.202	3443
836.34	3545
836.478	3622
836.615	3549
836.753	3599
836.891	3656
837.029	3614
837.167	3614
837.305	3538
837.443	3553
837.58	3515
837.718	3610
837.856	3549
837.993	3545
838.131	3637
838.269	3595
838.406	3580
838.544	3572
838.681	3492
838.819	3450
838.956	3409
839.094	3374
839.231	3458
839.369	3553
839.506	3663
839.643	3690
839.781	3507
839.918	3454
840.055	3515
840.193	3507
840.33	3549
840.467	3564
840.604	3587
840.742	3781
840.879	3545
841.016	3568
841.153	3622
841.29	3789
841.427	3709
841.564	3720
841.701	3747
841.838	3648
841.975	3682
842.112	3705
842.249	3652
842.385	3614
842.522	3808
842.659	3717
842.796	3705
842.933	3736
843.069	3709
843.206	3675
843.343	3819
843.479	3800
843.616	3835
843.752	3656
843.889	3656
844.025	3857
844.162	3713
844.298	3850
844.435	3789
844.571	3804
844.708	3937
844.844	3987
844.98	3972
845.117	3972
845.253	3960
845.389	3915
845.525	3956
845.661	3949
845.798	3918
845.934	3991
846.07	3926
846.206	4067
846.342	4120
846.478	4078
846.614	3968
846.75	3972
846.886	3926
847.022	4032
847.158	4013
847.294	3998
847.429	4040
847.565	4025
847.701	4207
847.837	3854
847.972	3884
848.108	4002
848.244	3937
848.379	3888
848.515	3816
848.65	3793
848.786	3865
848.921	3827
849.057	3937
849.192	3953
849.328	3915
849.463	3934
849.598	3854
849.734	3823
849.869	3850
850.004	3804
850.14	3861
850.275	3751
850.41	3759
850.545	3770
850.68	3778
850.815	3819
850.95	3819
851.085	3911
851.22	3892
851.355	3804
851.49	3800
851.625	3812
851.76	3781
851.895	3736
852.03	3724
852.165	3812
852.299	3857
852.434	3934
852.569	3896
852.703	3861
852.838	3899
852.973	4010
853.107	3994
853.242	3899
853.376	3873
853.511	3751
853.645	3831
853.78	4017
853.914	3880
854.048	3888
854.183	3842
854.317	3998
854.451	4109
854.585	3983
854.72	3960
854.854	4090
854.988	3972
855.122	4017
855.256	3956
855.39	4025
855.524	4169
855.658	4139
855.792	4101
855.926	4147
856.06	4154
856.194	4211
856.327	4204
856.461	4143
856.595	4196
856.729	4204
856.862	4291
856.996	4242
857.13	4333
857.263	4341
857.397	4379
857.53	4280
857.664	4348
857.797	4447
857.931	4462
858.064	4462
858.197	4447
858.331	4417
858.464	4386
858.597	4348
858.731	4459
858.864	4512
858.997	4512
859.13	4527
859.263	4535
859.396	4580
859.529	4516
859.662	4561
859.795	4489
859.928	4569
860.061	4717
860.194	4755
860.327	4656
860.46	4672
860.592	4755
860.725	4812
860.858	4778
860.99	4706
861.123	4683
861.256	4702
861.388	4809
861.521	5429
861.653	4755
861.786	4702
861.918	4736
862.05	4824
862.183	4831
862.315	4900
862.447	4934
862.58	4843
862.712	4854
862.844	4801
862.976	4908
863.108	4866
863.24	5288
863.372	4831
863.504	4942
863.636	4911
863.768	4942
863.9	4968
864.032	4976
864.164	4980
864.296	4995
864.428	5102
864.559	5086
864.691	5086
864.823	5155
864.954	5109
865.086	5151
865.217	5140
865.349	5155
865.48	5159
865.612	5231
865.743	5292
865.875	5227
866.006	5159
866.137	5250
866.269	5246
866.4	5280
866.531	5250
866.662	5235
866.793	5288
866.924	5307
867.055	5334
867.186	5349
867.317	5345
867.448	5315
867.579	5387
867.71	5337
867.841	5345
867.972	5482
868.103	5543
868.233	5554
868.364	5554
868.495	5581
868.625	5684
868.756	5805
868.886	5699
869.017	5748
869.147	5794
869.278	5863
869.408	5817
869.539	5885
869.669	5965
869.799	5901
869.929	6060
870.06	5988
870.19	6175
870.32	6190
870.45	6292
870.58	6414
870.71	6490
870.84	6475
870.97	6437
871.1	6433
871.23	6673
871.36	6688
871.489	6612
871.619	6783
871.749	6795
871.879	6913
872.008	7004
872.138	6951
872.267	7046
872.397	7019
872.526	7065
872.656	7107
872.785	7263
872.915	7381
873.044	7544
873.173	7540
873.303	7658
873.432	7765
873.561	7883
873.69	7898
873.819	8065
873.948	8138
874.077	8240
874.206	8313
874.335	8511
874.464	8746
874.593	8880
874.722	8933
874.851	9127
874.979	9264
875.108	9332
875.237	9462
875.365	9458
875.494	9705
875.623	9793
875.751	9846
875.88	9968
876.008	10131
876.136	10287
876.265	10538
876.393	10691
876.521	10596
876.65	10850
876.778	10877
876.906	10885
877.034	10942
877.162	11201
877.29	11155
877.418	11311
877.546	11349
877.674	11425
877.802	11467
877.93	11524
878.058	11551
878.185	11535
878.313	11703
878.441	11847
878.568	11558
878.696	11764
878.824	11882
878.951	11923
879.079	12068
879.206	12159
879.333	12098
879.461	12041
879.588	12079
879.715	12136
879.842	12216
879.97	12034
880.097	11882
880.224	11923
880.351	11923
880.478	11851
880.605	11859
880.732	11935
880.859	11923
880.986	11798
881.112	11870
881.239	11718
881.366	11634
881.493	11627
881.619	11551
881.746	11570
881.872	11592
881.999	11528
882.125	11524
882.252	11570
882.378	11486
882.505	11570
882.631	11372
882.757	11284
882.883	11334
883.01	11269
883.136	11166
883.262	11128
883.388	11052
883.514	11201
883.64	11170
883.766	11113
883.892	11041
884.018	11052
884.143	10995
884.269	11136
884.395	10850
884.52	10801
884.646	10786
884.772	10736
884.897	10592
885.023	10694
885.148	10740
885.274	10744
885.399	10679
885.524	10615
885.65	10660
885.775	10558
885.9	10569
886.025	10618
886.15	10516
886.275	10489
886.4	10424
886.525	10440
886.65	10352
886.775	10375
886.9	10478
887.025	10478
887.149	10363
887.274	10211
887.399	10238
887.523	10162
887.648	10143
887.773	10090
887.897	10257
888.021	10291
888.146	10116
888.27	10249
888.395	10234
888.519	10192
888.643	10131
888.767	10219
888.891	10109
889.015	10063
889.139	10074
889.263	9975
889.387	10101
889.511	10154
889.635	10082
889.759	9941
889.883	10006
890.006	9975
890.13	10173
890.254	9930
890.377	9998
890.501	9865
890.624	9956
890.748	9861
890.871	9800
890.995	9915
891.118	9774
891.241	9816
891.364	9835
891.488	9793
891.611	9759
891.734	9694
891.857	9781
891.98	9755
892.103	9740
892.226	9679
892.349	9652
892.471	9515
892.594	9603
892.717	9622
892.839	9591
892.962	9675
893.085	9637
893.207	9568
893.33	9534
893.452	9538
893.575	9614
893.697	9519
893.819	9652
893.941	9610
894.064	9587
894.186	9450
894.308	9431
894.43	9534
894.552	9530
894.674	9454
894.796	9405
894.918	9443
895.04	9332
895.161	9313
895.283	9294
895.405	9287
895.526	9275
895.648	9237
895.769	9325
895.891	9306
896.012	9253
896.134	9211
896.255	9203
896.376	9192
896.498	9146
896.619	9127
896.74	9093
896.861	9085
896.982	9222
897.103	9329
897.224	9218
897.345	9066
897.466	9005
897.587	9047
897.708	9142
897.828	9077
897.949	8979
898.07	8876
898.19	8948
898.311	9032
898.431	8929
898.552	8960
898.672	9028
898.792	8883
898.913	8880
899.033	8788
899.153	8746
899.273	8583
899.393	8731
899.513	8819
899.633	8735
899.753	8708
899.873	8617
899.993	8686
900.113	8716
900.232	8678
900.352	8682
900.472	8644
900.591	8541
900.711	8533
900.83	8632
900.95	8648
901.069	8659
901.189	8613
901.308	8377
901.427	8434
901.546	8457
901.665	8415
901.784	8518
901.904	8427
902.023	8366
902.141	8275
902.26	8248
902.379	8290
902.498	8195
902.617	8279
902.735	8267
902.854	8317
902.973	8248
903.091	8050
903.21	8107
903.328	8199
903.446	8187
903.565	8107
903.683	8134
903.801	8096
903.919	8123
904.038	8176
904.156	7982
904.274	8054
904.392	8008
904.51	8077
904.627	8092
904.745	8111
904.863	8123
904.981	7871
905.098	7894
905.216	7826
905.334	7967
905.451	7879
905.569	7890
905.686	7917
905.803	7944
905.921	7753
906.038	7906
906.155	7795
906.272	7788
906.389	7734
906.506	7643
906.623	7708
906.74	7613
906.857	7590
906.974	7552
907.091	7639
907.208	7715
907.324	7693
907.441	7605
907.557	7502
907.674	7441
907.79	7419
907.907	7438
908.023	7476
908.139	7487
908.256	7411
908.372	7396
908.488	7358
908.604	7339
908.72	7263
908.836	7225
908.952	7236
909.068	7221
909.184	7308
909.3	7293
909.415	7274
909.531	7335
909.647	7149
909.762	7149
909.878	7137
909.993	7069
910.108	7072
910.224	7069
910.339	7034
910.454	7084
910.57	6985
910.685	6985
910.8	7187
910.915	7114
911.03	6993
911.145	6913
911.259	6920
911.374	6878
911.489	6875
911.604	6875
911.718	6734
911.833	6741
911.947	6631
912.062	6677
912.176	6684
912.291	6703
912.405	6703
912.519	6806
912.633	6859
912.748	6730
912.862	6642
912.976	6662
913.09	6536
913.204	6570
913.318	6650
913.431	6639
913.545	6745
913.659	6719
913.772	6631
913.886	6616
914	6574
914.113	6646
914.226	6631
914.34	6585
914.453	6521
914.566	6654
914.68	6525
914.793	6547
914.906	6418
915.019	6418
915.132	6407
915.245	6437
915.358	6475
915.47	6456
915.583	6464
915.696	6509
915.809	6574
915.921	6574
916.034	6429
916.146	6452
916.259	6365
916.371	6536
916.483	6509
916.595	6384
916.708	6407
916.82	6353
916.932	6414
917.044	6376
917.156	6372
917.268	6384
917.38	6331
917.491	6350
917.603	6426
917.715	6418
917.826	6456
917.938	6319
918.049	6262
918.161	6300
918.272	6429
918.384	6422
918.495	6277
918.606	6270
918.717	6281
918.828	6323
918.939	6243
919.05	6220
919.161	6277
919.272	6148
919.383	6159
919.494	6319
919.604	6426
919.715	6292
919.826	6228
919.936	6254
920.047	6323
920.157	6197
920.267	6483
920.378	6357
920.488	6258
920.598	6418
920.708	6559
920.818	6479
920.928	6486
921.038	6623
921.148	6601
921.258	6346
921.368	6331
921.477	6308
921.587	6197
921.697	6102
921.806	6201
921.916	6110
922.025	5916
922.134	5870
922.244	5935
922.353	5961
922.462	5874
922.571	5805
922.68	5741
922.789	5707
922.898	5710
923.007	5623
923.116	5710
923.224	5760
923.333	5672
923.442	5608
923.55	5566
923.659	5581
923.767	5668
923.876	5562
923.984	5634
924.092	5539
924.201	5596
924.309	5592
924.417	5570
924.525	5463
924.633	5501
924.741	6311
924.849	5417
924.956	5524
925.064	5383
925.172	5265
925.279	5307
925.387	5379
925.494	5391
925.602	5474
925.709	5406
925.816	5299
925.924	5292
926.031	5398
926.138	5318
926.245	5360
926.352	5204
926.459	5376
926.566	5334
926.673	5235
926.779	5174
926.886	5098
926.993	5056
927.099	5033
927.206	4965
927.312	5010
927.419	5010
927.525	5006
927.631	5041
927.737	4934
927.843	4908
927.95	4850
928.056	4850
928.162	4854
928.267	4904
928.373	5322
928.479	4900
928.585	4691
928.69	4729
928.796	4786
928.901	4698
929.007	4611
929.112	4691
929.218	4656
929.323	4622
929.428	4588
929.533	4607
929.638	4538
929.743	4538
929.848	4588
929.953	4493
930.058	4478
930.163	4310
930.267	4325
930.372	4440
930.477	4284
930.581	4481
930.685	4367
930.79	4242
930.894	4284
930.998	4249
931.103	4413
931.207	4112
931.311	4101
931.415	4013
931.519	3953
931.623	3968
