Data from glass_V78500241_1565.txt Node
Date: Wed Sep 01 19:25:20 CST 2021
User: usil
Spectrometer: V785-0024
Trigger mode: 0
Integration Time (sec): 4.000000E-1
Scans to average: 1
Nonlinearity correction enabled: false
Boxcar width: 0
Storing dark spectrum: false
XAxis mode: Wavelengths
Number of Pixels in Spectrum: 1024
>>>>>Begin Spectral Data<<<<<
801.071	3755
801.214	3740
801.356	3705
801.499	3751
801.641	3728
801.783	3743
801.926	3857
802.068	3842
802.211	3888
802.353	3911
802.496	3835
802.638	3892
802.78	3873
802.923	3922
803.065	3930
803.208	3857
803.35	3884
803.492	3945
803.635	3930
803.777	3797
803.919	3949
804.061	4143
804.204	3972
804.346	3956
804.488	3987
804.63	4032
804.773	3972
804.915	4044
805.057	4150
805.199	4074
805.341	4120
805.483	4112
805.626	4135
805.768	4124
805.91	4211
806.052	4204
806.194	4238
806.336	4325
806.478	4200
806.62	4185
806.762	4185
806.904	4219
807.046	4329
807.188	4177
807.33	4147
807.472	4242
807.614	4265
807.756	4268
807.898	4234
808.04	4265
808.182	4314
808.324	4310
808.465	4367
808.607	4470
808.749	4428
808.891	4432
809.033	4451
809.174	4398
809.316	4265
809.458	4280
809.6	4162
809.741	4131
809.883	4219
810.025	4227
810.166	4185
810.308	4192
810.45	4265
810.591	4215
810.733	4219
810.875	4527
811.016	4805
811.158	5079
811.299	5273
811.441	5258
811.582	5102
811.724	4687
811.865	4481
812.007	4470
812.148	4455
812.29	4443
812.431	4417
812.573	4356
812.714	4322
812.855	4424
812.997	4413
813.138	4470
813.279	4440
813.421	4360
813.562	4344
813.703	4363
813.845	4341
813.986	4230
814.127	4230
814.268	4295
814.41	4310
814.551	4234
814.692	4329
814.833	4287
814.974	4310
815.115	4360
815.256	4230
815.397	4287
815.539	4253
815.68	4242
815.821	4204
815.962	4310
816.103	4299
816.244	4253
816.385	4246
816.526	4291
816.666	4215
816.807	4169
816.948	4169
817.089	4169
817.23	4112
817.371	4059
817.512	4021
817.653	4097
817.793	4025
817.934	4051
818.075	4063
818.216	4090
818.356	4078
818.497	3991
818.638	3937
818.778	3899
818.919	3911
819.06	3861
819.2	3892
819.341	3873
819.481	3842
819.622	3892
819.762	4048
819.903	3945
820.043	3888
820.184	3789
820.324	3842
820.465	3896
820.605	3846
820.746	3903
820.886	3785
821.026	3922
821.167	3953
821.307	4006
821.447	4017
821.588	3972
821.728	3994
821.868	3915
822.008	3888
822.149	3907
822.289	3838
822.429	3789
822.569	3785
822.709	3785
822.849	3675
822.99	3698
823.13	3766
823.27	3785
823.41	3713
823.55	3774
823.69	3732
823.83	3759
823.97	3724
824.11	3622
824.25	3576
824.389	3660
824.529	3622
824.669	3622
824.809	3717
824.949	3736
825.089	3717
825.228	3709
825.368	3599
825.508	3538
825.648	3584
825.787	3622
825.927	3622
826.067	3648
826.206	3652
826.346	3800
826.485	3835
826.625	3850
826.765	3937
826.904	3831
827.044	3580
827.183	3538
827.323	3443
827.462	3496
827.601	3466
827.741	3450
827.88	3435
828.02	3344
828.159	3469
828.298	3523
828.437	3549
828.577	3504
828.716	3614
828.855	3485
828.994	3363
829.134	3386
829.273	3405
829.412	3317
829.551	3336
829.69	3313
829.829	3409
829.968	3496
830.107	3466
830.246	3397
830.385	3409
830.524	3351
830.663	3336
830.802	3237
830.941	3180
831.08	3192
831.219	3291
831.357	3268
831.496	3435
831.635	3222
831.774	3195
831.913	3180
832.051	3123
832.19	3157
832.329	3184
832.467	3161
832.606	3097
832.744	3218
832.883	3188
833.022	3222
833.16	3249
833.299	3317
833.437	3306
833.576	3344
833.714	3431
833.852	3405
833.991	3443
834.129	3466
834.267	3420
834.406	3389
834.544	3405
834.682	3431
834.821	3428
834.959	3538
835.097	3447
835.235	3530
835.373	3488
835.511	3500
835.65	3447
835.788	3469
835.926	3447
836.064	3386
836.202	3393
836.34	3519
836.478	3553
836.615	3549
836.753	3584
836.891	3633
837.029	3622
837.167	3603
837.305	3564
837.443	3530
837.58	3507
837.718	3599
837.856	3523
837.993	3519
838.131	3625
838.269	3610
838.406	3576
838.544	3553
838.681	3492
838.819	3424
838.956	3378
839.094	3397
839.231	3443
839.369	3538
839.506	3747
839.643	3648
839.781	3542
839.918	3462
840.055	3469
840.193	3511
840.33	3496
840.467	3568
840.604	3599
840.742	3808
840.879	3538
841.016	3564
841.153	3618
841.29	3762
841.427	3705
841.564	3720
841.701	3759
841.838	3743
841.975	3682
842.112	3736
842.249	3660
842.385	3587
842.522	3835
842.659	3641
842.796	3728
842.933	3686
843.069	3701
843.206	3694
843.343	3816
843.479	3781
843.616	3873
843.752	3675
843.889	3679
844.025	3911
844.162	3682
844.298	3842
844.435	3781
844.571	3785
844.708	3903
844.844	3949
844.98	4040
845.117	4010
845.253	3945
845.389	3907
845.525	3930
845.661	3911
845.798	3975
845.934	4013
846.07	3941
846.206	4006
846.342	4143
846.478	4048
846.614	3918
846.75	3911
846.886	3911
847.022	4017
847.158	3987
847.294	4006
847.429	3975
847.565	4002
847.701	4215
847.837	3934
847.972	3873
848.108	3983
848.244	3960
848.379	3850
848.515	3797
848.65	3827
848.786	3854
848.921	3876
849.057	3926
849.192	3915
849.328	3896
849.463	3899
849.598	3854
849.734	3816
849.869	3793
850.004	3793
850.14	3778
850.275	3804
850.41	3743
850.545	3789
850.68	3778
850.815	3793
850.95	3793
851.085	3960
851.22	3861
851.355	3812
851.49	3808
851.625	3835
851.76	3831
851.895	3705
852.03	3720
852.165	3831
852.299	3857
852.434	3918
852.569	3842
852.703	3884
852.838	3907
852.973	3987
853.107	4010
853.242	3907
853.376	3850
853.511	3778
853.645	3873
853.78	3994
853.914	3869
854.048	3903
854.183	3869
854.317	3922
854.451	4048
854.585	3934
854.72	3934
854.854	4017
854.988	3926
855.122	4017
855.256	3934
855.39	4002
855.524	4109
855.658	4082
855.792	4086
855.926	4128
856.06	4139
856.194	4234
856.327	4192
856.461	4158
856.595	4154
856.729	4181
856.862	4257
856.996	4284
857.13	4295
857.263	4276
857.397	4383
857.53	4322
857.664	4375
857.797	4379
857.931	4443
858.064	4390
858.197	4440
858.331	4394
858.464	4379
858.597	4371
858.731	4432
858.864	4421
858.997	4459
859.13	4516
859.263	4531
859.396	4599
859.529	4523
859.662	4569
859.795	4542
859.928	4584
860.061	4694
860.194	4729
860.327	4691
860.46	4630
860.592	4717
860.725	4755
860.858	4767
860.99	4725
861.123	4706
861.256	4687
861.388	4828
861.521	5516
861.653	4733
861.786	4694
861.918	4744
862.05	4843
862.183	4850
862.315	4858
862.447	4991
862.58	4858
862.712	4809
862.844	4752
862.976	4900
863.108	4862
863.24	5254
863.372	4843
863.504	4881
863.636	4843
863.768	4957
863.9	4968
864.032	4934
864.164	4999
864.296	5025
864.428	5071
864.559	5105
864.691	5109
864.823	5201
864.954	5136
865.086	5109
865.217	5098
865.349	5151
865.48	5147
865.612	5212
865.743	5326
865.875	5197
866.006	5193
866.137	5181
866.269	5239
866.4	5166
866.531	5212
866.662	5254
866.793	5269
866.924	5292
867.055	5376
867.186	5383
867.317	5303
867.448	5273
867.579	5368
867.71	5402
867.841	5406
867.972	5448
868.103	5486
868.233	5448
868.364	5520
868.495	5520
868.625	5668
868.756	5756
868.886	5745
869.017	5737
869.147	5786
869.278	5882
869.408	5798
869.539	5836
869.669	5916
869.799	5866
869.929	5977
870.06	6053
870.19	6140
870.32	6178
870.45	6251
870.58	6346
870.71	6475
870.84	6441
870.97	6357
871.1	6395
871.23	6608
871.36	6673
871.489	6715
871.619	6745
871.749	6871
871.879	6897
872.008	6958
872.138	6954
872.267	7023
872.397	6996
872.526	6993
872.656	7095
872.785	7160
872.915	7324
873.044	7495
873.173	7601
873.303	7639
873.432	7750
873.561	7909
873.69	7967
873.819	8012
873.948	8111
874.077	8214
874.206	8324
874.335	8434
874.464	8594
874.593	8811
874.722	8910
874.851	9036
874.979	9230
875.108	9291
875.237	9542
875.365	9485
875.494	9675
875.623	9819
875.751	9865
875.88	9975
876.008	10177
876.136	10242
876.265	10546
876.393	10759
876.521	10706
876.65	10767
876.778	10854
876.906	10900
877.034	10976
877.162	11056
877.29	11071
877.418	11337
877.546	11433
877.674	11429
877.802	11402
877.93	11440
878.058	11547
878.185	11619
878.313	11642
878.441	11752
878.568	11767
878.696	11802
878.824	11897
878.951	11832
879.079	12049
879.206	12152
879.333	12060
879.461	11984
879.588	12159
879.715	12110
879.842	12182
879.97	12121
880.097	11786
880.224	11802
880.351	11885
880.478	11870
880.605	11840
880.732	11836
880.859	11980
880.986	11805
881.112	11961
881.239	11668
881.366	11554
881.493	11729
881.619	11551
881.746	11604
881.872	11509
881.999	11429
882.125	11440
882.252	11581
882.378	11482
882.505	11547
882.631	11345
882.757	11246
882.883	11341
883.01	11269
883.136	11155
883.262	11094
883.388	11071
883.514	11223
883.64	11174
883.766	11090
883.892	11022
884.018	10999
884.143	11083
884.269	11060
884.395	10869
884.52	10763
884.646	10797
884.772	10759
884.897	10721
885.023	10618
885.148	10759
885.274	10805
885.399	10740
885.524	10683
885.65	10645
885.775	10573
885.9	10592
886.025	10637
886.15	10573
886.275	10531
886.4	10398
886.525	10318
886.65	10367
886.775	10356
886.9	10523
887.025	10546
887.149	10322
887.274	10169
887.399	10177
887.523	10204
887.648	10150
887.773	10223
887.897	10272
888.021	10169
888.146	10112
888.27	10314
888.395	10253
888.519	10158
888.643	10246
888.767	10200
888.891	9991
889.015	10036
889.139	10078
889.263	9934
889.387	10044
889.511	10116
889.635	10036
889.759	9953
889.883	9945
890.006	10013
890.13	10055
890.254	9972
890.377	9926
890.501	9804
890.624	9819
890.748	9915
890.871	9778
890.995	9705
891.118	9781
891.241	9797
891.364	9705
891.488	9850
891.611	9698
891.734	9762
891.857	9701
891.98	9736
892.103	9705
892.226	9717
892.349	9591
892.471	9515
892.594	9564
892.717	9610
892.839	9675
892.962	9595
893.085	9724
893.207	9564
893.33	9504
893.452	9488
893.575	9587
893.697	9504
893.819	9595
893.941	9603
894.064	9610
894.186	9389
894.308	9466
894.43	9557
894.552	9507
894.674	9519
894.796	9321
894.918	9363
895.04	9393
895.161	9374
895.283	9321
895.405	9256
895.526	9211
895.648	9199
895.769	9233
895.891	9272
896.012	9306
896.134	9256
896.255	9264
896.376	9188
896.498	9230
896.619	9142
896.74	9062
896.861	9104
896.982	9351
897.103	9317
897.224	9230
897.345	9081
897.466	9017
897.587	9013
897.708	9161
897.828	9036
897.949	8990
898.07	8876
898.19	8941
898.311	8944
898.431	8887
898.552	8857
898.672	8982
898.792	8967
898.913	8853
899.033	8807
899.153	8735
899.273	8743
899.393	8693
899.513	8804
899.633	8766
899.753	8724
899.873	8644
899.993	8720
900.113	8750
900.232	8712
900.352	8651
900.472	8644
900.591	8583
900.711	8541
900.83	8488
900.95	8651
901.069	8743
901.189	8522
901.308	8434
901.427	8385
901.546	8492
901.665	8465
901.784	8503
901.904	8461
902.023	8317
902.141	8237
902.26	8225
902.379	8256
902.498	8244
902.617	8240
902.735	8290
902.854	8324
902.973	8271
903.091	8126
903.21	8199
903.328	8111
903.446	8054
903.565	8134
903.683	8123
903.801	8088
903.919	8134
904.038	8130
904.156	8024
904.274	8077
904.392	7986
904.51	8024
904.627	8001
904.745	8084
904.863	8130
904.981	7959
905.098	7841
905.216	7849
905.334	7871
905.451	7898
905.569	7852
905.686	7936
905.803	7902
905.921	7727
906.038	7940
906.155	7727
906.272	7723
906.389	7807
906.506	7658
906.623	7605
906.74	7594
906.857	7571
906.974	7525
907.091	7670
907.208	7681
907.324	7616
907.441	7582
907.557	7518
907.674	7464
907.79	7362
907.907	7445
908.023	7419
908.139	7438
908.256	7377
908.372	7373
908.488	7324
908.604	7305
908.72	7278
908.836	7343
908.952	7236
909.068	7213
909.184	7350
909.3	7255
909.415	7297
909.531	7324
909.647	7126
909.762	7118
909.878	7076
909.993	7179
910.108	7050
910.224	7046
910.339	7114
910.454	6939
910.57	7012
910.685	6928
910.8	7206
910.915	7080
911.03	7000
911.145	6901
911.259	6825
911.374	6859
911.489	6924
911.604	6753
911.718	6677
911.833	6757
911.947	6639
912.062	6601
912.176	6681
912.291	6684
912.405	6688
912.519	6779
912.633	6802
912.748	6726
912.862	6642
912.976	6616
913.09	6525
913.204	6532
913.318	6620
913.431	6692
913.545	6692
913.659	6738
913.772	6627
913.886	6544
914	6544
914.113	6627
914.226	6650
914.34	6627
914.453	6555
914.566	6563
914.68	6544
914.793	6559
914.906	6391
915.019	6426
915.132	6403
915.245	6445
915.358	6399
915.47	6418
915.583	6418
915.696	6509
915.809	6528
915.921	6555
916.034	6399
916.146	6395
916.259	6407
916.371	6483
916.483	6479
916.595	6395
916.708	6445
916.82	6418
916.932	6391
917.044	6395
917.156	6407
917.268	6304
917.38	6346
917.491	6327
917.603	6350
917.715	6407
917.826	6426
917.938	6372
918.049	6243
918.161	6353
918.272	6399
918.384	6456
918.495	6304
918.606	6331
918.717	6239
918.828	6296
918.939	6296
919.05	6201
919.161	6224
919.272	6136
919.383	6136
919.494	6338
919.604	6391
919.715	6262
919.826	6235
919.936	6311
920.047	6319
920.157	6296
920.267	6441
920.378	6353
920.488	6209
920.598	6456
920.708	6559
920.818	6448
920.928	6494
921.038	6597
921.148	6547
921.258	6342
921.368	6338
921.477	6232
921.587	6194
921.697	6064
921.806	6117
921.916	6057
922.025	5996
922.134	5855
922.244	5889
922.353	5969
922.462	5885
922.571	5794
922.68	5752
922.789	5680
922.898	5649
923.007	5642
923.116	5722
923.224	5657
923.333	5684
923.442	5577
923.55	5570
923.659	5528
923.767	5665
923.876	5589
923.984	5623
924.092	5520
924.201	5558
924.309	5589
924.417	5551
924.525	5486
924.633	5497
924.741	6102
924.849	5417
924.956	5448
925.064	5330
925.172	5341
925.279	5273
925.387	5337
925.494	5318
925.602	5383
925.709	5376
925.816	5307
925.924	5307
926.031	5353
926.138	5326
926.245	5334
926.352	5185
926.459	5299
926.566	5357
926.673	5204
926.779	5121
926.886	5140
926.993	5018
927.099	4999
927.206	4984
927.312	4972
927.419	5037
927.525	4965
927.631	4972
927.737	4923
927.843	4858
927.95	4809
928.056	4843
928.162	4797
928.267	4908
928.373	5330
928.479	4858
928.585	4691
928.69	4744
928.796	4771
928.901	4675
929.007	4611
929.112	4668
929.218	4653
929.323	4637
929.428	4573
929.533	4664
929.638	4519
929.743	4565
929.848	4554
929.953	4535
930.058	4432
930.163	4276
930.267	4356
930.372	4470
930.477	4360
930.581	4459
930.685	4322
930.79	4215
930.894	4265
930.998	4253
931.103	4421
931.207	4162
931.311	4086
931.415	4048
931.519	3949
931.623	3949
