Data from glass_V78500241_267.txt Node
Date: Wed Sep 01 19:16:21 CST 2021
User: usil
Spectrometer: V785-0024
Trigger mode: 0
Integration Time (sec): 4.000000E-1
Scans to average: 1
Nonlinearity correction enabled: false
Boxcar width: 0
Storing dark spectrum: false
XAxis mode: Wavelengths
Number of Pixels in Spectrum: 1024
>>>>>Begin Spectral Data<<<<<
801.071	3785
801.214	3751
801.356	3740
801.499	3751
801.641	3720
801.783	3819
801.926	3869
802.068	3785
802.211	3876
802.353	3907
802.496	3865
802.638	3896
802.78	3953
802.923	3945
803.065	3945
803.208	3846
803.35	3880
803.492	3960
803.635	3907
803.777	3838
803.919	3907
804.061	4162
804.204	3983
804.346	3975
804.488	3907
804.63	3998
804.773	3972
804.915	4013
805.057	4200
805.199	4032
805.341	4139
805.483	4158
805.626	4147
805.768	4143
805.91	4204
806.052	4219
806.194	4181
806.336	4341
806.478	4223
806.62	4185
806.762	4200
806.904	4284
807.046	4333
807.188	4223
807.33	4230
807.472	4265
807.614	4207
807.756	4284
807.898	4227
808.04	4200
808.182	4322
808.324	4371
808.465	4329
808.607	4550
808.749	4459
808.891	4504
809.033	4478
809.174	4417
809.316	4242
809.458	4276
809.6	4162
809.741	4139
809.883	4173
810.025	4238
810.166	4272
810.308	4230
810.45	4287
810.591	4249
810.733	4318
810.875	4519
811.016	4847
811.158	5143
811.299	5284
811.441	5284
811.582	5064
811.724	4706
811.865	4504
812.007	4462
812.148	4455
812.29	4443
812.431	4421
812.573	4402
812.714	4383
812.855	4398
812.997	4462
813.138	4500
813.279	4424
813.421	4398
813.562	4405
813.703	4356
813.845	4291
813.986	4314
814.127	4261
814.268	4265
814.41	4284
814.551	4295
814.692	4344
814.833	4325
814.974	4284
815.115	4367
815.256	4246
815.397	4291
815.539	4257
815.68	4207
815.821	4181
815.962	4344
816.103	4268
816.244	4188
816.385	4257
816.526	4318
816.666	4265
816.807	4078
816.948	4223
817.089	4192
817.23	4147
817.371	4051
817.512	4029
817.653	4078
817.793	4036
817.934	4101
818.075	4143
818.216	4063
818.356	4109
818.497	4021
818.638	3922
818.778	3892
818.919	3884
819.06	3831
819.2	3922
819.341	3896
819.481	3850
819.622	3930
819.762	4067
819.903	3945
820.043	3884
820.184	3892
820.324	3899
820.465	3880
820.605	3899
820.746	3876
820.886	3800
821.026	3930
821.167	3949
821.307	3983
821.447	3968
821.588	3956
821.728	3968
821.868	3934
822.008	3876
822.149	3953
822.289	3953
822.429	3793
822.569	3743
822.709	3816
822.849	3698
822.99	3743
823.13	3774
823.27	3793
823.41	3694
823.55	3778
823.69	3736
823.83	3747
823.97	3720
824.11	3644
824.25	3652
824.389	3682
824.529	3660
824.669	3606
824.809	3732
824.949	3724
825.089	3762
825.228	3728
825.368	3587
825.508	3568
825.648	3580
825.787	3603
825.927	3610
826.067	3663
826.206	3644
826.346	3835
826.485	3854
826.625	3869
826.765	3945
826.904	3838
827.044	3652
827.183	3523
827.323	3466
827.462	3488
827.601	3439
827.741	3466
827.88	3481
828.02	3401
828.159	3454
828.298	3507
828.437	3561
828.577	3492
828.716	3622
828.855	3534
828.994	3450
829.134	3370
829.273	3401
829.412	3359
829.551	3348
829.69	3351
829.829	3416
829.968	3500
830.107	3428
830.246	3462
830.385	3431
830.524	3367
830.663	3291
830.802	3233
830.941	3180
831.08	3192
831.219	3321
831.357	3291
831.496	3462
831.635	3230
831.774	3188
831.913	3199
832.051	3192
832.19	3169
832.329	3226
832.467	3135
832.606	3108
832.744	3188
832.883	3192
833.022	3230
833.16	3260
833.299	3329
833.437	3370
833.576	3393
833.714	3386
833.852	3450
833.991	3469
834.129	3466
834.267	3439
834.406	3428
834.544	3458
834.682	3454
834.821	3412
834.959	3568
835.097	3416
835.235	3534
835.373	3519
835.511	3530
835.65	3447
835.788	3507
835.926	3416
836.064	3405
836.202	3409
836.34	3572
836.478	3625
836.615	3584
836.753	3572
836.891	3637
837.029	3610
837.167	3587
837.305	3629
837.443	3595
837.58	3504
837.718	3587
837.856	3580
837.993	3595
838.131	3618
838.269	3610
838.406	3595
838.544	3553
838.681	3488
838.819	3458
838.956	3439
839.094	3389
839.231	3439
839.369	3519
839.506	3762
839.643	3648
839.781	3538
839.918	3485
840.055	3549
840.193	3530
840.33	3561
840.467	3568
840.604	3610
840.742	3819
840.879	3504
841.016	3561
841.153	3625
841.29	3724
841.427	3720
841.564	3709
841.701	3766
841.838	3701
841.975	3675
842.112	3724
842.249	3641
842.385	3633
842.522	3819
842.659	3690
842.796	3667
842.933	3720
843.069	3713
843.206	3705
843.343	3869
843.479	3808
843.616	3831
843.752	3720
843.889	3694
844.025	3903
844.162	3701
844.298	3861
844.435	3831
844.571	3827
844.708	3918
844.844	3983
844.98	4036
845.117	4036
845.253	3941
845.389	3880
845.525	4006
845.661	3998
845.798	3934
845.934	4048
846.07	3956
846.206	4040
846.342	4097
846.478	4097
846.614	4017
846.75	3949
846.886	3918
847.022	4036
847.158	3991
847.294	4044
847.429	4074
847.565	4006
847.701	4253
847.837	3888
847.972	3842
848.108	3972
848.244	4002
848.379	3842
848.515	3835
848.65	3808
848.786	3850
848.921	3842
849.057	3922
849.192	3987
849.328	3896
849.463	3956
849.598	3922
849.734	3926
849.869	3865
850.004	3812
850.14	3838
850.275	3804
850.41	3759
850.545	3781
850.68	3785
850.815	3808
850.95	3800
851.085	3960
851.22	3892
851.355	3846
851.49	3816
851.625	3800
851.76	3812
851.895	3762
852.03	3747
852.165	3850
852.299	3876
852.434	3880
852.569	3884
852.703	3873
852.838	3930
852.973	4025
853.107	3994
853.242	3884
853.376	3880
853.511	3808
853.645	3865
853.78	4036
853.914	3945
854.048	3896
854.183	3918
854.317	3972
854.451	4078
854.585	4002
854.72	3972
854.854	4086
854.988	4002
855.122	4029
855.256	3956
855.39	4051
855.524	4124
855.658	4067
855.792	4131
855.926	4158
856.06	4185
856.194	4246
856.327	4211
856.461	4120
856.595	4112
856.729	4150
856.862	4261
856.996	4268
857.13	4352
857.263	4402
857.397	4371
857.53	4306
857.664	4371
857.797	4409
857.931	4417
858.064	4417
858.197	4440
858.331	4371
858.464	4390
858.597	4360
858.731	4478
858.864	4481
858.997	4508
859.13	4523
859.263	4538
859.396	4596
859.529	4550
859.662	4558
859.795	4569
859.928	4584
860.061	4717
860.194	4733
860.327	4660
860.46	4672
860.592	4710
860.725	4759
860.858	4801
860.99	4740
861.123	4714
861.256	4752
861.388	4797
861.521	5292
861.653	4710
861.786	4702
861.918	4812
862.05	4805
862.183	4854
862.315	4885
862.447	4930
862.58	4911
862.712	4862
862.844	4778
862.976	4900
863.108	4877
863.24	5292
863.372	4885
863.504	4881
863.636	4946
863.768	5014
863.9	5014
864.032	4892
864.164	5010
864.296	5003
864.428	5124
864.559	5098
864.691	5174
864.823	5094
864.954	5109
865.086	5151
865.217	5197
865.349	5136
865.48	5140
865.612	5197
865.743	5299
865.875	5231
866.006	5223
866.137	5303
866.269	5280
866.4	5254
866.531	5303
866.662	5288
866.793	5242
866.924	5318
867.055	5376
867.186	5322
867.317	5353
867.448	5353
867.579	5349
867.71	5345
867.841	5376
867.972	5493
868.103	5402
868.233	5486
868.364	5539
868.495	5592
868.625	5642
868.756	5798
868.886	5657
869.017	5745
869.147	5847
869.278	5851
869.408	5813
869.539	5847
869.669	5969
869.799	5927
869.929	5980
870.06	6053
870.19	6239
870.32	6220
870.45	6235
870.58	6407
870.71	6452
870.84	6502
870.97	6464
871.1	6506
871.23	6681
871.36	6703
871.489	6631
871.619	6833
871.749	6863
871.879	6840
872.008	6981
872.138	6989
872.267	7076
872.397	6989
872.526	7046
872.656	7118
872.785	7209
872.915	7369
873.044	7529
873.173	7556
873.303	7677
873.432	7761
873.561	7887
873.69	7894
873.819	7970
873.948	8180
874.077	8282
874.206	8294
874.335	8473
874.464	8720
874.593	8880
874.722	8967
874.851	9089
874.979	9325
875.108	9462
875.237	9462
875.365	9500
875.494	9675
875.623	9846
875.751	9831
875.88	10036
876.008	10139
876.136	10268
876.265	10470
876.393	10771
876.521	10740
876.65	10831
876.778	10854
876.906	10961
877.034	11014
877.162	11132
877.29	11174
877.418	11277
877.546	11368
877.674	11459
877.802	11459
877.93	11493
878.058	11543
878.185	11543
878.313	11657
878.441	11817
878.568	11729
878.696	11821
878.824	11935
878.951	11874
879.079	12041
879.206	12148
879.333	12064
879.461	11916
879.588	12057
879.715	12110
879.842	12270
879.97	12110
880.097	11817
880.224	11828
880.351	11935
880.478	11836
880.605	11836
880.732	11824
880.859	11961
880.986	11836
881.112	11901
881.239	11741
881.366	11745
881.493	11589
881.619	11459
881.746	11592
881.872	11493
881.999	11566
882.125	11524
882.252	11592
882.378	11516
882.505	11497
882.631	11387
882.757	11269
882.883	11284
883.01	11227
883.136	11159
883.262	11109
883.388	11193
883.514	11197
883.64	11147
883.766	11155
883.892	11094
884.018	10984
884.143	11113
884.269	11136
884.395	10885
884.52	10763
884.646	10839
884.772	10831
884.897	10664
885.023	10656
885.148	10698
885.274	10873
885.399	10710
885.524	10691
885.65	10569
885.775	10645
885.9	10592
886.025	10596
886.15	10618
886.275	10481
886.4	10375
886.525	10390
886.65	10371
886.775	10379
886.9	10512
887.025	10485
887.149	10417
887.274	10246
887.399	10287
887.523	10265
887.648	10211
887.773	10173
887.897	10223
888.021	10257
888.146	10135
888.27	10295
888.395	10177
888.519	10181
888.643	10227
888.767	10169
888.891	10078
889.015	10002
889.139	10032
889.263	10044
889.387	10063
889.511	10059
889.635	10055
889.759	9926
889.883	10040
890.006	9991
890.13	10200
890.254	9998
890.377	10002
890.501	9892
890.624	9880
890.748	9895
890.871	9819
890.995	9789
891.118	9781
891.241	9804
891.364	9762
891.488	9762
891.611	9686
891.734	9804
891.857	9797
891.98	9770
892.103	9827
892.226	9709
892.349	9671
892.471	9515
892.594	9625
892.717	9641
892.839	9622
892.962	9690
893.085	9644
893.207	9603
893.33	9603
893.452	9511
893.575	9648
893.697	9534
893.819	9701
893.941	9641
894.064	9629
894.186	9488
894.308	9515
894.43	9507
894.552	9523
894.674	9504
894.796	9412
894.918	9462
895.04	9408
895.161	9370
895.283	9386
895.405	9298
895.526	9321
895.648	9260
895.769	9268
895.891	9306
896.012	9249
896.134	9230
896.255	9195
896.376	9157
896.498	9161
896.619	9112
896.74	9074
896.861	9085
896.982	9283
897.103	9355
897.224	9119
897.345	9142
897.466	8990
897.587	9062
897.708	9176
897.828	9032
897.949	8956
898.07	8811
898.19	8933
898.311	8986
898.431	8967
898.552	8982
898.672	8960
898.792	9036
898.913	8933
899.033	8811
899.153	8796
899.273	8686
899.393	8712
899.513	8724
899.633	8785
899.753	8773
899.873	8743
899.993	8758
900.113	8697
900.232	8712
900.352	8689
900.472	8587
900.591	8552
900.711	8632
900.83	8670
900.95	8663
901.069	8781
901.189	8590
901.308	8370
901.427	8412
901.546	8465
901.665	8427
901.784	8537
901.904	8393
902.023	8290
902.141	8210
902.26	8248
902.379	8328
902.498	8343
902.617	8294
902.735	8259
902.854	8294
902.973	8248
903.091	8130
903.21	8195
903.328	8134
903.446	8157
903.565	8115
903.683	8107
903.801	8073
903.919	8164
904.038	8164
904.156	8050
904.274	8138
904.392	8058
904.51	7997
904.627	8020
904.745	8100
904.863	8183
904.981	7974
905.098	7917
905.216	7921
905.334	7936
905.451	7906
905.569	7864
905.686	7871
905.803	7982
905.921	7795
906.038	7868
906.155	7830
906.272	7765
906.389	7685
906.506	7609
906.623	7605
906.74	7605
906.857	7529
906.974	7609
907.091	7689
907.208	7715
907.324	7655
907.441	7556
907.557	7457
907.674	7460
907.79	7419
907.907	7339
908.023	7457
908.139	7422
908.256	7430
908.372	7365
908.488	7339
908.604	7312
908.72	7244
908.836	7282
908.952	7251
909.068	7308
909.184	7308
909.3	7259
909.415	7320
909.531	7270
909.647	7129
909.762	7171
909.878	7080
909.993	7129
910.108	7122
910.224	7099
910.339	7190
910.454	7110
910.57	7084
910.685	7031
910.8	7187
910.915	7088
911.03	7038
911.145	6894
911.259	6909
911.374	6916
911.489	6848
911.604	6757
911.718	6757
911.833	6749
911.947	6642
912.062	6601
912.176	6745
912.291	6722
912.405	6662
912.519	6837
912.633	6859
912.748	6730
912.862	6692
912.976	6604
913.09	6525
913.204	6593
913.318	6612
913.431	6673
913.545	6703
913.659	6703
913.772	6662
913.886	6604
914	6547
914.113	6627
914.226	6665
914.34	6563
914.453	6498
914.566	6604
914.68	6574
914.793	6502
914.906	6388
915.019	6441
915.132	6414
915.245	6448
915.358	6498
915.47	6433
915.583	6464
915.696	6479
915.809	6513
915.921	6521
916.034	6399
916.146	6399
916.259	6395
916.371	6506
916.483	6471
916.595	6399
916.708	6437
916.82	6399
916.932	6388
917.044	6391
917.156	6369
917.268	6365
917.38	6346
917.491	6319
917.603	6334
917.715	6410
917.826	6479
917.938	6315
918.049	6262
918.161	6361
918.272	6471
918.384	6433
918.495	6369
918.606	6346
918.717	6213
918.828	6304
918.939	6262
919.05	6171
919.161	6285
919.272	6117
919.383	6171
919.494	6251
919.604	6426
919.715	6308
919.826	6258
919.936	6213
920.047	6357
920.157	6228
920.267	6456
920.378	6376
920.488	6327
920.598	6467
920.708	6555
920.818	6486
920.928	6471
921.038	6631
921.148	6589
921.258	6384
921.368	6300
921.477	6220
921.587	6182
921.697	6167
921.806	6201
921.916	6068
922.025	5950
922.134	5927
922.244	5931
922.353	5927
922.462	5828
922.571	5844
922.68	5722
922.789	5703
922.898	5707
923.007	5592
923.116	5684
923.224	5699
923.333	5707
923.442	5634
923.55	5608
923.659	5604
923.767	5619
923.876	5558
923.984	5646
924.092	5520
924.201	5592
924.309	5592
924.417	5566
924.525	5524
924.633	5512
924.741	6216
924.849	5395
924.956	5497
925.064	5372
925.172	5299
925.279	5357
925.387	5337
925.494	5387
925.602	5414
925.709	5398
925.816	5296
925.924	5349
926.031	5391
926.138	5357
926.245	5341
926.352	5254
926.459	5307
926.566	5360
926.673	5288
926.779	5090
926.886	5105
926.993	5029
927.099	5033
927.206	4991
927.312	4957
927.419	5060
927.525	4995
927.631	5025
927.737	4885
927.843	4850
927.95	4805
928.056	4820
928.162	4847
928.267	4854
928.373	5273
928.479	4870
928.585	4675
928.69	4828
928.796	4786
928.901	4641
929.007	4603
929.112	4649
929.218	4653
929.323	4599
929.428	4565
929.533	4694
929.638	4538
929.743	4558
929.848	4569
929.953	4531
930.058	4443
930.163	4329
930.267	4386
930.372	4451
930.477	4291
930.581	4481
930.685	4421
930.79	4261
930.894	4314
930.998	4261
931.103	4428
931.207	4143
931.311	4109
931.415	4055
931.519	3911
931.623	3956
