Data from glass_V78500241_315.txt Node
Date: Wed Sep 01 19:16:40 CST 2021
User: usil
Spectrometer: V785-0024
Trigger mode: 0
Integration Time (sec): 4.000000E-1
Scans to average: 1
Nonlinearity correction enabled: false
Boxcar width: 0
Storing dark spectrum: false
XAxis mode: Wavelengths
Number of Pixels in Spectrum: 1024
>>>>>Begin Spectral Data<<<<<
801.071	3770
801.214	3789
801.356	3728
801.499	3781
801.641	3736
801.783	3797
801.926	3934
802.068	3842
802.211	3835
802.353	3911
802.496	3850
802.638	3888
802.78	3926
802.923	3960
803.065	3884
803.208	3850
803.35	3854
803.492	3915
803.635	3937
803.777	3831
803.919	3937
804.061	4158
804.204	3998
804.346	3972
804.488	3934
804.63	4059
804.773	3956
804.915	4086
805.057	4162
805.199	4059
805.341	4105
805.483	4109
805.626	4147
805.768	4143
805.91	4207
806.052	4230
806.194	4227
806.336	4352
806.478	4234
806.62	4238
806.762	4177
806.904	4333
807.046	4337
807.188	4246
807.33	4185
807.472	4227
807.614	4230
807.756	4303
807.898	4230
808.04	4196
808.182	4314
808.324	4310
808.465	4383
808.607	4481
808.749	4519
808.891	4489
809.033	4508
809.174	4417
809.316	4272
809.458	4276
809.6	4158
809.741	4093
809.883	4166
810.025	4257
810.166	4200
810.308	4242
810.45	4204
810.591	4253
810.733	4306
810.875	4504
811.016	4809
811.158	5159
811.299	5261
811.441	5326
811.582	5071
811.724	4725
811.865	4485
812.007	4478
812.148	4474
812.29	4390
812.431	4447
812.573	4405
812.714	4394
812.855	4356
812.997	4386
813.138	4512
813.279	4428
813.421	4383
813.562	4394
813.703	4352
813.845	4306
813.986	4219
814.127	4265
814.268	4303
814.41	4227
814.551	4306
814.692	4348
814.833	4242
814.974	4348
815.115	4356
815.256	4280
815.397	4257
815.539	4265
815.68	4215
815.821	4185
815.962	4379
816.103	4322
816.244	4234
816.385	4265
816.526	4337
816.666	4230
816.807	4074
816.948	4211
817.089	4185
817.23	4101
817.371	4063
817.512	4078
817.653	4051
817.793	4025
817.934	4032
818.075	4040
818.216	4063
818.356	4071
818.497	4029
818.638	3926
818.778	3899
818.919	3918
819.06	3831
819.2	3930
819.341	3873
819.481	3861
819.622	3930
819.762	4071
819.903	3937
820.043	3915
820.184	3819
820.324	3823
820.465	3892
820.605	3861
820.746	3903
820.886	3846
821.026	3953
821.167	3926
821.307	4002
821.447	3994
821.588	3945
821.728	3915
821.868	4017
822.008	3857
822.149	3918
822.289	3937
822.429	3838
822.569	3781
822.709	3808
822.849	3720
822.99	3694
823.13	3766
823.27	3812
823.41	3698
823.55	3770
823.69	3717
823.83	3736
823.97	3736
824.11	3603
824.25	3629
824.389	3660
824.529	3705
824.669	3667
824.809	3682
824.949	3736
825.089	3759
825.228	3717
825.368	3599
825.508	3595
825.648	3587
825.787	3622
825.927	3671
826.067	3641
826.206	3633
826.346	3774
826.485	3831
826.625	3838
826.765	3945
826.904	3854
827.044	3625
827.183	3507
827.323	3466
827.462	3473
827.601	3435
827.741	3481
827.88	3458
828.02	3409
828.159	3424
828.298	3462
828.437	3557
828.577	3469
828.716	3644
828.855	3504
828.994	3393
829.134	3386
829.273	3370
829.412	3344
829.551	3412
829.69	3416
829.829	3454
829.968	3500
830.107	3481
830.246	3424
830.385	3397
830.524	3378
830.663	3321
830.802	3245
830.941	3233
831.08	3245
831.219	3283
831.357	3313
831.496	3389
831.635	3214
831.774	3184
831.913	3188
832.051	3199
832.19	3161
832.329	3260
832.467	3135
832.606	3093
832.744	3199
832.883	3169
833.022	3199
833.16	3256
833.299	3313
833.437	3340
833.576	3416
833.714	3420
833.852	3447
833.991	3458
834.129	3500
834.267	3462
834.406	3397
834.544	3435
834.682	3447
834.821	3389
834.959	3561
835.097	3443
835.235	3561
835.373	3454
835.511	3507
835.65	3473
835.788	3507
835.926	3401
836.064	3389
836.202	3447
836.34	3572
836.478	3603
836.615	3542
836.753	3625
836.891	3660
837.029	3625
837.167	3603
837.305	3606
837.443	3534
837.58	3504
837.718	3629
837.856	3526
837.993	3530
838.131	3587
838.269	3584
838.406	3610
838.544	3599
838.681	3511
838.819	3473
838.956	3420
839.094	3363
839.231	3485
839.369	3542
839.506	3766
839.643	3660
839.781	3500
839.918	3454
840.055	3534
840.193	3568
840.33	3568
840.467	3603
840.604	3644
840.742	3816
840.879	3564
841.016	3568
841.153	3584
841.29	3766
841.427	3698
841.564	3701
841.701	3740
841.838	3720
841.975	3682
842.112	3747
842.249	3701
842.385	3622
842.522	3842
842.659	3705
842.796	3694
842.933	3732
843.069	3686
843.206	3701
843.343	3816
843.479	3759
843.616	3827
843.752	3694
843.889	3698
844.025	3865
844.162	3770
844.298	3850
844.435	3793
844.571	3816
844.708	3896
844.844	3953
844.98	4044
845.117	4010
845.253	3960
845.389	3911
845.525	3968
845.661	3994
845.798	3983
845.934	3991
846.07	3953
846.206	4059
846.342	4150
846.478	4078
846.614	3987
846.75	3941
846.886	3918
847.022	4082
847.158	3972
847.294	4025
847.429	4010
847.565	3998
847.701	4268
847.837	3831
847.972	3869
848.108	3972
848.244	3968
848.379	3873
848.515	3861
848.65	3812
848.786	3876
848.921	3869
849.057	3941
849.192	3907
849.328	3915
849.463	3949
849.598	3873
849.734	3937
849.869	3835
850.004	3793
850.14	3804
850.275	3774
850.41	3743
850.545	3774
850.68	3766
850.815	3846
850.95	3812
851.085	3956
851.22	3869
851.355	3827
851.49	3800
851.625	3823
851.76	3781
851.895	3770
852.03	3751
852.165	3835
852.299	3835
852.434	3945
852.569	3857
852.703	3892
852.838	3915
852.973	4040
853.107	4006
853.242	3918
853.376	3865
853.511	3804
853.645	3876
853.78	3972
853.914	3876
854.048	3941
854.183	3915
854.317	3964
854.451	4090
854.585	3987
854.72	3972
854.854	4086
854.988	3903
855.122	4055
855.256	3960
855.39	4040
855.524	4093
855.658	4063
855.792	4097
855.926	4135
856.06	4143
856.194	4207
856.327	4143
856.461	4143
856.595	4154
856.729	4188
856.862	4299
856.996	4253
857.13	4306
857.263	4371
857.397	4329
857.53	4238
857.664	4379
857.797	4375
857.931	4398
858.064	4447
858.197	4432
858.331	4440
858.464	4417
858.597	4371
858.731	4455
858.864	4474
858.997	4478
859.13	4508
859.263	4485
859.396	4611
859.529	4508
859.662	4546
859.795	4554
859.928	4580
860.061	4694
860.194	4733
860.327	4694
860.46	4664
860.592	4748
860.725	4767
860.858	4790
860.99	4740
861.123	4698
861.256	4698
861.388	4801
861.521	5265
861.653	4740
861.786	4694
861.918	4763
862.05	4786
862.183	4858
862.315	4866
862.447	4972
862.58	4854
862.712	4843
862.844	4786
862.976	4850
863.108	4881
863.24	5318
863.372	4847
863.504	4873
863.636	4892
863.768	4957
863.9	4961
864.032	4938
864.164	4984
864.296	5010
864.428	5162
864.559	5159
864.691	5132
864.823	5071
864.954	5166
865.086	5143
865.217	5170
865.349	5105
865.48	5185
865.612	5189
865.743	5299
865.875	5235
866.006	5204
866.137	5201
866.269	5231
866.4	5273
866.531	5246
866.662	5220
866.793	5269
866.924	5292
867.055	5360
867.186	5353
867.317	5307
867.448	5337
867.579	5391
867.71	5379
867.841	5357
867.972	5448
868.103	5528
868.233	5532
868.364	5505
868.495	5505
868.625	5691
868.756	5786
868.886	5726
869.017	5714
869.147	5821
869.278	5889
869.408	5828
869.539	5855
869.669	5961
869.799	5942
869.929	5992
870.06	6026
870.19	6136
870.32	6125
870.45	6258
870.58	6414
870.71	6384
870.84	6509
870.97	6410
871.1	6410
871.23	6635
871.36	6696
871.489	6642
871.619	6783
871.749	6829
871.879	6897
872.008	7076
872.138	6989
872.267	7038
872.397	7000
872.526	7038
872.656	7126
872.785	7171
872.915	7396
873.044	7590
873.173	7639
873.303	7643
873.432	7837
873.561	7887
873.69	7951
873.819	8077
873.948	8191
874.077	8248
874.206	8374
874.335	8499
874.464	8655
874.593	8864
874.722	8975
874.851	9169
874.979	9249
875.108	9389
875.237	9458
875.365	9431
875.494	9667
875.623	9930
875.751	9892
875.88	9880
876.008	10169
876.136	10318
876.265	10485
876.393	10637
876.521	10771
876.65	10843
876.778	10923
876.906	10923
877.034	11025
877.162	11045
877.29	11132
877.418	11311
877.546	11326
877.674	11356
877.802	11501
877.93	11528
878.058	11600
878.185	11551
878.313	11676
878.441	11741
878.568	11627
878.696	11741
878.824	11863
878.951	11904
879.079	12030
879.206	12114
879.333	12129
879.461	11996
879.588	12159
879.715	12060
879.842	12235
879.97	12106
880.097	11866
880.224	11897
880.351	11954
880.478	11920
880.605	11836
880.732	11878
880.859	11992
880.986	11855
881.112	11866
881.239	11752
881.366	11680
881.493	11684
881.619	11562
881.746	11600
881.872	11573
881.999	11490
882.125	11516
882.252	11539
882.378	11490
882.505	11551
882.631	11410
882.757	11280
882.883	11368
883.01	11239
883.136	11204
883.262	11136
883.388	11109
883.514	11208
883.64	11269
883.766	11128
883.892	11022
884.018	11052
884.143	11083
884.269	11060
884.395	10896
884.52	10812
884.646	10710
884.772	10771
884.897	10618
885.023	10630
885.148	10736
885.274	10740
885.399	10706
885.524	10626
885.65	10645
885.775	10577
885.9	10630
886.025	10656
886.15	10504
886.275	10424
886.4	10375
886.525	10371
886.65	10428
886.775	10322
886.9	10466
887.025	10542
887.149	10375
887.274	10204
887.399	10166
887.523	10185
887.648	10223
887.773	10090
887.897	10215
888.021	10238
888.146	10135
888.27	10276
888.395	10246
888.519	10207
888.643	10238
888.767	10234
888.891	10147
889.015	10010
889.139	10044
889.263	9991
889.387	10101
889.511	10105
889.635	10006
889.759	9956
889.883	9983
890.006	10044
890.13	10109
890.254	10048
890.377	9941
890.501	9888
890.624	9915
890.748	9907
890.871	9869
890.995	9823
891.118	9694
891.241	9751
891.364	9736
891.488	9816
891.611	9701
891.734	9690
891.857	9675
891.98	9755
892.103	9800
892.226	9717
892.349	9701
892.471	9538
892.594	9622
892.717	9682
892.839	9629
892.962	9633
893.085	9641
893.207	9576
893.33	9549
893.452	9549
893.575	9576
893.697	9538
893.819	9614
893.941	9648
894.064	9618
894.186	9473
894.308	9515
894.43	9530
894.552	9572
894.674	9515
894.796	9367
894.918	9447
895.04	9359
895.161	9416
895.283	9253
895.405	9256
895.526	9287
895.648	9275
895.769	9264
895.891	9317
896.012	9313
896.134	9237
896.255	9195
896.376	9017
896.498	9093
896.619	9146
896.74	9020
896.861	9104
896.982	9298
897.103	9348
897.224	9104
897.345	9077
897.466	9036
897.587	9028
897.708	9077
897.828	8967
897.949	8941
898.07	8838
898.19	8948
898.311	9036
898.431	8963
898.552	8921
898.672	8986
898.792	8883
898.913	8914
899.033	8933
899.153	8731
899.273	8727
899.393	8659
899.513	8731
899.633	8686
899.753	8731
899.873	8712
899.993	8773
900.113	8720
900.232	8701
900.352	8663
900.472	8640
900.591	8583
900.711	8606
900.83	8571
900.95	8636
901.069	8697
901.189	8571
901.308	8347
901.427	8423
901.546	8412
901.665	8423
901.784	8507
901.904	8336
902.023	8336
902.141	8279
902.26	8180
902.379	8206
902.498	8252
902.617	8199
902.735	8320
902.854	8366
902.973	8233
903.091	8111
903.21	8145
903.328	8161
903.446	8123
903.565	8107
903.683	8062
903.801	8035
903.919	8187
904.038	8126
904.156	8084
904.274	8149
904.392	7986
904.51	8103
904.627	8119
904.745	8123
904.863	8107
904.981	7944
905.098	7833
905.216	7906
905.334	7898
905.451	7864
905.569	7917
905.686	7864
905.803	7890
905.921	7776
906.038	7871
906.155	7841
906.272	7750
906.389	7772
906.506	7643
906.623	7658
906.74	7620
906.857	7502
906.974	7575
907.091	7639
907.208	7708
907.324	7662
907.441	7575
907.557	7506
907.674	7514
907.79	7419
907.907	7483
908.023	7430
908.139	7388
908.256	7438
908.372	7381
908.488	7388
908.604	7305
908.72	7217
908.836	7297
908.952	7221
909.068	7213
909.184	7365
909.3	7312
909.415	7320
909.531	7365
909.647	7160
909.762	7187
909.878	7088
909.993	7137
910.108	7129
910.224	7141
910.339	7152
910.454	7019
910.57	7034
910.685	7034
910.8	7129
910.915	7145
911.03	7053
911.145	6970
911.259	6916
911.374	6928
911.489	6829
911.604	6848
911.718	6741
911.833	6749
911.947	6654
912.062	6631
912.176	6684
912.291	6745
912.405	6681
912.519	6867
912.633	6871
912.748	6734
912.862	6764
912.976	6540
913.09	6574
913.204	6627
913.318	6654
913.431	6684
913.545	6681
913.659	6753
913.772	6726
913.886	6658
914	6566
914.113	6669
914.226	6620
914.34	6684
914.453	6467
914.566	6677
914.68	6532
914.793	6532
914.906	6422
915.019	6399
915.132	6426
915.245	6437
915.358	6456
915.47	6369
915.583	6448
915.696	6521
915.809	6582
915.921	6506
916.034	6513
916.146	6452
916.259	6410
916.371	6502
916.483	6441
916.595	6414
916.708	6357
916.82	6410
916.932	6441
917.044	6384
917.156	6384
917.268	6353
917.38	6380
917.491	6243
917.603	6327
917.715	6418
917.826	6353
917.938	6266
918.049	6258
918.161	6308
918.272	6475
918.384	6464
918.495	6361
918.606	6239
918.717	6247
918.828	6277
918.939	6266
919.05	6239
919.161	6258
919.272	6102
919.383	6140
919.494	6311
919.604	6441
919.715	6254
919.826	6262
919.936	6266
920.047	6395
920.157	6300
920.267	6426
920.378	6311
920.488	6308
920.598	6445
920.708	6555
920.818	6479
920.928	6467
921.038	6631
921.148	6555
921.258	6315
921.368	6357
921.477	6190
921.587	6216
921.697	6098
921.806	6182
921.916	6114
922.025	6011
922.134	5950
922.244	5866
922.353	6019
922.462	5859
922.571	5779
922.68	5710
922.789	5684
922.898	5737
923.007	5691
923.116	5729
923.224	5653
923.333	5684
923.442	5581
923.55	5577
923.659	5630
923.767	5619
923.876	5532
923.984	5589
924.092	5509
924.201	5554
924.309	5570
924.417	5615
924.525	5486
924.633	5490
924.741	6254
924.849	5406
924.956	5459
925.064	5353
925.172	5277
925.279	5299
925.387	5379
925.494	5341
925.602	5433
925.709	5353
925.816	5322
925.924	5353
926.031	5379
926.138	5360
926.245	5303
926.352	5280
926.459	5345
926.566	5322
926.673	5246
926.779	5166
926.886	5151
926.993	5052
927.099	4980
927.206	4984
927.312	4938
927.419	5052
927.525	5018
927.631	5025
927.737	4885
927.843	4877
927.95	4759
928.056	4873
928.162	4809
928.267	4866
928.373	5357
928.479	4858
928.585	4683
928.69	4801
928.796	4793
928.901	4691
929.007	4580
929.112	4641
929.218	4675
929.323	4626
929.428	4588
929.533	4668
929.638	4538
929.743	4546
929.848	4554
929.953	4531
930.058	4474
930.163	4348
930.267	4322
930.372	4440
930.477	4246
930.581	4485
930.685	4413
930.79	4268
930.894	4295
930.998	4257
931.103	4371
931.207	4120
931.311	4086
931.415	4078
931.519	3945
931.623	3930
