Data from glass_V78500241_1225.txt Node
Date: Wed Sep 01 19:22:59 CST 2021
User: usil
Spectrometer: V785-0024
Trigger mode: 0
Integration Time (sec): 4.000000E-1
Scans to average: 1
Nonlinearity correction enabled: false
Boxcar width: 0
Storing dark spectrum: false
XAxis mode: Wavelengths
Number of Pixels in Spectrum: 1024
>>>>>Begin Spectral Data<<<<<
801.071	3766
801.214	3808
801.356	3740
801.499	3762
801.641	3789
801.783	3751
801.926	3873
802.068	3838
802.211	3884
802.353	3865
802.496	3846
802.638	3850
802.78	3892
802.923	3949
803.065	3937
803.208	3873
803.35	3903
803.492	3869
803.635	3930
803.777	3778
803.919	3926
804.061	4162
804.204	4029
804.346	3979
804.488	3937
804.63	4051
804.773	3949
804.915	4025
805.057	4166
805.199	4021
805.341	4124
805.483	4162
805.626	4139
805.768	4135
805.91	4219
806.052	4215
806.194	4234
806.336	4360
806.478	4223
806.62	4173
806.762	4169
806.904	4265
807.046	4344
807.188	4257
807.33	4173
807.472	4230
807.614	4207
807.756	4257
807.898	4246
808.04	4291
808.182	4261
808.324	4337
808.465	4341
808.607	4481
808.749	4432
808.891	4440
809.033	4508
809.174	4409
809.316	4291
809.458	4211
809.6	4154
809.741	4128
809.883	4177
810.025	4219
810.166	4204
810.308	4246
810.45	4223
810.591	4284
810.733	4341
810.875	4538
811.016	4820
811.158	5147
811.299	5299
811.441	5334
811.582	5052
811.724	4691
811.865	4462
812.007	4455
812.148	4443
812.29	4417
812.431	4443
812.573	4379
812.714	4375
812.855	4394
812.997	4409
813.138	4466
813.279	4424
813.421	4394
813.562	4386
813.703	4310
813.845	4329
813.986	4246
814.127	4219
814.268	4261
814.41	4318
814.551	4299
814.692	4322
814.833	4276
814.974	4257
815.115	4375
815.256	4310
815.397	4200
815.539	4272
815.68	4234
815.821	4207
815.962	4325
816.103	4291
816.244	4227
816.385	4215
816.526	4276
816.666	4257
816.807	4101
816.948	4169
817.089	4185
817.23	4169
817.371	4067
817.512	4063
817.653	4150
817.793	4029
817.934	4013
818.075	4093
818.216	4051
818.356	4074
818.497	4006
818.638	3926
818.778	3918
818.919	3937
819.06	3861
819.2	3903
819.341	3903
819.481	3819
819.622	3930
819.762	4036
819.903	4002
820.043	3857
820.184	3876
820.324	3865
820.465	3888
820.605	3842
820.746	3846
820.886	3808
821.026	3956
821.167	3956
821.307	3953
821.447	3975
821.588	3949
821.728	3975
821.868	3945
822.008	3934
822.149	3964
822.289	3956
822.429	3816
822.569	3743
822.709	3842
822.849	3682
822.99	3743
823.13	3762
823.27	3751
823.41	3724
823.55	3789
823.69	3770
823.83	3762
823.97	3622
824.11	3580
824.25	3637
824.389	3675
824.529	3675
824.669	3682
824.809	3709
824.949	3766
825.089	3728
825.228	3682
825.368	3618
825.508	3553
825.648	3580
825.787	3637
825.927	3671
826.067	3656
826.206	3679
826.346	3766
826.485	3831
826.625	3884
826.765	3945
826.904	3850
827.044	3618
827.183	3538
827.323	3450
827.462	3485
827.601	3450
827.741	3431
827.88	3488
828.02	3386
828.159	3466
828.298	3477
828.437	3557
828.577	3485
828.716	3599
828.855	3500
828.994	3405
829.134	3393
829.273	3401
829.412	3405
829.551	3332
829.69	3378
829.829	3420
829.968	3538
830.107	3450
830.246	3488
830.385	3424
830.524	3367
830.663	3355
830.802	3275
830.941	3207
831.08	3203
831.219	3275
831.357	3264
831.496	3412
831.635	3245
831.774	3165
831.913	3241
832.051	3165
832.19	3138
832.329	3226
832.467	3142
832.606	3077
832.744	3211
832.883	3233
833.022	3207
833.16	3245
833.299	3313
833.437	3359
833.576	3397
833.714	3397
833.852	3443
833.991	3458
834.129	3477
834.267	3466
834.406	3367
834.544	3428
834.682	3412
834.821	3458
834.959	3545
835.097	3435
835.235	3519
835.373	3447
835.511	3469
835.65	3443
835.788	3488
835.926	3386
836.064	3386
836.202	3428
836.34	3580
836.478	3629
836.615	3564
836.753	3599
836.891	3641
837.029	3633
837.167	3603
837.305	3553
837.443	3561
837.58	3511
837.718	3553
837.856	3584
837.993	3526
838.131	3652
838.269	3549
838.406	3606
838.544	3561
838.681	3492
838.819	3504
838.956	3405
839.094	3393
839.231	3458
839.369	3507
839.506	3705
839.643	3637
839.781	3469
839.918	3466
840.055	3542
840.193	3515
840.33	3534
840.467	3587
840.604	3580
840.742	3793
840.879	3530
841.016	3561
841.153	3622
841.29	3751
841.427	3751
841.564	3762
841.701	3740
841.838	3679
841.975	3679
842.112	3770
842.249	3690
842.385	3656
842.522	3808
842.659	3663
842.796	3679
842.933	3747
843.069	3732
843.206	3720
843.343	3789
843.479	3800
843.616	3873
843.752	3701
843.889	3713
844.025	3873
844.162	3724
844.298	3888
844.435	3785
844.571	3759
844.708	3968
844.844	3972
844.98	4021
845.117	4032
845.253	3964
845.389	3926
845.525	3987
845.661	4006
845.798	3983
845.934	4017
846.07	3922
846.206	4067
846.342	4078
846.478	4082
846.614	3987
846.75	3937
846.886	3876
847.022	4040
847.158	4013
847.294	4025
847.429	4010
847.565	4006
847.701	4242
847.837	3865
847.972	3850
848.108	3972
848.244	3975
848.379	3865
848.515	3778
848.65	3861
848.786	3827
848.921	3873
849.057	3934
849.192	3930
849.328	3918
849.463	3880
849.598	3892
849.734	3823
849.869	3774
850.004	3812
850.14	3781
850.275	3800
850.41	3747
850.545	3778
850.68	3770
850.815	3789
850.95	3804
851.085	3964
851.22	3911
851.355	3880
851.49	3759
851.625	3800
851.76	3831
851.895	3755
852.03	3701
852.165	3838
852.299	3865
852.434	3918
852.569	3850
852.703	3926
852.838	3945
852.973	4025
853.107	4006
853.242	3918
853.376	3827
853.511	3785
853.645	3835
853.78	3975
853.914	3922
854.048	3941
854.183	3903
854.317	3945
854.451	4093
854.585	3934
854.72	3972
854.854	4040
854.988	3960
855.122	4010
855.256	3896
855.39	4051
855.524	4135
855.658	4147
855.792	4112
855.926	4128
856.06	4238
856.194	4230
856.327	4124
856.461	4162
856.595	4154
856.729	4181
856.862	4234
856.996	4219
857.13	4310
857.263	4280
857.397	4371
857.53	4268
857.664	4371
857.797	4383
857.931	4432
858.064	4409
858.197	4405
858.331	4459
858.464	4386
858.597	4352
858.731	4455
858.864	4478
858.997	4451
859.13	4527
859.263	4531
859.396	4550
859.529	4519
859.662	4569
859.795	4558
859.928	4603
860.061	4668
860.194	4733
860.327	4679
860.46	4668
860.592	4748
860.725	4820
860.858	4752
860.99	4736
861.123	4714
861.256	4714
861.388	4748
861.521	5280
861.653	4698
861.786	4725
861.918	4778
862.05	4820
862.183	4847
862.315	4885
862.447	4915
862.58	4904
862.712	4793
862.844	4793
862.976	4866
863.108	4904
863.24	5170
863.372	4850
863.504	4908
863.636	4911
863.768	4976
863.9	4953
864.032	4934
864.164	4991
864.296	5033
864.428	5121
864.559	5071
864.691	5140
864.823	5151
864.954	5086
865.086	5094
865.217	5117
865.349	5136
865.48	5162
865.612	5151
865.743	5288
865.875	5155
866.006	5193
866.137	5216
866.269	5254
866.4	5284
866.531	5265
866.662	5269
866.793	5303
866.924	5280
867.055	5353
867.186	5372
867.317	5334
867.448	5349
867.579	5395
867.71	5376
867.841	5357
867.972	5425
868.103	5455
868.233	5497
868.364	5524
868.495	5528
868.625	5661
868.756	5748
868.886	5707
869.017	5767
869.147	5893
869.278	5866
869.408	5836
869.539	5844
869.669	5878
869.799	5920
869.929	6007
870.06	6030
870.19	6136
870.32	6213
870.45	6254
870.58	6342
870.71	6380
870.84	6494
870.97	6414
871.1	6464
871.23	6654
871.36	6707
871.489	6696
871.619	6749
871.749	6791
871.879	6871
872.008	6954
872.138	6916
872.267	7050
872.397	6993
872.526	7061
872.656	7095
872.785	7198
872.915	7407
873.044	7548
873.173	7514
873.303	7639
873.432	7837
873.561	7856
873.69	7974
873.819	8031
873.948	8111
874.077	8282
874.206	8374
874.335	8419
874.464	8678
874.593	8861
874.722	8967
874.851	9161
874.979	9192
875.108	9469
875.237	9439
875.365	9519
875.494	9629
875.623	9850
875.751	9800
875.88	10036
876.008	10128
876.136	10276
876.265	10481
876.393	10744
876.521	10668
876.65	10816
876.778	10908
876.906	10900
877.034	10930
877.162	11105
877.29	11140
877.418	11246
877.546	11345
877.674	11463
877.802	11505
877.93	11570
878.058	11509
878.185	11623
878.313	11608
878.441	11718
878.568	11680
878.696	11828
878.824	11817
878.951	11851
879.079	11977
879.206	12053
879.333	12064
879.461	12026
879.588	12102
879.715	12072
879.842	12254
879.97	12038
880.097	11847
880.224	11809
880.351	11847
880.478	11897
880.605	11908
880.732	11794
880.859	12022
880.986	11813
881.112	11847
881.239	11726
881.366	11649
881.493	11684
881.619	11604
881.746	11562
881.872	11505
881.999	11509
882.125	11433
882.252	11577
882.378	11455
882.505	11566
882.631	11410
882.757	11307
882.883	11322
883.01	11254
883.136	11143
883.262	11128
883.388	11102
883.514	11166
883.64	11181
883.766	11121
883.892	10999
884.018	11018
884.143	11022
884.269	11128
884.395	10824
884.52	10858
884.646	10763
884.772	10706
884.897	10611
885.023	10687
885.148	10698
885.274	10824
885.399	10668
885.524	10561
885.65	10618
885.775	10592
885.9	10554
886.025	10603
886.15	10565
886.275	10485
886.4	10402
886.525	10512
886.65	10375
886.775	10440
886.9	10432
887.025	10535
887.149	10409
887.274	10234
887.399	10147
887.523	10128
887.648	10154
887.773	10169
887.897	10207
888.021	10246
888.146	10234
888.27	10291
888.395	10242
888.519	10143
888.643	10173
888.767	10185
888.891	10090
889.015	10013
889.139	10010
889.263	10105
889.387	10105
889.511	10185
889.635	10131
889.759	9987
889.883	9983
890.006	10036
890.13	10025
890.254	9964
890.377	9975
890.501	9915
890.624	9915
890.748	9865
890.871	9857
890.995	9797
891.118	9766
891.241	9732
891.364	9770
891.488	9816
891.611	9724
891.734	9774
891.857	9785
891.98	9698
892.103	9743
892.226	9732
892.349	9698
892.471	9625
892.594	9667
892.717	9663
892.839	9576
892.962	9599
893.085	9740
893.207	9523
893.33	9526
893.452	9553
893.575	9637
893.697	9526
893.819	9656
893.941	9587
894.064	9610
894.186	9485
894.308	9408
894.43	9523
894.552	9507
894.674	9523
894.796	9351
894.918	9370
895.04	9405
895.161	9329
895.283	9389
895.405	9291
895.526	9272
895.648	9233
895.769	9279
895.891	9268
896.012	9325
896.134	9230
896.255	9245
896.376	9188
896.498	9245
896.619	9161
896.74	9062
896.861	9169
896.982	9230
897.103	9321
897.224	9256
897.345	9081
897.466	8982
897.587	9104
897.708	9169
897.828	9066
897.949	8921
898.07	8895
898.19	8975
898.311	8982
898.431	8918
898.552	8971
898.672	8941
898.792	8952
898.913	8982
899.033	8838
899.153	8777
899.273	8686
899.393	8727
899.513	8792
899.633	8724
899.753	8651
899.873	8663
899.993	8788
900.113	8678
900.232	8743
900.352	8632
900.472	8644
900.591	8545
900.711	8670
900.83	8541
900.95	8686
901.069	8705
901.189	8606
901.308	8526
901.427	8427
901.546	8450
901.665	8488
901.784	8484
901.904	8298
902.023	8305
902.141	8225
902.26	8286
902.379	8294
902.498	8248
902.617	8237
902.735	8294
902.854	8282
902.973	8286
903.091	8180
903.21	8180
903.328	8195
903.446	8126
903.565	8069
903.683	8054
903.801	8145
903.919	8107
904.038	8088
904.156	8001
904.274	8111
904.392	8046
904.51	8035
904.627	7986
904.745	8172
904.863	8077
904.981	7959
905.098	7898
905.216	7833
905.334	7887
905.451	7852
905.569	7852
905.686	8005
905.803	7947
905.921	7765
906.038	7909
906.155	7837
906.272	7696
906.389	7727
906.506	7681
906.623	7620
906.74	7613
906.857	7552
906.974	7597
907.091	7643
907.208	7738
907.324	7601
907.441	7620
907.557	7434
907.674	7384
907.79	7354
907.907	7472
908.023	7438
908.139	7491
908.256	7381
908.372	7400
908.488	7392
908.604	7240
908.72	7270
908.836	7282
908.952	7228
909.068	7206
909.184	7308
909.3	7251
909.415	7331
909.531	7312
909.647	7080
909.762	7091
909.878	7110
909.993	7099
910.108	7099
910.224	7103
910.339	7145
910.454	6993
910.57	7027
910.685	6951
910.8	7187
910.915	7141
911.03	7057
911.145	6951
911.259	6897
911.374	6920
911.489	6844
911.604	6779
911.718	6760
911.833	6711
911.947	6662
912.062	6631
912.176	6719
912.291	6707
912.405	6722
912.519	6821
912.633	6875
912.748	6764
912.862	6757
912.976	6654
913.09	6540
913.204	6570
913.318	6555
913.431	6662
913.545	6669
913.659	6696
913.772	6665
913.886	6544
914	6517
914.113	6627
914.226	6631
914.34	6585
914.453	6513
914.566	6593
914.68	6547
914.793	6494
914.906	6506
915.019	6376
915.132	6376
915.245	6437
915.358	6460
915.47	6426
915.583	6467
915.696	6460
915.809	6525
915.921	6566
916.034	6384
916.146	6426
916.259	6418
916.371	6494
916.483	6437
916.595	6483
916.708	6418
916.82	6403
916.932	6350
917.044	6464
917.156	6380
917.268	6308
917.38	6346
917.491	6334
917.603	6365
917.715	6399
917.826	6410
917.938	6353
918.049	6209
918.161	6380
918.272	6422
918.384	6456
918.495	6407
918.606	6319
918.717	6220
918.828	6289
918.939	6319
919.05	6281
919.161	6292
919.272	6095
919.383	6186
919.494	6327
919.604	6486
919.715	6281
919.826	6232
919.936	6308
920.047	6304
920.157	6262
920.267	6479
920.378	6357
920.488	6273
920.598	6456
920.708	6532
920.818	6517
920.928	6532
921.038	6612
921.148	6623
921.258	6376
921.368	6319
921.477	6205
921.587	6232
921.697	6136
921.806	6175
921.916	6133
922.025	5927
922.134	5927
922.244	5863
922.353	5920
922.462	5863
922.571	5802
922.68	5737
922.789	5691
922.898	5684
923.007	5657
923.116	5699
923.224	5699
923.333	5627
923.442	5619
923.55	5535
923.659	5589
923.767	5668
923.876	5497
923.984	5623
924.092	5524
924.201	5562
924.309	5573
924.417	5505
924.525	5463
924.633	5493
924.741	6251
924.849	5395
924.956	5505
925.064	5318
925.172	5258
925.279	5337
925.387	5372
925.494	5326
925.602	5395
925.709	5421
925.816	5265
925.924	5299
926.031	5349
926.138	5322
926.245	5337
926.352	5261
926.459	5372
926.566	5322
926.673	5269
926.779	5132
926.886	5117
926.993	5060
927.099	5003
927.206	4946
927.312	4923
927.419	5067
927.525	4980
927.631	4972
927.737	4919
927.843	4831
927.95	4767
928.056	4850
928.162	4828
928.267	4824
928.373	5322
928.479	4854
928.585	4637
928.69	4805
928.796	4759
928.901	4672
929.007	4630
929.112	4679
929.218	4637
929.323	4596
929.428	4561
929.533	4675
929.638	4512
929.743	4577
929.848	4519
929.953	4478
930.058	4466
930.163	4287
930.267	4394
930.372	4474
930.477	4322
930.581	4447
930.685	4352
930.79	4211
930.894	4234
930.998	4261
931.103	4379
931.207	4150
931.311	4124
931.415	4048
931.519	3922
931.623	3991
