Data from glass_V78500241_1411.txt Node
Date: Wed Sep 01 19:24:16 CST 2021
User: usil
Spectrometer: V785-0024
Trigger mode: 0
Integration Time (sec): 4.000000E-1
Scans to average: 1
Nonlinearity correction enabled: false
Boxcar width: 0
Storing dark spectrum: false
XAxis mode: Wavelengths
Number of Pixels in Spectrum: 1024
>>>>>Begin Spectral Data<<<<<
801.071	3743
801.214	3770
801.356	3701
801.499	3717
801.641	3736
801.783	3759
801.926	3850
802.068	3854
802.211	3842
802.353	3880
802.496	3838
802.638	3865
802.78	3934
802.923	3907
803.065	3880
803.208	3850
803.35	3869
803.492	3892
803.635	3911
803.777	3770
803.919	3873
804.061	4169
804.204	3964
804.346	3949
804.488	3907
804.63	4055
804.773	3994
804.915	4025
805.057	4158
805.199	4006
805.341	4101
805.483	4150
805.626	4169
805.768	4101
805.91	4227
806.052	4227
806.194	4200
806.336	4329
806.478	4227
806.62	4192
806.762	4227
806.904	4287
807.046	4314
807.188	4192
807.33	4200
807.472	4284
807.614	4204
807.756	4265
807.898	4192
808.04	4207
808.182	4280
808.324	4344
808.465	4390
808.607	4466
808.749	4447
808.891	4504
809.033	4512
809.174	4386
809.316	4272
809.458	4265
809.6	4166
809.741	4158
809.883	4128
810.025	4185
810.166	4204
810.308	4215
810.45	4284
810.591	4181
810.733	4299
810.875	4481
811.016	4786
811.158	5147
811.299	5303
811.441	5250
811.582	5052
811.724	4725
811.865	4447
812.007	4428
812.148	4478
812.29	4398
812.431	4413
812.573	4436
812.714	4341
812.855	4413
812.997	4409
813.138	4519
813.279	4367
813.421	4398
813.562	4367
813.703	4363
813.845	4325
813.986	4242
814.127	4219
814.268	4276
814.41	4268
814.551	4310
814.692	4322
814.833	4253
814.974	4318
815.115	4333
815.256	4211
815.397	4223
815.539	4280
815.68	4196
815.821	4215
815.962	4333
816.103	4295
816.244	4234
816.385	4268
816.526	4310
816.666	4249
816.807	4082
816.948	4150
817.089	4223
817.23	4097
817.371	4025
817.512	4055
817.653	4143
817.793	4059
817.934	4040
818.075	4101
818.216	4078
818.356	4090
818.497	3987
818.638	3903
818.778	3915
818.919	3842
819.06	3888
819.2	3956
819.341	3892
819.481	3876
819.622	3926
819.762	4029
819.903	3964
820.043	3846
820.184	3850
820.324	3808
820.465	3842
820.605	3892
820.746	3838
820.886	3778
821.026	3960
821.167	3911
821.307	3956
821.447	3956
821.588	3949
821.728	3922
821.868	3937
822.008	3876
822.149	3911
822.289	3960
822.429	3785
822.569	3804
822.709	3755
822.849	3728
822.99	3743
823.13	3759
823.27	3785
823.41	3720
823.55	3740
823.69	3701
823.83	3766
823.97	3663
824.11	3648
824.25	3622
824.389	3675
824.529	3690
824.669	3622
824.809	3717
824.949	3766
825.089	3713
825.228	3679
825.368	3599
825.508	3538
825.648	3622
825.787	3648
825.927	3629
826.067	3682
826.206	3652
826.346	3789
826.485	3812
826.625	3846
826.765	3941
826.904	3846
827.044	3614
827.183	3538
827.323	3454
827.462	3507
827.601	3405
827.741	3378
827.88	3507
828.02	3389
828.159	3469
828.298	3439
828.437	3538
828.577	3492
828.716	3572
828.855	3477
828.994	3370
829.134	3367
829.273	3363
829.412	3325
829.551	3355
829.69	3374
829.829	3439
829.968	3553
830.107	3458
830.246	3420
830.385	3367
830.524	3355
830.663	3317
830.802	3233
830.941	3207
831.08	3188
831.219	3275
831.357	3291
831.496	3412
831.635	3241
831.774	3184
831.913	3211
832.051	3131
832.19	3173
832.329	3222
832.467	3089
832.606	3081
832.744	3142
832.883	3195
833.022	3211
833.16	3230
833.299	3287
833.437	3317
833.576	3367
833.714	3409
833.852	3454
833.991	3443
834.129	3473
834.267	3401
834.406	3405
834.544	3428
834.682	3454
834.821	3397
834.959	3591
835.097	3435
835.235	3549
835.373	3500
835.511	3492
835.65	3462
835.788	3507
835.926	3397
836.064	3382
836.202	3405
836.34	3530
836.478	3633
836.615	3534
836.753	3606
836.891	3641
837.029	3648
837.167	3584
837.305	3561
837.443	3538
837.58	3488
837.718	3614
837.856	3549
837.993	3519
838.131	3591
838.269	3637
838.406	3595
838.544	3595
838.681	3473
838.819	3443
838.956	3389
839.094	3359
839.231	3462
839.369	3496
839.506	3713
839.643	3606
839.781	3492
839.918	3485
840.055	3553
840.193	3534
840.33	3568
840.467	3549
840.604	3610
840.742	3869
840.879	3557
841.016	3568
841.153	3568
841.29	3766
841.427	3724
841.564	3732
841.701	3762
841.838	3682
841.975	3648
842.112	3736
842.249	3641
842.385	3652
842.522	3835
842.659	3698
842.796	3694
842.933	3709
843.069	3732
843.206	3698
843.343	3778
843.479	3778
843.616	3838
843.752	3644
843.889	3694
844.025	3827
844.162	3732
844.298	3827
844.435	3804
844.571	3861
844.708	3945
844.844	3945
844.98	4055
845.117	3987
845.253	3918
845.389	3911
845.525	3968
845.661	3998
845.798	3926
845.934	4051
846.07	3953
846.206	4032
846.342	4143
846.478	4071
846.614	3979
846.75	3907
846.886	3892
847.022	4059
847.158	3953
847.294	3983
847.429	4051
847.565	3975
847.701	4249
847.837	3892
847.972	3861
848.108	3975
848.244	3972
848.379	3884
848.515	3831
848.65	3857
848.786	3861
848.921	3823
849.057	3880
849.192	3941
849.328	3911
849.463	3907
849.598	3915
849.734	3869
849.869	3846
850.004	3762
850.14	3812
850.275	3778
850.41	3766
850.545	3751
850.68	3770
850.815	3755
850.95	3835
851.085	3945
851.22	3876
851.355	3854
851.49	3789
851.625	3812
851.76	3781
851.895	3751
852.03	3755
852.165	3755
852.299	3835
852.434	3903
852.569	3884
852.703	3926
852.838	3911
852.973	4021
853.107	3964
853.242	3896
853.376	3857
853.511	3827
853.645	3838
853.78	3941
853.914	3896
854.048	3873
854.183	3934
854.317	3922
854.451	4063
854.585	3953
854.72	3968
854.854	4067
854.988	3941
855.122	3987
855.256	3949
855.39	4029
855.524	4097
855.658	4074
855.792	4101
855.926	4131
856.06	4185
856.194	4223
856.327	4158
856.461	4196
856.595	4177
856.729	4177
856.862	4276
856.996	4249
857.13	4272
857.263	4322
857.397	4318
857.53	4284
857.664	4333
857.797	4443
857.931	4398
858.064	4405
858.197	4455
858.331	4417
858.464	4360
858.597	4318
858.731	4428
858.864	4443
858.997	4440
859.13	4550
859.263	4531
859.396	4569
859.529	4481
859.662	4550
859.795	4546
859.928	4630
860.061	4687
860.194	4759
860.327	4611
860.46	4672
860.592	4710
860.725	4809
860.858	4809
860.99	4710
861.123	4683
861.256	4729
861.388	4759
861.521	5341
861.653	4736
861.786	4710
861.918	4767
862.05	4801
862.183	4847
862.315	4877
862.447	4976
862.58	4877
862.712	4778
862.844	4752
862.976	4889
863.108	4854
863.24	5174
863.372	4854
863.504	4881
863.636	4949
863.768	4968
863.9	5003
864.032	4957
864.164	4927
864.296	5098
864.428	5071
864.559	5128
864.691	5102
864.823	5109
864.954	5117
865.086	5204
865.217	5170
865.349	5083
865.48	5147
865.612	5162
865.743	5273
865.875	5170
866.006	5189
866.137	5250
866.269	5174
866.4	5273
866.531	5212
866.662	5273
866.793	5258
866.924	5277
867.055	5368
867.186	5315
867.317	5376
867.448	5284
867.579	5360
867.71	5364
867.841	5398
867.972	5459
868.103	5490
868.233	5512
868.364	5463
868.495	5581
868.625	5646
868.756	5821
868.886	5695
869.017	5718
869.147	5878
869.278	5847
869.408	5828
869.539	5855
869.669	5954
869.799	5920
869.929	5954
870.06	5977
870.19	6228
870.32	6197
870.45	6258
870.58	6311
870.71	6399
870.84	6464
870.97	6445
871.1	6426
871.23	6612
871.36	6707
871.489	6673
871.619	6772
871.749	6779
871.879	6894
872.008	6985
872.138	7008
872.267	7023
872.397	6996
872.526	6977
872.656	7069
872.785	7225
872.915	7426
873.044	7510
873.173	7552
873.303	7658
873.432	7776
873.561	7875
873.69	7898
873.819	8016
873.948	8164
874.077	8301
874.206	8305
874.335	8423
874.464	8670
874.593	8830
874.722	8906
874.851	9085
874.979	9192
875.108	9344
875.237	9466
875.365	9587
875.494	9671
875.623	9800
875.751	9808
875.88	10017
876.008	10135
876.136	10238
876.265	10546
876.393	10675
876.521	10778
876.65	10759
876.778	10771
876.906	10904
877.034	10976
877.162	11075
877.29	11151
877.418	11250
877.546	11326
877.674	11459
877.802	11501
877.93	11467
878.058	11604
878.185	11600
878.313	11657
878.441	11817
878.568	11615
878.696	11756
878.824	11897
878.951	11977
879.079	12053
879.206	11999
879.333	11996
879.461	11958
879.588	12030
879.715	12041
879.842	12186
879.97	12068
880.097	11950
880.224	11840
880.351	11908
880.478	11912
880.605	11863
880.732	11817
880.859	12015
880.986	11813
881.112	11942
881.239	11729
881.366	11577
881.493	11600
881.619	11497
881.746	11505
881.872	11509
881.999	11436
882.125	11368
882.252	11562
882.378	11448
882.505	11512
882.631	11345
882.757	11284
882.883	11284
883.01	11269
883.136	11166
883.262	11162
883.388	11105
883.514	11208
883.64	11239
883.766	11109
883.892	11048
884.018	11010
884.143	11037
884.269	11102
884.395	10892
884.52	10668
884.646	10816
884.772	10725
884.897	10714
885.023	10687
885.148	10706
885.274	10714
885.399	10736
885.524	10592
885.65	10588
885.775	10599
885.9	10573
886.025	10653
886.15	10622
886.275	10405
886.4	10375
886.525	10417
886.65	10409
886.775	10329
886.9	10455
887.025	10538
887.149	10318
887.274	10257
887.399	10147
887.523	10120
887.648	10120
887.773	10116
887.897	10207
888.021	10230
888.146	10105
888.27	10268
888.395	10211
888.519	10188
888.643	10116
888.767	10207
888.891	10147
889.015	10040
889.139	10036
889.263	9892
889.387	10059
889.511	10162
889.635	10120
889.759	10002
889.883	9991
890.006	10040
890.13	10158
890.254	9892
890.377	9922
890.501	9854
890.624	9876
890.748	9918
890.871	9759
890.995	9755
891.118	9774
891.241	9793
891.364	9740
891.488	9873
891.611	9759
891.734	9724
891.857	9743
891.98	9751
892.103	9690
892.226	9682
892.349	9694
892.471	9568
892.594	9625
892.717	9637
892.839	9637
892.962	9561
893.085	9584
893.207	9629
893.33	9553
893.452	9511
893.575	9694
893.697	9511
893.819	9606
893.941	9606
894.064	9534
894.186	9416
894.308	9481
894.43	9545
894.552	9591
894.674	9511
894.796	9336
894.918	9370
895.04	9298
895.161	9355
895.283	9241
895.405	9268
895.526	9291
895.648	9245
895.769	9157
895.891	9226
896.012	9313
896.134	9188
896.255	9226
896.376	9161
896.498	9142
896.619	9123
896.74	9146
896.861	9161
896.982	9222
897.103	9386
897.224	9138
897.345	9119
897.466	9005
897.587	9070
897.708	9081
897.828	9032
897.949	8887
898.07	8849
898.19	8956
898.311	9005
898.431	8956
898.552	8891
898.672	8994
898.792	8986
898.913	8929
899.033	8838
899.153	8739
899.273	8670
899.393	8701
899.513	8769
899.633	8644
899.753	8788
899.873	8655
899.993	8739
900.113	8720
900.232	8743
900.352	8674
900.472	8629
900.591	8621
900.711	8579
900.83	8629
900.95	8640
901.069	8693
901.189	8552
901.308	8419
901.427	8358
901.546	8514
901.665	8507
901.784	8476
901.904	8366
902.023	8370
902.141	8271
902.26	8187
902.379	8286
902.498	8244
902.617	8183
902.735	8320
902.854	8328
902.973	8286
903.091	8138
903.21	8183
903.328	8161
903.446	8103
903.565	8126
903.683	8115
903.801	8027
903.919	8149
904.038	8161
904.156	8031
904.274	8119
904.392	8054
904.51	8050
904.627	7986
904.745	8084
904.863	8073
904.981	7963
905.098	7841
905.216	7871
905.334	7928
905.451	7871
905.569	7830
905.686	7982
905.803	7902
905.921	7807
906.038	7909
906.155	7765
906.272	7727
906.389	7788
906.506	7540
906.623	7670
906.74	7525
906.857	7521
906.974	7510
907.091	7712
907.208	7719
907.324	7662
907.441	7651
907.557	7445
907.674	7438
907.79	7339
907.907	7434
908.023	7472
908.139	7388
908.256	7331
908.372	7373
908.488	7362
908.604	7285
908.72	7198
908.836	7301
908.952	7206
909.068	7244
909.184	7324
909.3	7202
909.415	7305
909.531	7194
909.647	7149
909.762	7126
909.878	7091
909.993	7072
910.108	7099
910.224	7084
910.339	7072
910.454	7091
910.57	6985
910.685	6954
910.8	7152
910.915	7080
911.03	6996
911.145	6852
911.259	6890
911.374	6867
911.489	6833
911.604	6760
911.718	6749
911.833	6768
911.947	6757
912.062	6585
912.176	6741
912.291	6703
912.405	6681
912.519	6821
912.633	6818
912.748	6730
912.862	6684
912.976	6620
913.09	6498
913.204	6574
913.318	6616
913.431	6665
913.545	6654
913.659	6760
913.772	6650
913.886	6551
914	6563
914.113	6631
914.226	6604
914.34	6612
914.453	6521
914.566	6620
914.68	6525
914.793	6498
914.906	6441
915.019	6407
915.132	6361
915.245	6441
915.358	6441
915.47	6441
915.583	6471
915.696	6506
915.809	6498
915.921	6540
916.034	6490
916.146	6338
916.259	6403
916.371	6486
916.483	6418
916.595	6407
916.708	6403
916.82	6429
916.932	6365
917.044	6346
917.156	6369
917.268	6296
917.38	6327
917.491	6311
917.603	6346
917.715	6323
917.826	6410
917.938	6365
918.049	6292
918.161	6376
918.272	6426
918.384	6407
918.495	6315
918.606	6266
918.717	6213
918.828	6273
918.939	6285
919.05	6254
919.161	6232
919.272	6079
919.383	6194
919.494	6277
919.604	6403
919.715	6285
919.826	6213
919.936	6304
920.047	6380
920.157	6220
920.267	6471
920.378	6338
920.488	6319
920.598	6456
920.708	6551
920.818	6437
920.928	6479
921.038	6623
921.148	6540
921.258	6376
921.368	6304
921.477	6254
921.587	6197
921.697	6030
921.806	6201
921.916	6083
922.025	5931
922.134	5935
922.244	5878
922.353	5980
922.462	5844
922.571	5802
922.68	5722
922.789	5733
922.898	5745
923.007	5672
923.116	5684
923.224	5638
923.333	5672
923.442	5581
923.55	5562
923.659	5589
923.767	5649
923.876	5581
923.984	5638
924.092	5493
924.201	5532
924.309	5520
924.417	5581
924.525	5490
924.633	5448
924.741	6232
924.849	5364
924.956	5478
925.064	5372
925.172	5315
925.279	5269
925.387	5395
925.494	5288
925.602	5395
925.709	5353
925.816	5337
925.924	5296
926.031	5417
926.138	5288
926.245	5345
926.352	5242
926.459	5326
926.566	5322
926.673	5185
926.779	5117
926.886	5117
926.993	5056
927.099	4984
927.206	4972
927.312	4980
927.419	5014
927.525	4927
927.631	5006
927.737	4870
927.843	4908
927.95	4793
928.056	4889
928.162	4835
928.267	4828
928.373	5326
928.479	4847
928.585	4691
928.69	4812
928.796	4828
928.901	4675
929.007	4569
929.112	4683
929.218	4660
929.323	4603
929.428	4554
929.533	4679
929.638	4516
929.743	4508
929.848	4542
929.953	4497
930.058	4443
930.163	4318
930.267	4303
930.372	4447
930.477	4306
930.581	4474
930.685	4375
930.79	4272
930.894	4253
930.998	4227
931.103	4379
931.207	4166
931.311	4067
931.415	4029
931.519	3930
931.623	3956
