Data from glass_V78500241_900.txt Node
Date: Wed Sep 01 19:20:44 CST 2021
User: usil
Spectrometer: V785-0024
Trigger mode: 0
Integration Time (sec): 4.000000E-1
Scans to average: 1
Nonlinearity correction enabled: false
Boxcar width: 0
Storing dark spectrum: false
XAxis mode: Wavelengths
Number of Pixels in Spectrum: 1024
>>>>>Begin Spectral Data<<<<<
801.071	3709
801.214	3759
801.356	3732
801.499	3740
801.641	3781
801.783	3785
801.926	3857
802.068	3842
802.211	3880
802.353	3899
802.496	3899
802.638	3892
802.78	3899
802.923	3934
803.065	3945
803.208	3850
803.35	3926
803.492	3915
803.635	3930
803.777	3846
803.919	3941
804.061	4166
804.204	3956
804.346	3960
804.488	3911
804.63	4051
804.773	3991
804.915	4006
805.057	4120
805.199	4032
805.341	4048
805.483	4150
805.626	4139
805.768	4131
805.91	4238
806.052	4242
806.194	4246
806.336	4367
806.478	4242
806.62	4196
806.762	4196
806.904	4249
807.046	4329
807.188	4230
807.33	4177
807.472	4234
807.614	4162
807.756	4265
807.898	4215
808.04	4166
808.182	4291
808.324	4325
808.465	4428
808.607	4497
808.749	4447
808.891	4497
809.033	4531
809.174	4436
809.316	4234
809.458	4257
809.6	4196
809.741	4173
809.883	4185
810.025	4227
810.166	4173
810.308	4207
810.45	4230
810.591	4257
810.733	4276
810.875	4531
811.016	4816
811.158	5132
811.299	5261
811.441	5330
811.582	5056
811.724	4706
811.865	4481
812.007	4470
812.148	4443
812.29	4428
812.431	4409
812.573	4440
812.714	4360
812.855	4409
812.997	4409
813.138	4516
813.279	4409
813.421	4390
813.562	4421
813.703	4352
813.845	4341
813.986	4265
814.127	4257
814.268	4284
814.41	4306
814.551	4322
814.692	4337
814.833	4291
814.974	4287
815.115	4322
815.256	4238
815.397	4249
815.539	4303
815.68	4230
815.821	4219
815.962	4318
816.103	4276
816.244	4238
816.385	4249
816.526	4230
816.666	4219
816.807	4124
816.948	4200
817.089	4162
817.23	4188
817.371	4067
817.512	4112
817.653	4128
817.793	4055
817.934	4074
818.075	4082
818.216	4086
818.356	4097
818.497	4006
818.638	3956
818.778	3945
818.919	3907
819.06	3911
819.2	3949
819.341	3850
819.481	3854
819.622	3956
819.762	4010
819.903	3983
820.043	3876
820.184	3842
820.324	3804
820.465	3918
820.605	3865
820.746	3869
820.886	3770
821.026	3922
821.167	3956
821.307	3972
821.447	4010
821.588	3934
821.728	3964
821.868	3964
822.008	3857
822.149	3972
822.289	3926
822.429	3751
822.569	3755
822.709	3823
822.849	3705
822.99	3743
823.13	3781
823.27	3812
823.41	3720
823.55	3781
823.69	3709
823.83	3747
823.97	3686
824.11	3656
824.25	3614
824.389	3713
824.529	3690
824.669	3671
824.809	3751
824.949	3793
825.089	3713
825.228	3720
825.368	3564
825.508	3557
825.648	3564
825.787	3625
825.927	3641
826.067	3652
826.206	3648
826.346	3747
826.485	3827
826.625	3865
826.765	3960
826.904	3842
827.044	3595
827.183	3542
827.323	3431
827.462	3488
827.601	3428
827.741	3458
827.88	3454
828.02	3389
828.159	3424
828.298	3492
828.437	3553
828.577	3534
828.716	3633
828.855	3488
828.994	3401
829.134	3389
829.273	3401
829.412	3397
829.551	3317
829.69	3401
829.829	3466
829.968	3515
830.107	3454
830.246	3481
830.385	3424
830.524	3359
830.663	3310
830.802	3237
830.941	3214
831.08	3214
831.219	3268
831.357	3256
831.496	3420
831.635	3237
831.774	3226
831.913	3218
832.051	3131
832.19	3150
832.329	3230
832.467	3161
832.606	3100
832.744	3169
832.883	3195
833.022	3241
833.16	3272
833.299	3294
833.437	3336
833.576	3370
833.714	3401
833.852	3492
833.991	3450
834.129	3466
834.267	3431
834.406	3355
834.544	3439
834.682	3435
834.821	3389
834.959	3576
835.097	3416
835.235	3530
835.373	3504
835.511	3538
835.65	3492
835.788	3485
835.926	3348
836.064	3401
836.202	3424
836.34	3553
836.478	3656
836.615	3553
836.753	3629
836.891	3675
837.029	3652
837.167	3561
837.305	3568
837.443	3526
837.58	3523
837.718	3599
837.856	3549
837.993	3542
838.131	3584
838.269	3576
838.406	3595
838.544	3587
838.681	3504
838.819	3492
838.956	3367
839.094	3405
839.231	3458
839.369	3500
839.506	3709
839.643	3614
839.781	3473
839.918	3488
840.055	3545
840.193	3549
840.33	3500
840.467	3572
840.604	3606
840.742	3808
840.879	3538
841.016	3568
841.153	3603
841.29	3800
841.427	3736
841.564	3713
841.701	3785
841.838	3743
841.975	3648
842.112	3743
842.249	3641
842.385	3652
842.522	3903
842.659	3732
842.796	3724
842.933	3724
843.069	3679
843.206	3713
843.343	3838
843.479	3804
843.616	3846
843.752	3713
843.889	3709
844.025	3846
844.162	3736
844.298	3831
844.435	3819
844.571	3785
844.708	3926
844.844	3968
844.98	4010
845.117	4040
845.253	3949
845.389	3880
845.525	3918
845.661	3991
845.798	3937
845.934	4025
846.07	3983
846.206	4055
846.342	4147
846.478	4074
846.614	4017
846.75	4021
846.886	3911
847.022	4074
847.158	3987
847.294	4021
847.429	4082
847.565	3972
847.701	4207
847.837	3842
847.972	3846
848.108	3979
848.244	3983
848.379	3873
848.515	3819
848.65	3838
848.786	3842
848.921	3835
849.057	3964
849.192	3937
849.328	3880
849.463	3949
849.598	3907
849.734	3884
849.869	3857
850.004	3797
850.14	3819
850.275	3823
850.41	3759
850.545	3778
850.68	3759
850.815	3816
850.95	3759
851.085	3953
851.22	3869
851.355	3846
851.49	3789
851.625	3823
851.76	3831
851.895	3747
852.03	3743
852.165	3812
852.299	3827
852.434	3918
852.569	3880
852.703	3861
852.838	3922
852.973	4006
853.107	3998
853.242	3911
853.376	3846
853.511	3789
853.645	3880
853.78	4010
853.914	3953
854.048	3926
854.183	3861
854.317	3956
854.451	4071
854.585	3964
854.72	3991
854.854	4067
854.988	3956
855.122	4017
855.256	3937
855.39	4059
855.524	4128
855.658	4101
855.792	4082
855.926	4177
856.06	4173
856.194	4238
856.327	4181
856.461	4150
856.595	4143
856.729	4143
856.862	4310
856.996	4249
857.13	4322
857.263	4333
857.397	4398
857.53	4314
857.664	4360
857.797	4421
857.931	4405
858.064	4352
858.197	4447
858.331	4413
858.464	4375
858.597	4390
858.731	4428
858.864	4466
858.997	4478
859.13	4538
859.263	4577
859.396	4637
859.529	4531
859.662	4508
859.795	4523
859.928	4573
860.061	4752
860.194	4729
860.327	4622
860.46	4668
860.592	4736
860.725	4774
860.858	4812
860.99	4675
861.123	4714
861.256	4733
861.388	4809
861.521	5509
861.653	4694
861.786	4729
861.918	4733
862.05	4809
862.183	4839
862.315	4930
862.447	4927
862.58	4923
862.712	4812
862.844	4786
862.976	4923
863.108	4900
863.24	5201
863.372	4828
863.504	4968
863.636	4889
863.768	4987
863.9	4961
864.032	4911
864.164	4965
864.296	5033
864.428	5086
864.559	5159
864.691	5086
864.823	5166
864.954	5189
865.086	5143
865.217	5140
865.349	5181
865.48	5124
865.612	5212
865.743	5296
865.875	5197
866.006	5174
866.137	5246
866.269	5204
866.4	5220
866.531	5250
866.662	5208
866.793	5299
866.924	5296
867.055	5372
867.186	5368
867.317	5318
867.448	5322
867.579	5425
867.71	5387
867.841	5395
867.972	5490
868.103	5478
868.233	5467
868.364	5532
868.495	5505
868.625	5657
868.756	5764
868.886	5718
869.017	5714
869.147	5863
869.278	5832
869.408	5824
869.539	5859
869.669	5908
869.799	5889
869.929	6003
870.06	5965
870.19	6175
870.32	6163
870.45	6281
870.58	6357
870.71	6445
870.84	6429
870.97	6407
871.1	6410
871.23	6570
871.36	6662
871.489	6665
871.619	6726
871.749	6772
871.879	6913
872.008	7019
872.138	6981
872.267	6962
872.397	6962
872.526	7015
872.656	7114
872.785	7206
872.915	7346
873.044	7533
873.173	7567
873.303	7662
873.432	7784
873.561	7887
873.69	7936
873.819	8024
873.948	8176
874.077	8237
874.206	8290
874.335	8484
874.464	8659
874.593	8883
874.722	8948
874.851	9161
874.979	9245
875.108	9397
875.237	9450
875.365	9504
875.494	9660
875.623	9831
875.751	9797
875.88	10002
876.008	10150
876.136	10268
876.265	10390
876.393	10767
876.521	10698
876.65	10740
876.778	10881
876.906	10965
877.034	11029
877.162	11140
877.29	11102
877.418	11318
877.546	11315
877.674	11444
877.802	11516
877.93	11558
878.058	11554
878.185	11589
878.313	11684
878.441	11733
878.568	11672
878.696	11843
878.824	11821
878.951	11939
879.079	12049
879.206	12106
879.333	12106
879.461	11939
879.588	12015
879.715	12041
879.842	12216
879.97	12030
880.097	11832
880.224	11904
880.351	11973
880.478	11859
880.605	11813
880.732	11855
880.859	12083
880.986	11859
881.112	11790
881.239	11703
881.366	11695
881.493	11558
881.619	11604
881.746	11646
881.872	11520
881.999	11490
882.125	11497
882.252	11474
882.378	11524
882.505	11592
882.631	11376
882.757	11334
882.883	11345
883.01	11250
883.136	11155
883.262	11155
883.388	11003
883.514	11239
883.64	11117
883.766	11083
883.892	11056
884.018	11006
884.143	11136
884.269	11136
884.395	10847
884.52	10790
884.646	10839
884.772	10717
884.897	10694
885.023	10755
885.148	10687
885.274	10714
885.399	10691
885.524	10603
885.65	10634
885.775	10596
885.9	10527
886.025	10622
886.15	10550
886.275	10523
886.4	10440
886.525	10485
886.65	10443
886.775	10375
886.9	10481
887.025	10478
887.149	10382
887.274	10242
887.399	10230
887.523	10230
887.648	10147
887.773	10109
887.897	10299
888.021	10284
888.146	10166
888.27	10162
888.395	10219
888.519	10162
888.643	10219
888.767	10280
888.891	10112
889.015	9994
889.139	10173
889.263	9922
889.387	10109
889.511	10131
889.635	10090
889.759	10029
889.883	10013
890.006	9915
890.13	10048
890.254	9956
890.377	9937
890.501	9926
890.624	9899
890.748	9831
890.871	9831
890.995	9766
891.118	9667
891.241	9778
891.364	9701
891.488	9819
891.611	9743
891.734	9751
891.857	9732
891.98	9656
892.103	9785
892.226	9724
892.349	9690
892.471	9553
892.594	9622
892.717	9580
892.839	9671
892.962	9557
893.085	9667
893.207	9603
893.33	9504
893.452	9568
893.575	9584
893.697	9568
893.819	9663
893.941	9705
894.064	9549
894.186	9443
894.308	9435
894.43	9568
894.552	9523
894.674	9595
894.796	9408
894.918	9416
895.04	9370
895.161	9321
895.283	9370
895.405	9241
895.526	9214
895.648	9351
895.769	9169
895.891	9264
896.012	9351
896.134	9218
896.255	9188
896.376	9176
896.498	9062
896.619	9218
896.74	9135
896.861	9089
896.982	9287
897.103	9272
897.224	9195
897.345	9127
897.466	9036
897.587	9001
897.708	9089
897.828	9013
897.949	8891
898.07	8929
898.19	8956
898.311	9058
898.431	8876
898.552	8902
898.672	8960
898.792	8948
898.913	8899
899.033	8796
899.153	8727
899.273	8682
899.393	8659
899.513	8670
899.633	8727
899.753	8731
899.873	8701
899.993	8693
900.113	8754
900.232	8686
900.352	8670
900.472	8655
900.591	8590
900.711	8587
900.83	8598
900.95	8621
901.069	8674
901.189	8556
901.308	8454
901.427	8415
901.546	8431
901.665	8450
901.784	8484
901.904	8389
902.023	8347
902.141	8313
902.26	8244
902.379	8267
902.498	8240
902.617	8244
902.735	8282
902.854	8317
902.973	8256
903.091	8084
903.21	8126
903.328	8218
903.446	8046
903.565	8058
903.683	8123
903.801	8065
903.919	8172
904.038	8157
904.156	8031
904.274	8073
904.392	8016
904.51	8054
904.627	8092
904.745	8046
904.863	8123
904.981	7963
905.098	7921
905.216	7792
905.334	7925
905.451	7883
905.569	7890
905.686	7913
905.803	7947
905.921	7814
906.038	7826
906.155	7841
906.272	7750
906.389	7772
906.506	7628
906.623	7582
906.74	7548
906.857	7533
906.974	7571
907.091	7613
907.208	7734
907.324	7594
907.441	7609
907.557	7540
907.674	7430
907.79	7449
907.907	7514
908.023	7457
908.139	7438
908.256	7453
908.372	7358
908.488	7335
908.604	7259
908.72	7240
908.836	7316
908.952	7244
909.068	7278
909.184	7358
909.3	7244
909.415	7301
909.531	7316
909.647	7088
909.762	7099
909.878	7107
909.993	7160
910.108	7110
910.224	7152
910.339	7050
910.454	7141
910.57	7004
910.685	6909
910.8	7133
910.915	7133
911.03	6985
911.145	6935
911.259	6894
911.374	6913
911.489	6859
911.604	6825
911.718	6677
911.833	6776
911.947	6646
912.062	6623
912.176	6707
912.291	6703
912.405	6673
912.519	6764
912.633	6810
912.748	6741
912.862	6673
912.976	6631
913.09	6532
913.204	6623
913.318	6677
913.431	6658
913.545	6684
913.659	6745
913.772	6684
913.886	6635
914	6551
914.113	6612
914.226	6620
914.34	6635
914.453	6471
914.566	6658
914.68	6593
914.793	6513
914.906	6483
915.019	6414
915.132	6395
915.245	6395
915.358	6479
915.47	6414
915.583	6471
915.696	6486
915.809	6460
915.921	6498
916.034	6448
916.146	6395
916.259	6410
916.371	6399
916.483	6494
916.595	6414
916.708	6456
916.82	6418
916.932	6388
917.044	6403
917.156	6388
917.268	6277
917.38	6395
917.491	6331
917.603	6369
917.715	6418
917.826	6426
917.938	6323
918.049	6292
918.161	6350
918.272	6369
918.384	6437
918.495	6399
918.606	6228
918.717	6258
918.828	6319
918.939	6296
919.05	6201
919.161	6266
919.272	6072
919.383	6163
919.494	6319
919.604	6429
919.715	6243
919.826	6232
919.936	6281
920.047	6285
920.157	6266
920.267	6437
920.378	6315
920.488	6323
920.598	6426
920.708	6601
920.818	6456
920.928	6517
921.038	6620
921.148	6479
921.258	6407
921.368	6346
921.477	6239
921.587	6194
921.697	6106
921.806	6235
921.916	6060
922.025	5961
922.134	5927
922.244	5889
922.353	5920
922.462	5817
922.571	5847
922.68	5726
922.789	5684
922.898	5699
923.007	5638
923.116	5767
923.224	5729
923.333	5680
923.442	5623
923.55	5585
923.659	5596
923.767	5623
923.876	5585
923.984	5642
924.092	5528
924.201	5562
924.309	5573
924.417	5566
924.525	5467
924.633	5528
924.741	6072
924.849	5364
924.956	5452
925.064	5383
925.172	5299
925.279	5318
925.387	5410
925.494	5341
925.602	5444
925.709	5497
925.816	5280
925.924	5318
926.031	5368
926.138	5353
926.245	5357
926.352	5223
926.459	5330
926.566	5360
926.673	5220
926.779	5193
926.886	5147
926.993	5056
927.099	4938
927.206	4972
927.312	4942
927.419	5056
927.525	4957
927.631	5010
927.737	4900
927.843	4847
927.95	4782
928.056	4854
928.162	4835
928.267	4889
928.373	5357
928.479	4881
928.585	4687
928.69	4782
928.796	4790
928.901	4736
929.007	4599
929.112	4714
929.218	4656
929.323	4592
929.428	4580
929.533	4714
929.638	4542
929.743	4569
929.848	4573
929.953	4542
930.058	4485
930.163	4402
930.267	4390
930.372	4466
930.477	4303
930.581	4443
930.685	4405
930.79	4249
930.894	4306
930.998	4276
931.103	4432
931.207	4147
931.311	4044
931.415	4063
931.519	3941
931.623	3956
