Data from glass_V78500241_47.txt Node
Date: Wed Sep 01 19:14:49 CST 2021
User: usil
Spectrometer: V785-0024
Trigger mode: 0
Integration Time (sec): 4.000000E-1
Scans to average: 1
Nonlinearity correction enabled: false
Boxcar width: 0
Storing dark spectrum: false
XAxis mode: Wavelengths
Number of Pixels in Spectrum: 1024
>>>>>Begin Spectral Data<<<<<
801.071	3759
801.214	3736
801.356	3781
801.499	3800
801.641	3759
801.783	3797
801.926	3854
802.068	3835
802.211	3857
802.353	3934
802.496	3842
802.638	3892
802.78	3930
802.923	3949
803.065	3941
803.208	3884
803.35	3865
803.492	3911
803.635	3926
803.777	3846
803.919	3899
804.061	4162
804.204	3972
804.346	3926
804.488	3911
804.63	3979
804.773	3975
804.915	4036
805.057	4139
805.199	4071
805.341	4105
805.483	4177
805.626	4177
805.768	4150
805.91	4200
806.052	4207
806.194	4207
806.336	4409
806.478	4223
806.62	4223
806.762	4181
806.904	4253
807.046	4356
807.188	4219
807.33	4238
807.472	4242
807.614	4207
807.756	4299
807.898	4173
808.04	4215
808.182	4310
808.324	4329
808.465	4371
808.607	4504
808.749	4466
808.891	4550
809.033	4508
809.174	4390
809.316	4230
809.458	4238
809.6	4196
809.741	4128
809.883	4188
810.025	4246
810.166	4234
810.308	4257
810.45	4265
810.591	4246
810.733	4306
810.875	4531
811.016	4824
811.158	5136
811.299	5269
811.441	5269
811.582	5060
811.724	4687
811.865	4451
812.007	4516
812.148	4394
812.29	4413
812.431	4421
812.573	4432
812.714	4386
812.855	4451
812.997	4424
813.138	4462
813.279	4451
813.421	4421
813.562	4424
813.703	4303
813.845	4394
813.986	4276
814.127	4265
814.268	4276
814.41	4318
814.551	4295
814.692	4352
814.833	4280
814.974	4329
815.115	4363
815.256	4268
815.397	4227
815.539	4276
815.68	4223
815.821	4246
815.962	4318
816.103	4276
816.244	4249
816.385	4249
816.526	4230
816.666	4200
816.807	4131
816.948	4185
817.089	4265
817.23	4139
817.371	4059
817.512	4051
817.653	4090
817.793	4082
817.934	4032
818.075	4147
818.216	4093
818.356	4101
818.497	4002
818.638	3953
818.778	3884
818.919	3896
819.06	3892
819.2	3945
819.341	3876
819.481	3838
819.622	3960
819.762	4032
819.903	3941
820.043	3896
820.184	3865
820.324	3827
820.465	3888
820.605	3899
820.746	3869
820.886	3854
821.026	3953
821.167	3896
821.307	4002
821.447	3987
821.588	3994
821.728	3968
821.868	3972
822.008	3899
822.149	3945
822.289	3930
822.429	3797
822.569	3781
822.709	3812
822.849	3713
822.99	3743
823.13	3785
823.27	3865
823.41	3732
823.55	3747
823.69	3774
823.83	3785
823.97	3686
824.11	3652
824.25	3656
824.389	3686
824.529	3698
824.669	3698
824.809	3759
824.949	3785
825.089	3762
825.228	3717
825.368	3633
825.508	3534
825.648	3580
825.787	3663
825.927	3682
826.067	3652
826.206	3705
826.346	3819
826.485	3812
826.625	3876
826.765	3968
826.904	3873
827.044	3591
827.183	3504
827.323	3466
827.462	3488
827.601	3454
827.741	3462
827.88	3450
828.02	3416
828.159	3454
828.298	3466
828.437	3576
828.577	3492
828.716	3603
828.855	3473
828.994	3420
829.134	3374
829.273	3405
829.412	3363
829.551	3348
829.69	3374
829.829	3428
829.968	3523
830.107	3416
830.246	3435
830.385	3416
830.524	3359
830.663	3291
830.802	3283
830.941	3218
831.08	3207
831.219	3294
831.357	3310
831.496	3428
831.635	3264
831.774	3249
831.913	3230
832.051	3154
832.19	3157
832.329	3218
832.467	3146
832.606	3116
832.744	3195
832.883	3233
833.022	3214
833.16	3294
833.299	3325
833.437	3374
833.576	3367
833.714	3397
833.852	3439
833.991	3431
834.129	3530
834.267	3435
834.406	3409
834.544	3466
834.682	3428
834.821	3458
834.959	3629
835.097	3439
835.235	3584
835.373	3523
835.511	3523
835.65	3462
835.788	3500
835.926	3382
836.064	3370
836.202	3409
836.34	3561
836.478	3644
836.615	3557
836.753	3606
836.891	3656
837.029	3587
837.167	3606
837.305	3599
837.443	3599
837.58	3595
837.718	3603
837.856	3591
837.993	3530
838.131	3606
838.269	3557
838.406	3603
838.544	3542
838.681	3485
838.819	3450
838.956	3397
839.094	3428
839.231	3447
839.369	3561
839.506	3770
839.643	3667
839.781	3530
839.918	3473
840.055	3507
840.193	3534
840.33	3542
840.467	3564
840.604	3629
840.742	3831
840.879	3580
841.016	3553
841.153	3610
841.29	3762
841.427	3751
841.564	3740
841.701	3766
841.838	3648
841.975	3679
842.112	3755
842.249	3671
842.385	3633
842.522	3846
842.659	3690
842.796	3724
842.933	3724
843.069	3740
843.206	3690
843.343	3850
843.479	3778
843.616	3823
843.752	3679
843.889	3690
844.025	3888
844.162	3751
844.298	3869
844.435	3827
844.571	3835
844.708	3869
844.844	4017
844.98	4017
845.117	4006
845.253	3945
845.389	3945
845.525	3945
845.661	3975
845.798	3941
845.934	4002
846.07	3975
846.206	4032
846.342	4147
846.478	4128
846.614	3998
846.75	3956
846.886	3956
847.022	4101
847.158	3991
847.294	4006
847.429	4006
847.565	3975
847.701	4223
847.837	3903
847.972	3892
848.108	3972
848.244	3975
848.379	3869
848.515	3876
848.65	3857
848.786	3865
848.921	3903
849.057	3918
849.192	3956
849.328	3934
849.463	3930
849.598	3892
849.734	3880
849.869	3819
850.004	3808
850.14	3827
850.275	3816
850.41	3698
850.545	3759
850.68	3778
850.815	3778
850.95	3831
851.085	3945
851.22	3896
851.355	3835
851.49	3861
851.625	3835
851.76	3838
851.895	3766
852.03	3755
852.165	3819
852.299	3873
852.434	3968
852.569	3911
852.703	3876
852.838	3983
852.973	4021
853.107	4051
853.242	3892
853.376	3869
853.511	3755
853.645	3850
853.78	3968
853.914	3899
854.048	3934
854.183	3960
854.317	3972
854.451	4071
854.585	3987
854.72	3945
854.854	4067
854.988	3918
855.122	3972
855.256	3930
855.39	4013
855.524	4101
855.658	4124
855.792	4101
855.926	4128
856.06	4143
856.194	4242
856.327	4158
856.461	4105
856.595	4173
856.729	4185
856.862	4280
856.996	4280
857.13	4280
857.263	4337
857.397	4417
857.53	4295
857.664	4352
857.797	4409
857.931	4424
858.064	4379
858.197	4478
858.331	4421
858.464	4402
858.597	4394
858.731	4409
858.864	4459
858.997	4440
859.13	4569
859.263	4538
859.396	4626
859.529	4565
859.662	4519
859.795	4535
859.928	4618
860.061	4660
860.194	4729
860.327	4679
860.46	4615
860.592	4755
860.725	4793
860.858	4740
860.99	4755
861.123	4710
861.256	4752
861.388	4767
861.521	5406
861.653	4736
861.786	4729
861.918	4820
862.05	4809
862.183	4877
862.315	4915
862.447	4919
862.58	4904
862.712	4812
862.844	4824
862.976	4965
863.108	4850
863.24	5242
863.372	4885
863.504	4892
863.636	4896
863.768	4995
863.9	5006
864.032	4934
864.164	4968
864.296	5033
864.428	5075
864.559	5056
864.691	5140
864.823	5086
864.954	5208
865.086	5155
865.217	5121
865.349	5143
865.48	5151
865.612	5216
865.743	5250
865.875	5201
866.006	5193
866.137	5239
866.269	5181
866.4	5235
866.531	5273
866.662	5235
866.793	5284
866.924	5261
867.055	5376
867.186	5398
867.317	5326
867.448	5345
867.579	5383
867.71	5330
867.841	5383
867.972	5471
868.103	5516
868.233	5459
868.364	5490
868.495	5558
868.625	5619
868.756	5775
868.886	5657
869.017	5752
869.147	5836
869.278	5870
869.408	5828
869.539	5798
869.669	5961
869.799	5946
869.929	5977
870.06	6038
870.19	6186
870.32	6186
870.45	6292
870.58	6361
870.71	6452
870.84	6551
870.97	6437
871.1	6460
871.23	6616
871.36	6715
871.489	6696
871.619	6738
871.749	6844
871.879	6909
872.008	6962
872.138	7008
872.267	7042
872.397	7015
872.526	7076
872.656	7069
872.785	7221
872.915	7430
873.044	7529
873.173	7556
873.303	7655
873.432	7719
873.561	7875
873.69	7951
873.819	8024
873.948	8130
874.077	8195
874.206	8309
874.335	8389
874.464	8689
874.593	8914
874.722	8929
874.851	9165
874.979	9260
875.108	9363
875.237	9450
875.365	9488
875.494	9644
875.623	9816
875.751	9850
875.88	9915
876.008	10200
876.136	10333
876.265	10569
876.393	10729
876.521	10748
876.65	10908
876.778	10915
876.906	10866
877.034	11006
877.162	11117
877.29	11159
877.418	11311
877.546	11391
877.674	11459
877.802	11566
877.93	11551
878.058	11547
878.185	11539
878.313	11661
878.441	11775
878.568	11688
878.696	11828
878.824	11764
878.951	11969
879.079	11958
879.206	12152
879.333	12038
879.461	12034
879.588	12091
879.715	12076
879.842	12171
879.97	12083
880.097	11832
880.224	11863
880.351	11840
880.478	11889
880.605	11863
880.732	11828
880.859	12076
880.986	11843
881.112	11828
881.239	11760
881.366	11657
881.493	11691
881.619	11551
881.746	11573
881.872	11516
881.999	11467
882.125	11459
882.252	11589
882.378	11516
882.505	11547
882.631	11379
882.757	11277
882.883	11330
883.01	11258
883.136	11147
883.262	11147
883.388	11121
883.514	11258
883.64	11242
883.766	11140
883.892	11014
884.018	10938
884.143	11052
884.269	11170
884.395	10843
884.52	10774
884.646	10763
884.772	10702
884.897	10649
885.023	10714
885.148	10679
885.274	10740
885.399	10698
885.524	10649
885.65	10607
885.775	10675
885.9	10538
886.025	10584
886.15	10542
886.275	10462
886.4	10421
886.525	10443
886.65	10382
886.775	10344
886.9	10493
887.025	10622
887.149	10386
887.274	10348
887.399	10177
887.523	10078
887.648	10200
887.773	10204
887.897	10192
888.021	10276
888.146	10154
888.27	10276
888.395	10249
888.519	10124
888.643	10219
888.767	10211
888.891	10169
889.015	10036
889.139	10029
889.263	9956
889.387	10090
889.511	10071
889.635	10067
889.759	9972
889.883	10040
890.006	10025
890.13	10109
890.254	9941
890.377	9956
890.501	9819
890.624	9854
890.748	9903
890.871	9823
890.995	9724
891.118	9682
891.241	9743
891.364	9789
891.488	9846
891.611	9751
891.734	9778
891.857	9793
891.98	9740
892.103	9816
892.226	9804
892.349	9701
892.471	9595
892.594	9572
892.717	9622
892.839	9629
892.962	9580
893.085	9675
893.207	9557
893.33	9481
893.452	9622
893.575	9625
893.697	9561
893.819	9690
893.941	9625
894.064	9557
894.186	9431
894.308	9416
894.43	9553
894.552	9625
894.674	9500
894.796	9344
894.918	9397
895.04	9313
895.161	9488
895.283	9317
895.405	9321
895.526	9351
895.648	9233
895.769	9249
895.891	9272
896.012	9336
896.134	9268
896.255	9241
896.376	9138
896.498	9192
896.619	9081
896.74	9070
896.861	9085
896.982	9199
897.103	9272
897.224	9195
897.345	9047
897.466	9020
897.587	9039
897.708	9146
897.828	9119
897.949	8975
898.07	8895
898.19	8944
898.311	8975
898.431	8979
898.552	8910
898.672	8979
898.792	8998
898.913	8883
899.033	8773
899.153	8777
899.273	8693
899.393	8773
899.513	8804
899.633	8716
899.753	8762
899.873	8716
899.993	8762
900.113	8716
900.232	8785
900.352	8705
900.472	8613
900.591	8640
900.711	8533
900.83	8560
900.95	8659
901.069	8731
901.189	8560
901.308	8332
901.427	8324
901.546	8469
901.665	8488
901.784	8511
901.904	8450
902.023	8320
902.141	8279
902.26	8279
902.379	8301
902.498	8271
902.617	8225
902.735	8282
902.854	8313
902.973	8202
903.091	8130
903.21	8115
903.328	8172
903.446	8142
903.565	8058
903.683	8115
903.801	8119
903.919	8046
904.038	8202
904.156	8043
904.274	8111
904.392	7974
904.51	8077
904.627	8054
904.745	8062
904.863	8123
904.981	7986
905.098	7936
905.216	7856
905.334	7879
905.451	7928
905.569	7921
905.686	7932
905.803	7982
905.921	7792
906.038	7909
906.155	7841
906.272	7742
906.389	7765
906.506	7712
906.623	7647
906.74	7712
906.857	7537
906.974	7597
907.091	7674
907.208	7826
907.324	7681
907.441	7624
907.557	7445
907.674	7422
907.79	7415
907.907	7422
908.023	7510
908.139	7430
908.256	7362
908.372	7407
908.488	7365
908.604	7308
908.72	7266
908.836	7263
908.952	7255
909.068	7244
909.184	7324
909.3	7312
909.415	7358
909.531	7350
909.647	7149
909.762	7171
909.878	7080
909.993	7118
910.108	7107
910.224	7053
910.339	7076
910.454	7015
910.57	7015
910.685	6951
910.8	7209
910.915	7156
911.03	7038
911.145	6970
911.259	6871
911.374	6909
911.489	6856
911.604	6821
911.718	6673
911.833	6760
911.947	6658
912.062	6623
912.176	6692
912.291	6738
912.405	6669
912.519	6829
912.633	6791
912.748	6711
912.862	6768
912.976	6646
913.09	6521
913.204	6650
913.318	6639
913.431	6703
913.545	6696
913.659	6741
913.772	6662
913.886	6540
914	6547
914.113	6646
914.226	6646
914.34	6631
914.453	6486
914.566	6589
914.68	6536
914.793	6547
914.906	6460
915.019	6395
915.132	6372
915.245	6418
915.358	6441
915.47	6456
915.583	6452
915.696	6452
915.809	6559
915.921	6563
916.034	6441
916.146	6410
916.259	6372
916.371	6448
916.483	6445
916.595	6399
916.708	6429
916.82	6414
916.932	6365
917.044	6441
917.156	6422
917.268	6311
917.38	6323
917.491	6266
917.603	6498
917.715	6467
917.826	6357
917.938	6350
918.049	6308
918.161	6327
918.272	6494
918.384	6532
918.495	6365
918.606	6273
918.717	6224
918.828	6281
918.939	6292
919.05	6201
919.161	6270
919.272	6140
919.383	6167
919.494	6308
919.604	6426
919.715	6266
919.826	6224
919.936	6213
920.047	6331
920.157	6353
920.267	6486
920.378	6350
920.488	6338
920.598	6460
920.708	6574
920.818	6490
920.928	6502
921.038	6555
921.148	6570
921.258	6388
921.368	6323
921.477	6254
921.587	6201
921.697	6079
921.806	6224
921.916	6129
922.025	5996
922.134	5916
922.244	5889
922.353	5996
922.462	5840
922.571	5840
922.68	5668
922.789	5710
922.898	5707
923.007	5566
923.116	5699
923.224	5691
923.333	5729
923.442	5619
923.55	5619
923.659	5615
923.767	5657
923.876	5566
923.984	5676
924.092	5547
924.201	5562
924.309	5543
924.417	5589
924.525	5570
924.633	5524
924.741	6281
924.849	5421
924.956	5501
925.064	5402
925.172	5326
925.279	5315
925.387	5353
925.494	5364
925.602	5436
925.709	5337
925.816	5292
925.924	5322
926.031	5383
926.138	5345
926.245	5303
926.352	5239
926.459	5280
926.566	5353
926.673	5246
926.779	5174
926.886	5151
926.993	5052
927.099	5003
927.206	4987
927.312	4949
927.419	4984
927.525	4968
927.631	5037
927.737	4870
927.843	4915
927.95	4820
928.056	4786
928.162	4873
928.267	4854
928.373	5376
928.479	4866
928.585	4706
928.69	4778
928.796	4809
928.901	4660
929.007	4596
929.112	4702
929.218	4675
929.323	4656
929.428	4622
929.533	4672
929.638	4554
929.743	4527
929.848	4535
929.953	4504
930.058	4462
930.163	4318
930.267	4314
930.372	4443
930.477	4310
930.581	4481
930.685	4398
930.79	4284
930.894	4265
930.998	4268
931.103	4413
931.207	4169
931.311	4109
931.415	4048
931.519	3960
931.623	3926
