Data from glass_V78500241_2840.txt Node
Date: Wed Sep 01 19:34:11 CST 2021
User: usil
Spectrometer: V785-0024
Trigger mode: 0
Integration Time (sec): 4.000000E-1
Scans to average: 1
Nonlinearity correction enabled: false
Boxcar width: 0
Storing dark spectrum: false
XAxis mode: Wavelengths
Number of Pixels in Spectrum: 1024
>>>>>Begin Spectral Data<<<<<
801.071	3705
801.214	3720
801.356	3732
801.499	3743
801.641	3641
801.783	3778
801.926	3857
802.068	3838
802.211	3827
802.353	3876
802.496	3797
802.638	3850
802.78	3854
802.923	3918
803.065	3880
803.208	3793
803.35	3842
803.492	3899
803.635	3869
803.777	3785
803.919	3854
804.061	4158
804.204	3949
804.346	3922
804.488	3903
804.63	4002
804.773	3934
804.915	3975
805.057	4086
805.199	4036
805.341	4067
805.483	4120
805.626	4120
805.768	4124
805.91	4147
806.052	4200
806.194	4158
806.336	4344
806.478	4166
806.62	4150
806.762	4173
806.904	4181
807.046	4284
807.188	4207
807.33	4173
807.472	4204
807.614	4162
807.756	4234
807.898	4177
808.04	4223
808.182	4215
808.324	4287
808.465	4352
808.607	4421
808.749	4474
808.891	4500
809.033	4451
809.174	4383
809.316	4265
809.458	4242
809.6	4120
809.741	4093
809.883	4131
810.025	4211
810.166	4200
810.308	4181
810.45	4227
810.591	4192
810.733	4272
810.875	4455
811.016	4812
811.158	5136
811.299	5239
811.441	5261
811.582	5094
811.724	4691
811.865	4451
812.007	4459
812.148	4390
812.29	4424
812.431	4356
812.573	4379
812.714	4363
812.855	4379
812.997	4333
813.138	4474
813.279	4436
813.421	4322
813.562	4383
813.703	4306
813.845	4325
813.986	4181
814.127	4253
814.268	4196
814.41	4261
814.551	4268
814.692	4318
814.833	4227
814.974	4242
815.115	4306
815.256	4188
815.397	4246
815.539	4234
815.68	4188
815.821	4177
815.962	4257
816.103	4265
816.244	4223
816.385	4173
816.526	4207
816.666	4223
816.807	4124
816.948	4150
817.089	4188
817.23	4116
817.371	4013
817.512	4059
817.653	4048
817.793	4040
817.934	4021
818.075	4055
818.216	4059
818.356	4055
818.497	3941
818.638	3873
818.778	3934
818.919	3861
819.06	3873
819.2	3892
819.341	3816
819.481	3835
819.622	3888
819.762	3975
819.903	3956
820.043	3823
820.184	3759
820.324	3842
820.465	3850
820.605	3854
820.746	3884
820.886	3755
821.026	3918
821.167	3861
821.307	3964
821.447	3972
821.588	3926
821.728	3937
821.868	3922
822.008	3831
822.149	3876
822.289	3869
822.429	3747
822.569	3755
822.709	3781
822.849	3675
822.99	3713
823.13	3728
823.27	3766
823.41	3717
823.55	3724
823.69	3690
823.83	3720
823.97	3667
824.11	3557
824.25	3564
824.389	3629
824.529	3667
824.669	3599
824.809	3675
824.949	3759
825.089	3698
825.228	3694
825.368	3526
825.508	3519
825.648	3500
825.787	3538
825.927	3599
826.067	3652
826.206	3641
826.346	3793
826.485	3819
826.625	3835
826.765	3884
826.904	3804
827.044	3587
827.183	3515
827.323	3424
827.462	3443
827.601	3466
827.741	3401
827.88	3443
828.02	3344
828.159	3416
828.298	3473
828.437	3477
828.577	3420
828.716	3568
828.855	3488
828.994	3370
829.134	3329
829.273	3367
829.412	3317
829.551	3279
829.69	3336
829.829	3420
829.968	3557
830.107	3393
830.246	3416
830.385	3332
830.524	3344
830.663	3298
830.802	3222
830.941	3150
831.08	3161
831.219	3283
831.357	3233
831.496	3435
831.635	3226
831.774	3157
831.913	3165
832.051	3097
832.19	3116
832.329	3169
832.467	3112
832.606	3081
832.744	3138
832.883	3199
833.022	3173
833.16	3272
833.299	3291
833.437	3321
833.576	3363
833.714	3401
833.852	3420
833.991	3435
834.129	3447
834.267	3420
834.406	3359
834.544	3443
834.682	3412
834.821	3359
834.959	3538
835.097	3389
835.235	3511
835.373	3454
835.511	3458
835.65	3435
835.788	3469
835.926	3367
836.064	3386
836.202	3359
836.34	3580
836.478	3610
836.615	3534
836.753	3576
836.891	3629
837.029	3603
837.167	3519
837.305	3530
837.443	3534
837.58	3447
837.718	3564
837.856	3530
837.993	3523
838.131	3572
838.269	3580
838.406	3572
838.544	3542
838.681	3428
838.819	3401
838.956	3294
839.094	3348
839.231	3428
839.369	3473
839.506	3717
839.643	3629
839.781	3477
839.918	3477
840.055	3534
840.193	3530
840.33	3496
840.467	3523
840.604	3576
840.742	3736
840.879	3523
841.016	3542
841.153	3557
841.29	3743
841.427	3717
841.564	3671
841.701	3732
841.838	3633
841.975	3660
842.112	3705
842.249	3652
842.385	3603
842.522	3816
842.659	3656
842.796	3671
842.933	3637
843.069	3663
843.206	3682
843.343	3797
843.479	3743
843.616	3781
843.752	3625
843.889	3625
844.025	3842
844.162	3701
844.298	3827
844.435	3774
844.571	3778
844.708	3892
844.844	3994
844.98	3979
845.117	4044
845.253	3922
845.389	3831
845.525	3930
845.661	3945
845.798	3930
845.934	3972
846.07	3915
846.206	4032
846.342	4112
846.478	4044
846.614	3911
846.75	3960
846.886	3892
847.022	4036
847.158	3968
847.294	4010
847.429	3953
847.565	3968
847.701	4204
847.837	3896
847.972	3854
848.108	3953
848.244	3953
848.379	3823
848.515	3755
848.65	3804
848.786	3812
848.921	3812
849.057	3903
849.192	3987
849.328	3819
849.463	3892
849.598	3850
849.734	3876
849.869	3812
850.004	3770
850.14	3808
850.275	3793
850.41	3694
850.545	3755
850.68	3770
850.815	3812
850.95	3816
851.085	3949
851.22	3857
851.355	3762
851.49	3778
851.625	3778
851.76	3774
851.895	3720
852.03	3709
852.165	3793
852.299	3846
852.434	3945
852.569	3800
852.703	3873
852.838	3888
852.973	3972
853.107	3964
853.242	3850
853.376	3869
853.511	3759
853.645	3804
853.78	3960
853.914	3861
854.048	3880
854.183	3873
854.317	3953
854.451	4032
854.585	3915
854.72	3907
854.854	4010
854.988	3915
855.122	3930
855.256	3907
855.39	4036
855.524	4055
855.658	4078
855.792	4086
855.926	4059
856.06	4101
856.194	4154
856.327	4120
856.461	4090
856.595	4162
856.729	4128
856.862	4276
856.996	4204
857.13	4223
857.263	4329
857.397	4325
857.53	4242
857.664	4310
857.797	4352
857.931	4459
858.064	4341
858.197	4409
858.331	4360
858.464	4318
858.597	4299
858.731	4409
858.864	4459
858.997	4443
859.13	4489
859.263	4561
859.396	4573
859.529	4508
859.662	4489
859.795	4512
859.928	4573
860.061	4687
860.194	4717
860.327	4653
860.46	4698
860.592	4763
860.725	4801
860.858	4748
860.99	4679
861.123	4660
861.256	4618
861.388	4714
861.521	5273
861.653	4687
861.786	4702
861.918	4752
862.05	4767
862.183	4790
862.315	4908
862.447	4923
862.58	4873
862.712	4812
862.844	4714
862.976	4835
863.108	4828
863.24	5193
863.372	4854
863.504	4866
863.636	4881
863.768	4968
863.9	4934
864.032	4870
864.164	4911
864.296	4984
864.428	5052
864.559	5083
864.691	5083
864.823	5132
864.954	5094
865.086	5098
865.217	5174
865.349	5060
865.48	5162
865.612	5181
865.743	5292
865.875	5212
866.006	5178
866.137	5231
866.269	5208
866.4	5204
866.531	5185
866.662	5216
866.793	5307
866.924	5239
867.055	5322
867.186	5303
867.317	5330
867.448	5288
867.579	5398
867.71	5360
867.841	5341
867.972	5417
868.103	5425
868.233	5436
868.364	5482
868.495	5532
868.625	5611
868.756	5786
868.886	5642
869.017	5737
869.147	5828
869.278	5847
869.408	5775
869.539	5851
869.669	5844
869.799	5870
869.929	5954
870.06	5980
870.19	6152
870.32	6144
870.45	6258
870.58	6357
870.71	6410
870.84	6464
870.97	6429
871.1	6445
871.23	6578
871.36	6601
871.489	6635
871.619	6787
871.749	6791
871.879	6886
872.008	6973
872.138	6905
872.267	7027
872.397	7023
872.526	6973
872.656	7061
872.785	7145
872.915	7388
873.044	7476
873.173	7533
873.303	7594
873.432	7651
873.561	7799
873.69	7883
873.819	8016
873.948	8157
874.077	8202
874.206	8324
874.335	8385
874.464	8659
874.593	8853
874.722	8807
874.851	9161
874.979	9131
875.108	9378
875.237	9370
875.365	9473
875.494	9660
875.623	9854
875.751	9873
875.88	9998
876.008	10063
876.136	10280
876.265	10535
876.393	10649
876.521	10675
876.65	10809
876.778	10839
876.906	10881
877.034	10946
877.162	11033
877.29	11052
877.418	11242
877.546	11292
877.674	11364
877.802	11459
877.93	11497
878.058	11528
878.185	11543
878.313	11691
878.441	11737
878.568	11714
878.696	11809
878.824	11802
878.951	11840
879.079	11973
879.206	12144
879.333	12015
879.461	12003
879.588	12034
879.715	12095
879.842	12190
879.97	12083
880.097	11817
880.224	11882
880.351	11828
880.478	11904
880.605	11840
880.732	11828
880.859	11977
880.986	11813
881.112	11802
881.239	11668
881.366	11729
881.493	11490
881.619	11520
881.746	11592
881.872	11505
881.999	11433
882.125	11505
882.252	11474
882.378	11478
882.505	11615
882.631	11330
882.757	11379
882.883	11353
883.01	11250
883.136	11094
883.262	11109
883.388	11083
883.514	11212
883.64	11109
883.766	11143
883.892	10987
884.018	11071
884.143	10900
884.269	11006
884.395	10820
884.52	10759
884.646	10786
884.772	10637
884.897	10717
885.023	10634
885.148	10664
885.274	10679
885.399	10683
885.524	10603
885.65	10550
885.775	10611
885.9	10542
886.025	10622
886.15	10497
886.275	10398
886.4	10268
886.525	10352
886.65	10325
886.775	10356
886.9	10497
887.025	10580
887.149	10344
887.274	10265
887.399	10249
887.523	10162
887.648	10128
887.773	10025
887.897	10207
888.021	10154
888.146	10135
888.27	10207
888.395	10181
888.519	10181
888.643	10154
888.767	10200
888.891	10036
889.015	10036
889.139	10051
889.263	9949
889.387	10097
889.511	10124
889.635	10109
889.759	9880
889.883	9907
890.006	10006
890.13	9994
890.254	9857
890.377	9926
890.501	9812
890.624	9876
890.748	9865
890.871	9812
890.995	9785
891.118	9785
891.241	9755
891.364	9732
891.488	9770
891.611	9682
891.734	9675
891.857	9762
891.98	9690
892.103	9732
892.226	9705
892.349	9633
892.471	9500
892.594	9549
892.717	9603
892.839	9644
892.962	9694
893.085	9633
893.207	9587
893.33	9469
893.452	9507
893.575	9564
893.697	9496
893.819	9625
893.941	9603
894.064	9595
894.186	9515
894.308	9389
894.43	9504
894.552	9526
894.674	9477
894.796	9378
894.918	9370
895.04	9359
895.161	9287
895.283	9287
895.405	9176
895.526	9283
895.648	9245
895.769	9222
895.891	9249
896.012	9287
896.134	9199
896.255	9131
896.376	9104
896.498	9150
896.619	9055
896.74	9070
896.861	9013
896.982	9272
897.103	9230
897.224	9108
897.345	9085
897.466	9009
897.587	8990
897.708	9119
897.828	8963
897.949	8982
898.07	8845
898.19	8952
898.311	8986
898.431	8967
898.552	8937
898.672	8921
898.792	8902
898.913	8895
899.033	8804
899.153	8701
899.273	8568
899.393	8701
899.513	8754
899.633	8689
899.753	8762
899.873	8735
899.993	8708
900.113	8663
900.232	8746
900.352	8594
900.472	8575
900.591	8545
900.711	8530
900.83	8495
900.95	8632
901.069	8686
901.189	8594
901.308	8412
901.427	8313
901.546	8427
901.665	8442
901.784	8484
901.904	8454
902.023	8286
902.141	8233
902.26	8138
902.379	8191
902.498	8149
902.617	8229
902.735	8271
902.854	8355
902.973	8240
903.091	8115
903.21	8100
903.328	8176
903.446	8077
903.565	7982
903.683	8012
903.801	8046
903.919	8084
904.038	8081
904.156	8001
904.274	8046
904.392	8024
904.51	8020
904.627	8001
904.745	8035
904.863	8069
904.981	7875
905.098	7913
905.216	7833
905.334	7852
905.451	7818
905.569	7792
905.686	7883
905.803	7837
905.921	7750
906.038	7841
906.155	7738
906.272	7731
906.389	7704
906.506	7582
906.623	7575
906.74	7567
906.857	7575
906.974	7586
907.091	7616
907.208	7696
907.324	7597
907.441	7491
907.557	7419
907.674	7438
907.79	7422
907.907	7354
908.023	7403
908.139	7369
908.256	7358
908.372	7293
908.488	7346
908.604	7282
908.72	7190
908.836	7255
908.952	7274
909.068	7289
909.184	7278
909.3	7225
909.415	7282
909.531	7316
909.647	7080
909.762	7149
909.878	7072
909.993	7095
910.108	7084
910.224	7046
910.339	7126
910.454	7046
910.57	6989
910.685	6947
910.8	7160
910.915	7027
911.03	6985
911.145	6909
911.259	6856
911.374	6844
911.489	6871
911.604	6745
911.718	6696
911.833	6722
911.947	6616
912.062	6555
912.176	6650
912.291	6703
912.405	6738
912.519	6798
912.633	6818
912.748	6707
912.862	6677
912.976	6574
913.09	6521
913.204	6547
913.318	6608
913.431	6631
913.545	6692
913.659	6631
913.772	6635
913.886	6582
914	6525
914.113	6654
914.226	6642
914.34	6506
914.453	6452
914.566	6494
914.68	6486
914.793	6494
914.906	6441
915.019	6429
915.132	6331
915.245	6338
915.358	6357
915.47	6433
915.583	6475
915.696	6464
915.809	6525
915.921	6532
916.034	6399
916.146	6391
916.259	6380
916.371	6418
916.483	6399
916.595	6391
916.708	6372
916.82	6365
916.932	6372
917.044	6323
917.156	6357
917.268	6365
917.38	6365
917.491	6334
917.603	6308
917.715	6281
917.826	6418
917.938	6296
918.049	6235
918.161	6323
918.272	6342
918.384	6361
918.495	6315
918.606	6239
918.717	6201
918.828	6251
918.939	6262
919.05	6201
919.161	6247
919.272	6121
919.383	6098
919.494	6273
919.604	6418
919.715	6262
919.826	6167
919.936	6239
920.047	6319
920.157	6258
920.267	6437
920.378	6254
920.488	6232
920.598	6391
920.708	6506
920.818	6399
920.928	6448
921.038	6601
921.148	6540
921.258	6319
921.368	6266
921.477	6140
921.587	6178
921.697	6087
921.806	6194
921.916	6034
922.025	5904
922.134	5927
922.244	5878
922.353	5912
922.462	5817
922.571	5786
922.68	5691
922.789	5661
922.898	5684
923.007	5623
923.116	5653
923.224	5680
923.333	5642
923.442	5570
923.55	5566
923.659	5539
923.767	5570
923.876	5543
923.984	5623
924.092	5463
924.201	5551
924.309	5493
924.417	5528
924.525	5535
924.633	5490
924.741	6106
924.849	5398
924.956	5497
925.064	5337
925.172	5231
925.279	5269
925.387	5341
925.494	5334
925.602	5391
925.709	5372
925.816	5280
925.924	5288
926.031	5334
926.138	5265
926.245	5292
926.352	5204
926.459	5254
926.566	5261
926.673	5185
926.779	5117
926.886	5098
926.993	4991
927.099	5025
927.206	4938
927.312	5010
927.419	5003
927.525	4957
927.631	5018
927.737	4904
927.843	4843
927.95	4774
928.056	4759
928.162	4774
928.267	4839
928.373	5269
928.479	4847
928.585	4664
928.69	4801
928.796	4717
928.901	4656
929.007	4580
929.112	4668
929.218	4584
929.323	4603
929.428	4546
929.533	4626
929.638	4519
929.743	4478
929.848	4542
929.953	4497
930.058	4459
930.163	4299
930.267	4352
930.372	4371
930.477	4261
930.581	4459
930.685	4306
930.79	4234
930.894	4249
930.998	4230
931.103	4318
931.207	4112
931.311	4086
931.415	3998
931.519	3926
931.623	3922
