Data from glass_V78500241_2754.txt Node
Date: Wed Sep 01 19:33:35 CST 2021
User: usil
Spectrometer: V785-0024
Trigger mode: 0
Integration Time (sec): 4.000000E-1
Scans to average: 1
Nonlinearity correction enabled: false
Boxcar width: 0
Storing dark spectrum: false
XAxis mode: Wavelengths
Number of Pixels in Spectrum: 1024
>>>>>Begin Spectral Data<<<<<
801.071	3736
801.214	3747
801.356	3675
801.499	3747
801.641	3705
801.783	3804
801.926	3816
802.068	3759
802.211	3823
802.353	3861
802.496	3850
802.638	3880
802.78	3865
802.923	3873
803.065	3865
803.208	3854
803.35	3865
803.492	3838
803.635	3926
803.777	3789
803.919	3838
804.061	4147
804.204	3941
804.346	3991
804.488	3907
804.63	3987
804.773	3972
804.915	3975
805.057	4059
805.199	4051
805.341	4071
805.483	4109
805.626	4128
805.768	4112
805.91	4158
806.052	4223
806.194	4154
806.336	4314
806.478	4204
806.62	4162
806.762	4154
806.904	4223
807.046	4329
807.188	4143
807.33	4188
807.472	4242
807.614	4154
807.756	4192
807.898	4219
808.04	4185
808.182	4268
808.324	4261
808.465	4280
808.607	4417
808.749	4424
808.891	4455
809.033	4466
809.174	4383
809.316	4272
809.458	4242
809.6	4112
809.741	4124
809.883	4131
810.025	4242
810.166	4219
810.308	4204
810.45	4234
810.591	4234
810.733	4310
810.875	4500
811.016	4797
811.158	5128
811.299	5242
811.441	5261
811.582	5071
811.724	4675
811.865	4455
812.007	4459
812.148	4440
812.29	4462
812.431	4352
812.573	4405
812.714	4356
812.855	4409
812.997	4390
813.138	4424
813.279	4413
813.421	4375
813.562	4360
813.703	4344
813.845	4306
813.986	4246
814.127	4234
814.268	4280
814.41	4268
814.551	4257
814.692	4299
814.833	4238
814.974	4314
815.115	4322
815.256	4223
815.397	4238
815.539	4230
815.68	4158
815.821	4192
815.962	4318
816.103	4280
816.244	4230
816.385	4238
816.526	4272
816.666	4200
816.807	4078
816.948	4230
817.089	4188
817.23	4109
817.371	4048
817.512	4051
817.653	4071
817.793	4017
817.934	4029
818.075	4112
818.216	4067
818.356	4055
818.497	3949
818.638	3896
818.778	3918
818.919	3899
819.06	3819
819.2	3888
819.341	3854
819.481	3789
819.622	3857
819.762	4002
819.903	3934
820.043	3854
820.184	3835
820.324	3770
820.465	3835
820.605	3854
820.746	3880
820.886	3770
821.026	3915
821.167	3899
821.307	3956
821.447	3911
821.588	3937
821.728	3911
821.868	3953
822.008	3842
822.149	3888
822.289	3896
822.429	3747
822.569	3759
822.709	3728
822.849	3698
822.99	3705
823.13	3709
823.27	3762
823.41	3724
823.55	3728
823.69	3724
823.83	3720
823.97	3652
824.11	3580
824.25	3576
824.389	3633
824.529	3644
824.669	3576
824.809	3660
824.949	3732
825.089	3713
825.228	3701
825.368	3564
825.508	3568
825.648	3553
825.787	3614
825.927	3637
826.067	3580
826.206	3629
826.346	3762
826.485	3831
826.625	3884
826.765	3888
826.904	3797
827.044	3591
827.183	3515
827.323	3397
827.462	3443
827.601	3439
827.741	3405
827.88	3454
828.02	3306
828.159	3443
828.298	3469
828.437	3488
828.577	3439
828.716	3595
828.855	3481
828.994	3389
829.134	3340
829.273	3378
829.412	3321
829.551	3294
829.69	3351
829.829	3412
829.968	3492
830.107	3439
830.246	3412
830.385	3325
830.524	3302
830.663	3302
830.802	3260
830.941	3184
831.08	3173
831.219	3241
831.357	3230
831.496	3367
831.635	3245
831.774	3218
831.913	3211
832.051	3119
832.19	3116
832.329	3214
832.467	3108
832.606	3070
832.744	3150
832.883	3135
833.022	3192
833.16	3260
833.299	3291
833.437	3325
833.576	3370
833.714	3367
833.852	3378
833.991	3424
834.129	3447
834.267	3389
834.406	3378
834.544	3367
834.682	3367
834.821	3409
834.959	3576
835.097	3401
835.235	3500
835.373	3515
835.511	3481
835.65	3397
835.788	3447
835.926	3359
836.064	3329
836.202	3405
836.34	3561
836.478	3564
836.615	3504
836.753	3591
836.891	3648
837.029	3595
837.167	3614
837.305	3549
837.443	3469
837.58	3511
837.718	3595
837.856	3526
837.993	3515
838.131	3591
838.269	3576
838.406	3572
838.544	3576
838.681	3462
838.819	3428
838.956	3382
839.094	3370
839.231	3443
839.369	3538
839.506	3705
839.643	3633
839.781	3507
839.918	3473
840.055	3473
840.193	3549
840.33	3526
840.467	3580
840.604	3572
840.742	3770
840.879	3504
841.016	3511
841.153	3564
841.29	3751
841.427	3690
841.564	3709
841.701	3736
841.838	3686
841.975	3682
842.112	3713
842.249	3603
842.385	3595
842.522	3778
842.659	3648
842.796	3641
842.933	3705
843.069	3694
843.206	3667
843.343	3797
843.479	3785
843.616	3827
843.752	3663
843.889	3656
844.025	3831
844.162	3667
844.298	3838
844.435	3751
844.571	3762
844.708	3827
844.844	3930
844.98	4017
845.117	3991
845.253	3899
845.389	3918
845.525	3979
845.661	3930
845.798	3888
845.934	4017
846.07	3960
846.206	4017
846.342	4150
846.478	4040
846.614	3960
846.75	3907
846.886	3937
847.022	4006
847.158	3945
847.294	4006
847.429	4055
847.565	3998
847.701	4219
847.837	3865
847.972	3816
848.108	3964
848.244	3922
848.379	3869
848.515	3827
848.65	3831
848.786	3789
848.921	3838
849.057	3945
849.192	3953
849.328	3896
849.463	3915
849.598	3861
849.734	3835
849.869	3800
850.004	3743
850.14	3785
850.275	3797
850.41	3709
850.545	3736
850.68	3778
850.815	3736
850.95	3770
851.085	3915
851.22	3850
851.355	3778
851.49	3781
851.625	3736
851.76	3827
851.895	3717
852.03	3720
852.165	3778
852.299	3835
852.434	3865
852.569	3835
852.703	3835
852.838	3857
852.973	3975
853.107	3975
853.242	3854
853.376	3808
853.511	3766
853.645	3819
853.78	3915
853.914	3861
854.048	3876
854.183	3857
854.317	3945
854.451	4044
854.585	3953
854.72	3960
854.854	4025
854.988	3907
855.122	4013
855.256	3915
855.39	4006
855.524	4063
855.658	4059
855.792	4097
855.926	4131
856.06	4128
856.194	4227
856.327	4093
856.461	4154
856.595	4135
856.729	4158
856.862	4257
856.996	4223
857.13	4291
857.263	4287
857.397	4363
857.53	4223
857.664	4344
857.797	4367
857.931	4383
858.064	4375
858.197	4436
858.331	4363
858.464	4367
858.597	4371
858.731	4390
858.864	4386
858.997	4451
859.13	4462
859.263	4523
859.396	4542
859.529	4542
859.662	4538
859.795	4550
859.928	4596
860.061	4698
860.194	4717
860.327	4653
860.46	4607
860.592	4702
860.725	4729
860.858	4717
860.99	4683
861.123	4645
861.256	4641
861.388	4774
861.521	5284
861.653	4717
861.786	4675
861.918	4714
862.05	4786
862.183	4801
862.315	4885
862.447	4919
862.58	4862
862.712	4744
862.844	4786
862.976	4881
863.108	4858
863.24	5223
863.372	4801
863.504	4927
863.636	4885
863.768	4942
863.9	4927
864.032	4953
864.164	4915
864.296	5064
864.428	5098
864.559	5056
864.691	5113
864.823	5105
864.954	5079
865.086	5105
865.217	5094
865.349	5071
865.48	5136
865.612	5124
865.743	5269
865.875	5227
866.006	5174
866.137	5201
866.269	5212
866.4	5212
866.531	5185
866.662	5235
866.793	5258
866.924	5265
867.055	5318
867.186	5284
867.317	5330
867.448	5296
867.579	5357
867.71	5299
867.841	5376
867.972	5482
868.103	5433
868.233	5486
868.364	5493
868.495	5551
868.625	5714
868.756	5729
868.886	5627
869.017	5691
869.147	5836
869.278	5851
869.408	5752
869.539	5817
869.669	5923
869.799	5882
869.929	5961
870.06	5897
870.19	6167
870.32	6167
870.45	6239
870.58	6376
870.71	6422
870.84	6433
870.97	6407
871.1	6426
871.23	6642
871.36	6684
871.489	6604
871.619	6642
871.749	6722
871.879	6840
872.008	6928
872.138	6943
872.267	7076
872.397	6966
872.526	6989
872.656	7118
872.785	7152
872.915	7365
873.044	7491
873.173	7567
873.303	7639
873.432	7784
873.561	7871
873.69	7890
873.819	7951
873.948	8157
874.077	8191
874.206	8320
874.335	8457
874.464	8686
874.593	8815
874.722	8891
874.851	9135
874.979	9188
875.108	9336
875.237	9473
875.365	9496
875.494	9663
875.623	9804
875.751	9800
875.88	10010
876.008	10230
876.136	10242
876.265	10508
876.393	10687
876.521	10672
876.65	10725
876.778	10896
876.906	10896
877.034	10965
877.162	11067
877.29	11159
877.418	11303
877.546	11387
877.674	11471
877.802	11425
877.93	11551
878.058	11429
878.185	11592
878.313	11676
878.441	11805
878.568	11634
878.696	11798
878.824	11817
878.951	11984
879.079	11897
879.206	12068
879.333	12057
879.461	11973
879.588	11954
879.715	12144
879.842	12277
879.97	12038
880.097	11874
880.224	11840
880.351	11927
880.478	11912
880.605	11904
880.732	11783
880.859	11999
880.986	11893
881.112	11836
881.239	11680
881.366	11611
881.493	11600
881.619	11539
881.746	11539
881.872	11524
881.999	11474
882.125	11376
882.252	11486
882.378	11490
882.505	11570
882.631	11356
882.757	11239
882.883	11360
883.01	11261
883.136	11151
883.262	11014
883.388	11033
883.514	11181
883.64	11136
883.766	11094
883.892	10946
884.018	11025
884.143	11025
884.269	11014
884.395	10896
884.52	10790
884.646	10748
884.772	10740
884.897	10630
885.023	10717
885.148	10698
885.274	10725
885.399	10653
885.524	10603
885.65	10634
885.775	10542
885.9	10577
886.025	10542
886.15	10497
886.275	10447
886.4	10367
886.525	10348
886.65	10363
886.775	10348
886.9	10523
887.025	10512
887.149	10306
887.274	10200
887.399	10154
887.523	10154
887.648	10204
887.773	10090
887.897	10261
888.021	10173
888.146	10078
888.27	10135
888.395	10257
888.519	10196
888.643	10234
888.767	10196
888.891	10116
889.015	9968
889.139	10097
889.263	9930
889.387	10059
889.511	10097
889.635	10051
889.759	9987
889.883	9994
890.006	10017
890.13	10071
890.254	9895
890.377	9956
890.501	9835
890.624	9793
890.748	9884
890.871	9747
890.995	9808
891.118	9671
891.241	9751
891.364	9633
891.488	9838
891.611	9743
891.734	9766
891.857	9686
891.98	9717
892.103	9732
892.226	9770
892.349	9675
892.471	9599
892.594	9625
892.717	9595
892.839	9595
892.962	9610
893.085	9622
893.207	9606
893.33	9549
893.452	9496
893.575	9622
893.697	9500
893.819	9564
893.941	9564
894.064	9606
894.186	9435
894.308	9435
894.43	9549
894.552	9530
894.674	9454
894.796	9416
894.918	9374
895.04	9332
895.161	9325
895.283	9294
895.405	9188
895.526	9192
895.648	9313
895.769	9184
895.891	9214
896.012	9241
896.134	9218
896.255	9226
896.376	9138
896.498	9165
896.619	9089
896.74	9024
896.861	9032
896.982	9169
897.103	9294
897.224	9116
897.345	9036
897.466	8960
897.587	8979
897.708	9077
897.828	9028
897.949	8883
898.07	8872
898.19	8887
898.311	9051
898.431	8929
898.552	8941
898.672	9009
898.792	8967
898.913	8902
899.033	8819
899.153	8754
899.273	8625
899.393	8712
899.513	8777
899.633	8746
899.753	8651
899.873	8648
899.993	8667
900.113	8659
900.232	8716
900.352	8644
900.472	8533
900.591	8545
900.711	8610
900.83	8526
900.95	8632
901.069	8644
901.189	8511
901.308	8450
901.427	8351
901.546	8385
901.665	8488
901.784	8457
901.904	8423
902.023	8377
902.141	8183
902.26	8119
902.379	8229
902.498	8168
902.617	8210
902.735	8362
902.854	8240
902.973	8214
903.091	8043
903.21	8176
903.328	8069
903.446	8081
903.565	8027
903.683	8062
903.801	8008
903.919	8058
904.038	8039
904.156	8035
904.274	8088
904.392	8005
904.51	8046
904.627	8100
904.745	8119
904.863	8119
904.981	7902
905.098	7871
905.216	7826
905.334	7894
905.451	7879
905.569	7841
905.686	7902
905.803	7894
905.921	7753
906.038	7841
906.155	7803
906.272	7750
906.389	7723
906.506	7567
906.623	7670
906.74	7563
906.857	7529
906.974	7609
907.091	7582
907.208	7715
907.324	7575
907.441	7548
907.557	7460
907.674	7407
907.79	7419
907.907	7392
908.023	7441
908.139	7400
908.256	7384
908.372	7426
908.488	7305
908.604	7244
908.72	7278
908.836	7217
908.952	7225
909.068	7225
909.184	7190
909.3	7225
909.415	7274
909.531	7236
909.647	7133
909.762	7038
909.878	7080
909.993	7046
910.108	7091
910.224	7034
910.339	7019
910.454	6996
910.57	6970
910.685	6985
910.8	7118
910.915	7080
911.03	7027
911.145	6913
911.259	6848
911.374	6878
911.489	6848
911.604	6844
911.718	6677
911.833	6707
911.947	6582
912.062	6578
912.176	6703
912.291	6730
912.405	6631
912.519	6787
912.633	6791
912.748	6722
912.862	6719
912.976	6627
913.09	6498
913.204	6517
913.318	6570
913.431	6639
913.545	6650
913.659	6711
913.772	6593
913.886	6532
914	6540
914.113	6593
914.226	6585
914.34	6616
914.453	6483
914.566	6544
914.68	6475
914.793	6551
914.906	6399
915.019	6399
915.132	6369
915.245	6399
915.358	6437
915.47	6418
915.583	6414
915.696	6403
915.809	6517
915.921	6578
916.034	6433
916.146	6426
916.259	6372
916.371	6456
916.483	6422
916.595	6372
916.708	6365
916.82	6342
916.932	6372
917.044	6441
917.156	6361
917.268	6296
917.38	6350
917.491	6323
917.603	6319
917.715	6319
917.826	6369
917.938	6357
918.049	6182
918.161	6285
918.272	6414
918.384	6456
918.495	6357
918.606	6220
918.717	6216
918.828	6228
918.939	6243
919.05	6220
919.161	6289
919.272	6110
919.383	6087
919.494	6258
919.604	6369
919.715	6277
919.826	6209
919.936	6235
920.047	6353
920.157	6258
920.267	6369
920.378	6304
920.488	6251
920.598	6445
920.708	6532
920.818	6448
920.928	6490
921.038	6623
921.148	6593
921.258	6372
921.368	6308
921.477	6213
921.587	6159
921.697	6053
921.806	6171
921.916	6030
922.025	5946
922.134	5920
922.244	5866
922.353	5889
922.462	5802
922.571	5756
922.68	5695
922.789	5596
922.898	5665
923.007	5649
923.116	5707
923.224	5661
923.333	5649
923.442	5562
923.55	5528
923.659	5558
923.767	5566
923.876	5509
923.984	5638
924.092	5467
924.201	5482
924.309	5573
924.417	5474
924.525	5467
924.633	5486
924.741	6251
924.849	5353
924.956	5448
925.064	5357
925.172	5273
925.279	5311
925.387	5349
925.494	5277
925.602	5448
925.709	5326
925.816	5292
925.924	5296
926.031	5337
926.138	5292
926.245	5315
926.352	5261
926.459	5303
926.566	5277
926.673	5174
926.779	5132
926.886	5067
926.993	5041
927.099	5025
927.206	4938
927.312	4946
927.419	4949
927.525	4995
927.631	4949
927.737	4881
927.843	4858
927.95	4736
928.056	4809
928.162	4801
928.267	4816
928.373	5341
928.479	4866
928.585	4630
928.69	4744
928.796	4805
928.901	4664
929.007	4592
929.112	4634
929.218	4580
929.323	4599
929.428	4538
929.533	4641
929.638	4485
929.743	4485
929.848	4519
929.953	4500
930.058	4413
930.163	4306
930.267	4303
930.372	4459
930.477	4299
930.581	4451
930.685	4303
930.79	4215
930.894	4284
930.998	4280
931.103	4348
931.207	4109
931.311	4067
931.415	4040
931.519	3949
931.623	3949
