Data from glass_V78500241_376.txt Node
Date: Wed Sep 01 19:17:06 CST 2021
User: usil
Spectrometer: V785-0024
Trigger mode: 0
Integration Time (sec): 4.000000E-1
Scans to average: 1
Nonlinearity correction enabled: false
Boxcar width: 0
Storing dark spectrum: false
XAxis mode: Wavelengths
Number of Pixels in Spectrum: 1024
>>>>>Begin Spectral Data<<<<<
801.071	3732
801.214	3759
801.356	3671
801.499	3774
801.641	3740
801.783	3804
801.926	3896
802.068	3797
802.211	3892
802.353	3899
802.496	3884
802.638	3907
802.78	3884
802.923	3960
803.065	3903
803.208	3896
803.35	3918
803.492	3903
803.635	3915
803.777	3793
803.919	3915
804.061	4169
804.204	3953
804.346	3979
804.488	3903
804.63	4036
804.773	4025
804.915	4040
805.057	4097
805.199	4082
805.341	4067
805.483	4139
805.626	4169
805.768	4196
805.91	4230
806.052	4215
806.194	4234
806.336	4367
806.478	4219
806.62	4120
806.762	4158
806.904	4257
807.046	4333
807.188	4238
807.33	4177
807.472	4204
807.614	4219
807.756	4291
807.898	4265
808.04	4246
808.182	4287
808.324	4379
808.465	4390
808.607	4470
808.749	4470
808.891	4481
809.033	4527
809.174	4413
809.316	4291
809.458	4348
809.6	4181
809.741	4200
809.883	4177
810.025	4238
810.166	4207
810.308	4303
810.45	4249
810.591	4276
810.733	4310
810.875	4497
811.016	4843
811.158	5132
811.299	5288
811.441	5345
811.582	5052
811.724	4656
811.865	4451
812.007	4478
812.148	4405
812.29	4375
812.431	4455
812.573	4402
812.714	4367
812.855	4424
812.997	4459
813.138	4519
813.279	4455
813.421	4367
813.562	4356
813.703	4318
813.845	4352
813.986	4287
814.127	4249
814.268	4287
814.41	4299
814.551	4257
814.692	4337
814.833	4287
814.974	4322
815.115	4337
815.256	4325
815.397	4234
815.539	4303
815.68	4200
815.821	4215
815.962	4333
816.103	4295
816.244	4253
816.385	4227
816.526	4318
816.666	4215
816.807	4143
816.948	4230
817.089	4188
817.23	4166
817.371	4055
817.512	4029
817.653	4090
817.793	4082
817.934	4093
818.075	4131
818.216	4120
818.356	4086
818.497	4044
818.638	3922
818.778	3945
818.919	3937
819.06	3907
819.2	3937
819.341	3876
819.481	3835
819.622	3892
819.762	4048
819.903	4025
820.043	3819
820.184	3850
820.324	3823
820.465	3937
820.605	3850
820.746	3880
820.886	3819
821.026	3934
821.167	3892
821.307	3953
821.447	3964
821.588	3968
821.728	3983
821.868	3930
822.008	3884
822.149	3915
822.289	3964
822.429	3785
822.569	3797
822.709	3827
822.849	3720
822.99	3755
823.13	3785
823.27	3835
823.41	3740
823.55	3709
823.69	3755
823.83	3766
823.97	3644
824.11	3629
824.25	3633
824.389	3679
824.529	3682
824.669	3629
824.809	3728
824.949	3774
825.089	3766
825.228	3709
825.368	3603
825.508	3561
825.648	3564
825.787	3622
825.927	3641
826.067	3656
826.206	3660
826.346	3823
826.485	3861
826.625	3865
826.765	3949
826.904	3850
827.044	3553
827.183	3542
827.323	3469
827.462	3488
827.601	3428
827.741	3447
827.88	3466
828.02	3374
828.159	3431
828.298	3500
828.437	3530
828.577	3473
828.716	3584
828.855	3485
828.994	3428
829.134	3389
829.273	3435
829.412	3378
829.551	3363
829.69	3374
829.829	3488
829.968	3504
830.107	3462
830.246	3462
830.385	3405
830.524	3374
830.663	3279
830.802	3253
830.941	3203
831.08	3188
831.219	3287
831.357	3260
831.496	3439
831.635	3310
831.774	3256
831.913	3245
832.051	3165
832.19	3127
832.329	3233
832.467	3146
832.606	3161
832.744	3180
832.883	3192
833.022	3188
833.16	3272
833.299	3340
833.437	3340
833.576	3401
833.714	3462
833.852	3401
833.991	3458
834.129	3481
834.267	3443
834.406	3431
834.544	3420
834.682	3424
834.821	3393
834.959	3603
835.097	3435
835.235	3561
835.373	3519
835.511	3507
835.65	3466
835.788	3485
835.926	3416
836.064	3409
836.202	3424
836.34	3603
836.478	3618
836.615	3526
836.753	3625
836.891	3675
837.029	3644
837.167	3603
837.305	3595
837.443	3584
837.58	3511
837.718	3618
837.856	3580
837.993	3545
838.131	3633
838.269	3595
838.406	3610
838.544	3561
838.681	3424
838.819	3469
838.956	3424
839.094	3405
839.231	3462
839.369	3530
839.506	3743
839.643	3652
839.781	3481
839.918	3485
840.055	3534
840.193	3549
840.33	3534
840.467	3580
840.604	3633
840.742	3800
840.879	3538
841.016	3584
841.153	3603
841.29	3770
841.427	3774
841.564	3732
841.701	3736
841.838	3698
841.975	3675
842.112	3774
842.249	3656
842.385	3614
842.522	3838
842.659	3728
842.796	3603
842.933	3736
843.069	3762
843.206	3705
843.343	3793
843.479	3797
843.616	3797
843.752	3682
843.889	3701
844.025	3861
844.162	3713
844.298	3915
844.435	3827
844.571	3800
844.708	3888
844.844	3979
844.98	4029
845.117	4055
845.253	3945
845.389	3911
845.525	3979
845.661	3949
845.798	3937
845.934	3972
846.07	3941
846.206	4029
846.342	4101
846.478	4101
846.614	3998
846.75	3956
846.886	3945
847.022	4048
847.158	3987
847.294	4002
847.429	4032
847.565	3960
847.701	4322
847.837	3857
847.972	3873
848.108	3987
848.244	3972
848.379	3880
848.515	3816
848.65	3808
848.786	3827
848.921	3857
849.057	3888
849.192	3956
849.328	3892
849.463	3922
849.598	3884
849.734	3903
849.869	3857
850.004	3827
850.14	3869
850.275	3831
850.41	3759
850.545	3778
850.68	3812
850.815	3823
850.95	3751
851.085	3960
851.22	3876
851.355	3842
851.49	3827
851.625	3797
851.76	3797
851.895	3740
852.03	3781
852.165	3819
852.299	3880
852.434	3922
852.569	3907
852.703	3896
852.838	3926
852.973	4013
853.107	4006
853.242	3930
853.376	3850
853.511	3766
853.645	3857
853.78	3994
853.914	3915
854.048	3949
854.183	3884
854.317	4002
854.451	4051
854.585	3979
854.72	3956
854.854	4086
854.988	3949
855.122	3991
855.256	3934
855.39	4040
855.524	4143
855.658	4109
855.792	4116
855.926	4158
856.06	4154
856.194	4219
856.327	4150
856.461	4128
856.595	4196
856.729	4158
856.862	4249
856.996	4284
857.13	4314
857.263	4322
857.397	4375
857.53	4299
857.664	4360
857.797	4447
857.931	4493
858.064	4409
858.197	4470
858.331	4402
858.464	4394
858.597	4356
858.731	4440
858.864	4481
858.997	4546
859.13	4512
859.263	4561
859.396	4577
859.529	4493
859.662	4542
859.795	4523
859.928	4626
860.061	4755
860.194	4717
860.327	4664
860.46	4649
860.592	4706
860.725	4809
860.858	4759
860.99	4771
861.123	4736
861.256	4740
861.388	4786
861.521	5425
861.653	4717
861.786	4744
861.918	4771
862.05	4759
862.183	4847
862.315	4862
862.447	4923
862.58	4885
862.712	4831
862.844	4793
862.976	4896
863.108	4854
863.24	5231
863.372	4812
863.504	4938
863.636	4904
863.768	4923
863.9	4934
864.032	4927
864.164	4980
864.296	5022
864.428	5090
864.559	5109
864.691	5132
864.823	5143
864.954	5162
865.086	5140
865.217	5147
865.349	5124
865.48	5124
865.612	5223
865.743	5349
865.875	5223
866.006	5231
866.137	5292
866.269	5273
866.4	5284
866.531	5193
866.662	5254
866.793	5311
866.924	5292
867.055	5357
867.186	5406
867.317	5337
867.448	5334
867.579	5398
867.71	5414
867.841	5364
867.972	5448
868.103	5448
868.233	5478
868.364	5512
868.495	5512
868.625	5688
868.756	5813
868.886	5707
869.017	5748
869.147	5851
869.278	5893
869.408	5847
869.539	5927
869.669	5901
869.799	5897
869.929	6041
870.06	6049
870.19	6235
870.32	6239
870.45	6289
870.58	6365
870.71	6391
870.84	6506
870.97	6475
871.1	6407
871.23	6669
871.36	6700
871.489	6703
871.619	6711
871.749	6768
871.879	6878
872.008	7050
872.138	7038
872.267	6958
872.397	7012
872.526	6951
872.656	7114
872.785	7194
872.915	7388
873.044	7514
873.173	7483
873.303	7693
873.432	7822
873.561	7879
873.69	7925
873.819	7989
873.948	8187
874.077	8206
874.206	8336
874.335	8469
874.464	8587
874.593	8845
874.722	8925
874.851	9169
874.979	9169
875.108	9431
875.237	9405
875.365	9526
875.494	9633
875.623	9781
875.751	9831
875.88	10040
876.008	10150
876.136	10280
876.265	10554
876.393	10736
876.521	10664
876.65	10869
876.778	10877
876.906	10904
877.034	10923
877.162	11117
877.29	11086
877.418	11349
877.546	11337
877.674	11444
877.802	11493
877.93	11551
878.058	11642
878.185	11528
878.313	11653
878.441	11756
878.568	11592
878.696	11859
878.824	11855
878.951	11897
879.079	11950
879.206	12129
879.333	12121
879.461	12068
879.588	12117
879.715	12152
879.842	12262
879.97	12133
880.097	11878
880.224	11859
880.351	11893
880.478	11912
880.605	11878
880.732	11923
880.859	12049
880.986	11790
881.112	11889
881.239	11714
881.366	11653
881.493	11623
881.619	11524
881.746	11509
881.872	11516
881.999	11596
882.125	11471
882.252	11570
882.378	11570
882.505	11554
882.631	11307
882.757	11296
882.883	11341
883.01	11261
883.136	11151
883.262	11132
883.388	11037
883.514	11220
883.64	11258
883.766	11075
883.892	10995
884.018	10972
884.143	11086
884.269	11113
884.395	10889
884.52	10847
884.646	10812
884.772	10675
884.897	10702
885.023	10675
885.148	10725
885.274	10759
885.399	10710
885.524	10615
885.65	10637
885.775	10607
885.9	10596
886.025	10577
886.15	10596
886.275	10394
886.4	10375
886.525	10367
886.65	10402
886.775	10303
886.9	10500
887.025	10493
887.149	10344
887.274	10276
887.399	10268
887.523	10238
887.648	10169
887.773	10124
887.897	10238
888.021	10234
888.146	10188
888.27	10219
888.395	10242
888.519	10139
888.643	10185
888.767	10215
888.891	10185
889.015	10044
889.139	10112
889.263	9888
889.387	10006
889.511	10192
889.635	10048
889.759	9987
889.883	9903
890.006	10044
890.13	10120
890.254	10036
890.377	9895
890.501	9873
890.624	9838
890.748	9903
890.871	9751
890.995	9736
891.118	9789
891.241	9740
891.364	9751
891.488	9869
891.611	9781
891.734	9800
891.857	9793
891.98	9690
892.103	9755
892.226	9671
892.349	9633
892.471	9557
892.594	9644
892.717	9648
892.839	9618
892.962	9606
893.085	9709
893.207	9618
893.33	9450
893.452	9534
893.575	9587
893.697	9504
893.819	9584
893.941	9629
894.064	9698
894.186	9401
894.308	9454
894.43	9614
894.552	9618
894.674	9481
894.796	9386
894.918	9374
895.04	9306
895.161	9462
895.283	9389
895.405	9233
895.526	9325
895.648	9211
895.769	9233
895.891	9230
896.012	9237
896.134	9150
896.255	9138
896.376	9195
896.498	9142
896.619	9123
896.74	9097
896.861	9043
896.982	9218
897.103	9283
897.224	9108
897.345	9108
897.466	9020
897.587	9001
897.708	9081
897.828	9112
897.949	8960
898.07	8994
898.19	8933
898.311	9013
898.431	8823
898.552	8975
898.672	9066
898.792	8967
898.913	8895
899.033	8864
899.153	8834
899.273	8731
899.393	8686
899.513	8743
899.633	8781
899.753	8811
899.873	8762
899.993	8834
900.113	8727
900.232	8773
900.352	8674
900.472	8636
900.591	8495
900.711	8579
900.83	8556
900.95	8682
901.069	8731
901.189	8537
901.308	8434
901.427	8412
901.546	8461
901.665	8423
901.784	8469
901.904	8408
902.023	8415
902.141	8267
902.26	8252
902.379	8317
902.498	8282
902.617	8237
902.735	8366
902.854	8336
902.973	8286
903.091	8123
903.21	8183
903.328	8119
903.446	8153
903.565	8084
903.683	8119
903.801	8092
903.919	8103
904.038	8195
904.156	8092
904.274	8062
904.392	8039
904.51	8027
904.627	8046
904.745	8126
904.863	8107
904.981	7967
905.098	7906
905.216	7883
905.334	7944
905.451	7925
905.569	7852
905.686	7906
905.803	7932
905.921	7837
906.038	7883
906.155	7845
906.272	7769
906.389	7696
906.506	7624
906.623	7601
906.74	7655
906.857	7514
906.974	7586
907.091	7696
907.208	7723
907.324	7567
907.441	7590
907.557	7468
907.674	7449
907.79	7400
907.907	7438
908.023	7426
908.139	7384
908.256	7415
908.372	7350
908.488	7331
908.604	7305
908.72	7236
908.836	7221
908.952	7240
909.068	7259
909.184	7350
909.3	7240
909.415	7316
909.531	7301
909.647	7179
909.762	7103
909.878	7091
909.993	7183
910.108	7133
910.224	7042
910.339	7122
910.454	7050
910.57	7031
910.685	6977
910.8	7187
910.915	7133
911.03	7042
911.145	6897
911.259	6909
911.374	6916
911.489	6875
911.604	6814
911.718	6779
911.833	6753
911.947	6658
912.062	6623
912.176	6768
912.291	6730
912.405	6703
912.519	6810
912.633	6856
912.748	6749
912.862	6703
912.976	6612
913.09	6559
913.204	6616
913.318	6654
913.431	6696
913.545	6738
913.659	6741
913.772	6639
913.886	6585
914	6547
914.113	6642
914.226	6658
914.34	6612
914.453	6483
914.566	6582
914.68	6513
914.793	6582
914.906	6422
915.019	6410
915.132	6410
915.245	6403
915.358	6486
915.47	6433
915.583	6445
915.696	6456
915.809	6540
915.921	6604
916.034	6494
916.146	6433
916.259	6391
916.371	6456
916.483	6536
916.595	6372
916.708	6372
916.82	6426
916.932	6403
917.044	6399
917.156	6456
917.268	6380
917.38	6388
917.491	6304
917.603	6407
917.715	6429
917.826	6456
917.938	6311
918.049	6308
918.161	6350
918.272	6391
918.384	6441
918.495	6353
918.606	6273
918.717	6228
918.828	6292
918.939	6262
919.05	6171
919.161	6285
919.272	6129
919.383	6125
919.494	6357
919.604	6433
919.715	6311
919.826	6235
919.936	6270
920.047	6319
920.157	6220
920.267	6384
920.378	6296
920.488	6285
920.598	6445
920.708	6612
920.818	6464
920.928	6498
921.038	6635
921.148	6555
921.258	6372
921.368	6308
921.477	6243
921.587	6197
921.697	6144
921.806	6178
921.916	6106
922.025	5904
922.134	5935
922.244	5832
922.353	5988
922.462	5870
922.571	5821
922.68	5688
922.789	5718
922.898	5668
923.007	5703
923.116	5722
923.224	5703
923.333	5703
923.442	5600
923.55	5577
923.659	5665
923.767	5642
923.876	5524
923.984	5623
924.092	5551
924.201	5543
924.309	5581
924.417	5543
924.525	5482
924.633	5532
924.741	6357
924.849	5421
924.956	5444
925.064	5391
925.172	5311
925.279	5318
925.387	5364
925.494	5330
925.602	5425
925.709	5337
925.816	5307
925.924	5303
926.031	5334
926.138	5318
926.245	5318
926.352	5208
926.459	5357
926.566	5334
926.673	5227
926.779	5201
926.886	5098
926.993	5098
927.099	4991
927.206	4984
927.312	4934
927.419	5029
927.525	4976
927.631	4968
927.737	4930
927.843	4908
927.95	4805
928.056	4805
928.162	4801
928.267	4896
928.373	5254
928.479	4862
928.585	4714
928.69	4748
928.796	4778
928.901	4714
929.007	4573
929.112	4660
929.218	4615
929.323	4584
929.428	4584
929.533	4687
929.638	4493
929.743	4577
929.848	4554
929.953	4519
930.058	4481
930.163	4363
930.267	4383
930.372	4432
930.477	4337
930.581	4474
930.685	4405
930.79	4261
930.894	4363
930.998	4318
931.103	4417
931.207	4150
931.311	4074
931.415	4055
931.519	3922
931.623	3934
