Data from glass_V78500241_314.txt Node
Date: Wed Sep 01 19:16:40 CST 2021
User: usil
Spectrometer: V785-0024
Trigger mode: 0
Integration Time (sec): 4.000000E-1
Scans to average: 1
Nonlinearity correction enabled: false
Boxcar width: 0
Storing dark spectrum: false
XAxis mode: Wavelengths
Number of Pixels in Spectrum: 1024
>>>>>Begin Spectral Data<<<<<
801.071	3755
801.214	3759
801.356	3751
801.499	3804
801.641	3705
801.783	3789
801.926	3888
802.068	3861
802.211	3854
802.353	3888
802.496	3842
802.638	3861
802.78	3930
802.923	3922
803.065	3888
803.208	3911
803.35	3884
803.492	3926
803.635	3907
803.777	3823
803.919	3922
804.061	4200
804.204	4013
804.346	3983
804.488	3953
804.63	4040
804.773	3953
804.915	4025
805.057	4112
805.199	4040
805.341	4071
805.483	4173
805.626	4116
805.768	4116
805.91	4219
806.052	4249
806.194	4204
806.336	4409
806.478	4196
806.62	4181
806.762	4207
806.904	4295
807.046	4360
807.188	4257
807.33	4185
807.472	4257
807.614	4230
807.756	4329
807.898	4249
808.04	4238
808.182	4291
808.324	4333
808.465	4371
808.607	4493
808.749	4451
808.891	4481
809.033	4542
809.174	4417
809.316	4272
809.458	4246
809.6	4143
809.741	4166
809.883	4173
810.025	4253
810.166	4238
810.308	4238
810.45	4322
810.591	4234
810.733	4310
810.875	4474
811.016	4854
811.158	5204
811.299	5303
811.441	5273
811.582	5006
811.724	4706
811.865	4478
812.007	4455
812.148	4421
812.29	4436
812.431	4421
812.573	4432
812.714	4421
812.855	4405
812.997	4398
813.138	4478
813.279	4402
813.421	4371
813.562	4394
813.703	4348
813.845	4337
813.986	4261
814.127	4211
814.268	4268
814.41	4303
814.551	4306
814.692	4299
814.833	4295
814.974	4280
815.115	4352
815.256	4268
815.397	4223
815.539	4253
815.68	4162
815.821	4234
815.962	4322
816.103	4299
816.244	4295
816.385	4261
816.526	4303
816.666	4242
816.807	4040
816.948	4177
817.089	4204
817.23	4124
817.371	4101
817.512	4067
817.653	4109
817.793	4025
817.934	4040
818.075	4150
818.216	4090
818.356	4051
818.497	4010
818.638	3922
818.778	3922
818.919	3964
819.06	3884
819.2	3937
819.341	3869
819.481	3850
819.622	3903
819.762	4013
819.903	3968
820.043	3880
820.184	3869
820.324	3842
820.465	3876
820.605	3918
820.746	3873
820.886	3774
821.026	3934
821.167	3903
821.307	3994
821.447	3975
821.588	4021
821.728	3941
821.868	3953
822.008	3888
822.149	3903
822.289	3934
822.429	3789
822.569	3789
822.709	3812
822.849	3686
822.99	3690
823.13	3766
823.27	3827
823.41	3755
823.55	3747
823.69	3759
823.83	3774
823.97	3682
824.11	3580
824.25	3629
824.389	3625
824.529	3709
824.669	3660
824.809	3736
824.949	3755
825.089	3740
825.228	3701
825.368	3599
825.508	3572
825.648	3584
825.787	3618
825.927	3652
826.067	3648
826.206	3629
826.346	3797
826.485	3823
826.625	3869
826.765	3964
826.904	3816
827.044	3595
827.183	3481
827.323	3454
827.462	3485
827.601	3409
827.741	3393
827.88	3454
828.02	3416
828.159	3443
828.298	3485
828.437	3545
828.577	3477
828.716	3637
828.855	3576
828.994	3386
829.134	3405
829.273	3363
829.412	3355
829.551	3355
829.69	3382
829.829	3458
829.968	3523
830.107	3492
830.246	3435
830.385	3405
830.524	3367
830.663	3351
830.802	3291
830.941	3195
831.08	3203
831.219	3283
831.357	3260
831.496	3420
831.635	3256
831.774	3211
831.913	3230
832.051	3138
832.19	3119
832.329	3207
832.467	3138
832.606	3138
832.744	3199
832.883	3165
833.022	3169
833.16	3260
833.299	3317
833.437	3382
833.576	3378
833.714	3405
833.852	3412
833.991	3424
834.129	3500
834.267	3462
834.406	3393
834.544	3420
834.682	3458
834.821	3405
834.959	3561
835.097	3439
835.235	3576
835.373	3515
835.511	3530
835.65	3496
835.788	3481
835.926	3431
836.064	3420
836.202	3439
836.34	3629
836.478	3591
836.615	3549
836.753	3591
836.891	3656
837.029	3641
837.167	3591
837.305	3561
837.443	3584
837.58	3511
837.718	3606
837.856	3572
837.993	3538
838.131	3618
838.269	3591
838.406	3584
838.544	3572
838.681	3469
838.819	3473
838.956	3405
839.094	3428
839.231	3462
839.369	3542
839.506	3747
839.643	3682
839.781	3519
839.918	3488
840.055	3530
840.193	3538
840.33	3561
840.467	3587
840.604	3591
840.742	3808
840.879	3557
841.016	3568
841.153	3629
841.29	3838
841.427	3724
841.564	3728
841.701	3770
841.838	3724
841.975	3728
842.112	3709
842.249	3595
842.385	3618
842.522	3827
842.659	3698
842.796	3690
842.933	3709
843.069	3766
843.206	3732
843.343	3827
843.479	3827
843.616	3838
843.752	3682
843.889	3694
844.025	3857
844.162	3694
844.298	3873
844.435	3797
844.571	3793
844.708	3884
844.844	3994
844.98	4044
845.117	4002
845.253	3975
845.389	3899
845.525	3937
845.661	3975
845.798	3968
845.934	4036
846.07	3979
846.206	4067
846.342	4120
846.478	4025
846.614	3994
846.75	3945
846.886	3953
847.022	4055
847.158	3949
847.294	4025
847.429	3979
847.565	4025
847.701	4207
847.837	3899
847.972	3865
848.108	3979
848.244	4002
848.379	3857
848.515	3831
848.65	3831
848.786	3831
848.921	3888
849.057	3903
849.192	3960
849.328	3876
849.463	3899
849.598	3869
849.734	3865
849.869	3850
850.004	3793
850.14	3846
850.275	3770
850.41	3770
850.545	3728
850.68	3781
850.815	3846
850.95	3808
851.085	3918
851.22	3873
851.355	3854
851.49	3812
851.625	3819
851.76	3804
851.895	3728
852.03	3736
852.165	3861
852.299	3873
852.434	3903
852.569	3876
852.703	3880
852.838	3934
852.973	4013
853.107	4029
853.242	3956
853.376	3884
853.511	3808
853.645	3854
853.78	3991
853.914	3903
854.048	3930
854.183	3861
854.317	3941
854.451	4082
854.585	3998
854.72	3953
854.854	4002
854.988	3968
855.122	3994
855.256	3911
855.39	4059
855.524	4166
855.658	4147
855.792	4112
855.926	4162
856.06	4185
856.194	4188
856.327	4169
856.461	4158
856.595	4181
856.729	4207
856.862	4322
856.996	4291
857.13	4344
857.263	4356
857.397	4344
857.53	4295
857.664	4322
857.797	4459
857.931	4459
858.064	4394
858.197	4478
858.331	4428
858.464	4451
858.597	4356
858.731	4402
858.864	4512
858.997	4459
859.13	4489
859.263	4523
859.396	4569
859.529	4554
859.662	4550
859.795	4546
859.928	4592
860.061	4694
860.194	4748
860.327	4645
860.46	4660
860.592	4710
860.725	4793
860.858	4752
860.99	4729
861.123	4668
861.256	4702
861.388	4805
861.521	5292
861.653	4763
861.786	4694
861.918	4771
862.05	4801
862.183	4870
862.315	4927
862.447	4923
862.58	4919
862.712	4786
862.844	4763
862.976	4866
863.108	4858
863.24	5212
863.372	4850
863.504	4885
863.636	4881
863.768	4961
863.9	4934
864.032	4938
864.164	4984
864.296	5045
864.428	5086
864.559	5132
864.691	5113
864.823	5109
864.954	5159
865.086	5189
865.217	5121
865.349	5132
865.48	5151
865.612	5185
865.743	5326
865.875	5193
866.006	5239
866.137	5220
866.269	5261
866.4	5269
866.531	5250
866.662	5261
866.793	5269
866.924	5261
867.055	5364
867.186	5357
867.317	5318
867.448	5353
867.579	5372
867.71	5322
867.841	5429
867.972	5471
868.103	5512
868.233	5585
868.364	5532
868.495	5539
868.625	5741
868.756	5817
868.886	5707
869.017	5767
869.147	5836
869.278	5904
869.408	5824
869.539	5828
869.669	5958
869.799	5961
869.929	5980
870.06	6019
870.19	6209
870.32	6167
870.45	6266
870.58	6376
870.71	6445
870.84	6509
870.97	6452
871.1	6483
871.23	6604
871.36	6734
871.489	6662
871.619	6791
871.749	6901
871.879	6875
872.008	7027
872.138	6966
872.267	7023
872.397	7046
872.526	6989
872.656	7099
872.785	7255
872.915	7411
873.044	7544
873.173	7662
873.303	7670
873.432	7700
873.561	7826
873.69	7875
873.819	8096
873.948	8180
874.077	8267
874.206	8343
874.335	8507
874.464	8701
874.593	8872
874.722	8880
874.851	9104
874.979	9245
875.108	9367
875.237	9454
875.365	9458
875.494	9694
875.623	9850
875.751	9823
875.88	9941
876.008	10078
876.136	10318
876.265	10554
876.393	10702
876.521	10748
876.65	10805
876.778	10858
876.906	10900
877.034	11003
877.162	11079
877.29	11208
877.418	11360
877.546	11349
877.674	11448
877.802	11463
877.93	11543
878.058	11596
878.185	11562
878.313	11684
878.441	11771
878.568	11653
878.696	11756
878.824	11893
878.951	11935
879.079	12034
879.206	12178
879.333	12030
879.461	11980
879.588	12068
879.715	12171
879.842	12136
879.97	12091
880.097	11870
880.224	11863
880.351	11920
880.478	11901
880.605	11866
880.732	11798
880.859	11988
880.986	11775
881.112	11824
881.239	11798
881.366	11676
881.493	11604
881.619	11551
881.746	11566
881.872	11627
881.999	11478
882.125	11512
882.252	11581
882.378	11558
882.505	11573
882.631	11421
882.757	11360
882.883	11368
883.01	11288
883.136	11254
883.262	11151
883.388	11056
883.514	11151
883.64	11178
883.766	11204
883.892	10949
884.018	11052
884.143	11140
884.269	11029
884.395	10820
884.52	10809
884.646	10854
884.772	10641
884.897	10714
885.023	10710
885.148	10752
885.274	10786
885.399	10763
885.524	10637
885.65	10558
885.775	10565
885.9	10588
886.025	10592
886.15	10554
886.275	10436
886.4	10455
886.525	10451
886.65	10405
886.775	10390
886.9	10497
887.025	10527
887.149	10375
887.274	10284
887.399	10261
887.523	10086
887.648	10101
887.773	10154
887.897	10284
888.021	10200
888.146	10162
888.27	10223
888.395	10306
888.519	10253
888.643	10158
888.767	10284
888.891	10090
889.015	10010
889.139	9945
889.263	9934
889.387	10055
889.511	10211
889.635	10101
889.759	9994
889.883	9945
890.006	10063
890.13	10040
890.254	10010
890.377	9983
890.501	9861
890.624	9903
890.748	9930
890.871	9850
890.995	9766
891.118	9736
891.241	9736
891.364	9740
891.488	9781
891.611	9705
891.734	9755
891.857	9793
891.98	9759
892.103	9751
892.226	9720
892.349	9686
892.471	9530
892.594	9656
892.717	9603
892.839	9610
892.962	9599
893.085	9682
893.207	9629
893.33	9534
893.452	9557
893.575	9614
893.697	9500
893.819	9587
893.941	9660
894.064	9614
894.186	9477
894.308	9378
894.43	9545
894.552	9591
894.674	9507
894.796	9428
894.918	9473
895.04	9344
895.161	9382
895.283	9431
895.405	9226
895.526	9272
895.648	9268
895.769	9245
895.891	9245
896.012	9268
896.134	9253
896.255	9138
896.376	9173
896.498	9195
896.619	9154
896.74	9116
896.861	9127
896.982	9336
897.103	9317
897.224	9203
897.345	8979
897.466	8971
897.587	9039
897.708	9093
897.828	9017
897.949	8979
898.07	8834
898.19	8872
898.311	9032
898.431	8876
898.552	8975
898.672	8918
898.792	9039
898.913	8883
899.033	8845
899.153	8712
899.273	8754
899.393	8712
899.513	8792
899.633	8788
899.753	8792
899.873	8659
899.993	8716
900.113	8731
900.232	8682
900.352	8705
900.472	8606
900.591	8518
900.711	8651
900.83	8549
900.95	8640
901.069	8663
901.189	8571
901.308	8465
901.427	8469
901.546	8412
901.665	8526
901.784	8492
901.904	8377
902.023	8351
902.141	8259
902.26	8267
902.379	8366
902.498	8290
902.617	8259
902.735	8324
902.854	8282
902.973	8313
903.091	8214
903.21	8142
903.328	8176
903.446	8123
903.565	8065
903.683	8081
903.801	8027
903.919	8119
904.038	8161
904.156	8100
904.274	8062
904.392	7974
904.51	8008
904.627	8012
904.745	8111
904.863	8096
904.981	7993
905.098	7917
905.216	7864
905.334	7909
905.451	7925
905.569	7894
905.686	7967
905.803	7928
905.921	7803
906.038	7947
906.155	7803
906.272	7750
906.389	7772
906.506	7609
906.623	7681
906.74	7601
906.857	7540
906.974	7590
907.091	7647
907.208	7708
907.324	7628
907.441	7582
907.557	7518
907.674	7445
907.79	7384
907.907	7369
908.023	7480
908.139	7441
908.256	7396
908.372	7350
908.488	7312
908.604	7305
908.72	7232
908.836	7324
908.952	7301
909.068	7278
909.184	7339
909.3	7247
909.415	7308
909.531	7270
909.647	7114
909.762	7175
909.878	7103
909.993	7133
910.108	7110
910.224	7110
910.339	7190
910.454	7122
910.57	7057
910.685	6939
910.8	7164
910.915	7137
911.03	6985
911.145	6947
911.259	6890
911.374	6916
911.489	6863
911.604	6814
911.718	6662
911.833	6753
911.947	6677
912.062	6547
912.176	6662
912.291	6745
912.405	6707
912.519	6833
912.633	6848
912.748	6681
912.862	6730
912.976	6574
913.09	6498
913.204	6604
913.318	6639
913.431	6703
913.545	6639
913.659	6692
913.772	6650
913.886	6559
914	6486
914.113	6585
914.226	6639
914.34	6654
914.453	6544
914.566	6563
914.68	6528
914.793	6566
914.906	6426
915.019	6464
915.132	6365
915.245	6483
915.358	6475
915.47	6414
915.583	6452
915.696	6509
915.809	6555
915.921	6525
916.034	6429
916.146	6388
916.259	6445
916.371	6506
916.483	6471
916.595	6410
916.708	6388
916.82	6429
916.932	6376
917.044	6426
917.156	6372
917.268	6361
917.38	6300
917.491	6319
917.603	6391
917.715	6391
917.826	6399
917.938	6296
918.049	6289
918.161	6311
918.272	6452
918.384	6452
918.495	6327
918.606	6304
918.717	6254
918.828	6258
918.939	6281
919.05	6239
919.161	6273
919.272	6171
919.383	6205
919.494	6311
919.604	6388
919.715	6331
919.826	6228
919.936	6273
920.047	6388
920.157	6334
920.267	6437
920.378	6346
920.488	6296
920.598	6479
920.708	6593
920.818	6494
920.928	6452
921.038	6585
921.148	6623
921.258	6296
921.368	6281
921.477	6194
921.587	6194
921.697	6133
921.806	6270
921.916	6064
922.025	5973
922.134	5950
922.244	5912
922.353	5969
922.462	5870
922.571	5836
922.68	5741
922.789	5684
922.898	5691
923.007	5638
923.116	5684
923.224	5672
923.333	5695
923.442	5630
923.55	5573
923.659	5623
923.767	5657
923.876	5577
923.984	5585
924.092	5505
924.201	5539
924.309	5570
924.417	5585
924.525	5535
924.633	5490
924.741	6334
924.849	5379
924.956	5474
925.064	5353
925.172	5292
925.279	5341
925.387	5360
925.494	5341
925.602	5410
925.709	5372
925.816	5258
925.924	5379
926.031	5376
926.138	5330
926.245	5368
926.352	5242
926.459	5353
926.566	5330
926.673	5246
926.779	5136
926.886	5117
926.993	5045
927.099	5052
927.206	4953
927.312	4915
927.419	5006
927.525	5037
927.631	4991
927.737	4957
927.843	4900
927.95	4801
928.056	4831
928.162	4831
928.267	4877
928.373	5269
928.479	4866
928.585	4641
928.69	4778
928.796	4801
928.901	4683
929.007	4561
929.112	4656
929.218	4607
929.323	4645
929.428	4599
929.533	4653
929.638	4504
929.743	4538
929.848	4561
929.953	4527
930.058	4443
930.163	4386
930.267	4360
930.372	4451
930.477	4367
930.581	4462
930.685	4329
930.79	4265
930.894	4295
930.998	4280
931.103	4390
931.207	4074
931.311	4074
931.415	4051
931.519	3930
931.623	4002
