Data from glass_V78500241_1861.txt Node
Date: Wed Sep 01 19:27:24 CST 2021
User: usil
Spectrometer: V785-0024
Trigger mode: 0
Integration Time (sec): 4.000000E-1
Scans to average: 1
Nonlinearity correction enabled: false
Boxcar width: 0
Storing dark spectrum: false
XAxis mode: Wavelengths
Number of Pixels in Spectrum: 1024
>>>>>Begin Spectral Data<<<<<
801.071	3743
801.214	3770
801.356	3679
801.499	3747
801.641	3755
801.783	3823
801.926	3838
802.068	3793
802.211	3854
802.353	3888
802.496	3831
802.638	3907
802.78	3899
802.923	3922
803.065	3873
803.208	3876
803.35	3865
803.492	3934
803.635	3907
803.777	3831
803.919	3907
804.061	4147
804.204	3960
804.346	3953
804.488	3937
804.63	4021
804.773	3968
804.915	3998
805.057	4120
805.199	4078
805.341	4120
805.483	4139
805.626	4124
805.768	4120
805.91	4230
806.052	4204
806.194	4219
806.336	4322
806.478	4177
806.62	4196
806.762	4207
806.904	4253
807.046	4310
807.188	4204
807.33	4150
807.472	4219
807.614	4169
807.756	4265
807.898	4207
808.04	4181
808.182	4261
808.324	4280
808.465	4356
808.607	4474
808.749	4428
808.891	4443
809.033	4481
809.174	4352
809.316	4246
809.458	4200
809.6	4112
809.741	4154
809.883	4131
810.025	4238
810.166	4215
810.308	4234
810.45	4227
810.591	4219
810.733	4341
810.875	4535
811.016	4835
811.158	5151
811.299	5284
811.441	5288
811.582	5052
811.724	4733
811.865	4421
812.007	4466
812.148	4428
812.29	4390
812.431	4402
812.573	4413
812.714	4341
812.855	4436
812.997	4436
813.138	4417
813.279	4394
813.421	4421
813.562	4383
813.703	4325
813.845	4291
813.986	4268
814.127	4219
814.268	4272
814.41	4268
814.551	4246
814.692	4322
814.833	4261
814.974	4318
815.115	4360
815.256	4257
815.397	4234
815.539	4246
815.68	4181
815.821	4215
815.962	4329
816.103	4287
816.244	4257
816.385	4230
816.526	4291
816.666	4227
816.807	4109
816.948	4181
817.089	4139
817.23	4074
817.371	4071
817.512	4086
817.653	4120
817.793	4025
817.934	4051
818.075	4059
818.216	4101
818.356	4063
818.497	3994
818.638	3884
818.778	3911
818.919	3899
819.06	3876
819.2	3846
819.341	3835
819.481	3835
819.622	3873
819.762	4040
819.903	3949
820.043	3835
820.184	3827
820.324	3808
820.465	3884
820.605	3850
820.746	3827
820.886	3800
821.026	3907
821.167	3922
821.307	3956
821.447	3987
821.588	3949
821.728	3964
821.868	3926
822.008	3861
822.149	3892
822.289	3930
822.429	3770
822.569	3751
822.709	3789
822.849	3675
822.99	3660
823.13	3713
823.27	3797
823.41	3724
823.55	3728
823.69	3747
823.83	3770
823.97	3667
824.11	3595
824.25	3591
824.389	3606
824.529	3667
824.669	3648
824.809	3713
824.949	3766
825.089	3724
825.228	3785
825.368	3572
825.508	3542
825.648	3572
825.787	3576
825.927	3622
826.067	3599
826.206	3652
826.346	3778
826.485	3804
826.625	3869
826.765	3934
826.904	3827
827.044	3603
827.183	3519
827.323	3424
827.462	3458
827.601	3428
827.741	3416
827.88	3405
828.02	3370
828.159	3443
828.298	3496
828.437	3561
828.577	3485
828.716	3625
828.855	3511
828.994	3374
829.134	3401
829.273	3409
829.412	3351
829.551	3310
829.69	3348
829.829	3443
829.968	3473
830.107	3428
830.246	3435
830.385	3313
830.524	3348
830.663	3294
830.802	3279
830.941	3176
831.08	3218
831.219	3253
831.357	3264
831.496	3386
831.635	3180
831.774	3199
831.913	3226
832.051	3116
832.19	3123
832.329	3253
832.467	3119
832.606	3089
832.744	3161
832.883	3214
833.022	3195
833.16	3249
833.299	3272
833.437	3378
833.576	3363
833.714	3367
833.852	3412
833.991	3469
834.129	3454
834.267	3443
834.406	3363
834.544	3435
834.682	3405
834.821	3401
834.959	3584
835.097	3420
835.235	3507
835.373	3450
835.511	3515
835.65	3466
835.788	3481
835.926	3363
836.064	3367
836.202	3355
836.34	3561
836.478	3622
836.615	3580
836.753	3633
836.891	3644
837.029	3648
837.167	3576
837.305	3538
837.443	3557
837.58	3488
837.718	3603
837.856	3492
837.993	3504
838.131	3629
838.269	3656
838.406	3580
838.544	3561
838.681	3473
838.819	3458
838.956	3370
839.094	3397
839.231	3443
839.369	3530
839.506	3709
839.643	3584
839.781	3492
839.918	3439
840.055	3496
840.193	3523
840.33	3492
840.467	3576
840.604	3629
840.742	3766
840.879	3549
841.016	3557
841.153	3572
841.29	3781
841.427	3705
841.564	3724
841.701	3736
841.838	3709
841.975	3701
842.112	3713
842.249	3637
842.385	3625
842.522	3857
842.659	3686
842.796	3660
842.933	3698
843.069	3694
843.206	3705
843.343	3823
843.479	3812
843.616	3800
843.752	3682
843.889	3633
844.025	3857
844.162	3686
844.298	3850
844.435	3808
844.571	3778
844.708	3888
844.844	3975
844.98	3991
845.117	4017
845.253	3918
845.389	3873
845.525	3926
845.661	3941
845.798	3911
845.934	3972
846.07	3937
846.206	4067
846.342	4112
846.478	4071
846.614	3934
846.75	3937
846.886	3918
847.022	4029
847.158	3972
847.294	4006
847.429	4051
847.565	4021
847.701	4238
847.837	3884
847.972	3896
848.108	4002
848.244	3949
848.379	3850
848.515	3827
848.65	3800
848.786	3865
848.921	3903
849.057	3918
849.192	3941
849.328	3896
849.463	3915
849.598	3854
849.734	3854
849.869	3797
850.004	3823
850.14	3759
850.275	3743
850.41	3766
850.545	3717
850.68	3835
850.815	3812
850.95	3823
851.085	3922
851.22	3865
851.355	3800
851.49	3785
851.625	3793
851.76	3766
851.895	3728
852.03	3736
852.165	3816
852.299	3816
852.434	3915
852.569	3880
852.703	3861
852.838	3953
852.973	4029
853.107	4036
853.242	3861
853.376	3884
853.511	3785
853.645	3846
853.78	3979
853.914	3922
854.048	3903
854.183	3861
854.317	3934
854.451	4082
854.585	3934
854.72	3884
854.854	4010
854.988	3926
855.122	4013
855.256	3926
855.39	4036
855.524	4093
855.658	4078
855.792	4071
855.926	4105
856.06	4173
856.194	4207
856.327	4128
856.461	4082
856.595	4128
856.729	4181
856.862	4276
856.996	4230
857.13	4284
857.263	4306
857.397	4344
857.53	4261
857.664	4348
857.797	4413
857.931	4413
858.064	4379
858.197	4428
858.331	4386
858.464	4398
858.597	4333
858.731	4432
858.864	4443
858.997	4455
859.13	4531
859.263	4493
859.396	4584
859.529	4470
859.662	4531
859.795	4512
859.928	4565
860.061	4725
860.194	4721
860.327	4683
860.46	4637
860.592	4698
860.725	4748
860.858	4752
860.99	4683
861.123	4683
861.256	4717
861.388	4793
861.521	5387
861.653	4774
861.786	4679
861.918	4736
862.05	4786
862.183	4835
862.315	4850
862.447	4919
862.58	4889
862.712	4809
862.844	4763
862.976	4870
863.108	4847
863.24	5269
863.372	4778
863.504	4915
863.636	4923
863.768	5003
863.9	4934
864.032	4911
864.164	4938
864.296	5060
864.428	5079
864.559	5048
864.691	5132
864.823	5128
864.954	5079
865.086	5166
865.217	5109
865.349	5105
865.48	5128
865.612	5166
865.743	5337
865.875	5231
866.006	5174
866.137	5242
866.269	5242
866.4	5231
866.531	5280
866.662	5242
866.793	5277
866.924	5269
867.055	5357
867.186	5250
867.317	5330
867.448	5345
867.579	5372
867.71	5391
867.841	5387
867.972	5440
868.103	5444
868.233	5444
868.364	5505
868.495	5566
868.625	5668
868.756	5794
868.886	5676
869.017	5752
869.147	5874
869.278	5817
869.408	5802
869.539	5805
869.669	5942
869.799	5954
869.929	5984
870.06	5992
870.19	6182
870.32	6220
870.45	6232
870.58	6331
870.71	6479
870.84	6494
870.97	6433
871.1	6467
871.23	6620
871.36	6642
871.489	6688
871.619	6734
871.749	6852
871.879	6886
872.008	6970
872.138	6928
872.267	6973
872.397	6989
872.526	7004
872.656	7091
872.785	7209
872.915	7381
873.044	7491
873.173	7544
873.303	7647
873.432	7807
873.561	7898
873.69	7906
873.819	8020
873.948	8248
874.077	8290
874.206	8336
874.335	8461
874.464	8689
874.593	8792
874.722	8849
874.851	9127
874.979	9157
875.108	9260
875.237	9374
875.365	9466
875.494	9682
875.623	9865
875.751	9854
875.88	10036
876.008	10143
876.136	10211
876.265	10466
876.393	10603
876.521	10752
876.65	10904
876.778	10831
876.906	10858
877.034	11014
877.162	11079
877.29	11181
877.418	11250
877.546	11429
877.674	11448
877.802	11455
877.93	11608
878.058	11482
878.185	11554
878.313	11676
878.441	11817
878.568	11634
878.696	11775
878.824	11741
878.951	11935
879.079	12022
879.206	12155
879.333	12053
879.461	11980
879.588	12095
879.715	12079
879.842	12186
879.97	12015
880.097	11882
880.224	11946
880.351	11809
880.478	11836
880.605	11863
880.732	11882
880.859	11950
880.986	11794
881.112	11878
881.239	11668
881.366	11726
881.493	11592
881.619	11520
881.746	11551
881.872	11543
881.999	11539
882.125	11509
882.252	11528
882.378	11566
882.505	11535
882.631	11395
882.757	11376
882.883	11303
883.01	11250
883.136	11113
883.262	11166
883.388	11102
883.514	11136
883.64	11166
883.766	11071
883.892	11010
884.018	10980
884.143	11041
884.269	11117
884.395	10900
884.52	10831
884.646	10725
884.772	10672
884.897	10588
885.023	10691
885.148	10656
885.274	10721
885.399	10683
885.524	10588
885.65	10618
885.775	10645
885.9	10516
886.025	10596
886.15	10523
886.275	10470
886.4	10409
886.525	10390
886.65	10337
886.775	10337
886.9	10466
887.025	10485
887.149	10318
887.274	10230
887.399	10227
887.523	10109
887.648	10169
887.773	10093
887.897	10200
888.021	10234
888.146	10071
888.27	10173
888.395	10147
888.519	10181
888.643	10207
888.767	10238
888.891	10120
889.015	10032
889.139	10017
889.263	9956
889.387	10078
889.511	10124
889.635	10040
889.759	9945
889.883	10017
890.006	10051
890.13	10078
890.254	10010
890.377	9983
890.501	9812
890.624	9869
890.748	9895
890.871	9888
890.995	9728
891.118	9728
891.241	9728
891.364	9732
891.488	9869
891.611	9728
891.734	9785
891.857	9762
891.98	9740
892.103	9762
892.226	9690
892.349	9713
892.471	9515
892.594	9595
892.717	9648
892.839	9557
892.962	9572
893.085	9663
893.207	9614
893.33	9561
893.452	9534
893.575	9629
893.697	9481
893.819	9564
893.941	9652
894.064	9587
894.186	9431
894.308	9378
894.43	9542
894.552	9576
894.674	9488
894.796	9382
894.918	9378
895.04	9348
895.161	9397
895.283	9325
895.405	9188
895.526	9275
895.648	9207
895.769	9249
895.891	9313
896.012	9249
896.134	9275
896.255	9199
896.376	9127
896.498	9176
896.619	9150
896.74	9043
896.861	9123
896.982	9283
897.103	9313
897.224	9180
897.345	8990
897.466	8979
897.587	9032
897.708	9051
897.828	9020
897.949	8982
898.07	8845
898.19	8887
898.311	8998
898.431	8921
898.552	8956
898.672	9005
898.792	8986
898.913	8887
899.033	8758
899.153	8750
899.273	8697
899.393	8731
899.513	8708
899.633	8716
899.753	8655
899.873	8610
899.993	8731
900.113	8693
900.232	8750
900.352	8644
900.472	8579
900.591	8571
900.711	8644
900.83	8587
900.95	8689
901.069	8708
901.189	8598
901.308	8454
901.427	8419
901.546	8415
901.665	8488
901.784	8495
901.904	8404
902.023	8237
902.141	8168
902.26	8191
902.379	8229
902.498	8271
902.617	8259
902.735	8305
902.854	8290
902.973	8199
903.091	8100
903.21	8161
903.328	8100
903.446	8161
903.565	8020
903.683	8119
903.801	8027
903.919	8168
904.038	8100
904.156	7951
904.274	8100
904.392	8058
904.51	8046
904.627	8046
904.745	8054
904.863	8096
904.981	7947
905.098	7833
905.216	7860
905.334	7890
905.451	7864
905.569	7852
905.686	7928
905.803	7894
905.921	7753
906.038	7909
906.155	7799
906.272	7738
906.389	7712
906.506	7632
906.623	7597
906.74	7594
906.857	7563
906.974	7563
907.091	7643
907.208	7795
907.324	7670
907.441	7613
907.557	7468
907.674	7453
907.79	7346
907.907	7343
908.023	7514
908.139	7426
908.256	7354
908.372	7327
908.488	7343
908.604	7316
908.72	7213
908.836	7278
908.952	7240
909.068	7236
909.184	7339
909.3	7266
909.415	7285
909.531	7266
909.647	7164
909.762	7103
909.878	7103
909.993	7107
910.108	7084
910.224	6996
910.339	7122
910.454	7008
910.57	6962
910.685	6935
910.8	7156
910.915	7080
911.03	7008
911.145	6916
911.259	6905
911.374	6840
911.489	6875
911.604	6798
911.718	6783
911.833	6722
911.947	6585
912.062	6620
912.176	6719
912.291	6681
912.405	6719
912.519	6783
912.633	6863
912.748	6677
912.862	6692
912.976	6642
913.09	6521
913.204	6547
913.318	6601
913.431	6673
913.545	6665
913.659	6692
913.772	6578
913.886	6620
914	6585
914.113	6608
914.226	6639
914.34	6662
914.453	6509
914.566	6620
914.68	6490
914.793	6559
914.906	6407
915.019	6391
915.132	6338
915.245	6395
915.358	6452
915.47	6418
915.583	6456
915.696	6448
915.809	6498
915.921	6589
916.034	6471
916.146	6445
916.259	6388
916.371	6456
916.483	6437
916.595	6414
916.708	6471
916.82	6388
916.932	6395
917.044	6437
917.156	6418
917.268	6311
917.38	6342
917.491	6311
917.603	6384
917.715	6346
917.826	6422
917.938	6365
918.049	6251
918.161	6331
918.272	6490
918.384	6395
918.495	6338
918.606	6277
918.717	6190
918.828	6235
918.939	6273
919.05	6182
919.161	6254
919.272	6121
919.383	6175
919.494	6258
919.604	6441
919.715	6277
919.826	6194
919.936	6224
920.047	6331
920.157	6190
920.267	6452
920.378	6292
920.488	6262
920.598	6452
920.708	6555
920.818	6414
920.928	6502
921.038	6631
921.148	6631
921.258	6369
921.368	6289
921.477	6205
921.587	6194
921.697	6026
921.806	6171
921.916	6026
922.025	5969
922.134	5901
922.244	5863
922.353	5920
922.462	5878
922.571	5840
922.68	5760
922.789	5642
922.898	5691
923.007	5596
923.116	5684
923.224	5688
923.333	5619
923.442	5566
923.55	5570
923.659	5566
923.767	5573
923.876	5528
923.984	5615
924.092	5505
924.201	5615
924.309	5501
924.417	5558
924.525	5505
924.633	5493
924.741	6266
924.849	5349
924.956	5474
925.064	5357
925.172	5273
925.279	5330
925.387	5353
925.494	5345
925.602	5429
925.709	5353
925.816	5326
925.924	5288
926.031	5372
926.138	5299
926.245	5292
926.352	5178
926.459	5345
926.566	5284
926.673	5204
926.779	5151
926.886	5105
926.993	5018
927.099	4999
927.206	4942
927.312	4942
927.419	4995
927.525	4980
927.631	5018
927.737	4858
927.843	4843
927.95	4771
928.056	4881
928.162	4850
928.267	4854
928.373	5269
928.479	4828
928.585	4672
928.69	4793
928.796	4767
928.901	4679
929.007	4569
929.112	4691
929.218	4649
929.323	4596
929.428	4580
929.533	4698
929.638	4550
929.743	4512
929.848	4516
929.953	4546
930.058	4398
930.163	4341
930.267	4333
930.372	4440
930.477	4287
930.581	4432
930.685	4333
930.79	4276
930.894	4291
930.998	4268
931.103	4413
931.207	4128
931.311	3991
931.415	4078
931.519	3964
931.623	3960
