Data from glass_V78500241_1726.txt Node
Date: Wed Sep 01 19:26:27 CST 2021
User: usil
Spectrometer: V785-0024
Trigger mode: 0
Integration Time (sec): 4.000000E-1
Scans to average: 1
Nonlinearity correction enabled: false
Boxcar width: 0
Storing dark spectrum: false
XAxis mode: Wavelengths
Number of Pixels in Spectrum: 1024
>>>>>Begin Spectral Data<<<<<
801.071	3774
801.214	3736
801.356	3690
801.499	3732
801.641	3705
801.783	3743
801.926	3865
802.068	3789
802.211	3812
802.353	3899
802.496	3850
802.638	3926
802.78	3880
802.923	3884
803.065	3922
803.208	3842
803.35	3896
803.492	3869
803.635	3903
803.777	3804
803.919	3865
804.061	4173
804.204	3964
804.346	3956
804.488	3945
804.63	3983
804.773	3987
804.915	4051
805.057	4128
805.199	4029
805.341	4093
805.483	4120
805.626	4131
805.768	4124
805.91	4204
806.052	4246
806.194	4188
806.336	4314
806.478	4230
806.62	4173
806.762	4173
806.904	4219
807.046	4371
807.188	4204
807.33	4185
807.472	4253
807.614	4181
807.756	4322
807.898	4204
808.04	4227
808.182	4310
808.324	4325
808.465	4402
808.607	4440
808.749	4493
808.891	4447
809.033	4531
809.174	4371
809.316	4249
809.458	4246
809.6	4177
809.741	4162
809.883	4147
810.025	4246
810.166	4230
810.308	4238
810.45	4276
810.591	4215
810.733	4303
810.875	4531
811.016	4816
811.158	5113
811.299	5307
811.441	5239
811.582	5083
811.724	4710
811.865	4455
812.007	4443
812.148	4443
812.29	4432
812.431	4383
812.573	4409
812.714	4363
812.855	4432
812.997	4443
813.138	4424
813.279	4409
813.421	4363
813.562	4413
813.703	4280
813.845	4348
813.986	4261
814.127	4204
814.268	4215
814.41	4291
814.551	4211
814.692	4310
814.833	4257
814.974	4272
815.115	4356
815.256	4268
815.397	4238
815.539	4246
815.68	4219
815.821	4215
815.962	4272
816.103	4257
816.244	4234
816.385	4207
816.526	4280
816.666	4227
816.807	4101
816.948	4154
817.089	4166
817.23	4074
817.371	4082
817.512	4116
817.653	4078
817.793	4017
817.934	4063
818.075	4112
818.216	4063
818.356	4032
818.497	4010
818.638	3884
818.778	3896
818.919	3884
819.06	3884
819.2	3937
819.341	3861
819.481	3876
819.622	3888
819.762	3991
819.903	3953
820.043	3899
820.184	3808
820.324	3812
820.465	3857
820.605	3823
820.746	3835
820.886	3789
821.026	3937
821.167	3930
821.307	3987
821.447	3968
821.588	3945
821.728	3918
821.868	3949
822.008	3896
822.149	3926
822.289	3918
822.429	3781
822.569	3736
822.709	3751
822.849	3625
822.99	3690
823.13	3789
823.27	3781
823.41	3682
823.55	3724
823.69	3740
823.83	3747
823.97	3686
824.11	3618
824.25	3584
824.389	3671
824.529	3637
824.669	3587
824.809	3717
824.949	3762
825.089	3736
825.228	3713
825.368	3606
825.508	3538
825.648	3572
825.787	3618
825.927	3637
826.067	3652
826.206	3679
826.346	3762
826.485	3857
826.625	3876
826.765	3979
826.904	3850
827.044	3595
827.183	3545
827.323	3420
827.462	3523
827.601	3420
827.741	3439
827.88	3481
828.02	3386
828.159	3420
828.298	3500
828.437	3511
828.577	3462
828.716	3599
828.855	3481
828.994	3405
829.134	3336
829.273	3412
829.412	3329
829.551	3348
829.69	3370
829.829	3439
829.968	3507
830.107	3428
830.246	3443
830.385	3405
830.524	3321
830.663	3313
830.802	3272
830.941	3241
831.08	3226
831.219	3268
831.357	3264
831.496	3424
831.635	3256
831.774	3157
831.913	3176
832.051	3157
832.19	3176
832.329	3233
832.467	3119
832.606	3085
832.744	3165
832.883	3241
833.022	3207
833.16	3256
833.299	3306
833.437	3344
833.576	3359
833.714	3397
833.852	3458
833.991	3447
834.129	3500
834.267	3443
834.406	3348
834.544	3397
834.682	3416
834.821	3401
834.959	3580
835.097	3409
835.235	3534
835.373	3488
835.511	3519
835.65	3447
835.788	3466
835.926	3409
836.064	3389
836.202	3405
836.34	3610
836.478	3637
836.615	3511
836.753	3603
836.891	3644
837.029	3599
837.167	3603
837.305	3500
837.443	3530
837.58	3469
837.718	3572
837.856	3576
837.993	3542
838.131	3576
838.269	3584
838.406	3564
838.544	3542
838.681	3473
838.819	3447
838.956	3355
839.094	3359
839.231	3374
839.369	3504
839.506	3698
839.643	3648
839.781	3523
839.918	3447
840.055	3530
840.193	3545
840.33	3523
840.467	3561
840.604	3629
840.742	3804
840.879	3542
841.016	3530
841.153	3614
841.29	3770
841.427	3732
841.564	3694
841.701	3770
841.838	3724
841.975	3675
842.112	3682
842.249	3610
842.385	3625
842.522	3785
842.659	3698
842.796	3648
842.933	3698
843.069	3671
843.206	3686
843.343	3831
843.479	3812
843.616	3857
843.752	3671
843.889	3663
844.025	3857
844.162	3717
844.298	3823
844.435	3789
844.571	3781
844.708	3903
844.844	3964
844.98	4036
845.117	4048
845.253	3899
845.389	3880
845.525	3991
845.661	3975
845.798	3953
845.934	4029
846.07	3945
846.206	4040
846.342	4139
846.478	4036
846.614	4002
846.75	3968
846.886	3915
847.022	4048
847.158	4017
847.294	4006
847.429	3998
847.565	4013
847.701	4181
847.837	3930
847.972	3838
848.108	3987
848.244	3956
848.379	3869
848.515	3816
848.65	3816
848.786	3816
848.921	3865
849.057	3903
849.192	3945
849.328	3884
849.463	3888
849.598	3884
849.734	3876
849.869	3876
850.004	3751
850.14	3831
850.275	3793
850.41	3724
850.545	3759
850.68	3774
850.815	3797
850.95	3785
851.085	3899
851.22	3884
851.355	3781
851.49	3766
851.625	3785
851.76	3823
851.895	3709
852.03	3717
852.165	3793
852.299	3823
852.434	3888
852.569	3915
852.703	3842
852.838	3926
852.973	3972
853.107	3972
853.242	3918
853.376	3831
853.511	3762
853.645	3842
853.78	4002
853.914	3892
854.048	3892
854.183	3915
854.317	3926
854.451	4097
854.585	3915
854.72	3876
854.854	4112
854.988	3911
855.122	4051
855.256	3945
855.39	4040
855.524	4109
855.658	4078
855.792	4105
855.926	4143
856.06	4173
856.194	4207
856.327	4173
856.461	4109
856.595	4154
856.729	4227
856.862	4227
856.996	4268
857.13	4287
857.263	4352
857.397	4367
857.53	4284
857.664	4360
857.797	4409
857.931	4440
858.064	4405
858.197	4447
858.331	4375
858.464	4356
858.597	4348
858.731	4470
858.864	4455
858.997	4478
859.13	4497
859.263	4558
859.396	4599
859.529	4504
859.662	4489
859.795	4516
859.928	4569
860.061	4649
860.194	4733
860.327	4664
860.46	4656
860.592	4771
860.725	4755
860.858	4820
860.99	4675
861.123	4698
861.256	4626
861.388	4790
861.521	5395
861.653	4706
861.786	4698
861.918	4771
862.05	4778
862.183	4862
862.315	4885
862.447	4934
862.58	4862
862.712	4782
862.844	4763
862.976	4854
863.108	4927
863.24	5277
863.372	4866
863.504	4927
863.636	4915
863.768	4957
863.9	4999
864.032	4953
864.164	4911
864.296	5029
864.428	5075
864.559	5109
864.691	5117
864.823	5155
864.954	5105
865.086	5113
865.217	5128
865.349	5113
865.48	5094
865.612	5220
865.743	5299
865.875	5201
866.006	5216
866.137	5216
866.269	5239
866.4	5261
866.531	5235
866.662	5250
866.793	5311
866.924	5273
867.055	5318
867.186	5330
867.317	5341
867.448	5330
867.579	5368
867.71	5337
867.841	5376
867.972	5444
868.103	5474
868.233	5543
868.364	5532
868.495	5562
868.625	5630
868.756	5828
868.886	5691
869.017	5748
869.147	5832
869.278	5859
869.408	5794
869.539	5786
869.669	5969
869.799	5931
869.929	5946
870.06	5999
870.19	6182
870.32	6232
870.45	6232
870.58	6338
870.71	6456
870.84	6483
870.97	6426
871.1	6464
871.23	6646
871.36	6700
871.489	6684
871.619	6738
871.749	6821
871.879	6882
872.008	6894
872.138	6958
872.267	6977
872.397	7061
872.526	7065
872.656	7137
872.785	7129
872.915	7377
873.044	7533
873.173	7529
873.303	7594
873.432	7712
873.561	7879
873.69	7898
873.819	7986
873.948	8149
874.077	8263
874.206	8317
874.335	8457
874.464	8667
874.593	8872
874.722	8944
874.851	9089
874.979	9237
875.108	9325
875.237	9401
875.365	9447
875.494	9656
875.623	9888
875.751	9857
875.88	10059
876.008	10090
876.136	10348
876.265	10481
876.393	10618
876.521	10752
876.65	10790
876.778	10820
876.906	10843
877.034	10934
877.162	11162
877.29	11117
877.418	11292
877.546	11318
877.674	11471
877.802	11463
877.93	11505
878.058	11520
878.185	11562
878.313	11653
878.441	11752
878.568	11695
878.696	11855
878.824	11824
878.951	11904
879.079	11992
879.206	12197
879.333	12076
879.461	11954
879.588	12068
879.715	12057
879.842	12178
879.97	12064
880.097	11874
880.224	11939
880.351	11870
880.478	11878
880.605	11874
880.732	11893
880.859	12034
880.986	11859
881.112	11878
881.239	11790
881.366	11638
881.493	11585
881.619	11505
881.746	11570
881.872	11532
881.999	11490
882.125	11482
882.252	11592
882.378	11440
882.505	11501
882.631	11398
882.757	11208
882.883	11334
883.01	11235
883.136	11147
883.262	11136
883.388	11052
883.514	11147
883.64	11090
883.766	11105
883.892	11060
884.018	11014
884.143	11094
884.269	11090
884.395	10869
884.52	10778
884.646	10850
884.772	10698
884.897	10645
885.023	10687
885.148	10797
885.274	10801
885.399	10683
885.524	10717
885.65	10592
885.775	10580
885.9	10565
886.025	10630
886.15	10588
886.275	10436
886.4	10367
886.525	10390
886.65	10348
886.775	10348
886.9	10455
887.025	10519
887.149	10382
887.274	10207
887.399	10169
887.523	10181
887.648	10147
887.773	10078
887.897	10196
888.021	10219
888.146	10120
888.27	10219
888.395	10291
888.519	10211
888.643	10154
888.767	10169
888.891	10101
889.015	10074
889.139	9983
889.263	9956
889.387	10093
889.511	10086
889.635	10025
889.759	9964
889.883	9960
890.006	9972
890.13	10105
890.254	9968
890.377	9934
890.501	9911
890.624	9838
890.748	9838
890.871	9766
890.995	9751
891.118	9747
891.241	9720
891.364	9743
891.488	9838
891.611	9736
891.734	9740
891.857	9816
891.98	9778
892.103	9724
892.226	9740
892.349	9603
892.471	9534
892.594	9584
892.717	9572
892.839	9519
892.962	9644
893.085	9641
893.207	9580
893.33	9511
893.452	9507
893.575	9545
893.697	9481
893.819	9523
893.941	9629
894.064	9633
894.186	9405
894.308	9435
894.43	9450
894.552	9523
894.674	9568
894.796	9393
894.918	9393
895.04	9325
895.161	9348
895.283	9336
895.405	9188
895.526	9294
895.648	9294
895.769	9249
895.891	9233
896.012	9264
896.134	9253
896.255	9241
896.376	9123
896.498	9055
896.619	9203
896.74	9100
896.861	9119
896.982	9294
897.103	9302
897.224	9097
897.345	9097
897.466	9005
897.587	8960
897.708	9146
897.828	9066
897.949	8925
898.07	8918
898.19	8921
898.311	9013
898.431	8842
898.552	8921
898.672	9017
898.792	8876
898.913	8929
899.033	8838
899.153	8701
899.273	8629
899.393	8678
899.513	8769
899.633	8750
899.753	8796
899.873	8663
899.993	8712
900.113	8670
900.232	8792
900.352	8667
900.472	8629
900.591	8526
900.711	8590
900.83	8552
900.95	8712
901.069	8625
901.189	8533
901.308	8412
901.427	8355
901.546	8408
901.665	8488
901.784	8549
901.904	8339
902.023	8370
902.141	8187
902.26	8183
902.379	8225
902.498	8161
902.617	8191
902.735	8290
902.854	8244
902.973	8248
903.091	8092
903.21	8168
903.328	8119
903.446	8123
903.565	8077
903.683	8081
903.801	8077
903.919	8111
904.038	8073
904.156	8035
904.274	8077
904.392	7947
904.51	8001
904.627	8050
904.745	8035
904.863	8119
904.981	7932
905.098	7906
905.216	7894
905.334	7860
905.451	7818
905.569	7826
905.686	7940
905.803	7925
905.921	7765
906.038	7822
906.155	7750
906.272	7727
906.389	7700
906.506	7658
906.623	7655
906.74	7567
906.857	7586
906.974	7575
907.091	7582
907.208	7719
907.324	7609
907.441	7601
907.557	7453
907.674	7426
907.79	7400
907.907	7430
908.023	7468
908.139	7434
908.256	7407
908.372	7373
908.488	7396
908.604	7247
908.72	7202
908.836	7225
908.952	7217
909.068	7247
909.184	7297
909.3	7225
909.415	7308
909.531	7259
909.647	7084
909.762	7133
909.878	7133
909.993	7141
910.108	7126
910.224	7050
910.339	7069
910.454	7015
910.57	6958
910.685	6947
910.8	7141
910.915	7137
911.03	6970
911.145	6913
911.259	6852
911.374	6905
911.489	6741
911.604	6802
911.718	6726
911.833	6738
911.947	6673
912.062	6582
912.176	6654
912.291	6688
912.405	6677
912.519	6818
912.633	6829
912.748	6715
912.862	6677
912.976	6620
913.09	6502
913.204	6574
913.318	6597
913.431	6745
913.545	6665
913.659	6726
913.772	6669
913.886	6604
914	6532
914.113	6593
914.226	6623
914.34	6601
914.453	6513
914.566	6608
914.68	6540
914.793	6528
914.906	6399
915.019	6426
915.132	6353
915.245	6403
915.358	6395
915.47	6388
915.583	6441
915.696	6456
915.809	6498
915.921	6578
916.034	6418
916.146	6403
916.259	6357
916.371	6479
916.483	6525
916.595	6369
916.708	6441
916.82	6433
916.932	6414
917.044	6410
917.156	6456
917.268	6327
917.38	6338
917.491	6308
917.603	6357
917.715	6414
917.826	6429
917.938	6292
918.049	6300
918.161	6311
918.272	6452
918.384	6490
918.495	6258
918.606	6311
918.717	6175
918.828	6289
918.939	6296
919.05	6209
919.161	6171
919.272	6106
919.383	6178
919.494	6273
919.604	6384
919.715	6289
919.826	6247
919.936	6243
920.047	6361
920.157	6300
920.267	6509
920.378	6285
920.488	6266
920.598	6403
920.708	6563
920.818	6471
920.928	6445
921.038	6559
921.148	6589
921.258	6357
921.368	6308
921.477	6235
921.587	6209
921.697	6091
921.806	6125
921.916	6045
922.025	5973
922.134	5920
922.244	5847
922.353	5931
922.462	5840
922.571	5802
922.68	5722
922.789	5718
922.898	5722
923.007	5623
923.116	5699
923.224	5649
923.333	5676
923.442	5615
923.55	5532
923.659	5547
923.767	5619
923.876	5558
923.984	5608
924.092	5501
924.201	5528
924.309	5558
924.417	5589
924.525	5493
924.633	5440
924.741	6266
924.849	5406
924.956	5474
925.064	5315
925.172	5315
925.279	5273
925.387	5391
925.494	5227
925.602	5334
925.709	5368
925.816	5261
925.924	5299
926.031	5330
926.138	5315
926.245	5299
926.352	5258
926.459	5258
926.566	5326
926.673	5246
926.779	5113
926.886	5151
926.993	5086
927.099	5022
927.206	4968
927.312	4961
927.419	5010
927.525	4972
927.631	4957
927.737	4927
927.843	4850
927.95	4759
928.056	4786
928.162	4786
928.267	4900
928.373	5326
928.479	4816
928.585	4656
928.69	4729
928.796	4759
928.901	4649
929.007	4554
929.112	4691
929.218	4641
929.323	4580
929.428	4573
929.533	4725
929.638	4497
929.743	4531
929.848	4565
929.953	4516
930.058	4417
930.163	4383
930.267	4322
930.372	4421
930.477	4314
930.581	4451
930.685	4356
930.79	4223
930.894	4291
930.998	4276
931.103	4371
931.207	4101
931.311	4086
931.415	4013
931.519	3975
931.623	3968
