Data from glass_V78500241_1031.txt Node
Date: Wed Sep 01 19:21:38 CST 2021
User: usil
Spectrometer: V785-0024
Trigger mode: 0
Integration Time (sec): 4.000000E-1
Scans to average: 1
Nonlinearity correction enabled: false
Boxcar width: 0
Storing dark spectrum: false
XAxis mode: Wavelengths
Number of Pixels in Spectrum: 1024
>>>>>Begin Spectral Data<<<<<
801.071	3755
801.214	3781
801.356	3724
801.499	3766
801.641	3770
801.783	3793
801.926	3892
802.068	3831
802.211	3888
802.353	3926
802.496	3827
802.638	3873
802.78	3934
802.923	3907
803.065	3876
803.208	3884
803.35	3926
803.492	3930
803.635	3915
803.777	3827
803.919	3903
804.061	4147
804.204	3975
804.346	3960
804.488	3930
804.63	4044
804.773	3983
804.915	4059
805.057	4124
805.199	4101
805.341	4124
805.483	4147
805.626	4147
805.768	4162
805.91	4234
806.052	4230
806.194	4211
806.336	4356
806.478	4253
806.62	4192
806.762	4188
806.904	4234
807.046	4421
807.188	4200
807.33	4177
807.472	4303
807.614	4238
807.756	4280
807.898	4230
808.04	4204
808.182	4329
808.324	4363
808.465	4379
808.607	4447
808.749	4466
808.891	4481
809.033	4500
809.174	4409
809.316	4280
809.458	4177
809.6	4181
809.741	4131
809.883	4181
810.025	4234
810.166	4234
810.308	4238
810.45	4246
810.591	4238
810.733	4318
810.875	4531
811.016	4847
811.158	5159
811.299	5280
811.441	5265
811.582	5079
811.724	4714
811.865	4516
812.007	4489
812.148	4466
812.29	4424
812.431	4478
812.573	4360
812.714	4383
812.855	4440
812.997	4417
813.138	4523
813.279	4455
813.421	4356
813.562	4390
813.703	4352
813.845	4325
813.986	4234
814.127	4211
814.268	4299
814.41	4284
814.551	4261
814.692	4363
814.833	4268
814.974	4299
815.115	4318
815.256	4249
815.397	4238
815.539	4268
815.68	4166
815.821	4257
815.962	4299
816.103	4268
816.244	4280
816.385	4306
816.526	4272
816.666	4177
816.807	4162
816.948	4196
817.089	4215
817.23	4109
817.371	4078
817.512	4059
817.653	4093
817.793	4036
817.934	4074
818.075	4120
818.216	4090
818.356	4109
818.497	3979
818.638	3892
818.778	3896
818.919	3869
819.06	3842
819.2	3960
819.341	3869
819.481	3888
819.622	3937
819.762	4067
819.903	3968
820.043	3903
820.184	3857
820.324	3857
820.465	3899
820.605	3869
820.746	3846
820.886	3793
821.026	3972
821.167	3960
821.307	3968
821.447	3960
821.588	4010
821.728	3945
821.868	3964
822.008	3922
822.149	3926
822.289	3926
822.429	3785
822.569	3743
822.709	3808
822.849	3698
822.99	3740
823.13	3751
823.27	3812
823.41	3736
823.55	3720
823.69	3740
823.83	3747
823.97	3686
824.11	3629
824.25	3595
824.389	3599
824.529	3717
824.669	3698
824.809	3701
824.949	3755
825.089	3759
825.228	3698
825.368	3584
825.508	3553
825.648	3530
825.787	3591
825.927	3618
826.067	3656
826.206	3671
826.346	3819
826.485	3896
826.625	3873
826.765	3953
826.904	3880
827.044	3618
827.183	3549
827.323	3401
827.462	3466
827.601	3466
827.741	3428
827.88	3454
828.02	3393
828.159	3439
828.298	3466
828.437	3534
828.577	3473
828.716	3610
828.855	3496
828.994	3393
829.134	3386
829.273	3401
829.412	3313
829.551	3336
829.69	3397
829.829	3473
829.968	3504
830.107	3462
830.246	3405
830.385	3450
830.524	3355
830.663	3302
830.802	3249
830.941	3188
831.08	3226
831.219	3287
831.357	3249
831.496	3386
831.635	3241
831.774	3230
831.913	3203
832.051	3112
832.19	3146
832.329	3237
832.467	3184
832.606	3119
832.744	3165
832.883	3142
833.022	3222
833.16	3268
833.299	3291
833.437	3359
833.576	3348
833.714	3412
833.852	3454
833.991	3439
834.129	3507
834.267	3447
834.406	3401
834.544	3428
834.682	3416
834.821	3447
834.959	3568
835.097	3439
835.235	3507
835.373	3492
835.511	3477
835.65	3454
835.788	3504
835.926	3401
836.064	3393
836.202	3389
836.34	3568
836.478	3644
836.615	3572
836.753	3622
836.891	3663
837.029	3667
837.167	3587
837.305	3572
837.443	3538
837.58	3515
837.718	3618
837.856	3564
837.993	3572
838.131	3629
838.269	3564
838.406	3584
838.544	3595
838.681	3496
838.819	3469
838.956	3397
839.094	3374
839.231	3473
839.369	3485
839.506	3736
839.643	3641
839.781	3481
839.918	3515
840.055	3515
840.193	3496
840.33	3526
840.467	3572
840.604	3614
840.742	3827
840.879	3553
841.016	3584
841.153	3595
841.29	3797
841.427	3682
841.564	3732
841.701	3736
841.838	3690
841.975	3732
842.112	3728
842.249	3663
842.385	3686
842.522	3869
842.659	3671
842.796	3686
842.933	3740
843.069	3720
843.206	3717
843.343	3842
843.479	3766
843.616	3819
843.752	3663
843.889	3740
844.025	3861
844.162	3747
844.298	3827
844.435	3789
844.571	3793
844.708	3911
844.844	3975
844.98	4017
845.117	4002
845.253	3922
845.389	3934
845.525	3991
845.661	3968
845.798	3960
845.934	4036
846.07	4013
846.206	4105
846.342	4143
846.478	4032
846.614	3972
846.75	3941
846.886	3884
847.022	4021
847.158	3972
847.294	3998
847.429	4032
847.565	4002
847.701	4284
847.837	3869
847.972	3850
848.108	4010
848.244	3979
848.379	3876
848.515	3812
848.65	3816
848.786	3850
848.921	3873
849.057	3937
849.192	3987
849.328	3876
849.463	3892
849.598	3930
849.734	3899
849.869	3827
850.004	3789
850.14	3854
850.275	3740
850.41	3762
850.545	3751
850.68	3762
850.815	3774
850.95	3785
851.085	3956
851.22	3892
851.355	3819
851.49	3778
851.625	3770
851.76	3793
851.895	3770
852.03	3762
852.165	3838
852.299	3873
852.434	3869
852.569	3869
852.703	3903
852.838	3918
852.973	3979
853.107	4021
853.242	3854
853.376	3842
853.511	3751
853.645	3865
853.78	3994
853.914	3972
854.048	3907
854.183	3896
854.317	3991
854.451	4078
854.585	3930
854.72	3937
854.854	4055
854.988	3907
855.122	3983
855.256	3930
855.39	4048
855.524	4120
855.658	4116
855.792	4109
855.926	4158
856.06	4135
856.194	4249
856.327	4135
856.461	4128
856.595	4173
856.729	4185
856.862	4284
856.996	4291
857.13	4272
857.263	4405
857.397	4402
857.53	4299
857.664	4363
857.797	4413
857.931	4386
858.064	4455
858.197	4447
858.331	4405
858.464	4405
858.597	4360
858.731	4417
858.864	4485
858.997	4493
859.13	4519
859.263	4516
859.396	4634
859.529	4512
859.662	4535
859.795	4588
859.928	4535
860.061	4740
860.194	4744
860.327	4683
860.46	4660
860.592	4744
860.725	4782
860.858	4809
860.99	4729
861.123	4660
861.256	4763
861.388	4774
861.521	5539
861.653	4755
861.786	4698
861.918	4767
862.05	4793
862.183	4892
862.315	4885
862.447	4965
862.58	4904
862.712	4801
862.844	4782
862.976	4866
863.108	4839
863.24	5250
863.372	4820
863.504	4934
863.636	4908
863.768	4957
863.9	4999
864.032	4942
864.164	4972
864.296	5045
864.428	5064
864.559	5128
864.691	5124
864.823	5151
864.954	5155
865.086	5102
865.217	5136
865.349	5159
865.48	5132
865.612	5159
865.743	5326
865.875	5227
866.006	5212
866.137	5265
866.269	5261
866.4	5269
866.531	5250
866.662	5208
866.793	5322
866.924	5239
867.055	5330
867.186	5341
867.317	5307
867.448	5341
867.579	5372
867.71	5345
867.841	5349
867.972	5433
868.103	5471
868.233	5528
868.364	5535
868.495	5554
868.625	5691
868.756	5844
868.886	5691
869.017	5718
869.147	5866
869.278	5855
869.408	5828
869.539	5809
869.669	5923
869.799	5935
869.929	5931
870.06	5980
870.19	6213
870.32	6220
870.45	6262
870.58	6319
870.71	6452
870.84	6490
870.97	6464
871.1	6395
871.23	6677
871.36	6677
871.489	6673
871.619	6745
871.749	6859
871.879	6852
872.008	6920
872.138	7034
872.267	6996
872.397	7023
872.526	7057
872.656	7114
872.785	7255
872.915	7426
873.044	7483
873.173	7529
873.303	7681
873.432	7818
873.561	7879
873.69	7879
873.819	8039
873.948	8149
874.077	8199
874.206	8362
874.335	8457
874.464	8648
874.593	8864
874.722	8933
874.851	9131
874.979	9230
875.108	9348
875.237	9500
875.365	9500
875.494	9603
875.623	9842
875.751	9869
875.88	9934
876.008	10158
876.136	10257
876.265	10542
876.393	10691
876.521	10733
876.65	10767
876.778	10911
876.906	10881
877.034	11025
877.162	11117
877.29	11147
877.418	11307
877.546	11330
877.674	11421
877.802	11459
877.93	11520
878.058	11592
878.185	11661
878.313	11638
878.441	11745
878.568	11710
878.696	11729
878.824	11832
878.951	11927
879.079	12053
879.206	12148
879.333	12068
879.461	12022
879.588	12243
879.715	12038
879.842	12098
879.97	12095
880.097	11939
880.224	11836
880.351	11851
880.478	11863
880.605	11840
880.732	11843
880.859	11977
880.986	11802
881.112	11813
881.239	11699
881.366	11619
881.493	11672
881.619	11547
881.746	11554
881.872	11528
881.999	11585
882.125	11436
882.252	11532
882.378	11532
882.505	11539
882.631	11376
882.757	11322
882.883	11288
883.01	11311
883.136	11155
883.262	11090
883.388	11178
883.514	11151
883.64	11246
883.766	11189
883.892	10976
884.018	10942
884.143	11075
884.269	11098
884.395	10873
884.52	10721
884.646	10797
884.772	10805
884.897	10634
885.023	10714
885.148	10679
885.274	10793
885.399	10721
885.524	10519
885.65	10588
885.775	10675
885.9	10626
886.025	10634
886.15	10546
886.275	10489
886.4	10348
886.525	10371
886.65	10398
886.775	10280
886.9	10485
887.025	10508
887.149	10386
887.274	10299
887.399	10192
887.523	10204
887.648	10154
887.773	10154
887.897	10200
888.021	10200
888.146	10116
888.27	10181
888.395	10234
888.519	10322
888.643	10211
888.767	10147
888.891	10067
889.015	10112
889.139	10109
889.263	9964
889.387	10124
889.511	10040
889.635	10032
889.759	9884
889.883	10040
890.006	10025
890.13	10071
890.254	9968
890.377	9968
890.501	9972
890.624	9876
890.748	9987
890.871	9880
890.995	9770
891.118	9705
891.241	9831
891.364	9732
891.488	9770
891.611	9819
891.734	9766
891.857	9755
891.98	9747
892.103	9740
892.226	9682
892.349	9618
892.471	9511
892.594	9587
892.717	9641
892.839	9610
892.962	9576
893.085	9701
893.207	9568
893.33	9504
893.452	9530
893.575	9622
893.697	9553
893.819	9625
893.941	9648
894.064	9549
894.186	9462
894.308	9443
894.43	9561
894.552	9610
894.674	9526
894.796	9389
894.918	9386
895.04	9386
895.161	9458
895.283	9272
895.405	9264
895.526	9264
895.648	9249
895.769	9237
895.891	9317
896.012	9291
896.134	9214
896.255	9321
896.376	9173
896.498	9184
896.619	9176
896.74	9165
896.861	9047
896.982	9222
897.103	9329
897.224	9138
897.345	9058
897.466	9039
897.587	9032
897.708	9131
897.828	9051
897.949	8921
898.07	8872
898.19	8944
898.311	8979
898.431	8998
898.552	8906
898.672	8952
898.792	8891
898.913	8967
899.033	8880
899.153	8712
899.273	8686
899.393	8724
899.513	8845
899.633	8716
899.753	8819
899.873	8758
899.993	8773
900.113	8693
900.232	8705
900.352	8724
900.472	8621
900.591	8545
900.711	8617
900.83	8560
900.95	8693
901.069	8724
901.189	8594
901.308	8492
901.427	8431
901.546	8457
901.665	8469
901.784	8507
901.904	8415
902.023	8336
902.141	8290
902.26	8248
902.379	8275
902.498	8153
902.617	8218
902.735	8339
902.854	8343
902.973	8271
903.091	8168
903.21	8218
903.328	8191
903.446	8157
903.565	8020
903.683	8054
903.801	8081
903.919	8081
904.038	8164
904.156	8084
904.274	8100
904.392	7959
904.51	8043
904.627	8077
904.745	8077
904.863	8115
904.981	7913
905.098	7940
905.216	7936
905.334	7811
905.451	7875
905.569	7883
905.686	7970
905.803	7871
905.921	7719
906.038	7917
906.155	7769
906.272	7723
906.389	7704
906.506	7738
906.623	7674
906.74	7586
906.857	7521
906.974	7586
907.091	7696
907.208	7727
907.324	7590
907.441	7636
907.557	7445
907.674	7495
907.79	7419
907.907	7422
908.023	7445
908.139	7407
908.256	7407
908.372	7403
908.488	7373
908.604	7343
908.72	7209
908.836	7274
908.952	7282
909.068	7305
909.184	7350
909.3	7240
909.415	7312
909.531	7285
909.647	7110
909.762	7126
909.878	7088
909.993	7156
910.108	7110
910.224	7080
910.339	7088
910.454	7080
910.57	6920
910.685	6962
910.8	7168
910.915	7133
911.03	7065
911.145	6977
911.259	6852
911.374	6901
911.489	6867
911.604	6776
911.718	6749
911.833	6707
911.947	6608
912.062	6642
912.176	6745
912.291	6741
912.405	6753
912.519	6844
912.633	6821
912.748	6707
912.862	6715
912.976	6623
913.09	6570
913.204	6585
913.318	6597
913.431	6711
913.545	6703
913.659	6749
913.772	6654
913.886	6650
914	6540
914.113	6585
914.226	6639
914.34	6536
914.453	6513
914.566	6604
914.68	6566
914.793	6582
914.906	6433
915.019	6498
915.132	6372
915.245	6399
915.358	6471
915.47	6445
915.583	6528
915.696	6486
915.809	6563
915.921	6559
916.034	6391
916.146	6418
916.259	6418
916.371	6456
916.483	6483
916.595	6399
916.708	6422
916.82	6467
916.932	6361
917.044	6460
917.156	6357
917.268	6258
917.38	6365
917.491	6350
917.603	6365
917.715	6391
917.826	6399
917.938	6357
918.049	6304
918.161	6388
918.272	6410
918.384	6467
918.495	6327
918.606	6266
918.717	6270
918.828	6266
918.939	6292
919.05	6285
919.161	6266
919.272	6098
919.383	6159
919.494	6300
919.604	6403
919.715	6304
919.826	6228
919.936	6315
920.047	6357
920.157	6216
920.267	6391
920.378	6365
920.488	6273
920.598	6464
920.708	6582
920.818	6445
920.928	6414
921.038	6589
921.148	6574
921.258	6372
921.368	6289
921.477	6247
921.587	6194
921.697	6144
921.806	6171
921.916	6095
922.025	5980
922.134	5973
922.244	5916
922.353	5904
922.462	5821
922.571	5836
922.68	5710
922.789	5726
922.898	5707
923.007	5642
923.116	5726
923.224	5665
923.333	5703
923.442	5562
923.55	5581
923.659	5554
923.767	5627
923.876	5562
923.984	5630
924.092	5509
924.201	5524
924.309	5520
924.417	5581
924.525	5463
924.633	5501
924.741	6243
924.849	5368
924.956	5471
925.064	5372
925.172	5360
925.279	5387
925.387	5288
925.494	5353
925.602	5440
925.709	5410
925.816	5357
925.924	5292
926.031	5398
926.138	5269
926.245	5318
926.352	5185
926.459	5307
926.566	5349
926.673	5181
926.779	5132
926.886	5159
926.993	5075
927.099	5018
927.206	4976
927.312	4987
927.419	5006
927.525	5029
927.631	4976
927.737	4904
927.843	4900
927.95	4820
928.056	4831
928.162	4896
928.267	4873
928.373	5337
928.479	4885
928.585	4683
928.69	4752
928.796	4824
928.901	4660
929.007	4622
929.112	4710
929.218	4641
929.323	4611
929.428	4512
929.533	4672
929.638	4485
929.743	4542
929.848	4592
929.953	4535
930.058	4421
930.163	4280
930.267	4348
930.372	4413
930.477	4322
930.581	4516
930.685	4371
930.79	4261
930.894	4257
930.998	4238
931.103	4341
931.207	4139
931.311	4086
931.415	4048
931.519	3926
931.623	3983
