Data from glass_V78500241_1868.txt Node
Date: Wed Sep 01 19:27:26 CST 2021
User: usil
Spectrometer: V785-0024
Trigger mode: 0
Integration Time (sec): 4.000000E-1
Scans to average: 1
Nonlinearity correction enabled: false
Boxcar width: 0
Storing dark spectrum: false
XAxis mode: Wavelengths
Number of Pixels in Spectrum: 1024
>>>>>Begin Spectral Data<<<<<
801.071	3762
801.214	3740
801.356	3720
801.499	3766
801.641	3724
801.783	3766
801.926	3903
802.068	3793
802.211	3869
802.353	3880
802.496	3789
802.638	3850
802.78	3884
802.923	3911
803.065	3930
803.208	3808
803.35	3899
803.492	3922
803.635	3911
803.777	3789
803.919	3899
804.061	4181
804.204	3953
804.346	3918
804.488	3918
804.63	4013
804.773	3949
804.915	4051
805.057	4143
805.199	4040
805.341	4063
805.483	4139
805.626	4112
805.768	4109
805.91	4192
806.052	4215
806.194	4219
806.336	4360
806.478	4185
806.62	4196
806.762	4162
806.904	4207
807.046	4318
807.188	4211
807.33	4188
807.472	4211
807.614	4211
807.756	4215
807.898	4246
808.04	4223
808.182	4246
808.324	4337
808.465	4344
808.607	4462
808.749	4462
808.891	4440
809.033	4527
809.174	4363
809.316	4287
809.458	4284
809.6	4169
809.741	4112
809.883	4143
810.025	4227
810.166	4147
810.308	4207
810.45	4234
810.591	4242
810.733	4268
810.875	4527
811.016	4793
811.158	5083
811.299	5223
811.441	5227
811.582	5067
811.724	4714
811.865	4459
812.007	4474
812.148	4409
812.29	4390
812.431	4409
812.573	4409
812.714	4371
812.855	4413
812.997	4436
813.138	4462
813.279	4402
813.421	4390
813.562	4390
813.703	4337
813.845	4344
813.986	4265
814.127	4238
814.268	4272
814.41	4268
814.551	4272
814.692	4360
814.833	4299
814.974	4272
815.115	4314
815.256	4265
815.397	4238
815.539	4257
815.68	4230
815.821	4200
815.962	4341
816.103	4329
816.244	4249
816.385	4215
816.526	4295
816.666	4230
816.807	4093
816.948	4181
817.089	4185
817.23	4147
817.371	4048
817.512	4067
817.653	4071
817.793	4040
817.934	4063
818.075	4097
818.216	4048
818.356	4063
818.497	3991
818.638	3884
818.778	3899
818.919	3899
819.06	3865
819.2	3930
819.341	3850
819.481	3861
819.622	3911
819.762	4036
819.903	3941
820.043	3842
820.184	3785
820.324	3827
820.465	3884
820.605	3808
820.746	3869
820.886	3793
821.026	3937
821.167	3884
821.307	3945
821.447	4006
821.588	3987
821.728	3918
821.868	3903
822.008	3865
822.149	3907
822.289	3899
822.429	3797
822.569	3766
822.709	3789
822.849	3675
822.99	3671
823.13	3728
823.27	3759
823.41	3736
823.55	3724
823.69	3686
823.83	3732
823.97	3667
824.11	3622
824.25	3599
824.389	3656
824.529	3660
824.669	3633
824.809	3705
824.949	3766
825.089	3686
825.228	3690
825.368	3572
825.508	3595
825.648	3568
825.787	3618
825.927	3625
826.067	3637
826.206	3625
826.346	3770
826.485	3816
826.625	3831
826.765	3926
826.904	3823
827.044	3591
827.183	3534
827.323	3412
827.462	3466
827.601	3405
827.741	3412
827.88	3443
828.02	3378
828.159	3439
828.298	3504
828.437	3545
828.577	3447
828.716	3591
828.855	3481
828.994	3405
829.134	3378
829.273	3378
829.412	3351
829.551	3332
829.69	3374
829.829	3397
829.968	3507
830.107	3435
830.246	3450
830.385	3397
830.524	3351
830.663	3310
830.802	3275
830.941	3169
831.08	3184
831.219	3272
831.357	3249
831.496	3401
831.635	3249
831.774	3211
831.913	3203
832.051	3108
832.19	3085
832.329	3226
832.467	3112
832.606	3081
832.744	3188
832.883	3226
833.022	3169
833.16	3298
833.299	3283
833.437	3329
833.576	3351
833.714	3378
833.852	3428
833.991	3428
834.129	3485
834.267	3439
834.406	3409
834.544	3412
834.682	3409
834.821	3374
834.959	3545
835.097	3428
835.235	3507
835.373	3511
835.511	3458
835.65	3462
835.788	3504
835.926	3389
836.064	3389
836.202	3378
836.34	3561
836.478	3587
836.615	3568
836.753	3599
836.891	3591
837.029	3614
837.167	3576
837.305	3538
837.443	3549
837.58	3469
837.718	3595
837.856	3511
837.993	3526
838.131	3591
838.269	3561
838.406	3614
838.544	3564
838.681	3454
838.819	3401
838.956	3340
839.094	3378
839.231	3496
839.369	3500
839.506	3701
839.643	3648
839.781	3473
839.918	3511
840.055	3500
840.193	3530
840.33	3488
840.467	3538
840.604	3599
840.742	3823
840.879	3545
841.016	3500
841.153	3622
841.29	3709
841.427	3694
841.564	3713
841.701	3724
841.838	3724
841.975	3694
842.112	3690
842.249	3671
842.385	3603
842.522	3778
842.659	3736
842.796	3652
842.933	3720
843.069	3713
843.206	3713
843.343	3804
843.479	3766
843.616	3827
843.752	3671
843.889	3644
844.025	3861
844.162	3686
844.298	3873
844.435	3781
844.571	3812
844.708	3876
844.844	3994
844.98	4002
845.117	3975
845.253	3926
845.389	3953
845.525	4010
845.661	3930
845.798	3968
845.934	3975
846.07	3930
846.206	4025
846.342	4093
846.478	4086
846.614	3964
846.75	3949
846.886	3857
847.022	4059
847.158	3987
847.294	3991
847.429	4010
847.565	3949
847.701	4238
847.837	3899
847.972	3903
848.108	4025
848.244	3987
848.379	3842
848.515	3812
848.65	3800
848.786	3850
848.921	3835
849.057	3873
849.192	3907
849.328	3915
849.463	3926
849.598	3911
849.734	3861
849.869	3846
850.004	3759
850.14	3808
850.275	3778
850.41	3743
850.545	3736
850.68	3781
850.815	3781
850.95	3793
851.085	3964
851.22	3831
851.355	3865
851.49	3743
851.625	3774
851.76	3797
851.895	3728
852.03	3743
852.165	3770
852.299	3857
852.434	3873
852.569	3861
852.703	3838
852.838	3918
852.973	3983
853.107	4017
853.242	3911
853.376	3865
853.511	3800
853.645	3774
853.78	3964
853.914	3896
854.048	3888
854.183	3918
854.317	3998
854.451	4059
854.585	3960
854.72	3968
854.854	4059
854.988	3930
855.122	4006
855.256	3941
855.39	4048
855.524	4109
855.658	4101
855.792	4082
855.926	4082
856.06	4120
856.194	4219
856.327	4158
856.461	4093
856.595	4162
856.729	4173
856.862	4272
856.996	4249
857.13	4310
857.263	4306
857.397	4383
857.53	4268
857.664	4363
857.797	4383
857.931	4428
858.064	4436
858.197	4436
858.331	4394
858.464	4352
858.597	4333
858.731	4443
858.864	4443
858.997	4466
859.13	4523
859.263	4550
859.396	4592
859.529	4508
859.662	4519
859.795	4550
859.928	4584
860.061	4717
860.194	4710
860.327	4672
860.46	4641
860.592	4748
860.725	4717
860.858	4805
860.99	4653
861.123	4698
861.256	4725
861.388	4816
861.521	5459
861.653	4698
861.786	4634
861.918	4752
862.05	4759
862.183	4847
862.315	4881
862.447	4953
862.58	4870
862.712	4725
862.844	4828
862.976	4862
863.108	4930
863.24	5250
863.372	4797
863.504	4900
863.636	4908
863.768	4987
863.9	4885
864.032	4885
864.164	4942
864.296	5022
864.428	5083
864.559	5086
864.691	5113
864.823	5090
864.954	5064
865.086	5086
865.217	5151
865.349	5109
865.48	5170
865.612	5235
865.743	5273
865.875	5178
866.006	5143
866.137	5277
866.269	5239
866.4	5246
866.531	5277
866.662	5269
866.793	5250
866.924	5296
867.055	5322
867.186	5364
867.317	5318
867.448	5315
867.579	5398
867.71	5452
867.841	5368
867.972	5429
868.103	5444
868.233	5478
868.364	5490
868.495	5547
868.625	5657
868.756	5775
868.886	5638
869.017	5695
869.147	5866
869.278	5824
869.408	5809
869.539	5840
869.669	5920
869.799	5901
869.929	5980
870.06	6022
870.19	6254
870.32	6201
870.45	6251
870.58	6384
870.71	6399
870.84	6403
870.97	6414
871.1	6490
871.23	6658
871.36	6734
871.489	6665
871.619	6768
871.749	6795
871.879	6844
872.008	6993
872.138	6981
872.267	6943
872.397	7015
872.526	7038
872.656	7069
872.785	7244
872.915	7335
873.044	7499
873.173	7495
873.303	7704
873.432	7746
873.561	7906
873.69	7921
873.819	8008
873.948	8153
874.077	8218
874.206	8294
874.335	8415
874.464	8617
874.593	8792
874.722	8891
874.851	9074
874.979	9249
875.108	9367
875.237	9428
875.365	9435
875.494	9629
875.623	9857
875.751	9755
875.88	9998
876.008	10150
876.136	10348
876.265	10561
876.393	10721
876.521	10687
876.65	10835
876.778	10881
876.906	10858
877.034	11003
877.162	11143
877.29	11170
877.418	11299
877.546	11356
877.674	11452
877.802	11516
877.93	11524
878.058	11543
878.185	11558
878.313	11638
878.441	11710
878.568	11691
878.696	11710
878.824	11824
878.951	11912
879.079	11935
879.206	12144
879.333	11980
879.461	12015
879.588	12125
879.715	12015
879.842	12273
879.97	12064
880.097	11904
880.224	11870
880.351	11874
880.478	11851
880.605	11794
880.732	11794
880.859	11980
880.986	11840
881.112	11840
881.239	11710
881.366	11642
881.493	11554
881.619	11585
881.746	11497
881.872	11497
881.999	11528
882.125	11436
882.252	11505
882.378	11509
882.505	11581
882.631	11360
882.757	11307
882.883	11345
883.01	11250
883.136	11166
883.262	11086
883.388	11178
883.514	11151
883.64	11197
883.766	11174
883.892	10934
884.018	10987
884.143	11041
884.269	11105
884.395	10812
884.52	10820
884.646	10820
884.772	10694
884.897	10656
885.023	10698
885.148	10683
885.274	10755
885.399	10603
885.524	10573
885.65	10554
885.775	10554
885.9	10584
886.025	10637
886.15	10596
886.275	10394
886.4	10440
886.525	10417
886.65	10352
886.775	10451
886.9	10527
887.025	10424
887.149	10390
887.274	10166
887.399	10154
887.523	10147
887.648	10143
887.773	10105
887.897	10246
888.021	10188
888.146	10147
888.27	10227
888.395	10276
888.519	10135
888.643	10109
888.767	10200
888.891	10082
889.015	10086
889.139	10078
889.263	9960
889.387	10048
889.511	10078
889.635	10036
889.759	10029
889.883	9968
890.006	10032
890.13	10101
890.254	9998
890.377	9979
890.501	9937
890.624	9888
890.748	9854
890.871	9812
890.995	9728
891.118	9720
891.241	9770
891.364	9728
891.488	9762
891.611	9694
891.734	9720
891.857	9823
891.98	9698
892.103	9736
892.226	9656
892.349	9614
892.471	9523
892.594	9599
892.717	9580
892.839	9663
892.962	9625
893.085	9652
893.207	9618
893.33	9599
893.452	9549
893.575	9622
893.697	9477
893.819	9614
893.941	9572
894.064	9591
894.186	9306
894.308	9378
894.43	9587
894.552	9591
894.674	9549
894.796	9329
894.918	9435
895.04	9306
895.161	9424
895.283	9321
895.405	9253
895.526	9218
895.648	9230
895.769	9272
895.891	9310
896.012	9279
896.134	9230
896.255	9154
896.376	9165
896.498	9218
896.619	9188
896.74	9085
896.861	9085
896.982	9249
897.103	9294
897.224	9188
897.345	9081
897.466	9024
897.587	9047
897.708	9066
897.828	9001
897.949	8956
898.07	8864
898.19	8956
898.311	8948
898.431	8937
898.552	8914
898.672	9005
898.792	8910
898.913	8853
899.033	8811
899.153	8720
899.273	8670
899.393	8689
899.513	8746
899.633	8777
899.753	8804
899.873	8655
899.993	8678
900.113	8739
900.232	8682
900.352	8648
900.472	8568
900.591	8552
900.711	8575
900.83	8530
900.95	8621
901.069	8670
901.189	8507
901.308	8415
901.427	8381
901.546	8438
901.665	8454
901.784	8423
901.904	8408
902.023	8332
902.141	8172
902.26	8157
902.379	8240
902.498	8309
902.617	8256
902.735	8309
902.854	8259
902.973	8267
903.091	8134
903.21	8161
903.328	8168
903.446	8176
903.565	8065
903.683	8123
903.801	8020
903.919	8088
904.038	8103
904.156	8016
904.274	8081
904.392	8039
904.51	8012
904.627	8088
904.745	8119
904.863	8096
904.981	7955
905.098	7887
905.216	7841
905.334	7951
905.451	7868
905.569	7841
905.686	7902
905.803	7944
905.921	7727
906.038	7833
906.155	7788
906.272	7689
906.389	7696
906.506	7662
906.623	7666
906.74	7556
906.857	7552
906.974	7578
907.091	7685
907.208	7681
907.324	7628
907.441	7537
907.557	7384
907.674	7407
907.79	7419
907.907	7441
908.023	7472
908.139	7468
908.256	7377
908.372	7449
908.488	7411
908.604	7278
908.72	7202
908.836	7259
908.952	7297
909.068	7217
909.184	7354
909.3	7278
909.415	7247
909.531	7255
909.647	7084
909.762	7145
909.878	7069
909.993	7126
910.108	7129
910.224	6989
910.339	7088
910.454	7069
910.57	6958
910.685	6973
910.8	7137
910.915	7141
911.03	7000
911.145	6920
911.259	6859
911.374	6882
911.489	6856
911.604	6825
911.718	6703
911.833	6753
911.947	6612
912.062	6585
912.176	6700
912.291	6665
912.405	6711
912.519	6791
912.633	6837
912.748	6779
912.862	6719
912.976	6631
913.09	6551
913.204	6551
913.318	6658
913.431	6700
913.545	6646
913.659	6662
913.772	6616
913.886	6547
914	6532
914.113	6612
914.226	6597
914.34	6563
914.453	6566
914.566	6604
914.68	6521
914.793	6506
914.906	6433
915.019	6410
915.132	6357
915.245	6426
915.358	6445
915.47	6410
915.583	6384
915.696	6471
915.809	6532
915.921	6540
916.034	6433
916.146	6388
916.259	6372
916.371	6517
916.483	6414
916.595	6369
916.708	6365
916.82	6395
916.932	6289
917.044	6323
917.156	6399
917.268	6353
917.38	6308
917.491	6376
917.603	6384
917.715	6418
917.826	6410
917.938	6331
918.049	6258
918.161	6327
918.272	6372
918.384	6422
918.495	6304
918.606	6296
918.717	6228
918.828	6304
918.939	6277
919.05	6194
919.161	6235
919.272	6114
919.383	6129
919.494	6289
919.604	6399
919.715	6327
919.826	6205
919.936	6289
920.047	6342
920.157	6213
920.267	6429
920.378	6323
920.488	6232
920.598	6410
920.708	6566
920.818	6414
920.928	6479
921.038	6582
921.148	6582
921.258	6323
921.368	6334
921.477	6125
921.587	6136
921.697	6125
921.806	6201
921.916	6049
922.025	5923
922.134	5958
922.244	5840
922.353	5878
922.462	5832
922.571	5824
922.68	5714
922.789	5684
922.898	5699
923.007	5585
923.116	5748
923.224	5611
923.333	5649
923.442	5581
923.55	5501
923.659	5562
923.767	5627
923.876	5562
923.984	5604
924.092	5497
924.201	5524
924.309	5512
924.417	5543
924.525	5414
924.633	5459
924.741	6270
924.849	5353
924.956	5482
925.064	5292
925.172	5296
925.279	5303
925.387	5353
925.494	5303
925.602	5425
925.709	5376
925.816	5242
925.924	5303
926.031	5364
926.138	5269
926.245	5307
926.352	5189
926.459	5357
926.566	5341
926.673	5166
926.779	5132
926.886	5159
926.993	5022
927.099	5010
927.206	5018
927.312	4942
927.419	5037
927.525	4980
927.631	4965
927.737	4862
927.843	4870
927.95	4759
928.056	4862
928.162	4793
928.267	4828
928.373	5269
928.479	4854
928.585	4687
928.69	4748
928.796	4752
928.901	4675
929.007	4607
929.112	4645
929.218	4656
929.323	4577
929.428	4531
929.533	4691
929.638	4527
929.743	4546
929.848	4588
929.953	4500
930.058	4398
930.163	4284
930.267	4390
930.372	4474
930.477	4306
930.581	4451
930.685	4386
930.79	4238
930.894	4257
930.998	4291
931.103	4398
931.207	4086
931.311	4082
931.415	4010
931.519	3911
931.623	3907
