Data from glass_V78500241_1310.txt Node
Date: Wed Sep 01 19:23:34 CST 2021
User: usil
Spectrometer: V785-0024
Trigger mode: 0
Integration Time (sec): 4.000000E-1
Scans to average: 1
Nonlinearity correction enabled: false
Boxcar width: 0
Storing dark spectrum: false
XAxis mode: Wavelengths
Number of Pixels in Spectrum: 1024
>>>>>Begin Spectral Data<<<<<
801.071	3740
801.214	3762
801.356	3736
801.499	3751
801.641	3740
801.783	3808
801.926	3907
802.068	3869
802.211	3873
802.353	3869
802.496	3831
802.638	3827
802.78	3873
802.923	3896
803.065	3918
803.208	3873
803.35	3903
803.492	3880
803.635	3945
803.777	3781
803.919	3930
804.061	4169
804.204	3937
804.346	3915
804.488	3941
804.63	3994
804.773	3960
804.915	4044
805.057	4192
805.199	4032
805.341	4051
805.483	4124
805.626	4135
805.768	4162
805.91	4249
806.052	4253
806.194	4227
806.336	4325
806.478	4265
806.62	4188
806.762	4207
806.904	4265
807.046	4306
807.188	4234
807.33	4188
807.472	4230
807.614	4154
807.756	4246
807.898	4230
808.04	4234
808.182	4329
808.324	4344
808.465	4367
808.607	4504
808.749	4451
808.891	4462
809.033	4577
809.174	4394
809.316	4257
809.458	4272
809.6	4124
809.741	4147
809.883	4158
810.025	4192
810.166	4249
810.308	4253
810.45	4223
810.591	4230
810.733	4329
810.875	4554
811.016	4839
811.158	5136
811.299	5273
811.441	5277
811.582	5067
811.724	4683
811.865	4428
812.007	4459
812.148	4409
812.29	4402
812.431	4424
812.573	4428
812.714	4375
812.855	4394
812.997	4413
813.138	4478
813.279	4447
813.421	4421
813.562	4386
813.703	4318
813.845	4367
813.986	4253
814.127	4196
814.268	4287
814.41	4287
814.551	4299
814.692	4333
814.833	4230
814.974	4306
815.115	4356
815.256	4257
815.397	4219
815.539	4268
815.68	4211
815.821	4223
815.962	4325
816.103	4295
816.244	4249
816.385	4268
816.526	4280
816.666	4211
816.807	4124
816.948	4166
817.089	4166
817.23	4093
817.371	4059
817.512	4032
817.653	4082
817.793	4017
817.934	4086
818.075	4074
818.216	4101
818.356	4116
818.497	4021
818.638	3922
818.778	3918
818.919	3911
819.06	3918
819.2	3937
819.341	3850
819.481	3876
819.622	3861
819.762	4040
819.903	3968
820.043	3861
820.184	3827
820.324	3850
820.465	3903
820.605	3865
820.746	3827
820.886	3797
821.026	3941
821.167	3907
821.307	3975
821.447	4013
821.588	3956
821.728	3926
821.868	3960
822.008	3876
822.149	3949
822.289	3888
822.429	3793
822.569	3774
822.709	3808
822.849	3698
822.99	3728
823.13	3743
823.27	3789
823.41	3724
823.55	3766
823.69	3755
823.83	3774
823.97	3660
824.11	3629
824.25	3614
824.389	3656
824.529	3663
824.669	3660
824.809	3713
824.949	3751
825.089	3747
825.228	3724
825.368	3561
825.508	3572
825.648	3591
825.787	3618
825.927	3618
826.067	3644
826.206	3641
826.346	3823
826.485	3827
826.625	3884
826.765	3926
826.904	3846
827.044	3633
827.183	3500
827.323	3431
827.462	3469
827.601	3435
827.741	3435
827.88	3431
828.02	3405
828.159	3466
828.298	3481
828.437	3557
828.577	3473
828.716	3610
828.855	3549
828.994	3386
829.134	3382
829.273	3374
829.412	3359
829.551	3332
829.69	3367
829.829	3424
829.968	3526
830.107	3393
830.246	3469
830.385	3378
830.524	3367
830.663	3294
830.802	3256
830.941	3245
831.08	3230
831.219	3287
831.357	3237
831.496	3431
831.635	3176
831.774	3180
831.913	3218
832.051	3150
832.19	3123
832.329	3218
832.467	3119
832.606	3085
832.744	3195
832.883	3169
833.022	3214
833.16	3272
833.299	3298
833.437	3348
833.576	3401
833.714	3393
833.852	3439
833.991	3469
834.129	3454
834.267	3443
834.406	3420
834.544	3443
834.682	3409
834.821	3466
834.959	3603
835.097	3443
835.235	3519
835.373	3462
835.511	3485
835.65	3488
835.788	3473
835.926	3393
836.064	3382
836.202	3454
836.34	3561
836.478	3606
836.615	3542
836.753	3610
836.891	3686
837.029	3610
837.167	3572
837.305	3542
837.443	3526
837.58	3507
837.718	3637
837.856	3542
837.993	3542
838.131	3595
838.269	3610
838.406	3580
838.544	3572
838.681	3439
838.819	3469
838.956	3374
839.094	3370
839.231	3469
839.369	3538
839.506	3740
839.643	3675
839.781	3462
839.918	3496
840.055	3500
840.193	3515
840.33	3511
840.467	3584
840.604	3644
840.742	3857
840.879	3549
841.016	3553
841.153	3584
841.29	3740
841.427	3751
841.564	3717
841.701	3766
841.838	3686
841.975	3701
842.112	3724
842.249	3648
842.385	3652
842.522	3812
842.659	3724
842.796	3694
842.933	3701
843.069	3728
843.206	3755
843.343	3774
843.479	3751
843.616	3804
843.752	3637
843.889	3701
844.025	3884
844.162	3755
844.298	3865
844.435	3770
844.571	3804
844.708	3903
844.844	3994
844.98	4002
845.117	4021
845.253	3953
845.389	3911
845.525	3949
845.661	3956
845.798	3903
845.934	4013
846.07	3975
846.206	4048
846.342	4128
846.478	4029
846.614	3979
846.75	3922
846.886	3937
847.022	4036
847.158	3975
847.294	4010
847.429	4006
847.565	4002
847.701	4234
847.837	3876
847.972	3857
848.108	3953
848.244	3994
848.379	3873
848.515	3816
848.65	3827
848.786	3873
848.921	3831
849.057	3930
849.192	3972
849.328	3869
849.463	3922
849.598	3907
849.734	3857
849.869	3804
850.004	3823
850.14	3842
850.275	3781
850.41	3793
850.545	3759
850.68	3778
850.815	3812
850.95	3774
851.085	3930
851.22	3865
851.355	3804
851.49	3808
851.625	3793
851.76	3789
851.895	3724
852.03	3740
852.165	3827
852.299	3892
852.434	3987
852.569	3850
852.703	3854
852.838	3930
852.973	4063
853.107	3983
853.242	3892
853.376	3873
853.511	3797
853.645	3861
853.78	3941
853.914	3926
854.048	3888
854.183	3869
854.317	3949
854.451	4071
854.585	3979
854.72	4006
854.854	4067
854.988	3907
855.122	3956
855.256	3937
855.39	3979
855.524	4124
855.658	4093
855.792	4105
855.926	4131
856.06	4166
856.194	4162
856.327	4181
856.461	4139
856.595	4162
856.729	4215
856.862	4268
856.996	4257
857.13	4291
857.263	4306
857.397	4352
857.53	4352
857.664	4303
857.797	4390
857.931	4443
858.064	4413
858.197	4459
858.331	4379
858.464	4417
858.597	4341
858.731	4421
858.864	4478
858.997	4485
859.13	4538
859.263	4584
859.396	4588
859.529	4470
859.662	4573
859.795	4508
859.928	4603
860.061	4702
860.194	4782
860.327	4668
860.46	4668
860.592	4725
860.725	4771
860.858	4763
860.99	4744
861.123	4653
861.256	4691
861.388	4759
861.521	5406
861.653	4740
861.786	4714
861.918	4752
862.05	4820
862.183	4881
862.315	4900
862.447	4987
862.58	4923
862.712	4812
862.844	4759
862.976	4843
863.108	4904
863.24	5223
863.372	4828
863.504	4889
863.636	4919
863.768	4968
863.9	4919
864.032	4942
864.164	4999
864.296	5010
864.428	5105
864.559	5090
864.691	5181
864.823	5223
864.954	5140
865.086	5136
865.217	5117
865.349	5132
865.48	5178
865.612	5212
865.743	5334
865.875	5208
866.006	5162
866.137	5227
866.269	5265
866.4	5235
866.531	5223
866.662	5280
866.793	5227
866.924	5280
867.055	5433
867.186	5353
867.317	5315
867.448	5341
867.579	5349
867.71	5395
867.841	5383
867.972	5516
868.103	5474
868.233	5497
868.364	5493
868.495	5509
868.625	5676
868.756	5783
868.886	5695
869.017	5745
869.147	5802
869.278	5836
869.408	5863
869.539	5885
869.669	5897
869.799	5927
869.929	5988
870.06	5973
870.19	6216
870.32	6121
870.45	6235
870.58	6350
870.71	6429
870.84	6429
870.97	6448
871.1	6448
871.23	6684
871.36	6700
871.489	6684
871.619	6749
871.749	6764
871.879	6932
872.008	6989
872.138	6970
872.267	7023
872.397	6928
872.526	7038
872.656	7118
872.785	7160
872.915	7411
873.044	7544
873.173	7563
873.303	7647
873.432	7788
873.561	7864
873.69	7925
873.819	8043
873.948	8195
874.077	8233
874.206	8385
874.335	8511
874.464	8724
874.593	8826
874.722	8952
874.851	9157
874.979	9264
875.108	9348
875.237	9408
875.365	9538
875.494	9591
875.623	9873
875.751	9842
875.88	9960
876.008	10219
876.136	10284
876.265	10546
876.393	10748
876.521	10714
876.65	10805
876.778	10869
876.906	10900
877.034	10980
877.162	11113
877.29	11159
877.418	11246
877.546	11372
877.674	11463
877.802	11486
877.93	11459
878.058	11592
878.185	11611
878.313	11703
878.441	11726
878.568	11676
878.696	11874
878.824	11817
878.951	11935
879.079	11977
879.206	12171
879.333	12011
879.461	12091
879.588	12087
879.715	12068
879.842	12224
879.97	12064
880.097	11946
880.224	11916
880.351	11893
880.478	11885
880.605	11805
880.732	11855
880.859	12064
880.986	11760
881.112	11828
881.239	11775
881.366	11688
881.493	11623
881.619	11558
881.746	11608
881.872	11581
881.999	11558
882.125	11558
882.252	11547
882.378	11551
882.505	11562
882.631	11353
882.757	11360
882.883	11273
883.01	11318
883.136	11197
883.262	11124
883.388	11098
883.514	11155
883.64	11288
883.766	11113
883.892	10953
884.018	11090
884.143	11098
884.269	11064
884.395	10869
884.52	10759
884.646	10744
884.772	10721
884.897	10611
885.023	10702
885.148	10721
885.274	10664
885.399	10736
885.524	10599
885.65	10504
885.775	10577
885.9	10565
886.025	10611
886.15	10535
886.275	10462
886.4	10398
886.525	10341
886.65	10398
886.775	10386
886.9	10462
887.025	10519
887.149	10367
887.274	10188
887.399	10207
887.523	10211
887.648	10124
887.773	10143
887.897	10234
888.021	10150
888.146	10185
888.27	10242
888.395	10219
888.519	10215
888.643	10223
888.767	10086
888.891	10116
889.015	9934
889.139	10029
889.263	9941
889.387	10109
889.511	10120
889.635	10010
889.759	9979
889.883	9975
890.006	9968
890.13	10112
890.254	9865
890.377	10017
890.501	9884
890.624	9857
890.748	9869
890.871	9838
890.995	9804
891.118	9762
891.241	9816
891.364	9827
891.488	9918
891.611	9720
891.734	9774
891.857	9778
891.98	9701
892.103	9736
892.226	9736
892.349	9705
892.471	9568
892.594	9660
892.717	9595
892.839	9622
892.962	9686
893.085	9641
893.207	9637
893.33	9473
893.452	9542
893.575	9625
893.697	9515
893.819	9675
893.941	9603
894.064	9641
894.186	9523
894.308	9397
894.43	9447
894.552	9606
894.674	9530
894.796	9443
894.918	9344
895.04	9348
895.161	9439
895.283	9367
895.405	9207
895.526	9195
895.648	9218
895.769	9218
895.891	9222
896.012	9287
896.134	9226
896.255	9184
896.376	9169
896.498	9135
896.619	9165
896.74	9032
896.861	9028
896.982	9298
897.103	9386
897.224	9150
897.345	9081
897.466	8979
897.587	9043
897.708	9123
897.828	9051
897.949	9047
898.07	8929
898.19	8906
898.311	8963
898.431	8887
898.552	8967
898.672	8960
898.792	9001
898.913	8895
899.033	8857
899.153	8777
899.273	8720
899.393	8727
899.513	8743
899.633	8735
899.753	8708
899.873	8686
899.993	8750
900.113	8678
900.232	8762
900.352	8693
900.472	8682
900.591	8560
900.711	8560
900.83	8560
900.95	8708
901.069	8705
901.189	8526
901.308	8457
901.427	8412
901.546	8408
901.665	8473
901.784	8507
901.904	8347
902.023	8377
902.141	8237
902.26	8187
902.379	8290
902.498	8229
902.617	8237
902.735	8358
902.854	8286
902.973	8244
903.091	8161
903.21	8138
903.328	8164
903.446	8134
903.565	8062
903.683	8084
903.801	8088
903.919	8126
904.038	8103
904.156	8062
904.274	8039
904.392	8054
904.51	7974
904.627	8024
904.745	8134
904.863	8123
904.981	7963
905.098	7837
905.216	7841
905.334	7955
905.451	7921
905.569	7860
905.686	7917
905.803	7860
905.921	7772
906.038	7936
906.155	7864
906.272	7738
906.389	7734
906.506	7696
906.623	7658
906.74	7586
906.857	7457
906.974	7544
907.091	7647
907.208	7696
907.324	7681
907.441	7529
907.557	7495
907.674	7457
907.79	7369
907.907	7449
908.023	7502
908.139	7445
908.256	7377
908.372	7373
908.488	7430
908.604	7274
908.72	7289
908.836	7259
908.952	7274
909.068	7255
909.184	7343
909.3	7255
909.415	7217
909.531	7289
909.647	7198
909.762	7122
909.878	7050
909.993	7129
910.108	7065
910.224	7042
910.339	7122
910.454	7050
910.57	7053
910.685	6951
910.8	7141
910.915	7141
911.03	7004
911.145	6882
911.259	6981
911.374	6882
911.489	6863
911.604	6825
911.718	6711
911.833	6745
911.947	6684
912.062	6669
912.176	6669
912.291	6730
912.405	6703
912.519	6814
912.633	6863
912.748	6749
912.862	6707
912.976	6677
913.09	6517
913.204	6604
913.318	6612
913.431	6631
913.545	6696
913.659	6779
913.772	6639
913.886	6597
914	6559
914.113	6604
914.226	6612
914.34	6639
914.453	6498
914.566	6650
914.68	6608
914.793	6498
914.906	6433
915.019	6422
915.132	6311
915.245	6418
915.358	6437
915.47	6433
915.583	6418
915.696	6513
915.809	6517
915.921	6566
916.034	6467
916.146	6372
916.259	6429
916.371	6498
916.483	6410
916.595	6372
916.708	6407
916.82	6361
916.932	6395
917.044	6509
917.156	6448
917.268	6292
917.38	6372
917.491	6338
917.603	6388
917.715	6399
917.826	6426
917.938	6338
918.049	6235
918.161	6331
918.272	6399
918.384	6426
918.495	6334
918.606	6251
918.717	6277
918.828	6342
918.939	6266
919.05	6190
919.161	6224
919.272	6102
919.383	6136
919.494	6262
919.604	6471
919.715	6277
919.826	6239
919.936	6315
920.047	6395
920.157	6258
920.267	6426
920.378	6353
920.488	6220
920.598	6483
920.708	6525
920.818	6464
920.928	6460
921.038	6665
921.148	6627
921.258	6369
921.368	6338
921.477	6243
921.587	6175
921.697	6121
921.806	6159
921.916	6072
922.025	5988
922.134	5908
922.244	5863
922.353	5908
922.462	5851
922.571	5809
922.68	5752
922.789	5726
922.898	5733
923.007	5623
923.116	5783
923.224	5699
923.333	5714
923.442	5573
923.55	5604
923.659	5604
923.767	5611
923.876	5573
923.984	5653
924.092	5528
924.201	5573
924.309	5535
924.417	5608
924.525	5433
924.633	5452
924.741	6281
924.849	5414
924.956	5474
925.064	5322
925.172	5326
925.279	5280
925.387	5387
925.494	5307
925.602	5452
925.709	5383
925.816	5261
925.924	5284
926.031	5334
926.138	5292
926.245	5296
926.352	5212
926.459	5315
926.566	5280
926.673	5159
926.779	5117
926.886	5094
926.993	5075
927.099	5003
927.206	5006
927.312	4889
927.419	4972
927.525	5003
927.631	5025
927.737	4885
927.843	4911
927.95	4771
928.056	4835
928.162	4870
928.267	4839
928.373	5379
928.479	4831
928.585	4698
928.69	4786
928.796	4744
928.901	4683
929.007	4615
929.112	4698
929.218	4668
929.323	4607
929.428	4580
929.533	4706
929.638	4535
929.743	4561
929.848	4584
929.953	4519
930.058	4447
930.163	4352
930.267	4360
930.372	4451
930.477	4253
930.581	4485
930.685	4375
930.79	4246
930.894	4268
930.998	4234
931.103	4394
931.207	4154
931.311	4074
931.415	4036
931.519	3922
931.623	3945
