Data from glass_V78500241_663.txt Node
Date: Wed Sep 01 19:19:05 CST 2021
User: usil
Spectrometer: V785-0024
Trigger mode: 0
Integration Time (sec): 4.000000E-1
Scans to average: 1
Nonlinearity correction enabled: false
Boxcar width: 0
Storing dark spectrum: false
XAxis mode: Wavelengths
Number of Pixels in Spectrum: 1024
>>>>>Begin Spectral Data<<<<<
801.071	3751
801.214	3789
801.356	3747
801.499	3736
801.641	3705
801.783	3816
801.926	3869
802.068	3865
802.211	3854
802.353	3911
802.496	3861
802.638	3892
802.78	3861
802.923	3960
803.065	3926
803.208	3842
803.35	3899
803.492	3937
803.635	3926
803.777	3827
803.919	3880
804.061	4166
804.204	3945
804.346	4006
804.488	3953
804.63	4044
804.773	4029
804.915	4029
805.057	4131
805.199	4029
805.341	4143
805.483	4154
805.626	4154
805.768	4185
805.91	4234
806.052	4223
806.194	4177
806.336	4375
806.478	4246
806.62	4207
806.762	4276
806.904	4249
807.046	4371
807.188	4211
807.33	4188
807.472	4265
807.614	4223
807.756	4325
807.898	4211
808.04	4192
808.182	4306
808.324	4375
808.465	4356
808.607	4516
808.749	4455
808.891	4489
809.033	4508
809.174	4405
809.316	4299
809.458	4261
809.6	4158
809.741	4173
809.883	4181
810.025	4215
810.166	4204
810.308	4249
810.45	4306
810.591	4211
810.733	4287
810.875	4538
811.016	4854
811.158	5178
811.299	5280
811.441	5258
811.582	5064
811.724	4725
811.865	4455
812.007	4500
812.148	4421
812.29	4379
812.431	4474
812.573	4363
812.714	4394
812.855	4417
812.997	4398
813.138	4497
813.279	4428
813.421	4371
813.562	4402
813.703	4314
813.845	4363
813.986	4261
814.127	4219
814.268	4261
814.41	4306
814.551	4322
814.692	4333
814.833	4268
814.974	4329
815.115	4333
815.256	4291
815.397	4249
815.539	4246
815.68	4249
815.821	4257
815.962	4352
816.103	4299
816.244	4238
816.385	4238
816.526	4295
816.666	4261
816.807	4112
816.948	4192
817.089	4162
817.23	4139
817.371	4071
817.512	4086
817.653	4074
817.793	4029
817.934	4090
818.075	4112
818.216	4063
818.356	4128
818.497	4017
818.638	3975
818.778	3968
818.919	3930
819.06	3869
819.2	3945
819.341	3857
819.481	3831
819.622	3899
819.762	4040
819.903	3949
820.043	3819
820.184	3857
820.324	3835
820.465	3884
820.605	3911
820.746	3892
820.886	3827
821.026	3945
821.167	3949
821.307	3991
821.447	3983
821.588	3960
821.728	3956
821.868	3934
822.008	3915
822.149	3926
822.289	3953
822.429	3766
822.569	3781
822.709	3831
822.849	3740
822.99	3778
823.13	3778
823.27	3781
823.41	3736
823.55	3751
823.69	3736
823.83	3720
823.97	3694
824.11	3667
824.25	3637
824.389	3679
824.529	3629
824.669	3622
824.809	3717
824.949	3740
825.089	3709
825.228	3698
825.368	3633
825.508	3591
825.648	3595
825.787	3614
825.927	3644
826.067	3656
826.206	3618
826.346	3850
826.485	3850
826.625	3880
826.765	3945
826.904	3812
827.044	3641
827.183	3568
827.323	3435
827.462	3526
827.601	3431
827.741	3443
827.88	3485
828.02	3397
828.159	3500
828.298	3481
828.437	3526
828.577	3466
828.716	3629
828.855	3511
828.994	3397
829.134	3397
829.273	3401
829.412	3382
829.551	3359
829.69	3370
829.829	3439
829.968	3500
830.107	3473
830.246	3416
830.385	3393
830.524	3313
830.663	3313
830.802	3241
830.941	3192
831.08	3222
831.219	3298
831.357	3283
831.496	3416
831.635	3241
831.774	3211
831.913	3188
832.051	3127
832.19	3165
832.329	3192
832.467	3123
832.606	3150
832.744	3218
832.883	3192
833.022	3218
833.16	3256
833.299	3268
833.437	3374
833.576	3386
833.714	3420
833.852	3443
833.991	3462
834.129	3450
834.267	3485
834.406	3431
834.544	3466
834.682	3424
834.821	3397
834.959	3576
835.097	3447
835.235	3542
835.373	3519
835.511	3500
835.65	3458
835.788	3511
835.926	3401
836.064	3378
836.202	3439
836.34	3572
836.478	3610
836.615	3511
836.753	3625
836.891	3652
837.029	3591
837.167	3587
837.305	3572
837.443	3572
837.58	3473
837.718	3629
837.856	3538
837.993	3542
838.131	3618
838.269	3572
838.406	3599
838.544	3610
838.681	3523
838.819	3454
838.956	3359
839.094	3439
839.231	3450
839.369	3515
839.506	3740
839.643	3667
839.781	3515
839.918	3515
840.055	3553
840.193	3545
840.33	3500
840.467	3549
840.604	3652
840.742	3835
840.879	3545
841.016	3561
841.153	3580
841.29	3743
841.427	3720
841.564	3720
841.701	3762
841.838	3747
841.975	3690
842.112	3736
842.249	3660
842.385	3663
842.522	3800
842.659	3694
842.796	3675
842.933	3732
843.069	3736
843.206	3736
843.343	3865
843.479	3789
843.616	3816
843.752	3675
843.889	3724
844.025	3850
844.162	3713
844.298	3835
844.435	3838
844.571	3785
844.708	3945
844.844	4036
844.98	4029
845.117	4021
845.253	3945
845.389	3915
845.525	4013
845.661	3991
845.798	3975
845.934	4044
846.07	3953
846.206	4116
846.342	4109
846.478	4063
846.614	3983
846.75	3945
846.886	3934
847.022	4010
847.158	3960
847.294	4017
847.429	4013
847.565	4010
847.701	4284
847.837	3922
847.972	3865
848.108	3975
848.244	4032
848.379	3880
848.515	3873
848.65	3819
848.786	3857
848.921	3915
849.057	3934
849.192	3949
849.328	3949
849.463	3937
849.598	3876
849.734	3876
849.869	3850
850.004	3781
850.14	3762
850.275	3835
850.41	3770
850.545	3766
850.68	3789
850.815	3800
850.95	3827
851.085	3934
851.22	3846
851.355	3846
851.49	3827
851.625	3850
851.76	3808
851.895	3713
852.03	3785
852.165	3812
852.299	3804
852.434	3865
852.569	3873
852.703	3911
852.838	3907
852.973	3998
853.107	4021
853.242	3926
853.376	3888
853.511	3816
853.645	3865
853.78	3991
853.914	3930
854.048	3922
854.183	3892
854.317	3956
854.451	4116
854.585	3994
854.72	3953
854.854	4082
854.988	3941
855.122	3994
855.256	3953
855.39	4036
855.524	4143
855.658	4131
855.792	4120
855.926	4154
856.06	4139
856.194	4246
856.327	4207
856.461	4139
856.595	4147
856.729	4227
856.862	4268
856.996	4257
857.13	4295
857.263	4333
857.397	4383
857.53	4272
857.664	4375
857.797	4424
857.931	4383
858.064	4417
858.197	4478
858.331	4402
858.464	4394
858.597	4341
858.731	4451
858.864	4478
858.997	4481
859.13	4580
859.263	4538
859.396	4565
859.529	4527
859.662	4519
859.795	4512
859.928	4615
860.061	4706
860.194	4759
860.327	4656
860.46	4645
860.592	4717
860.725	4778
860.858	4767
860.99	4702
861.123	4694
861.256	4706
861.388	4774
861.521	5330
861.653	4752
861.786	4702
861.918	4748
862.05	4820
862.183	4854
862.315	4919
862.447	4927
862.58	4873
862.712	4820
862.844	4801
862.976	4831
863.108	4847
863.24	5250
863.372	4881
863.504	4904
863.636	4930
863.768	4987
863.9	5014
864.032	4965
864.164	4953
864.296	5048
864.428	5056
864.559	5102
864.691	5121
864.823	5113
864.954	5143
865.086	5140
865.217	5162
865.349	5102
865.48	5185
865.612	5181
865.743	5261
865.875	5231
866.006	5136
866.137	5258
866.269	5231
866.4	5311
866.531	5261
866.662	5227
866.793	5315
866.924	5318
867.055	5337
867.186	5337
867.317	5296
867.448	5330
867.579	5417
867.71	5387
867.841	5395
867.972	5493
868.103	5471
868.233	5512
868.364	5516
868.495	5581
868.625	5646
868.756	5824
868.886	5668
869.017	5737
869.147	5824
869.278	5874
869.408	5790
869.539	5836
869.669	5916
869.799	5961
869.929	6057
870.06	6072
870.19	6243
870.32	6243
870.45	6292
870.58	6350
870.71	6376
870.84	6486
870.97	6490
871.1	6471
871.23	6612
871.36	6779
871.489	6764
871.619	6776
871.749	6825
871.879	6837
872.008	6996
872.138	6989
872.267	7042
872.397	7012
872.526	7091
872.656	7107
872.785	7232
872.915	7434
873.044	7506
873.173	7597
873.303	7712
873.432	7780
873.561	7864
873.69	7917
873.819	8069
873.948	8183
874.077	8233
874.206	8374
874.335	8457
874.464	8678
874.593	8853
874.722	8986
874.851	9100
874.979	9230
875.108	9325
875.237	9420
875.365	9534
875.494	9618
875.623	9846
875.751	9869
875.88	9956
876.008	10017
876.136	10280
876.265	10500
876.393	10752
876.521	10687
876.65	10824
876.778	10831
876.906	11003
877.034	10904
877.162	11113
877.29	11124
877.418	11330
877.546	11436
877.674	11512
877.802	11448
877.93	11551
878.058	11608
878.185	11490
878.313	11642
878.441	11798
878.568	11653
878.696	11836
878.824	11828
878.951	11927
879.079	11999
879.206	12163
879.333	11996
879.461	12076
879.588	12076
879.715	12030
879.842	12235
879.97	12091
880.097	11920
880.224	11794
880.351	11950
880.478	11927
880.605	11859
880.732	11874
880.859	11935
880.986	11866
881.112	11935
881.239	11748
881.366	11722
881.493	11600
881.619	11524
881.746	11558
881.872	11566
881.999	11585
882.125	11520
882.252	11627
882.378	11463
882.505	11562
882.631	11368
882.757	11288
882.883	11284
883.01	11258
883.136	11204
883.262	11109
883.388	11117
883.514	11250
883.64	11220
883.766	11090
883.892	11006
884.018	11018
884.143	11083
884.269	11098
884.395	10858
884.52	10740
884.646	10812
884.772	10683
884.897	10656
885.023	10622
885.148	10786
885.274	10725
885.399	10774
885.524	10558
885.65	10615
885.775	10710
885.9	10531
886.025	10592
886.15	10565
886.275	10569
886.4	10344
886.525	10481
886.65	10402
886.775	10363
886.9	10508
887.025	10523
887.149	10344
887.274	10246
887.399	10223
887.523	10147
887.648	10162
887.773	10109
887.897	10257
888.021	10223
888.146	10162
888.27	10192
888.395	10291
888.519	10234
888.643	10200
888.767	10211
888.891	10082
889.015	10040
889.139	10074
889.263	9983
889.387	10158
889.511	10120
889.635	10097
889.759	10017
889.883	9964
890.006	10044
890.13	10071
890.254	9979
890.377	10002
890.501	9827
890.624	9915
890.748	9884
890.871	9915
890.995	9770
891.118	9736
891.241	9766
891.364	9724
891.488	9850
891.611	9804
891.734	9766
891.857	9778
891.98	9724
892.103	9759
892.226	9793
892.349	9675
892.471	9496
892.594	9614
892.717	9644
892.839	9553
892.962	9682
893.085	9671
893.207	9564
893.33	9572
893.452	9515
893.575	9568
893.697	9553
893.819	9625
893.941	9614
894.064	9644
894.186	9492
894.308	9466
894.43	9526
894.552	9561
894.674	9477
894.796	9435
894.918	9428
895.04	9401
895.161	9416
895.283	9370
895.405	9233
895.526	9272
895.648	9302
895.769	9283
895.891	9211
896.012	9298
896.134	9180
896.255	9142
896.376	9245
896.498	9131
896.619	9161
896.74	9066
896.861	9131
896.982	9154
897.103	9325
897.224	9180
897.345	8990
897.466	9020
897.587	9017
897.708	9009
897.828	8982
897.949	9024
898.07	8902
898.19	8921
898.311	9028
898.431	8963
898.552	8937
898.672	9009
898.792	9009
898.913	8944
899.033	8853
899.153	8777
899.273	8739
899.393	8811
899.513	8766
899.633	8724
899.753	8766
899.873	8674
899.993	8811
900.113	8746
900.232	8758
900.352	8678
900.472	8636
900.591	8537
900.711	8674
900.83	8476
900.95	8644
901.069	8655
901.189	8579
901.308	8396
901.427	8366
901.546	8495
901.665	8454
901.784	8507
901.904	8438
902.023	8374
902.141	8244
902.26	8214
902.379	8324
902.498	8267
902.617	8195
902.735	8275
902.854	8259
902.973	8263
903.091	8138
903.21	8153
903.328	8183
903.446	8202
903.565	8084
903.683	8115
903.801	8035
903.919	8100
904.038	8145
904.156	8077
904.274	8119
904.392	8020
904.51	8107
904.627	8096
904.745	8115
904.863	8138
904.981	8005
905.098	7868
905.216	7890
905.334	7879
905.451	7978
905.569	7894
905.686	7978
905.803	7959
905.921	7792
906.038	7906
906.155	7811
906.272	7708
906.389	7715
906.506	7727
906.623	7647
906.74	7605
906.857	7518
906.974	7582
907.091	7708
907.208	7742
907.324	7639
907.441	7537
907.557	7506
907.674	7449
907.79	7384
907.907	7487
908.023	7419
908.139	7426
908.256	7422
908.372	7377
908.488	7331
908.604	7350
908.72	7225
908.836	7225
908.952	7190
909.068	7247
909.184	7343
909.3	7320
909.415	7324
909.531	7240
909.647	7152
909.762	7088
909.878	7129
909.993	7190
910.108	7137
910.224	7107
910.339	7137
910.454	7122
910.57	6981
910.685	6935
910.8	7217
910.915	7069
911.03	7069
911.145	6935
911.259	6882
911.374	6890
911.489	6886
911.604	6856
911.718	6734
911.833	6772
911.947	6662
912.062	6635
912.176	6688
912.291	6730
912.405	6741
912.519	6840
912.633	6840
912.748	6760
912.862	6726
912.976	6582
913.09	6563
913.204	6578
913.318	6623
913.431	6662
913.545	6700
913.659	6719
913.772	6669
913.886	6574
914	6528
914.113	6642
914.226	6623
914.34	6608
914.453	6513
914.566	6616
914.68	6525
914.793	6555
914.906	6441
915.019	6467
915.132	6380
915.245	6422
915.358	6448
915.47	6452
915.583	6517
915.696	6494
915.809	6494
915.921	6608
916.034	6486
916.146	6407
916.259	6429
916.371	6517
916.483	6498
916.595	6437
916.708	6441
916.82	6388
916.932	6460
917.044	6384
917.156	6452
917.268	6391
917.38	6262
917.491	6327
917.603	6369
917.715	6403
917.826	6448
917.938	6334
918.049	6304
918.161	6334
918.272	6456
918.384	6475
918.495	6403
918.606	6232
918.717	6220
918.828	6289
918.939	6334
919.05	6270
919.161	6323
919.272	6095
919.383	6155
919.494	6273
919.604	6452
919.715	6266
919.826	6194
919.936	6254
920.047	6384
920.157	6266
920.267	6388
920.378	6365
920.488	6258
920.598	6460
920.708	6509
920.818	6471
920.928	6490
921.038	6639
921.148	6574
921.258	6342
921.368	6304
921.477	6228
921.587	6186
921.697	6091
921.806	6201
921.916	6095
922.025	5977
922.134	5885
922.244	5863
922.353	5961
922.462	5878
922.571	5813
922.68	5737
922.789	5695
922.898	5733
923.007	5729
923.116	5722
923.224	5665
923.333	5672
923.442	5589
923.55	5596
923.659	5520
923.767	5638
923.876	5581
923.984	5653
924.092	5509
924.201	5577
924.309	5562
924.417	5532
924.525	5520
924.633	5474
924.741	6106
924.849	5391
924.956	5516
925.064	5379
925.172	5326
925.279	5341
925.387	5353
925.494	5334
925.602	5425
925.709	5417
925.816	5341
925.924	5303
926.031	5368
926.138	5299
926.245	5311
926.352	5303
926.459	5406
926.566	5334
926.673	5189
926.779	5159
926.886	5113
926.993	5052
927.099	5003
927.206	5014
927.312	4976
927.419	5014
927.525	4987
927.631	5018
927.737	4919
927.843	4847
927.95	4755
928.056	4809
928.162	4816
928.267	4847
928.373	5341
928.479	4850
928.585	4778
928.69	4752
928.796	4782
928.901	4653
929.007	4622
929.112	4725
929.218	4687
929.323	4622
929.428	4588
929.533	4729
929.638	4584
929.743	4569
929.848	4569
929.953	4554
930.058	4443
930.163	4295
930.267	4379
930.372	4409
930.477	4318
930.581	4500
930.685	4360
930.79	4280
930.894	4299
930.998	4284
931.103	4398
931.207	4124
931.311	4090
931.415	4044
931.519	3972
931.623	3972
