Data from glass_V78500241_322.txt Node
Date: Wed Sep 01 19:16:43 CST 2021
User: usil
Spectrometer: V785-0024
Trigger mode: 0
Integration Time (sec): 4.000000E-1
Scans to average: 1
Nonlinearity correction enabled: false
Boxcar width: 0
Storing dark spectrum: false
XAxis mode: Wavelengths
Number of Pixels in Spectrum: 1024
>>>>>Begin Spectral Data<<<<<
801.071	3774
801.214	3831
801.356	3747
801.499	3774
801.641	3743
801.783	3846
801.926	3926
802.068	3869
802.211	3911
802.353	3888
802.496	3842
802.638	3907
802.78	3941
802.923	3972
803.065	3903
803.208	3861
803.35	3892
803.492	3896
803.635	3930
803.777	3816
803.919	3884
804.061	4143
804.204	3972
804.346	3953
804.488	3918
804.63	4071
804.773	3964
804.915	4044
805.057	4177
805.199	4044
805.341	4131
805.483	4147
805.626	4143
805.768	4135
805.91	4230
806.052	4242
806.194	4215
806.336	4375
806.478	4230
806.62	4173
806.762	4207
806.904	4261
807.046	4306
807.188	4246
807.33	4177
807.472	4261
807.614	4196
807.756	4322
807.898	4215
808.04	4223
808.182	4299
808.324	4360
808.465	4398
808.607	4478
808.749	4497
808.891	4440
809.033	4565
809.174	4478
809.316	4284
809.458	4276
809.6	4158
809.741	4166
809.883	4135
810.025	4219
810.166	4215
810.308	4242
810.45	4276
810.591	4227
810.733	4295
810.875	4580
811.016	4774
811.158	5212
811.299	5322
811.441	5284
811.582	5067
811.724	4694
811.865	4508
812.007	4455
812.148	4481
812.29	4379
812.431	4428
812.573	4402
812.714	4360
812.855	4489
812.997	4428
813.138	4459
813.279	4462
813.421	4386
813.562	4337
813.703	4314
813.845	4329
813.986	4295
814.127	4230
814.268	4280
814.41	4348
814.551	4284
814.692	4348
814.833	4318
814.974	4306
815.115	4352
815.256	4280
815.397	4280
815.539	4257
815.68	4215
815.821	4227
815.962	4329
816.103	4284
816.244	4265
816.385	4211
816.526	4284
816.666	4242
816.807	4093
816.948	4181
817.089	4177
817.23	4158
817.371	4093
817.512	4071
817.653	4082
817.793	4082
817.934	4021
818.075	4120
818.216	4112
818.356	4109
818.497	4048
818.638	3903
818.778	3945
818.919	3888
819.06	3876
819.2	3934
819.341	3869
819.481	3842
819.622	3903
819.762	3994
819.903	3934
820.043	3903
820.184	3831
820.324	3835
820.465	3865
820.605	3850
820.746	3869
820.886	3835
821.026	3934
821.167	3934
821.307	3956
821.447	3979
821.588	4002
821.728	4006
821.868	3899
822.008	3865
822.149	3911
822.289	3956
822.429	3800
822.569	3766
822.709	3785
822.849	3682
822.99	3740
823.13	3762
823.27	3808
823.41	3751
823.55	3747
823.69	3770
823.83	3770
823.97	3690
824.11	3622
824.25	3603
824.389	3660
824.529	3671
824.669	3652
824.809	3732
824.949	3736
825.089	3747
825.228	3732
825.368	3568
825.508	3568
825.648	3595
825.787	3652
825.927	3644
826.067	3663
826.206	3671
826.346	3800
826.485	3838
826.625	3827
826.765	3972
826.904	3819
827.044	3633
827.183	3557
827.323	3431
827.462	3469
827.601	3443
827.741	3431
827.88	3450
828.02	3367
828.159	3447
828.298	3485
828.437	3564
828.577	3466
828.716	3625
828.855	3515
828.994	3416
829.134	3370
829.273	3389
829.412	3351
829.551	3348
829.69	3370
829.829	3431
829.968	3515
830.107	3443
830.246	3466
830.385	3378
830.524	3409
830.663	3302
830.802	3321
830.941	3233
831.08	3199
831.219	3298
831.357	3260
831.496	3424
831.635	3256
831.774	3176
831.913	3230
832.051	3127
832.19	3108
832.329	3176
832.467	3173
832.606	3119
832.744	3169
832.883	3146
833.022	3192
833.16	3253
833.299	3310
833.437	3363
833.576	3367
833.714	3386
833.852	3431
833.991	3469
834.129	3504
834.267	3469
834.406	3428
834.544	3443
834.682	3412
834.821	3428
834.959	3591
835.097	3439
835.235	3545
835.373	3530
835.511	3492
835.65	3477
835.788	3519
835.926	3416
836.064	3424
836.202	3420
836.34	3549
836.478	3663
836.615	3564
836.753	3614
836.891	3648
837.029	3629
837.167	3572
837.305	3549
837.443	3523
837.58	3496
837.718	3633
837.856	3530
837.993	3545
838.131	3644
838.269	3595
838.406	3603
838.544	3603
838.681	3530
838.819	3481
838.956	3397
839.094	3405
839.231	3469
839.369	3507
839.506	3762
839.643	3694
839.781	3519
839.918	3477
840.055	3526
840.193	3576
840.33	3545
840.467	3545
840.604	3576
840.742	3823
840.879	3564
841.016	3584
841.153	3629
841.29	3751
841.427	3717
841.564	3774
841.701	3747
841.838	3709
841.975	3667
842.112	3720
842.249	3667
842.385	3648
842.522	3831
842.659	3728
842.796	3694
842.933	3694
843.069	3698
843.206	3713
843.343	3816
843.479	3789
843.616	3831
843.752	3698
843.889	3713
844.025	3857
844.162	3732
844.298	3865
844.435	3808
844.571	3785
844.708	3911
844.844	3964
844.98	4013
845.117	4040
845.253	3972
845.389	3918
845.525	3979
845.661	4013
845.798	3926
845.934	4025
846.07	4010
846.206	4097
846.342	4169
846.478	4097
846.614	4010
846.75	3930
846.886	3922
847.022	4078
847.158	3994
847.294	3983
847.429	4025
847.565	4025
847.701	4268
847.837	3918
847.972	3899
848.108	3979
848.244	3979
848.379	3888
848.515	3850
848.65	3827
848.786	3865
848.921	3915
849.057	3922
849.192	3930
849.328	3915
849.463	3983
849.598	3896
849.734	3880
849.869	3873
850.004	3778
850.14	3861
850.275	3793
850.41	3759
850.545	3759
850.68	3831
850.815	3812
850.95	3797
851.085	3953
851.22	3865
851.355	3827
851.49	3774
851.625	3804
851.76	3804
851.895	3724
852.03	3740
852.165	3808
852.299	3896
852.434	3899
852.569	3911
852.703	3907
852.838	3949
852.973	3960
853.107	3991
853.242	3888
853.376	3842
853.511	3789
853.645	3804
853.78	3960
853.914	3922
854.048	3922
854.183	3922
854.317	3922
854.451	4078
854.585	3964
854.72	3937
854.854	4017
854.988	3956
855.122	4036
855.256	3968
855.39	4029
855.524	4112
855.658	4082
855.792	4112
855.926	4181
856.06	4147
856.194	4192
856.327	4135
856.461	4158
856.595	4150
856.729	4185
856.862	4322
856.996	4276
857.13	4314
857.263	4341
857.397	4352
857.53	4310
857.664	4383
857.797	4424
857.931	4394
858.064	4417
858.197	4481
858.331	4409
858.464	4409
858.597	4356
858.731	4421
858.864	4470
858.997	4455
859.13	4527
859.263	4481
859.396	4550
859.529	4599
859.662	4550
859.795	4485
859.928	4592
860.061	4744
860.194	4790
860.327	4660
860.46	4672
860.592	4759
860.725	4733
860.858	4771
860.99	4717
861.123	4656
861.256	4694
861.388	4793
861.521	5284
861.653	4733
861.786	4679
861.918	4801
862.05	4820
862.183	4858
862.315	4976
862.447	4938
862.58	4900
862.712	4809
862.844	4721
862.976	4930
863.108	4885
863.24	5360
863.372	4896
863.504	4927
863.636	4915
863.768	4938
863.9	5006
864.032	5006
864.164	4957
864.296	5037
864.428	5060
864.559	5132
864.691	5147
864.823	5151
864.954	5132
865.086	5170
865.217	5121
865.349	5102
865.48	5166
865.612	5147
865.743	5318
865.875	5189
866.006	5166
866.137	5223
866.269	5246
866.4	5303
866.531	5258
866.662	5239
866.793	5330
866.924	5288
867.055	5357
867.186	5349
867.317	5334
867.448	5265
867.579	5429
867.71	5398
867.841	5398
867.972	5463
868.103	5455
868.233	5535
868.364	5543
868.495	5642
868.625	5680
868.756	5794
868.886	5756
869.017	5722
869.147	5866
869.278	5893
869.408	5786
869.539	5840
869.669	5954
869.799	5954
869.929	5984
870.06	6083
870.19	6194
870.32	6194
870.45	6209
870.58	6350
870.71	6460
870.84	6483
870.97	6429
871.1	6517
871.23	6658
871.36	6700
871.489	6696
871.619	6814
871.749	6837
871.879	6818
872.008	6985
872.138	6981
872.267	6989
872.397	7031
872.526	7046
872.656	7133
872.785	7320
872.915	7426
873.044	7460
873.173	7552
873.303	7746
873.432	7693
873.561	7970
873.69	7875
873.819	7986
873.948	8172
874.077	8218
874.206	8328
874.335	8492
874.464	8667
874.593	8811
874.722	8906
874.851	9097
874.979	9184
875.108	9386
875.237	9454
875.365	9469
875.494	9656
875.623	9869
875.751	9861
875.88	9994
876.008	10082
876.136	10299
876.265	10527
876.393	10714
876.521	10740
876.65	10809
876.778	10869
876.906	10911
877.034	10987
877.162	11067
877.29	11162
877.418	11299
877.546	11345
877.674	11471
877.802	11455
877.93	11562
878.058	11581
878.185	11562
878.313	11676
878.441	11767
878.568	11699
878.696	11786
878.824	11897
878.951	11870
879.079	11996
879.206	12114
879.333	12064
879.461	11969
879.588	12007
879.715	12049
879.842	12197
879.97	12076
880.097	11889
880.224	11863
880.351	11885
880.478	11965
880.605	11885
880.732	11817
880.859	12015
880.986	11821
881.112	11851
881.239	11642
881.366	11566
881.493	11611
881.619	11573
881.746	11592
881.872	11570
881.999	11490
882.125	11490
882.252	11535
882.378	11501
882.505	11581
882.631	11433
882.757	11201
882.883	11356
883.01	11292
883.136	11178
883.262	11128
883.388	11090
883.514	11277
883.64	11140
883.766	11155
883.892	11037
884.018	11014
884.143	11086
884.269	10999
884.395	10930
884.52	10729
884.646	10812
884.772	10675
884.897	10691
885.023	10694
885.148	10729
885.274	10790
885.399	10656
885.524	10683
885.65	10668
885.775	10618
885.9	10584
886.025	10573
886.15	10607
886.275	10451
886.4	10352
886.525	10398
886.65	10337
886.775	10337
886.9	10447
887.025	10447
887.149	10314
887.274	10291
887.399	10276
887.523	10139
887.648	10234
887.773	10173
887.897	10242
888.021	10268
888.146	10177
888.27	10192
888.395	10242
888.519	10272
888.643	10185
888.767	10158
888.891	10131
889.015	10078
889.139	10025
889.263	9892
889.387	10131
889.511	10105
889.635	10120
889.759	9956
889.883	9975
890.006	9987
890.13	10082
890.254	9968
890.377	9987
890.501	9812
890.624	9888
890.748	9956
890.871	9804
890.995	9819
891.118	9728
891.241	9759
891.364	9797
891.488	9835
891.611	9720
891.734	9781
891.857	9766
891.98	9736
892.103	9808
892.226	9770
892.349	9709
892.471	9568
892.594	9599
892.717	9580
892.839	9599
892.962	9648
893.085	9720
893.207	9587
893.33	9507
893.452	9496
893.575	9671
893.697	9420
893.819	9595
893.941	9671
894.064	9595
894.186	9511
894.308	9359
894.43	9496
894.552	9603
894.674	9523
894.796	9378
894.918	9408
895.04	9359
895.161	9374
895.283	9344
895.405	9272
895.526	9336
895.648	9222
895.769	9222
895.891	9256
896.012	9253
896.134	9256
896.255	9199
896.376	9104
896.498	9104
896.619	9127
896.74	9116
896.861	9039
896.982	9298
897.103	9336
897.224	9165
897.345	9062
897.466	9062
897.587	9119
897.708	9123
897.828	9032
897.949	8853
898.07	8887
898.19	8948
898.311	9047
898.431	8864
898.552	9013
898.672	9028
898.792	9028
898.913	8880
899.033	8834
899.153	8792
899.273	8682
899.393	8693
899.513	8804
899.633	8743
899.753	8766
899.873	8754
899.993	8746
900.113	8689
900.232	8754
900.352	8613
900.472	8560
900.591	8579
900.711	8594
900.83	8598
900.95	8651
901.069	8693
901.189	8583
901.308	8404
901.427	8389
901.546	8427
901.665	8480
901.784	8556
901.904	8381
902.023	8320
902.141	8275
902.26	8225
902.379	8256
902.498	8187
902.617	8256
902.735	8313
902.854	8324
902.973	8328
903.091	8103
903.21	8199
903.328	8138
903.446	8081
903.565	8073
903.683	8058
903.801	8103
903.919	8206
904.038	8130
904.156	8119
904.274	8016
904.392	8001
904.51	8073
904.627	8096
904.745	8065
904.863	8084
904.981	7959
905.098	7856
905.216	7833
905.334	7890
905.451	7917
905.569	7887
905.686	7890
905.803	7906
905.921	7830
906.038	7883
906.155	7780
906.272	7765
906.389	7708
906.506	7647
906.623	7639
906.74	7590
906.857	7582
906.974	7658
907.091	7715
907.208	7727
907.324	7616
907.441	7609
907.557	7434
907.674	7468
907.79	7449
907.907	7388
908.023	7392
908.139	7403
908.256	7369
908.372	7426
908.488	7400
908.604	7335
908.72	7305
908.836	7339
908.952	7244
909.068	7335
909.184	7343
909.3	7365
909.415	7324
909.531	7289
909.647	7145
909.762	7187
909.878	7088
909.993	7168
910.108	7126
910.224	7069
910.339	7088
910.454	7019
910.57	7053
910.685	6932
910.8	7187
910.915	7099
911.03	7031
911.145	6920
911.259	6871
911.374	6962
911.489	6852
911.604	6867
911.718	6700
911.833	6772
911.947	6688
912.062	6635
912.176	6669
912.291	6749
912.405	6722
912.519	6802
912.633	6833
912.748	6757
912.862	6760
912.976	6578
913.09	6563
913.204	6623
913.318	6654
913.431	6631
913.545	6719
913.659	6711
913.772	6631
913.886	6563
914	6631
914.113	6582
914.226	6631
914.34	6662
914.453	6475
914.566	6639
914.68	6506
914.793	6559
914.906	6475
915.019	6399
915.132	6384
915.245	6418
915.358	6528
915.47	6494
915.583	6479
915.696	6464
915.809	6490
915.921	6555
916.034	6445
916.146	6388
916.259	6391
916.371	6506
916.483	6464
916.595	6407
916.708	6342
916.82	6426
916.932	6452
917.044	6506
917.156	6445
917.268	6304
917.38	6353
917.491	6350
917.603	6384
917.715	6426
917.826	6391
917.938	6350
918.049	6292
918.161	6338
918.272	6452
918.384	6448
918.495	6384
918.606	6315
918.717	6266
918.828	6323
918.939	6296
919.05	6182
919.161	6289
919.272	6144
919.383	6194
919.494	6311
919.604	6410
919.715	6296
919.826	6289
919.936	6239
920.047	6331
920.157	6342
920.267	6448
920.378	6350
920.488	6258
920.598	6464
920.708	6608
920.818	6437
920.928	6479
921.038	6555
921.148	6620
921.258	6369
921.368	6315
921.477	6213
921.587	6190
921.697	6087
921.806	6201
921.916	6072
922.025	5965
922.134	5920
922.244	5912
922.353	6003
922.462	5832
922.571	5798
922.68	5726
922.789	5691
922.898	5684
923.007	5672
923.116	5771
923.224	5691
923.333	5638
923.442	5573
923.55	5589
923.659	5566
923.767	5634
923.876	5547
923.984	5566
924.092	5490
924.201	5581
924.309	5505
924.417	5528
924.525	5471
924.633	5512
924.741	6300
924.849	5440
924.956	5467
925.064	5349
925.172	5299
925.279	5322
925.387	5337
925.494	5349
925.602	5455
925.709	5395
925.816	5353
925.924	5284
926.031	5391
926.138	5292
926.245	5303
926.352	5261
926.459	5334
926.566	5303
926.673	5197
926.779	5174
926.886	5140
926.993	5045
927.099	5010
927.206	4984
927.312	4980
927.419	4999
927.525	4984
927.631	5006
927.737	4915
927.843	4885
927.95	4778
928.056	4885
928.162	4824
928.267	4889
928.373	5299
928.479	4911
928.585	4725
928.69	4782
928.796	4812
928.901	4679
929.007	4592
929.112	4710
929.218	4649
929.323	4656
929.428	4618
929.533	4706
929.638	4512
929.743	4523
929.848	4573
929.953	4542
930.058	4417
930.163	4360
930.267	4352
930.372	4440
930.477	4344
930.581	4481
930.685	4390
930.79	4337
930.894	4268
930.998	4227
931.103	4371
931.207	4105
931.311	4067
931.415	4048
931.519	3968
931.623	3945
