Data from glass_V78500241_896.txt Node
Date: Wed Sep 01 19:20:42 CST 2021
User: usil
Spectrometer: V785-0024
Trigger mode: 0
Integration Time (sec): 4.000000E-1
Scans to average: 1
Nonlinearity correction enabled: false
Boxcar width: 0
Storing dark spectrum: false
XAxis mode: Wavelengths
Number of Pixels in Spectrum: 1024
>>>>>Begin Spectral Data<<<<<
801.071	3755
801.214	3751
801.356	3660
801.499	3781
801.641	3755
801.783	3793
801.926	3835
802.068	3842
802.211	3838
802.353	3899
802.496	3865
802.638	3850
802.78	3892
802.923	3994
803.065	3911
803.208	3842
803.35	3922
803.492	3888
803.635	3899
803.777	3800
803.919	3918
804.061	4169
804.204	3945
804.346	3960
804.488	3937
804.63	4048
804.773	3983
804.915	4074
805.057	4188
805.199	4036
805.341	4109
805.483	4173
805.626	4116
805.768	4131
805.91	4215
806.052	4223
806.194	4207
806.336	4371
806.478	4253
806.62	4166
806.762	4223
806.904	4276
807.046	4344
807.188	4242
807.33	4227
807.472	4246
807.614	4204
807.756	4295
807.898	4211
808.04	4173
808.182	4295
808.324	4341
808.465	4417
808.607	4447
808.749	4489
808.891	4523
809.033	4554
809.174	4398
809.316	4303
809.458	4265
809.6	4143
809.741	4177
809.883	4192
810.025	4227
810.166	4207
810.308	4196
810.45	4291
810.591	4280
810.733	4284
810.875	4500
811.016	4805
811.158	5121
811.299	5277
811.441	5277
811.582	5083
811.724	4664
811.865	4470
812.007	4481
812.148	4436
812.29	4413
812.431	4428
812.573	4417
812.714	4390
812.855	4394
812.997	4451
813.138	4512
813.279	4413
813.421	4440
813.562	4405
813.703	4356
813.845	4379
813.986	4238
814.127	4200
814.268	4306
814.41	4272
814.551	4303
814.692	4337
814.833	4318
814.974	4299
815.115	4341
815.256	4268
815.397	4238
815.539	4272
815.68	4253
815.821	4249
815.962	4329
816.103	4253
816.244	4230
816.385	4211
816.526	4287
816.666	4238
816.807	4097
816.948	4207
817.089	4169
817.23	4112
817.371	4036
817.512	4067
817.653	4071
817.793	4048
817.934	4021
818.075	4082
818.216	4090
818.356	4097
818.497	4074
818.638	3934
818.778	3899
818.919	3911
819.06	3884
819.2	3941
819.341	3880
819.481	3835
819.622	3892
819.762	4040
819.903	3918
820.043	3854
820.184	3808
820.324	3819
820.465	3846
820.605	3899
820.746	3857
820.886	3812
821.026	3896
821.167	3918
821.307	3960
821.447	3994
821.588	3934
821.728	3972
821.868	3979
822.008	3876
822.149	3926
822.289	3857
822.429	3766
822.569	3762
822.709	3789
822.849	3740
822.99	3781
823.13	3793
823.27	3838
823.41	3720
823.55	3774
823.69	3736
823.83	3755
823.97	3629
824.11	3641
824.25	3564
824.389	3614
824.529	3686
824.669	3641
824.809	3709
824.949	3740
825.089	3743
825.228	3709
825.368	3610
825.508	3538
825.648	3568
825.787	3603
825.927	3606
826.067	3625
826.206	3732
826.346	3835
826.485	3846
826.625	3876
826.765	3994
826.904	3850
827.044	3644
827.183	3542
827.323	3466
827.462	3488
827.601	3443
827.741	3412
827.88	3481
828.02	3367
828.159	3450
828.298	3466
828.437	3526
828.577	3504
828.716	3644
828.855	3488
828.994	3405
829.134	3405
829.273	3409
829.412	3359
829.551	3370
829.69	3409
829.829	3431
829.968	3534
830.107	3450
830.246	3496
830.385	3355
830.524	3378
830.663	3306
830.802	3272
830.941	3218
831.08	3222
831.219	3294
831.357	3291
831.496	3397
831.635	3222
831.774	3173
831.913	3233
832.051	3108
832.19	3135
832.329	3233
832.467	3169
832.606	3142
832.744	3180
832.883	3169
833.022	3203
833.16	3264
833.299	3306
833.437	3313
833.576	3359
833.714	3393
833.852	3386
833.991	3416
834.129	3488
834.267	3458
834.406	3416
834.544	3412
834.682	3466
834.821	3439
834.959	3553
835.097	3435
835.235	3545
835.373	3523
835.511	3469
835.65	3450
835.788	3492
835.926	3374
836.064	3382
836.202	3431
836.34	3603
836.478	3610
836.615	3580
836.753	3603
836.891	3694
837.029	3663
837.167	3610
837.305	3549
837.443	3557
837.58	3526
837.718	3618
837.856	3542
837.993	3561
838.131	3644
838.269	3595
838.406	3595
838.544	3534
838.681	3466
838.819	3447
838.956	3382
839.094	3389
839.231	3431
839.369	3553
839.506	3759
839.643	3660
839.781	3545
839.918	3492
840.055	3515
840.193	3515
840.33	3538
840.467	3549
840.604	3545
840.742	3793
840.879	3553
841.016	3591
841.153	3591
841.29	3766
841.427	3736
841.564	3724
841.701	3800
841.838	3679
841.975	3705
842.112	3732
842.249	3622
842.385	3603
842.522	3812
842.659	3694
842.796	3671
842.933	3690
843.069	3728
843.206	3740
843.343	3797
843.479	3766
843.616	3842
843.752	3690
843.889	3698
844.025	3865
844.162	3743
844.298	3861
844.435	3812
844.571	3827
844.708	3956
844.844	3991
844.98	3994
845.117	3994
845.253	3918
845.389	3884
845.525	3972
845.661	4010
845.798	3949
845.934	4025
846.07	3975
846.206	4067
846.342	4124
846.478	4048
846.614	3956
846.75	3922
846.886	3930
847.022	4074
847.158	4013
847.294	4017
847.429	4025
847.565	3991
847.701	4249
847.837	3854
847.972	3850
848.108	4013
848.244	3979
848.379	3857
848.515	3838
848.65	3804
848.786	3892
848.921	3857
849.057	3930
849.192	3915
849.328	3911
849.463	3949
849.598	3903
849.734	3926
849.869	3831
850.004	3785
850.14	3846
850.275	3816
850.41	3755
850.545	3823
850.68	3785
850.815	3816
850.95	3838
851.085	3979
851.22	3869
851.355	3861
851.49	3831
851.625	3785
851.76	3854
851.895	3770
852.03	3740
852.165	3812
852.299	3857
852.434	3922
852.569	3838
852.703	3937
852.838	3953
852.973	4040
853.107	3991
853.242	3899
853.376	3850
853.511	3838
853.645	3846
853.78	3991
853.914	3899
854.048	3903
854.183	3930
854.317	3979
854.451	4086
854.585	3987
854.72	3960
854.854	4086
854.988	3911
855.122	4013
855.256	3926
855.39	4059
855.524	4112
855.658	4093
855.792	4044
855.926	4135
856.06	4169
856.194	4181
856.327	4169
856.461	4101
856.595	4173
856.729	4200
856.862	4284
856.996	4227
857.13	4333
857.263	4375
857.397	4299
857.53	4318
857.664	4333
857.797	4375
857.931	4417
858.064	4375
858.197	4436
858.331	4413
858.464	4390
858.597	4371
858.731	4432
858.864	4489
858.997	4455
859.13	4516
859.263	4561
859.396	4630
859.529	4565
859.662	4554
859.795	4558
859.928	4569
860.061	4736
860.194	4767
860.327	4630
860.46	4668
860.592	4752
860.725	4740
860.858	4824
860.99	4733
861.123	4691
861.256	4717
861.388	4778
861.521	5547
861.653	4748
861.786	4664
861.918	4752
862.05	4805
862.183	4843
862.315	4881
862.447	4961
862.58	4885
862.712	4752
862.844	4755
862.976	4881
863.108	4900
863.24	5105
863.372	4850
863.504	4957
863.636	4904
863.768	4976
863.9	4965
864.032	4980
864.164	4995
864.296	5014
864.428	5105
864.559	5128
864.691	5185
864.823	5105
864.954	5136
865.086	5117
865.217	5166
865.349	5094
865.48	5151
865.612	5197
865.743	5254
865.875	5265
866.006	5178
866.137	5265
866.269	5292
866.4	5273
866.531	5261
866.662	5280
866.793	5337
866.924	5288
867.055	5360
867.186	5311
867.317	5311
867.448	5360
867.579	5341
867.71	5398
867.841	5421
867.972	5520
868.103	5444
868.233	5493
868.364	5524
868.495	5562
868.625	5718
868.756	5745
868.886	5688
869.017	5729
869.147	5851
869.278	5870
869.408	5851
869.539	5847
869.669	5885
869.799	5942
869.929	6003
870.06	6011
870.19	6209
870.32	6152
870.45	6300
870.58	6365
870.71	6441
870.84	6460
870.97	6410
871.1	6486
871.23	6654
871.36	6719
871.489	6662
871.619	6787
871.749	6798
871.879	6878
872.008	6996
872.138	6977
872.267	7042
872.397	7027
872.526	7053
872.656	7110
872.785	7236
872.915	7396
873.044	7510
873.173	7578
873.303	7662
873.432	7799
873.561	7822
873.69	7887
873.819	7921
873.948	8225
874.077	8252
874.206	8366
874.335	8415
874.464	8655
874.593	8792
874.722	8872
874.851	9138
874.979	9192
875.108	9321
875.237	9466
875.365	9564
875.494	9686
875.623	9850
875.751	9759
875.88	9975
876.008	10154
876.136	10280
876.265	10504
876.393	10637
876.521	10717
876.65	10858
876.778	10854
876.906	10911
877.034	11003
877.162	11014
877.29	11162
877.418	11307
877.546	11395
877.674	11509
877.802	11425
877.93	11581
878.058	11573
878.185	11589
878.313	11657
878.441	11733
878.568	11608
878.696	11836
878.824	11821
878.951	11923
879.079	12110
879.206	12110
879.333	12034
879.461	11958
879.588	11973
879.715	12030
879.842	12232
879.97	12072
880.097	11897
880.224	11840
880.351	11931
880.478	11901
880.605	11889
880.732	11809
880.859	12030
880.986	11775
881.112	11817
881.239	11809
881.366	11680
881.493	11573
881.619	11642
881.746	11589
881.872	11516
881.999	11585
882.125	11520
882.252	11497
882.378	11486
882.505	11642
882.631	11376
882.757	11326
882.883	11376
883.01	11307
883.136	11151
883.262	11132
883.388	11067
883.514	11140
883.64	11162
883.766	11136
883.892	10953
884.018	11025
884.143	11086
884.269	11010
884.395	10820
884.52	10820
884.646	10759
884.772	10672
884.897	10664
885.023	10721
885.148	10706
885.274	10771
885.399	10702
885.524	10675
885.65	10626
885.775	10649
885.9	10500
886.025	10679
886.15	10531
886.275	10432
886.4	10409
886.525	10325
886.65	10318
886.775	10363
886.9	10535
887.025	10504
887.149	10375
887.274	10265
887.399	10204
887.523	10204
887.648	10097
887.773	10112
887.897	10230
888.021	10207
888.146	10143
888.27	10211
888.395	10287
888.519	10166
888.643	10249
888.767	10211
888.891	10051
889.015	10006
889.139	10063
889.263	10040
889.387	10071
889.511	10124
889.635	10135
889.759	9907
889.883	9987
890.006	9960
890.13	10013
890.254	10002
890.377	9964
890.501	9869
890.624	9903
890.748	9956
890.871	9808
890.995	9720
891.118	9686
891.241	9724
891.364	9770
891.488	9922
891.611	9793
891.734	9755
891.857	9850
891.98	9762
892.103	9740
892.226	9766
892.349	9694
892.471	9530
892.594	9648
892.717	9568
892.839	9641
892.962	9660
893.085	9606
893.207	9622
893.33	9526
893.452	9557
893.575	9663
893.697	9428
893.819	9561
893.941	9633
894.064	9633
894.186	9454
894.308	9435
894.43	9507
894.552	9561
894.674	9485
894.796	9317
894.918	9401
895.04	9351
895.161	9389
895.283	9351
895.405	9260
895.526	9313
895.648	9256
895.769	9226
895.891	9260
896.012	9287
896.134	9233
896.255	9203
896.376	9173
896.498	9161
896.619	9077
896.74	9135
896.861	9074
896.982	9329
897.103	9374
897.224	9207
897.345	9097
897.466	9028
897.587	9032
897.708	9150
897.828	9047
897.949	8876
898.07	8971
898.19	8910
898.311	9051
898.431	8948
898.552	8971
898.672	9043
898.792	9036
898.913	8887
899.033	8830
899.153	8845
899.273	8686
899.393	8708
899.513	8750
899.633	8731
899.753	8762
899.873	8758
899.993	8746
900.113	8712
900.232	8697
900.352	8712
900.472	8686
900.591	8556
900.711	8556
900.83	8568
900.95	8674
901.069	8720
901.189	8587
901.308	8469
901.427	8358
901.546	8492
901.665	8484
901.784	8469
901.904	8362
902.023	8313
902.141	8195
902.26	8168
902.379	8301
902.498	8210
902.617	8256
902.735	8225
902.854	8328
902.973	8206
903.091	8100
903.21	8153
903.328	8180
903.446	8168
903.565	8035
903.683	8077
903.801	8107
903.919	8115
904.038	8088
904.156	8016
904.274	8103
904.392	8077
904.51	8065
904.627	8046
904.745	8111
904.863	8123
904.981	7906
905.098	7837
905.216	7852
905.334	7925
905.451	7898
905.569	7887
905.686	7959
905.803	7909
905.921	7807
906.038	7856
906.155	7742
906.272	7712
906.389	7715
906.506	7715
906.623	7715
906.74	7586
906.857	7537
906.974	7605
907.091	7677
907.208	7723
907.324	7696
907.441	7582
907.557	7464
907.674	7476
907.79	7377
907.907	7396
908.023	7449
908.139	7422
908.256	7453
908.372	7312
908.488	7346
908.604	7278
908.72	7244
908.836	7282
908.952	7266
909.068	7236
909.184	7301
909.3	7327
909.415	7331
909.531	7297
909.647	7183
909.762	7126
909.878	7091
909.993	7171
910.108	7103
910.224	7069
910.339	7160
910.454	7031
910.57	7034
910.685	7000
910.8	7217
910.915	7053
911.03	7000
911.145	6916
911.259	6894
911.374	6913
911.489	6837
911.604	6783
911.718	6715
911.833	6688
911.947	6646
912.062	6585
912.176	6719
912.291	6722
912.405	6738
912.519	6856
912.633	6852
912.748	6745
912.862	6692
912.976	6631
913.09	6563
913.204	6585
913.318	6642
913.431	6688
913.545	6692
913.659	6696
913.772	6616
913.886	6544
914	6604
914.113	6654
914.226	6654
914.34	6604
914.453	6467
914.566	6585
914.68	6448
914.793	6544
914.906	6410
915.019	6361
915.132	6357
915.245	6391
915.358	6448
915.47	6437
915.583	6532
915.696	6456
915.809	6513
915.921	6555
916.034	6407
916.146	6441
916.259	6391
916.371	6532
916.483	6456
916.595	6346
916.708	6410
916.82	6380
916.932	6319
917.044	6418
917.156	6429
917.268	6327
917.38	6353
917.491	6342
917.603	6350
917.715	6429
917.826	6426
917.938	6334
918.049	6289
918.161	6342
918.272	6452
918.384	6426
918.495	6292
918.606	6289
918.717	6209
918.828	6281
918.939	6228
919.05	6220
919.161	6285
919.272	6121
919.383	6182
919.494	6300
919.604	6445
919.715	6323
919.826	6228
919.936	6220
920.047	6369
920.157	6243
920.267	6494
920.378	6384
920.488	6251
920.598	6528
920.708	6559
920.818	6471
920.928	6471
921.038	6601
921.148	6578
921.258	6391
921.368	6311
921.477	6190
921.587	6175
921.697	6083
921.806	6182
921.916	6076
922.025	6007
922.134	5882
922.244	5897
922.353	5904
922.462	5885
922.571	5775
922.68	5748
922.789	5722
922.898	5722
923.007	5634
923.116	5726
923.224	5680
923.333	5657
923.442	5630
923.55	5589
923.659	5596
923.767	5627
923.876	5558
923.984	5585
924.092	5505
924.201	5585
924.309	5573
924.417	5547
924.525	5501
924.633	5520
924.741	6163
924.849	5402
924.956	5501
925.064	5402
925.172	5311
925.279	5330
925.387	5360
925.494	5330
925.602	5410
925.709	5410
925.816	5273
925.924	5322
926.031	5391
926.138	5296
926.245	5387
926.352	5239
926.459	5307
926.566	5341
926.673	5201
926.779	5178
926.886	5159
926.993	4968
927.099	5010
927.206	4980
927.312	4965
927.419	5045
927.525	4934
927.631	4965
927.737	4904
927.843	4873
927.95	4801
928.056	4782
928.162	4847
928.267	4870
928.373	5345
928.479	4911
928.585	4675
928.69	4786
928.796	4816
928.901	4679
929.007	4592
929.112	4698
929.218	4664
929.323	4596
929.428	4558
929.533	4675
929.638	4527
929.743	4558
929.848	4618
929.953	4573
930.058	4462
930.163	4299
930.267	4337
930.372	4447
930.477	4337
930.581	4500
930.685	4375
930.79	4272
930.894	4333
930.998	4257
931.103	4371
931.207	4124
931.311	4128
931.415	4029
931.519	3926
931.623	3926
