Data from glass_V78500241_598.txt Node
Date: Wed Sep 01 19:18:38 CST 2021
User: usil
Spectrometer: V785-0024
Trigger mode: 0
Integration Time (sec): 4.000000E-1
Scans to average: 1
Nonlinearity correction enabled: false
Boxcar width: 0
Storing dark spectrum: false
XAxis mode: Wavelengths
Number of Pixels in Spectrum: 1024
>>>>>Begin Spectral Data<<<<<
801.071	3759
801.214	3728
801.356	3705
801.499	3759
801.641	3736
801.783	3823
801.926	3846
802.068	3835
802.211	3876
802.353	3884
802.496	3808
802.638	3873
802.78	3903
802.923	3979
803.065	3899
803.208	3861
803.35	3873
803.492	3915
803.635	3918
803.777	3842
803.919	3911
804.061	4105
804.204	3979
804.346	3979
804.488	3953
804.63	4040
804.773	3964
804.915	4048
805.057	4150
805.199	4074
805.341	4135
805.483	4124
805.626	4124
805.768	4124
805.91	4200
806.052	4246
806.194	4223
806.336	4386
806.478	4211
806.62	4234
806.762	4188
806.904	4242
807.046	4379
807.188	4257
807.33	4200
807.472	4242
807.614	4181
807.756	4287
807.898	4211
808.04	4268
808.182	4318
808.324	4310
808.465	4413
808.607	4398
808.749	4440
808.891	4485
809.033	4558
809.174	4379
809.316	4310
809.458	4265
809.6	4196
809.741	4143
809.883	4192
810.025	4253
810.166	4219
810.308	4185
810.45	4234
810.591	4249
810.733	4303
810.875	4504
811.016	4862
811.158	5143
811.299	5280
811.441	5311
811.582	5067
811.724	4687
811.865	4459
812.007	4485
812.148	4485
812.29	4409
812.431	4398
812.573	4447
812.714	4375
812.855	4443
812.997	4405
813.138	4493
813.279	4428
813.421	4436
813.562	4363
813.703	4363
813.845	4417
813.986	4265
814.127	4230
814.268	4261
814.41	4280
814.551	4253
814.692	4337
814.833	4268
814.974	4337
815.115	4402
815.256	4242
815.397	4276
815.539	4280
815.68	4185
815.821	4261
815.962	4284
816.103	4246
816.244	4223
816.385	4253
816.526	4261
816.666	4223
816.807	4071
816.948	4181
817.089	4177
817.23	4124
817.371	4067
817.512	4017
817.653	4078
817.793	4048
817.934	4112
818.075	4078
818.216	4101
818.356	4112
818.497	4013
818.638	3907
818.778	3922
818.919	3903
819.06	3926
819.2	3899
819.341	3899
819.481	3850
819.622	3949
819.762	4067
819.903	3945
820.043	3880
820.184	3869
820.324	3831
820.465	3911
820.605	3892
820.746	3896
820.886	3800
821.026	3899
821.167	3941
821.307	3979
821.447	3945
821.588	3964
821.728	3953
821.868	3964
822.008	3880
822.149	3937
822.289	3956
822.429	3808
822.569	3766
822.709	3804
822.849	3690
822.99	3755
823.13	3774
823.27	3793
823.41	3747
823.55	3770
823.69	3751
823.83	3819
823.97	3720
824.11	3625
824.25	3564
824.389	3663
824.529	3701
824.669	3641
824.809	3728
824.949	3766
825.089	3717
825.228	3709
825.368	3618
825.508	3610
825.648	3580
825.787	3610
825.927	3641
826.067	3679
826.206	3698
826.346	3781
826.485	3838
826.625	3838
826.765	3934
826.904	3861
827.044	3629
827.183	3538
827.323	3416
827.462	3496
827.601	3428
827.741	3420
827.88	3443
828.02	3389
828.159	3454
828.298	3469
828.437	3496
828.577	3500
828.716	3641
828.855	3492
828.994	3397
829.134	3382
829.273	3450
829.412	3397
829.551	3355
829.69	3367
829.829	3393
829.968	3492
830.107	3466
830.246	3424
830.385	3397
830.524	3336
830.663	3329
830.802	3287
830.941	3176
831.08	3184
831.219	3321
831.357	3249
831.496	3450
831.635	3264
831.774	3199
831.913	3192
832.051	3173
832.19	3161
832.329	3218
832.467	3161
832.606	3135
832.744	3176
832.883	3192
833.022	3207
833.16	3211
833.299	3317
833.437	3340
833.576	3363
833.714	3405
833.852	3428
833.991	3466
834.129	3469
834.267	3412
834.406	3416
834.544	3428
834.682	3412
834.821	3447
834.959	3622
835.097	3462
835.235	3557
835.373	3507
835.511	3485
835.65	3454
835.788	3496
835.926	3424
836.064	3367
836.202	3428
836.34	3599
836.478	3667
836.615	3557
836.753	3576
836.891	3652
837.029	3618
837.167	3584
837.305	3564
837.443	3561
837.58	3523
837.718	3606
837.856	3603
837.993	3523
838.131	3603
838.269	3587
838.406	3599
838.544	3576
838.681	3462
838.819	3504
838.956	3393
839.094	3412
839.231	3462
839.369	3561
839.506	3751
839.643	3652
839.781	3530
839.918	3500
840.055	3553
840.193	3572
840.33	3534
840.467	3553
840.604	3587
840.742	3819
840.879	3568
841.016	3538
841.153	3580
841.29	3770
841.427	3713
841.564	3743
841.701	3747
841.838	3701
841.975	3743
842.112	3694
842.249	3656
842.385	3629
842.522	3793
842.659	3713
842.796	3698
842.933	3724
843.069	3705
843.206	3701
843.343	3831
843.479	3762
843.616	3831
843.752	3724
843.889	3667
844.025	3911
844.162	3720
844.298	3888
844.435	3766
844.571	3759
844.708	3956
844.844	4032
844.98	4055
845.117	3994
845.253	3911
845.389	3941
845.525	4010
845.661	3972
845.798	3941
845.934	4017
846.07	3972
846.206	4055
846.342	4120
846.478	4063
846.614	3968
846.75	3918
846.886	3911
847.022	4048
847.158	3968
847.294	4040
847.429	4055
847.565	3953
847.701	4280
847.837	3903
847.972	3865
848.108	4002
848.244	3972
848.379	3857
848.515	3827
848.65	3838
848.786	3835
848.921	3869
849.057	3953
849.192	3983
849.328	3922
849.463	3926
849.598	3937
849.734	3838
849.869	3804
850.004	3804
850.14	3789
850.275	3781
850.41	3793
850.545	3755
850.68	3778
850.815	3797
850.95	3823
851.085	4006
851.22	3926
851.355	3846
851.49	3789
851.625	3789
851.76	3781
851.895	3766
852.03	3766
852.165	3823
852.299	3869
852.434	3861
852.569	3922
852.703	3888
852.838	3987
852.973	3960
853.107	4010
853.242	3854
853.376	3846
853.511	3785
853.645	3861
853.78	4055
853.914	3911
854.048	3987
854.183	3918
854.317	3964
854.451	4109
854.585	3975
854.72	3918
854.854	4101
854.988	3956
855.122	4055
855.256	3934
855.39	4071
855.524	4131
855.658	4124
855.792	4101
855.926	4143
856.06	4135
856.194	4200
856.327	4147
856.461	4166
856.595	4215
856.729	4207
856.862	4337
856.996	4265
857.13	4314
857.263	4348
857.397	4367
857.53	4310
857.664	4352
857.797	4383
857.931	4436
858.064	4417
858.197	4481
858.331	4356
858.464	4356
858.597	4375
858.731	4451
858.864	4459
858.997	4451
859.13	4519
859.263	4558
859.396	4584
859.529	4561
859.662	4519
859.795	4527
859.928	4615
860.061	4755
860.194	4733
860.327	4668
860.46	4664
860.592	4771
860.725	4767
860.858	4774
860.99	4672
861.123	4679
861.256	4687
861.388	4828
861.521	5410
861.653	4702
861.786	4725
861.918	4771
862.05	4847
862.183	4831
862.315	4889
862.447	4938
862.58	4908
862.712	4816
862.844	4774
862.976	4873
863.108	4839
863.24	5178
863.372	4782
863.504	4930
863.636	4919
863.768	4953
863.9	4961
864.032	4904
864.164	4961
864.296	5033
864.428	5113
864.559	5071
864.691	5140
864.823	5121
864.954	5140
865.086	5159
865.217	5094
865.349	5109
865.48	5109
865.612	5170
865.743	5345
865.875	5239
866.006	5181
866.137	5235
866.269	5227
866.4	5254
866.531	5185
866.662	5273
866.793	5242
866.924	5284
867.055	5376
867.186	5357
867.317	5299
867.448	5334
867.579	5364
867.71	5429
867.841	5391
867.972	5436
868.103	5497
868.233	5505
868.364	5493
868.495	5562
868.625	5634
868.756	5794
868.886	5668
869.017	5726
869.147	5840
869.278	5870
869.408	5828
869.539	5832
869.669	5969
869.799	5870
869.929	5961
870.06	6003
870.19	6235
870.32	6216
870.45	6273
870.58	6384
870.71	6452
870.84	6445
870.97	6445
871.1	6475
871.23	6658
871.36	6772
871.489	6696
871.619	6730
871.749	6745
871.879	6848
872.008	7053
872.138	6958
872.267	7046
872.397	7034
872.526	7019
872.656	7118
872.785	7213
872.915	7388
873.044	7521
873.173	7578
873.303	7674
873.432	7765
873.561	7849
873.69	7921
873.819	7974
873.948	8149
874.077	8233
874.206	8317
874.335	8366
874.464	8667
874.593	8910
874.722	8902
874.851	9116
874.979	9214
875.108	9329
875.237	9435
875.365	9496
875.494	9625
875.623	9819
875.751	9861
875.88	10044
876.008	10135
876.136	10257
876.265	10459
876.393	10733
876.521	10763
876.65	10793
876.778	10961
876.906	10976
877.034	10980
877.162	11117
877.29	11166
877.418	11311
877.546	11349
877.674	11429
877.802	11532
877.93	11554
878.058	11562
878.185	11604
878.313	11600
878.441	11729
878.568	11657
878.696	11805
878.824	11878
878.951	11958
879.079	11969
879.206	12152
879.333	12091
879.461	12007
879.588	12114
879.715	12064
879.842	12270
879.97	12045
880.097	11912
880.224	11832
880.351	11843
880.478	11878
880.605	11840
880.732	11836
880.859	12038
880.986	11824
881.112	11874
881.239	11779
881.366	11684
881.493	11604
881.619	11551
881.746	11532
881.872	11474
881.999	11547
882.125	11543
882.252	11558
882.378	11562
882.505	11539
882.631	11315
882.757	11250
882.883	11334
883.01	11269
883.136	11269
883.262	11079
883.388	11121
883.514	11143
883.64	11060
883.766	11067
883.892	10968
884.018	11056
884.143	11071
884.269	11113
884.395	10915
884.52	10744
884.646	10805
884.772	10675
884.897	10656
885.023	10729
885.148	10706
885.274	10831
885.399	10721
885.524	10561
885.65	10584
885.775	10561
885.9	10542
886.025	10615
886.15	10565
886.275	10443
886.4	10413
886.525	10428
886.65	10371
886.775	10295
886.9	10485
887.025	10554
887.149	10352
887.274	10295
887.399	10204
887.523	10124
887.648	10162
887.773	10230
887.897	10287
888.021	10257
888.146	10177
888.27	10280
888.395	10196
888.519	10177
888.643	10204
888.767	10207
888.891	10051
889.015	10048
889.139	9998
889.263	10002
889.387	10059
889.511	10101
889.635	10105
889.759	9926
889.883	9991
890.006	10040
890.13	10109
890.254	10021
890.377	9975
890.501	9869
890.624	9972
890.748	9922
890.871	9827
890.995	9857
891.118	9720
891.241	9751
891.364	9720
891.488	9831
891.611	9759
891.734	9747
891.857	9842
891.98	9701
892.103	9762
892.226	9705
892.349	9652
892.471	9564
892.594	9557
892.717	9614
892.839	9549
892.962	9572
893.085	9663
893.207	9641
893.33	9523
893.452	9534
893.575	9660
893.697	9526
893.819	9633
893.941	9614
894.064	9610
894.186	9530
894.308	9469
894.43	9591
894.552	9542
894.674	9481
894.796	9359
894.918	9443
895.04	9462
895.161	9382
895.283	9351
895.405	9226
895.526	9233
895.648	9230
895.769	9264
895.891	9283
896.012	9321
896.134	9199
896.255	9245
896.376	9123
896.498	9169
896.619	9154
896.74	9058
896.861	9131
896.982	9351
897.103	9336
897.224	9241
897.345	9077
897.466	9058
897.587	8971
897.708	9142
897.828	9024
897.949	8944
898.07	8864
898.19	8887
898.311	9013
898.431	8941
898.552	8944
898.672	8891
898.792	8990
898.913	8914
899.033	8762
899.153	8686
899.273	8636
899.393	8663
899.513	8720
899.633	8743
899.753	8743
899.873	8686
899.993	8739
900.113	8632
900.232	8720
900.352	8697
900.472	8610
900.591	8594
900.711	8583
900.83	8564
900.95	8739
901.069	8724
901.189	8602
901.308	8393
901.427	8343
901.546	8419
901.665	8469
901.784	8492
901.904	8454
902.023	8347
902.141	8229
902.26	8225
902.379	8248
902.498	8267
902.617	8286
902.735	8324
902.854	8305
902.973	8237
903.091	8092
903.21	8123
903.328	8229
903.446	8046
903.565	8103
903.683	8088
903.801	8031
903.919	8111
904.038	8088
904.156	8027
904.274	8138
904.392	8054
904.51	8039
904.627	8111
904.745	8157
904.863	8153
904.981	7909
905.098	7917
905.216	7913
905.334	7898
905.451	7940
905.569	7868
905.686	8012
905.803	8001
905.921	7822
906.038	7845
906.155	7788
906.272	7715
906.389	7704
906.506	7677
906.623	7620
906.74	7628
906.857	7518
906.974	7636
907.091	7674
907.208	7746
907.324	7620
907.441	7609
907.557	7510
907.674	7400
907.79	7407
907.907	7407
908.023	7411
908.139	7468
908.256	7381
908.372	7381
908.488	7362
908.604	7301
908.72	7259
908.836	7308
908.952	7270
909.068	7206
909.184	7293
909.3	7274
909.415	7305
909.531	7289
909.647	7114
909.762	7160
909.878	7110
909.993	7190
910.108	7168
910.224	7110
910.339	7122
910.454	7046
910.57	6993
910.685	6993
910.8	7202
910.915	7126
911.03	7019
911.145	6890
911.259	6905
911.374	6897
911.489	6806
911.604	6844
911.718	6734
911.833	6764
911.947	6719
912.062	6681
912.176	6745
912.291	6757
912.405	6726
912.519	6856
912.633	6875
912.748	6715
912.862	6734
912.976	6593
913.09	6528
913.204	6620
913.318	6635
913.431	6696
913.545	6688
913.659	6734
913.772	6658
913.886	6639
914	6570
914.113	6608
914.226	6673
914.34	6627
914.453	6551
914.566	6604
914.68	6547
914.793	6547
914.906	6445
915.019	6433
915.132	6414
915.245	6410
915.358	6399
915.47	6403
915.583	6448
915.696	6540
915.809	6521
915.921	6486
916.034	6502
916.146	6433
916.259	6365
916.371	6441
916.483	6445
916.595	6460
916.708	6388
916.82	6422
916.932	6414
917.044	6407
917.156	6471
917.268	6342
917.38	6323
917.491	6334
917.603	6350
917.715	6437
917.826	6403
917.938	6311
918.049	6277
918.161	6331
918.272	6388
918.384	6418
918.495	6342
918.606	6285
918.717	6224
918.828	6289
918.939	6319
919.05	6197
919.161	6323
919.272	6110
919.383	6110
919.494	6285
919.604	6456
919.715	6331
919.826	6190
919.936	6315
920.047	6350
920.157	6251
920.267	6479
920.378	6346
920.488	6273
920.598	6490
920.708	6544
920.818	6426
920.928	6467
921.038	6612
921.148	6597
921.258	6380
921.368	6277
921.477	6308
921.587	6133
921.697	6106
921.806	6190
921.916	6053
922.025	5920
922.134	5942
922.244	5927
922.353	5939
922.462	5847
922.571	5836
922.68	5714
922.789	5764
922.898	5741
923.007	5630
923.116	5737
923.224	5676
923.333	5657
923.442	5604
923.55	5570
923.659	5589
923.767	5634
923.876	5615
923.984	5600
924.092	5478
924.201	5547
924.309	5585
924.417	5581
924.525	5482
924.633	5490
924.741	6323
924.849	5353
924.956	5524
925.064	5296
925.172	5318
925.279	5410
925.387	5322
925.494	5322
925.602	5429
925.709	5425
925.816	5307
925.924	5322
926.031	5421
926.138	5360
926.245	5307
926.352	5246
926.459	5406
926.566	5425
926.673	5258
926.779	5143
926.886	5181
926.993	5083
927.099	4980
927.206	4957
927.312	4946
927.419	5037
927.525	4946
927.631	5018
927.737	4930
927.843	4850
927.95	4805
928.056	4881
928.162	4797
928.267	4847
928.373	5261
928.479	4824
928.585	4710
928.69	4755
928.796	4809
928.901	4752
929.007	4580
929.112	4698
929.218	4664
929.323	4637
929.428	4618
929.533	4653
929.638	4550
929.743	4607
929.848	4542
929.953	4558
930.058	4440
930.163	4325
930.267	4379
930.372	4440
930.477	4276
930.581	4466
930.685	4348
930.79	4303
930.894	4280
930.998	4276
931.103	4428
931.207	4097
931.311	4071
931.415	4025
931.519	3964
931.623	3960
