Data from glass_V78500241_2384.txt Node
Date: Wed Sep 01 19:31:01 CST 2021
User: usil
Spectrometer: V785-0024
Trigger mode: 0
Integration Time (sec): 4.000000E-1
Scans to average: 1
Nonlinearity correction enabled: false
Boxcar width: 0
Storing dark spectrum: false
XAxis mode: Wavelengths
Number of Pixels in Spectrum: 1024
>>>>>Begin Spectral Data<<<<<
801.071	3713
801.214	3793
801.356	3728
801.499	3781
801.641	3736
801.783	3797
801.926	3869
802.068	3812
802.211	3846
802.353	3865
802.496	3850
802.638	3903
802.78	3869
802.923	3915
803.065	3861
803.208	3873
803.35	3876
803.492	3865
803.635	3903
803.777	3800
803.919	3930
804.061	4124
804.204	3953
804.346	3937
804.488	3903
804.63	4010
804.773	3956
804.915	3998
805.057	4105
805.199	4025
805.341	4090
805.483	4116
805.626	4124
805.768	4128
805.91	4181
806.052	4265
806.194	4227
806.336	4329
806.478	4211
806.62	4185
806.762	4207
806.904	4272
807.046	4306
807.188	4234
807.33	4147
807.472	4211
807.614	4150
807.756	4265
807.898	4192
808.04	4238
808.182	4246
808.324	4295
808.465	4375
808.607	4432
808.749	4436
808.891	4474
809.033	4440
809.174	4318
809.316	4204
809.458	4261
809.6	4154
809.741	4166
809.883	4169
810.025	4234
810.166	4227
810.308	4227
810.45	4238
810.591	4246
810.733	4261
810.875	4500
811.016	4843
811.158	5170
811.299	5250
811.441	5311
811.582	5033
811.724	4664
811.865	4413
812.007	4436
812.148	4424
812.29	4386
812.431	4363
812.573	4394
812.714	4375
812.855	4383
812.997	4436
813.138	4493
813.279	4398
813.421	4402
813.562	4386
813.703	4356
813.845	4299
813.986	4261
814.127	4200
814.268	4246
814.41	4295
814.551	4295
814.692	4337
814.833	4257
814.974	4318
815.115	4291
815.256	4257
815.397	4265
815.539	4257
815.68	4211
815.821	4204
815.962	4318
816.103	4284
816.244	4192
816.385	4219
816.526	4268
816.666	4215
816.807	4120
816.948	4147
817.089	4204
817.23	4112
817.371	4029
817.512	4078
817.653	4055
817.793	4006
817.934	4048
818.075	4090
818.216	4074
818.356	4051
818.497	3983
818.638	3903
818.778	3926
818.919	3892
819.06	3899
819.2	3915
819.341	3873
819.481	3846
819.622	3907
819.762	4032
819.903	3934
820.043	3835
820.184	3808
820.324	3823
820.465	3873
820.605	3804
820.746	3831
820.886	3797
821.026	3922
821.167	3937
821.307	3937
821.447	4025
821.588	3915
821.728	3972
821.868	3907
822.008	3888
822.149	3899
822.289	3903
822.429	3766
822.569	3762
822.709	3793
822.849	3675
822.99	3709
823.13	3709
823.27	3819
823.41	3686
823.55	3747
823.69	3743
823.83	3713
823.97	3663
824.11	3572
824.25	3580
824.389	3644
824.529	3625
824.669	3576
824.809	3671
824.949	3759
825.089	3724
825.228	3705
825.368	3553
825.508	3587
825.648	3595
825.787	3545
825.927	3591
826.067	3614
826.206	3671
826.346	3774
826.485	3854
826.625	3835
826.765	3907
826.904	3774
827.044	3622
827.183	3523
827.323	3431
827.462	3504
827.601	3401
827.741	3428
827.88	3428
828.02	3351
828.159	3439
828.298	3466
828.437	3523
828.577	3507
828.716	3584
828.855	3496
828.994	3401
829.134	3367
829.273	3374
829.412	3344
829.551	3386
829.69	3336
829.829	3409
829.968	3534
830.107	3431
830.246	3447
830.385	3363
830.524	3355
830.663	3291
830.802	3241
830.941	3169
831.08	3218
831.219	3264
831.357	3241
831.496	3401
831.635	3226
831.774	3180
831.913	3184
832.051	3127
832.19	3165
832.329	3211
832.467	3131
832.606	3135
832.744	3169
832.883	3157
833.022	3203
833.16	3260
833.299	3294
833.437	3306
833.576	3374
833.714	3397
833.852	3420
833.991	3412
834.129	3454
834.267	3443
834.406	3382
834.544	3443
834.682	3420
834.821	3412
834.959	3564
835.097	3405
835.235	3488
835.373	3507
835.511	3488
835.65	3447
835.788	3447
835.926	3363
836.064	3329
836.202	3412
836.34	3572
836.478	3595
836.615	3526
836.753	3603
836.891	3614
837.029	3587
837.167	3595
837.305	3538
837.443	3530
837.58	3488
837.718	3625
837.856	3591
837.993	3473
838.131	3599
838.269	3572
838.406	3572
838.544	3542
838.681	3435
838.819	3393
838.956	3374
839.094	3401
839.231	3469
839.369	3511
839.506	3698
839.643	3633
839.781	3538
839.918	3466
840.055	3523
840.193	3530
840.33	3538
840.467	3568
840.604	3595
840.742	3808
840.879	3561
841.016	3595
841.153	3542
841.29	3724
841.427	3724
841.564	3694
841.701	3724
841.838	3694
841.975	3717
842.112	3713
842.249	3625
842.385	3633
842.522	3831
842.659	3641
842.796	3641
842.933	3667
843.069	3694
843.206	3720
843.343	3800
843.479	3785
843.616	3789
843.752	3671
843.889	3686
844.025	3888
844.162	3732
844.298	3846
844.435	3800
844.571	3797
844.708	3888
844.844	3937
844.98	3994
845.117	3975
845.253	3922
845.389	3911
845.525	3956
845.661	3941
845.798	3857
845.934	3968
846.07	3975
846.206	4032
846.342	4131
846.478	4017
846.614	3987
846.75	3922
846.886	3934
847.022	4032
847.158	3949
847.294	4021
847.429	4002
847.565	3960
847.701	4207
847.837	3876
847.972	3888
848.108	3964
848.244	3975
848.379	3838
848.515	3842
848.65	3835
848.786	3827
848.921	3838
849.057	3915
849.192	3918
849.328	3911
849.463	3903
849.598	3857
849.734	3850
849.869	3804
850.004	3800
850.14	3823
850.275	3785
850.41	3751
850.545	3759
850.68	3762
850.815	3766
850.95	3793
851.085	3915
851.22	3861
851.355	3785
851.49	3755
851.625	3747
851.76	3751
851.895	3740
852.03	3736
852.165	3747
852.299	3861
852.434	3922
852.569	3827
852.703	3869
852.838	3922
852.973	3960
853.107	4002
853.242	3876
853.376	3819
853.511	3766
853.645	3808
853.78	3949
853.914	3896
854.048	3896
854.183	3892
854.317	3937
854.451	4055
854.585	3930
854.72	3903
854.854	4059
854.988	3918
855.122	3994
855.256	3911
855.39	4063
855.524	4059
855.658	4105
855.792	4082
855.926	4135
856.06	4147
856.194	4181
856.327	4154
856.461	4051
856.595	4124
856.729	4154
856.862	4310
856.996	4200
857.13	4280
857.263	4295
857.397	4367
857.53	4280
857.664	4363
857.797	4352
857.931	4443
858.064	4398
858.197	4386
858.331	4390
858.464	4402
858.597	4318
858.731	4424
858.864	4481
858.997	4447
859.13	4531
859.263	4504
859.396	4577
859.529	4584
859.662	4542
859.795	4481
859.928	4577
860.061	4691
860.194	4755
860.327	4675
860.46	4634
860.592	4698
860.725	4752
860.858	4805
860.99	4664
861.123	4637
861.256	4672
861.388	4790
861.521	5478
861.653	4698
861.786	4694
861.918	4748
862.05	4759
862.183	4809
862.315	4908
862.447	4946
862.58	4870
862.712	4816
862.844	4809
862.976	4877
863.108	4873
863.24	5189
863.372	4843
863.504	4896
863.636	4896
863.768	4923
863.9	4930
864.032	4896
864.164	4930
864.296	5022
864.428	5045
864.559	5094
864.691	5105
864.823	5124
864.954	5102
865.086	5140
865.217	5086
865.349	5109
865.48	5113
865.612	5201
865.743	5261
865.875	5170
866.006	5170
866.137	5227
866.269	5246
866.4	5246
866.531	5223
866.662	5178
866.793	5273
866.924	5250
867.055	5288
867.186	5349
867.317	5353
867.448	5330
867.579	5345
867.71	5330
867.841	5372
867.972	5406
868.103	5452
868.233	5436
868.364	5505
868.495	5577
868.625	5726
868.756	5707
868.886	5649
869.017	5752
869.147	5851
869.278	5824
869.408	5847
869.539	5794
869.669	5939
869.799	5897
869.929	5999
870.06	5958
870.19	6155
870.32	6190
870.45	6243
870.58	6365
870.71	6441
870.84	6502
870.97	6399
871.1	6369
871.23	6642
871.36	6642
871.489	6654
871.619	6726
871.749	6806
871.879	6913
872.008	7023
872.138	6981
872.267	7004
872.397	6947
872.526	7065
872.656	7091
872.785	7213
872.915	7350
873.044	7537
873.173	7502
873.303	7674
873.432	7738
873.561	7890
873.69	7902
873.819	7993
873.948	8123
874.077	8282
874.206	8305
874.335	8412
874.464	8648
874.593	8887
874.722	8944
874.851	9123
874.979	9237
875.108	9332
875.237	9428
875.365	9450
875.494	9576
875.623	9747
875.751	9785
875.88	10032
876.008	10128
876.136	10280
876.265	10546
876.393	10622
876.521	10706
876.65	10759
876.778	10869
876.906	10961
877.034	10919
877.162	11155
877.29	11174
877.418	11395
877.546	11402
877.674	11448
877.802	11440
877.93	11524
878.058	11532
878.185	11543
878.313	11653
878.441	11672
878.568	11653
878.696	11748
878.824	11901
878.951	11901
879.079	12019
879.206	12091
879.333	11996
879.461	11950
879.588	12079
879.715	12102
879.842	12220
879.97	12197
880.097	11817
880.224	11843
880.351	11802
880.478	11958
880.605	11908
880.732	11771
880.859	11954
880.986	11828
881.112	11817
881.239	11718
881.366	11638
881.493	11627
881.619	11608
881.746	11657
881.872	11471
881.999	11429
882.125	11471
882.252	11535
882.378	11535
882.505	11573
882.631	11353
882.757	11376
882.883	11288
883.01	11178
883.136	11181
883.262	11105
883.388	11121
883.514	11166
883.64	11098
883.766	11083
883.892	10995
884.018	10999
884.143	11067
884.269	11079
884.395	10847
884.52	10714
884.646	10793
884.772	10752
884.897	10736
885.023	10706
885.148	10740
885.274	10824
885.399	10710
885.524	10577
885.65	10569
885.775	10561
885.9	10523
886.025	10538
886.15	10538
886.275	10440
886.4	10375
886.525	10348
886.65	10398
886.775	10379
886.9	10504
887.025	10489
887.149	10379
887.274	10230
887.399	10116
887.523	10166
887.648	10169
887.773	10139
887.897	10181
888.021	10265
888.146	10074
888.27	10211
888.395	10169
888.519	10169
888.643	10158
888.767	10166
888.891	10048
889.015	10025
889.139	10071
889.263	10044
889.387	10067
889.511	10078
889.635	10063
889.759	9922
889.883	9949
890.006	9968
890.13	10128
890.254	9960
890.377	9960
890.501	9892
890.624	9892
890.748	9857
890.871	9854
890.995	9774
891.118	9720
891.241	9781
891.364	9762
891.488	9793
891.611	9720
891.734	9728
891.857	9747
891.98	9686
892.103	9778
892.226	9633
892.349	9667
892.471	9526
892.594	9595
892.717	9656
892.839	9587
892.962	9637
893.085	9648
893.207	9599
893.33	9443
893.452	9507
893.575	9587
893.697	9538
893.819	9618
893.941	9530
894.064	9622
894.186	9477
894.308	9397
894.43	9564
894.552	9564
894.674	9477
894.796	9401
894.918	9416
895.04	9294
895.161	9359
895.283	9310
895.405	9237
895.526	9260
895.648	9199
895.769	9173
895.891	9211
896.012	9317
896.134	9207
896.255	9184
896.376	9131
896.498	9146
896.619	9142
896.74	9043
896.861	9066
896.982	9237
897.103	9245
897.224	9169
897.345	9032
897.466	8944
897.587	9001
897.708	9097
897.828	8956
897.949	8967
898.07	8838
898.19	8967
898.311	9005
898.431	8868
898.552	8883
898.672	8952
898.792	8929
898.913	8883
899.033	8834
899.153	8792
899.273	8632
899.393	8667
899.513	8777
899.633	8686
899.753	8800
899.873	8705
899.993	8705
900.113	8735
900.232	8678
900.352	8602
900.472	8545
900.591	8526
900.711	8556
900.83	8564
900.95	8670
901.069	8629
901.189	8583
901.308	8381
901.427	8419
901.546	8442
901.665	8507
901.784	8507
901.904	8309
902.023	8377
902.141	8225
902.26	8183
902.379	8195
902.498	8157
902.617	8256
902.735	8317
902.854	8256
902.973	8309
903.091	8145
903.21	8142
903.328	8168
903.446	8092
903.565	8058
903.683	8092
903.801	8065
903.919	8100
904.038	8092
904.156	8012
904.274	8081
904.392	8096
904.51	8031
904.627	7993
904.745	8100
904.863	8039
904.981	7974
905.098	7894
905.216	7826
905.334	7845
905.451	7845
905.569	7864
905.686	7921
905.803	7944
905.921	7799
906.038	7890
906.155	7784
906.272	7757
906.389	7666
906.506	7674
906.623	7647
906.74	7624
906.857	7499
906.974	7586
907.091	7620
907.208	7700
907.324	7590
907.441	7571
907.557	7411
907.674	7464
907.79	7426
907.907	7411
908.023	7468
908.139	7407
908.256	7407
908.372	7388
908.488	7301
908.604	7244
908.72	7209
908.836	7240
908.952	7244
909.068	7236
909.184	7297
909.3	7236
909.415	7293
909.531	7266
909.647	7053
909.762	7133
909.878	7080
909.993	7118
910.108	7076
910.224	7050
910.339	7137
910.454	7099
910.57	7072
910.685	6924
910.8	7171
910.915	7053
911.03	7012
911.145	6867
911.259	6875
911.374	6875
911.489	6848
911.604	6776
911.718	6715
911.833	6738
911.947	6696
912.062	6639
912.176	6719
912.291	6791
912.405	6635
912.519	6768
912.633	6867
912.748	6696
912.862	6669
912.976	6597
913.09	6551
913.204	6601
913.318	6593
913.431	6654
913.545	6665
913.659	6658
913.772	6646
913.886	6566
914	6498
914.113	6582
914.226	6582
914.34	6589
914.453	6551
914.566	6597
914.68	6517
914.793	6528
914.906	6452
915.019	6365
915.132	6395
915.245	6399
915.358	6410
915.47	6429
915.583	6422
915.696	6456
915.809	6502
915.921	6593
916.034	6414
916.146	6399
916.259	6403
916.371	6441
916.483	6384
916.595	6388
916.708	6372
916.82	6399
916.932	6388
917.044	6395
917.156	6395
917.268	6357
917.38	6357
917.491	6304
917.603	6357
917.715	6418
917.826	6380
917.938	6327
918.049	6277
918.161	6304
918.272	6384
918.384	6429
918.495	6334
918.606	6224
918.717	6197
918.828	6262
918.939	6266
919.05	6197
919.161	6232
919.272	6079
919.383	6136
919.494	6315
919.604	6410
919.715	6239
919.826	6224
919.936	6258
920.047	6319
920.157	6270
920.267	6483
920.378	6323
920.488	6300
920.598	6483
920.708	6551
920.818	6410
920.928	6452
921.038	6566
921.148	6566
921.258	6334
921.368	6285
921.477	6194
921.587	6182
921.697	6125
921.806	6159
921.916	6095
922.025	5916
922.134	5946
922.244	5840
922.353	5889
922.462	5828
922.571	5859
922.68	5737
922.789	5642
922.898	5710
923.007	5604
923.116	5630
923.224	5714
923.333	5710
923.442	5585
923.55	5592
923.659	5585
923.767	5646
923.876	5509
923.984	5558
924.092	5516
924.201	5547
924.309	5474
924.417	5558
924.525	5410
924.633	5478
924.741	6266
924.849	5360
924.956	5478
925.064	5353
925.172	5311
925.279	5296
925.387	5368
925.494	5349
925.602	5444
925.709	5395
925.816	5265
925.924	5296
926.031	5353
926.138	5296
926.245	5326
926.352	5208
926.459	5284
926.566	5261
926.673	5185
926.779	5162
926.886	5094
926.993	5037
927.099	4972
927.206	4976
927.312	4919
927.419	5029
927.525	4953
927.631	4987
927.737	4915
927.843	4839
927.95	4805
928.056	4801
928.162	4881
928.267	4873
928.373	5246
928.479	4870
928.585	4706
928.69	4767
928.796	4752
928.901	4660
929.007	4561
929.112	4630
929.218	4630
929.323	4592
929.428	4561
929.533	4637
929.638	4497
929.743	4500
929.848	4538
929.953	4470
930.058	4447
930.163	4356
930.267	4329
930.372	4436
930.477	4310
930.581	4421
930.685	4383
930.79	4253
930.894	4261
930.998	4303
931.103	4379
931.207	4150
931.311	4093
931.415	4051
931.519	3937
931.623	3953
