Data from glass_V78500241_2790.txt Node
Date: Wed Sep 01 19:33:50 CST 2021
User: usil
Spectrometer: V785-0024
Trigger mode: 0
Integration Time (sec): 4.000000E-1
Scans to average: 1
Nonlinearity correction enabled: false
Boxcar width: 0
Storing dark spectrum: false
XAxis mode: Wavelengths
Number of Pixels in Spectrum: 1024
>>>>>Begin Spectral Data<<<<<
801.071	3705
801.214	3679
801.356	3686
801.499	3759
801.641	3660
801.783	3797
801.926	3835
802.068	3781
802.211	3888
802.353	3835
802.496	3800
802.638	3873
802.78	3865
802.923	3884
803.065	3896
803.208	3823
803.35	3880
803.492	3911
803.635	3922
803.777	3770
803.919	3876
804.061	4101
804.204	3918
804.346	3956
804.488	3934
804.63	3956
804.773	3960
804.915	4017
805.057	4139
805.199	3991
805.341	4051
805.483	4093
805.626	4097
805.768	4112
805.91	4162
806.052	4200
806.194	4181
806.336	4303
806.478	4192
806.62	4169
806.762	4158
806.904	4253
807.046	4333
807.188	4253
807.33	4166
807.472	4188
807.614	4147
807.756	4272
807.898	4173
808.04	4185
808.182	4280
808.324	4337
808.465	4325
808.607	4466
808.749	4436
808.891	4459
809.033	4500
809.174	4356
809.316	4204
809.458	4230
809.6	4105
809.741	4109
809.883	4097
810.025	4177
810.166	4207
810.308	4192
810.45	4234
810.591	4162
810.733	4238
810.875	4523
811.016	4835
811.158	5060
811.299	5307
811.441	5318
811.582	5041
811.724	4714
811.865	4421
812.007	4432
812.148	4402
812.29	4402
812.431	4409
812.573	4394
812.714	4344
812.855	4360
812.997	4356
813.138	4466
813.279	4398
813.421	4375
813.562	4333
813.703	4310
813.845	4249
813.986	4223
814.127	4215
814.268	4261
814.41	4265
814.551	4257
814.692	4314
814.833	4265
814.974	4280
815.115	4284
815.256	4291
815.397	4211
815.539	4291
815.68	4177
815.821	4238
815.962	4284
816.103	4242
816.244	4200
816.385	4211
816.526	4257
816.666	4200
816.807	4093
816.948	4169
817.089	4169
817.23	4078
817.371	4055
817.512	4048
817.653	4074
817.793	4025
817.934	4025
818.075	4051
818.216	4044
818.356	4040
818.497	3979
818.638	3861
818.778	3922
818.919	3865
819.06	3857
819.2	3926
819.341	3850
819.481	3816
819.622	3861
819.762	4036
819.903	3876
820.043	3838
820.184	3823
820.324	3819
820.465	3854
820.605	3827
820.746	3819
820.886	3759
821.026	3926
821.167	3941
821.307	3941
821.447	3964
821.588	3892
821.728	3915
821.868	3896
822.008	3850
822.149	3903
822.289	3896
822.429	3781
822.569	3762
822.709	3793
822.849	3690
822.99	3698
823.13	3747
823.27	3770
823.41	3717
823.55	3694
823.69	3694
823.83	3743
823.97	3637
824.11	3564
824.25	3576
824.389	3667
824.529	3686
824.669	3633
824.809	3717
824.949	3679
825.089	3682
825.228	3671
825.368	3584
825.508	3530
825.648	3557
825.787	3641
825.927	3614
826.067	3625
826.206	3652
826.346	3766
826.485	3835
826.625	3857
826.765	3884
826.904	3838
827.044	3568
827.183	3526
827.323	3397
827.462	3500
827.601	3431
827.741	3420
827.88	3386
828.02	3321
828.159	3424
828.298	3450
828.437	3488
828.577	3477
828.716	3572
828.855	3481
828.994	3336
829.134	3370
829.273	3378
829.412	3313
829.551	3325
829.69	3367
829.829	3416
829.968	3469
830.107	3393
830.246	3405
830.385	3378
830.524	3313
830.663	3275
830.802	3218
830.941	3169
831.08	3146
831.219	3279
831.357	3241
831.496	3405
831.635	3218
831.774	3199
831.913	3157
832.051	3127
832.19	3146
832.329	3230
832.467	3100
832.606	3100
832.744	3142
832.883	3184
833.022	3127
833.16	3268
833.299	3298
833.437	3321
833.576	3321
833.714	3386
833.852	3401
833.991	3439
834.129	3431
834.267	3466
834.406	3389
834.544	3428
834.682	3386
834.821	3382
834.959	3561
835.097	3393
835.235	3519
835.373	3469
835.511	3515
835.65	3428
835.788	3469
835.926	3401
836.064	3351
836.202	3420
836.34	3587
836.478	3576
836.615	3515
836.753	3587
836.891	3644
837.029	3549
837.167	3595
837.305	3584
837.443	3549
837.58	3496
837.718	3606
837.856	3534
837.993	3523
838.131	3603
838.269	3572
838.406	3587
838.544	3564
838.681	3462
838.819	3469
838.956	3321
839.094	3363
839.231	3416
839.369	3534
839.506	3698
839.643	3614
839.781	3492
839.918	3428
840.055	3485
840.193	3496
840.33	3515
840.467	3500
840.604	3595
840.742	3808
840.879	3496
841.016	3553
841.153	3542
841.29	3785
841.427	3713
841.564	3705
841.701	3728
841.838	3660
841.975	3686
842.112	3690
842.249	3622
842.385	3641
842.522	3781
842.659	3629
842.796	3644
842.933	3698
843.069	3732
843.206	3694
843.343	3797
843.479	3759
843.616	3789
843.752	3671
843.889	3633
844.025	3827
844.162	3694
844.298	3838
844.435	3842
844.571	3797
844.708	3915
844.844	3960
844.98	4006
845.117	3964
845.253	3915
845.389	3876
845.525	3979
845.661	3968
845.798	3896
845.934	3991
846.07	3907
846.206	4006
846.342	4131
846.478	4059
846.614	3979
846.75	3956
846.886	3892
847.022	4078
847.158	3983
847.294	3953
847.429	3975
847.565	3972
847.701	4181
847.837	3876
847.972	3850
848.108	3979
848.244	3930
848.379	3854
848.515	3808
848.65	3823
848.786	3869
848.921	3823
849.057	3934
849.192	3930
849.328	3869
849.463	3865
849.598	3865
849.734	3884
849.869	3812
850.004	3747
850.14	3759
850.275	3766
850.41	3728
850.545	3781
850.68	3747
850.815	3816
850.95	3778
851.085	3907
851.22	3899
851.355	3831
851.49	3804
851.625	3766
851.76	3797
851.895	3743
852.03	3713
852.165	3774
852.299	3831
852.434	3854
852.569	3835
852.703	3842
852.838	3899
852.973	3987
853.107	4002
853.242	3903
853.376	3850
853.511	3766
853.645	3838
853.78	3972
853.914	3892
854.048	3888
854.183	3850
854.317	3899
854.451	4025
854.585	3899
854.72	3888
854.854	4040
854.988	3930
855.122	3991
855.256	3888
855.39	3987
855.524	4071
855.658	4071
855.792	4074
855.926	4124
856.06	4128
856.194	4162
856.327	4116
856.461	4128
856.595	4097
856.729	4147
856.862	4284
856.996	4204
857.13	4265
857.263	4284
857.397	4310
857.53	4253
857.664	4318
857.797	4413
857.931	4421
858.064	4375
858.197	4413
858.331	4360
858.464	4375
858.597	4329
858.731	4451
858.864	4440
858.997	4436
859.13	4500
859.263	4500
859.396	4561
859.529	4531
859.662	4546
859.795	4542
859.928	4611
860.061	4664
860.194	4801
860.327	4679
860.46	4599
860.592	4710
860.725	4736
860.858	4740
860.99	4683
861.123	4641
861.256	4618
861.388	4755
861.521	5235
861.653	4717
861.786	4725
861.918	4729
862.05	4778
862.183	4797
862.315	4843
862.447	4946
862.58	4896
862.712	4790
862.844	4759
862.976	4843
863.108	4866
863.24	5216
863.372	4812
863.504	4892
863.636	4930
863.768	4980
863.9	4968
864.032	4927
864.164	4946
864.296	4991
864.428	5075
864.559	5117
864.691	5128
864.823	5140
864.954	5128
865.086	5124
865.217	5094
865.349	5113
865.48	5174
865.612	5201
865.743	5265
865.875	5193
866.006	5151
866.137	5220
866.269	5258
866.4	5216
866.531	5204
866.662	5220
866.793	5231
866.924	5265
867.055	5322
867.186	5376
867.317	5334
867.448	5265
867.579	5376
867.71	5337
867.841	5349
867.972	5421
868.103	5459
868.233	5440
868.364	5429
868.495	5520
868.625	5672
868.756	5760
868.886	5630
869.017	5680
869.147	5821
869.278	5821
869.408	5767
869.539	5805
869.669	5893
869.799	5882
869.929	5984
870.06	6030
870.19	6148
870.32	6182
870.45	6175
870.58	6357
870.71	6395
870.84	6490
870.97	6445
871.1	6445
871.23	6608
871.36	6688
871.489	6642
871.619	6722
871.749	6802
871.879	6787
872.008	6954
872.138	6913
872.267	7004
872.397	6989
872.526	6996
872.656	7118
872.785	7160
872.915	7339
873.044	7480
873.173	7525
873.303	7639
873.432	7708
873.561	7849
873.69	7868
873.819	8005
873.948	8176
874.077	8180
874.206	8271
874.335	8473
874.464	8621
874.593	8792
874.722	9039
874.851	9119
874.979	9203
875.108	9325
875.237	9370
875.365	9488
875.494	9656
875.623	9759
875.751	9892
875.88	10036
876.008	10105
876.136	10299
876.265	10428
876.393	10710
876.521	10706
876.65	10805
876.778	10885
876.906	10930
877.034	10934
877.162	11090
877.29	11124
877.418	11250
877.546	11360
877.674	11395
877.802	11493
877.93	11478
878.058	11417
878.185	11558
878.313	11649
878.441	11741
878.568	11668
878.696	11805
878.824	11764
878.951	11897
879.079	11958
879.206	12175
879.333	12068
879.461	12026
879.588	12072
879.715	12163
879.842	12197
879.97	12060
880.097	11912
880.224	11832
880.351	11897
880.478	11843
880.605	11805
880.732	11718
880.859	12022
880.986	11916
881.112	11824
881.239	11676
881.366	11642
881.493	11592
881.619	11577
881.746	11554
881.872	11585
881.999	11516
882.125	11417
882.252	11490
882.378	11436
882.505	11577
882.631	11410
882.757	11341
882.883	11246
883.01	11284
883.136	11258
883.262	11052
883.388	11041
883.514	11159
883.64	11132
883.766	11041
883.892	10946
884.018	10911
884.143	11056
884.269	11113
884.395	10790
884.52	10790
884.646	10767
884.772	10656
884.897	10603
885.023	10645
885.148	10675
885.274	10710
885.399	10634
885.524	10569
885.65	10558
885.775	10527
885.9	10508
886.025	10596
886.15	10519
886.275	10409
886.4	10367
886.525	10421
886.65	10329
886.775	10306
886.9	10440
887.025	10470
887.149	10428
887.274	10242
887.399	10181
887.523	10105
887.648	10120
887.773	10082
887.897	10223
888.021	10177
888.146	10109
888.27	10234
888.395	10192
888.519	10188
888.643	10120
888.767	10169
888.891	10063
889.015	9956
889.139	10090
889.263	9983
889.387	10055
889.511	10150
889.635	9979
889.759	9873
889.883	9964
890.006	9987
890.13	10090
890.254	9915
890.377	10006
890.501	9884
890.624	9827
890.748	9937
890.871	9762
890.995	9770
891.118	9740
891.241	9743
891.364	9679
891.488	9751
891.611	9682
891.734	9701
891.857	9736
891.98	9671
892.103	9816
892.226	9717
892.349	9618
892.471	9542
892.594	9584
892.717	9660
892.839	9519
892.962	9625
893.085	9610
893.207	9553
893.33	9599
893.452	9488
893.575	9587
893.697	9549
893.819	9584
893.941	9504
894.064	9610
894.186	9378
894.308	9447
894.43	9511
894.552	9557
894.674	9473
894.796	9408
894.918	9382
895.04	9260
895.161	9363
895.283	9291
895.405	9218
895.526	9306
895.648	9214
895.769	9150
895.891	9211
896.012	9253
896.134	9199
896.255	9127
896.376	9112
896.498	9165
896.619	9085
896.74	9074
896.861	9070
896.982	9245
897.103	9279
897.224	9173
897.345	9066
897.466	8960
897.587	8982
897.708	9093
897.828	8994
897.949	8986
898.07	8872
898.19	8891
898.311	8975
898.431	8788
898.552	8872
898.672	8975
898.792	8925
898.913	8868
899.033	8823
899.153	8682
899.273	8621
899.393	8750
899.513	8705
899.633	8807
899.753	8708
899.873	8644
899.993	8769
900.113	8701
900.232	8708
900.352	8640
900.472	8568
900.591	8511
900.711	8621
900.83	8579
900.95	8632
901.069	8636
901.189	8446
901.308	8366
901.427	8442
901.546	8408
901.665	8476
901.784	8404
901.904	8400
902.023	8229
902.141	8180
902.26	8168
902.379	8263
902.498	8180
902.617	8244
902.735	8271
902.854	8279
902.973	8225
903.091	8126
903.21	8115
903.328	8168
903.446	8115
903.565	8027
903.683	8043
903.801	7993
903.919	8107
904.038	8153
904.156	8001
904.274	8050
904.392	8005
904.51	7947
904.627	8050
904.745	8115
904.863	8088
904.981	7925
905.098	7833
905.216	7856
905.334	7902
905.451	7795
905.569	7890
905.686	7868
905.803	7902
905.921	7776
906.038	7841
906.155	7772
906.272	7666
906.389	7723
906.506	7715
906.623	7658
906.74	7601
906.857	7597
906.974	7537
907.091	7681
907.208	7693
907.324	7666
907.441	7521
907.557	7449
907.674	7422
907.79	7384
907.907	7396
908.023	7464
908.139	7419
908.256	7350
908.372	7331
908.488	7312
908.604	7289
908.72	7183
908.836	7278
908.952	7244
909.068	7285
909.184	7289
909.3	7190
909.415	7225
909.531	7293
909.647	7038
909.762	7114
909.878	7069
909.993	7122
910.108	7091
910.224	6993
910.339	7084
910.454	7015
910.57	7019
910.685	6932
910.8	7091
910.915	7057
911.03	7019
911.145	6924
911.259	6871
911.374	6871
911.489	6806
911.604	6852
911.718	6677
911.833	6631
911.947	6650
912.062	6601
912.176	6681
912.291	6696
912.405	6688
912.519	6776
912.633	6753
912.748	6753
912.862	6669
912.976	6574
913.09	6563
913.204	6540
913.318	6623
913.431	6642
913.545	6597
913.659	6692
913.772	6612
913.886	6540
914	6521
914.113	6597
914.226	6570
914.34	6559
914.453	6486
914.566	6597
914.68	6502
914.793	6528
914.906	6407
915.019	6388
915.132	6365
915.245	6403
915.358	6365
915.47	6410
915.583	6426
915.696	6418
915.809	6528
915.921	6498
916.034	6467
916.146	6365
916.259	6338
916.371	6464
916.483	6445
916.595	6357
916.708	6437
916.82	6391
916.932	6395
917.044	6391
917.156	6361
917.268	6350
917.38	6319
917.491	6308
917.603	6350
917.715	6357
917.826	6410
917.938	6319
918.049	6277
918.161	6262
918.272	6369
918.384	6437
918.495	6346
918.606	6281
918.717	6175
918.828	6220
918.939	6285
919.05	6098
919.161	6235
919.272	6140
919.383	6155
919.494	6243
919.604	6403
919.715	6254
919.826	6232
919.936	6266
920.047	6327
920.157	6300
920.267	6460
920.378	6258
920.488	6273
920.598	6498
920.708	6570
920.818	6456
920.928	6498
921.038	6593
921.148	6509
921.258	6319
921.368	6247
921.477	6232
921.587	6194
921.697	6019
921.806	6182
921.916	6076
922.025	5954
922.134	5889
922.244	5882
922.353	5946
922.462	5824
922.571	5745
922.68	5760
922.789	5661
922.898	5695
923.007	5638
923.116	5695
923.224	5668
923.333	5691
923.442	5619
923.55	5562
923.659	5539
923.767	5649
923.876	5596
923.984	5566
924.092	5478
924.201	5547
924.309	5524
924.417	5528
924.525	5463
924.633	5436
924.741	6216
924.849	5372
924.956	5402
925.064	5345
925.172	5258
925.279	5277
925.387	5372
925.494	5269
925.602	5406
925.709	5364
925.816	5235
925.924	5277
926.031	5311
926.138	5299
926.245	5315
926.352	5231
926.459	5299
926.566	5299
926.673	5193
926.779	5132
926.886	5090
926.993	5045
927.099	5018
927.206	4965
927.312	4942
927.419	5041
927.525	4968
927.631	4987
927.737	4877
927.843	4820
927.95	4725
928.056	4748
928.162	4854
928.267	4877
928.373	5395
928.479	4828
928.585	4679
928.69	4778
928.796	4736
928.901	4641
929.007	4618
929.112	4653
929.218	4645
929.323	4603
929.428	4523
929.533	4641
929.638	4489
929.743	4500
929.848	4596
929.953	4455
930.058	4413
930.163	4287
930.267	4383
930.372	4409
930.477	4295
930.581	4497
930.685	4341
930.79	4230
930.894	4234
930.998	4253
931.103	4356
931.207	4131
931.311	4093
931.415	4040
931.519	3937
931.623	3896
