Data from glass_V78500241_2277.txt Node
Date: Wed Sep 01 19:30:17 CST 2021
User: usil
Spectrometer: V785-0024
Trigger mode: 0
Integration Time (sec): 4.000000E-1
Scans to average: 1
Nonlinearity correction enabled: false
Boxcar width: 0
Storing dark spectrum: false
XAxis mode: Wavelengths
Number of Pixels in Spectrum: 1024
>>>>>Begin Spectral Data<<<<<
801.071	3732
801.214	3743
801.356	3705
801.499	3751
801.641	3709
801.783	3785
801.926	3884
802.068	3804
802.211	3873
802.353	3869
802.496	3838
802.638	3854
802.78	3899
802.923	3945
803.065	3896
803.208	3812
803.35	3892
803.492	3876
803.635	3930
803.777	3808
803.919	3892
804.061	4181
804.204	3915
804.346	3941
804.488	3941
804.63	4040
804.773	3983
804.915	3994
805.057	4082
805.199	4044
805.341	4071
805.483	4120
805.626	4109
805.768	4097
805.91	4230
806.052	4204
806.194	4147
806.336	4318
806.478	4181
806.62	4147
806.762	4207
806.904	4261
807.046	4329
807.188	4181
807.33	4230
807.472	4230
807.614	4211
807.756	4295
807.898	4207
808.04	4223
808.182	4295
808.324	4303
808.465	4367
808.607	4432
808.749	4443
808.891	4447
809.033	4481
809.174	4329
809.316	4287
809.458	4299
809.6	4105
809.741	4116
809.883	4150
810.025	4143
810.166	4166
810.308	4234
810.45	4230
810.591	4207
810.733	4299
810.875	4455
811.016	4793
811.158	5170
811.299	5299
811.441	5254
811.582	5037
811.724	4694
811.865	4489
812.007	4443
812.148	4398
812.29	4436
812.431	4383
812.573	4375
812.714	4386
812.855	4417
812.997	4402
813.138	4481
813.279	4386
813.421	4352
813.562	4417
813.703	4348
813.845	4299
813.986	4272
814.127	4192
814.268	4272
814.41	4287
814.551	4230
814.692	4306
814.833	4265
814.974	4299
815.115	4310
815.256	4257
815.397	4227
815.539	4295
815.68	4261
815.821	4219
815.962	4303
816.103	4265
816.244	4238
816.385	4261
816.526	4268
816.666	4188
816.807	4097
816.948	4166
817.089	4181
817.23	4093
817.371	4082
817.512	4055
817.653	4059
817.793	4025
817.934	4063
818.075	4032
818.216	4044
818.356	4116
818.497	3960
818.638	3926
818.778	3926
818.919	3899
819.06	3823
819.2	3873
819.341	3831
819.481	3861
819.622	3846
819.762	4055
819.903	3956
820.043	3892
820.184	3850
820.324	3857
820.465	3899
820.605	3854
820.746	3857
820.886	3789
821.026	3972
821.167	3934
821.307	3975
821.447	3937
821.588	3907
821.728	3945
821.868	3983
822.008	3873
822.149	3926
822.289	3899
822.429	3762
822.569	3717
822.709	3762
822.849	3709
822.99	3667
823.13	3736
823.27	3740
823.41	3713
823.55	3736
823.69	3709
823.83	3705
823.97	3675
824.11	3595
824.25	3587
824.389	3625
824.529	3591
824.669	3587
824.809	3701
824.949	3740
825.089	3675
825.228	3724
825.368	3584
825.508	3545
825.648	3557
825.787	3629
825.927	3633
826.067	3656
826.206	3652
826.346	3766
826.485	3808
826.625	3854
826.765	3918
826.904	3778
827.044	3618
827.183	3511
827.323	3447
827.462	3485
827.601	3450
827.741	3447
827.88	3473
828.02	3382
828.159	3469
828.298	3504
828.437	3492
828.577	3458
828.716	3538
828.855	3473
828.994	3374
829.134	3374
829.273	3317
829.412	3302
829.551	3310
829.69	3355
829.829	3450
829.968	3485
830.107	3439
830.246	3416
830.385	3405
830.524	3348
830.663	3313
830.802	3245
830.941	3192
831.08	3195
831.219	3249
831.357	3253
831.496	3374
831.635	3211
831.774	3165
831.913	3207
832.051	3180
832.19	3135
832.329	3192
832.467	3119
832.606	3058
832.744	3116
832.883	3184
833.022	3192
833.16	3294
833.299	3294
833.437	3325
833.576	3382
833.714	3386
833.852	3435
833.991	3435
834.129	3485
834.267	3405
834.406	3370
834.544	3393
834.682	3466
834.821	3397
834.959	3561
835.097	3363
835.235	3507
835.373	3477
835.511	3542
835.65	3393
835.788	3435
835.926	3416
836.064	3359
836.202	3374
836.34	3549
836.478	3587
836.615	3542
836.753	3584
836.891	3618
837.029	3606
837.167	3545
837.305	3523
837.443	3523
837.58	3447
837.718	3614
837.856	3523
837.993	3507
838.131	3584
838.269	3557
838.406	3595
838.544	3561
838.681	3443
838.819	3458
838.956	3348
839.094	3382
839.231	3454
839.369	3534
839.506	3724
839.643	3633
839.781	3526
839.918	3469
840.055	3519
840.193	3473
840.33	3507
840.467	3526
840.604	3641
840.742	3774
840.879	3564
841.016	3572
841.153	3591
841.29	3705
841.427	3720
841.564	3736
841.701	3743
841.838	3679
841.975	3656
842.112	3762
842.249	3663
842.385	3572
842.522	3793
842.659	3701
842.796	3641
842.933	3682
843.069	3698
843.206	3713
843.343	3835
843.479	3770
843.616	3781
843.752	3652
843.889	3633
844.025	3861
844.162	3694
844.298	3823
844.435	3800
844.571	3785
844.708	3915
844.844	3983
844.98	4002
845.117	4013
845.253	3911
845.389	3899
845.525	3945
845.661	3960
845.798	3949
845.934	3998
846.07	3934
846.206	4032
846.342	4078
846.478	4032
846.614	3934
846.75	3926
846.886	3896
847.022	4036
847.158	4029
847.294	3964
847.429	3983
847.565	3998
847.701	4215
847.837	3865
847.972	3873
848.108	3960
848.244	3926
848.379	3861
848.515	3812
848.65	3778
848.786	3823
848.921	3884
849.057	3915
849.192	3911
849.328	3869
849.463	3918
849.598	3884
849.734	3865
849.869	3808
850.004	3743
850.14	3850
850.275	3766
850.41	3755
850.545	3724
850.68	3781
850.815	3823
850.95	3789
851.085	3918
851.22	3854
851.355	3831
851.49	3766
851.625	3793
851.76	3789
851.895	3701
852.03	3686
852.165	3816
852.299	3797
852.434	3888
852.569	3880
852.703	3880
852.838	3861
852.973	3949
853.107	3975
853.242	3876
853.376	3816
853.511	3728
853.645	3835
853.78	3945
853.914	3869
854.048	3876
854.183	3892
854.317	3915
854.451	4063
854.585	3956
854.72	3949
854.854	4059
854.988	3922
855.122	4017
855.256	3930
855.39	4059
855.524	4086
855.658	4063
855.792	4078
855.926	4154
856.06	4120
856.194	4219
856.327	4131
856.461	4131
856.595	4177
856.729	4116
856.862	4265
856.996	4238
857.13	4242
857.263	4310
857.397	4306
857.53	4268
857.664	4306
857.797	4390
857.931	4398
858.064	4371
858.197	4443
858.331	4421
858.464	4421
858.597	4337
858.731	4432
858.864	4436
858.997	4455
859.13	4485
859.263	4519
859.396	4546
859.529	4535
859.662	4550
859.795	4519
859.928	4611
860.061	4691
860.194	4691
860.327	4653
860.46	4660
860.592	4744
860.725	4702
860.858	4812
860.99	4691
861.123	4679
861.256	4702
861.388	4824
861.521	5486
861.653	4653
861.786	4694
861.918	4736
862.05	4778
862.183	4793
862.315	4881
862.447	4923
862.58	4892
862.712	4828
862.844	4752
862.976	4805
863.108	4908
863.24	5140
863.372	4839
863.504	4854
863.636	4919
863.768	4934
863.9	4946
864.032	4885
864.164	4953
864.296	5045
864.428	5094
864.559	5064
864.691	5098
864.823	5079
864.954	5105
865.086	5178
865.217	5079
865.349	5094
865.48	5121
865.612	5216
865.743	5261
865.875	5185
866.006	5166
866.137	5235
866.269	5197
866.4	5220
866.531	5174
866.662	5258
866.793	5296
866.924	5265
867.055	5326
867.186	5349
867.317	5337
867.448	5246
867.579	5383
867.71	5349
867.841	5368
867.972	5455
868.103	5455
868.233	5524
868.364	5551
868.495	5570
868.625	5653
868.756	5756
868.886	5668
869.017	5714
869.147	5802
869.278	5855
869.408	5779
869.539	5836
869.669	5901
869.799	5935
869.929	5965
870.06	5996
870.19	6159
870.32	6209
870.45	6232
870.58	6357
870.71	6410
870.84	6452
870.97	6365
871.1	6407
871.23	6574
871.36	6692
871.489	6654
871.619	6738
871.749	6779
871.879	6859
872.008	7004
872.138	6981
872.267	6962
872.397	6935
872.526	7019
872.656	7038
872.785	7194
872.915	7350
873.044	7518
873.173	7544
873.303	7597
873.432	7757
873.561	7890
873.69	7814
873.819	8005
873.948	8092
874.077	8282
874.206	8294
874.335	8465
874.464	8594
874.593	8861
874.722	8982
874.851	9119
874.979	9283
875.108	9355
875.237	9412
875.365	9519
875.494	9561
875.623	9823
875.751	9770
875.88	9960
876.008	10143
876.136	10272
876.265	10421
876.393	10691
876.521	10668
876.65	10752
876.778	10904
876.906	10881
877.034	10915
877.162	11155
877.29	11128
877.418	11269
877.546	11322
877.674	11433
877.802	11467
877.93	11562
878.058	11501
878.185	11524
878.313	11581
878.441	11714
878.568	11676
878.696	11794
878.824	11893
878.951	11950
879.079	11996
879.206	12079
879.333	12133
879.461	11992
879.588	12034
879.715	12038
879.842	12163
879.97	12026
880.097	11824
880.224	11927
880.351	11889
880.478	11855
880.605	11863
880.732	11817
880.859	11996
880.986	11786
881.112	11805
881.239	11752
881.366	11695
881.493	11726
881.619	11486
881.746	11570
881.872	11505
881.999	11417
882.125	11448
882.252	11532
882.378	11532
882.505	11516
882.631	11429
882.757	11406
882.883	11250
883.01	11185
883.136	11140
883.262	11098
883.388	11033
883.514	11223
883.64	11185
883.766	11174
883.892	10942
884.018	10911
884.143	11113
884.269	11181
884.395	10793
884.52	10793
884.646	10774
884.772	10683
884.897	10645
885.023	10694
885.148	10698
885.274	10786
885.399	10694
885.524	10645
885.65	10653
885.775	10599
885.9	10497
886.025	10599
886.15	10554
886.275	10451
886.4	10325
886.525	10367
886.65	10367
886.775	10344
886.9	10512
887.025	10531
887.149	10310
887.274	10188
887.399	10143
887.523	10131
887.648	10067
887.773	10093
887.897	10150
888.021	10227
888.146	10147
888.27	10257
888.395	10242
888.519	10192
888.643	10188
888.767	10162
888.891	10158
889.015	10093
889.139	10051
889.263	9998
889.387	10082
889.511	10120
889.635	10059
889.759	9869
889.883	10013
890.006	10032
890.13	10093
890.254	9937
890.377	9911
890.501	9827
890.624	9911
890.748	9857
890.871	9766
890.995	9831
891.118	9740
891.241	9762
891.364	9762
891.488	9861
891.611	9759
891.734	9709
891.857	9751
891.98	9622
892.103	9755
892.226	9770
892.349	9625
892.471	9515
892.594	9530
892.717	9568
892.839	9587
892.962	9614
893.085	9679
893.207	9580
893.33	9511
893.452	9507
893.575	9580
893.697	9500
893.819	9572
893.941	9553
894.064	9622
894.186	9351
894.308	9397
894.43	9507
894.552	9603
894.674	9557
894.796	9340
894.918	9408
895.04	9329
895.161	9378
895.283	9344
895.405	9214
895.526	9230
895.648	9161
895.769	9188
895.891	9230
896.012	9260
896.134	9249
896.255	9131
896.376	9154
896.498	9138
896.619	9142
896.74	9001
896.861	9104
896.982	9253
897.103	9291
897.224	9161
897.345	9055
897.466	8975
897.587	9036
897.708	9058
897.828	8971
897.949	9020
898.07	8842
898.19	8872
898.311	8994
898.431	8899
898.552	8967
898.672	8914
898.792	8853
898.913	8899
899.033	8830
899.153	8750
899.273	8644
899.393	8670
899.513	8697
899.633	8746
899.753	8724
899.873	8697
899.993	8766
900.113	8697
900.232	8682
900.352	8697
900.472	8594
900.591	8583
900.711	8568
900.83	8556
900.95	8564
901.069	8754
901.189	8541
901.308	8393
901.427	8400
901.546	8362
901.665	8457
901.784	8503
901.904	8412
902.023	8298
902.141	8176
902.26	8221
902.379	8282
902.498	8180
902.617	8180
902.735	8271
902.854	8301
902.973	8282
903.091	8123
903.21	8092
903.328	8180
903.446	8149
903.565	8100
903.683	8088
903.801	8024
903.919	8142
904.038	8153
904.156	8081
904.274	8126
904.392	7947
904.51	8058
904.627	8096
904.745	8107
904.863	8050
904.981	7909
905.098	7845
905.216	7883
905.334	7856
905.451	7837
905.569	7871
905.686	7887
905.803	7890
905.921	7734
906.038	7917
906.155	7841
906.272	7757
906.389	7731
906.506	7677
906.623	7704
906.74	7578
906.857	7552
906.974	7575
907.091	7647
907.208	7689
907.324	7628
907.441	7567
907.557	7453
907.674	7441
907.79	7331
907.907	7365
908.023	7400
908.139	7381
908.256	7346
908.372	7339
908.488	7384
908.604	7316
908.72	7209
908.836	7270
908.952	7247
909.068	7221
909.184	7305
909.3	7293
909.415	7270
909.531	7232
909.647	7084
909.762	7118
909.878	7050
909.993	7137
910.108	7088
910.224	7080
910.339	7076
910.454	7107
910.57	6943
910.685	6958
910.8	7160
910.915	7141
911.03	7034
911.145	6916
911.259	6878
911.374	6871
911.489	6818
911.604	6837
911.718	6722
911.833	6760
911.947	6612
912.062	6597
912.176	6738
912.291	6692
912.405	6711
912.519	6749
912.633	6810
912.748	6726
912.862	6692
912.976	6650
913.09	6525
913.204	6574
913.318	6612
913.431	6673
913.545	6654
913.659	6696
913.772	6650
913.886	6612
914	6498
914.113	6612
914.226	6665
914.34	6585
914.453	6475
914.566	6608
914.68	6506
914.793	6498
914.906	6441
915.019	6346
915.132	6346
915.245	6426
915.358	6433
915.47	6498
915.583	6467
915.696	6445
915.809	6521
915.921	6540
916.034	6388
916.146	6376
916.259	6395
916.371	6437
916.483	6448
916.595	6414
916.708	6399
916.82	6369
916.932	6338
917.044	6376
917.156	6403
917.268	6296
917.38	6315
917.491	6273
917.603	6399
917.715	6331
917.826	6433
917.938	6304
918.049	6220
918.161	6357
918.272	6357
918.384	6414
918.495	6331
918.606	6232
918.717	6205
918.828	6327
918.939	6285
919.05	6178
919.161	6254
919.272	6034
919.383	6098
919.494	6254
919.604	6391
919.715	6331
919.826	6235
919.936	6224
920.047	6300
920.157	6296
920.267	6372
920.378	6391
920.488	6224
920.598	6422
920.708	6536
920.818	6452
920.928	6433
921.038	6551
921.148	6502
921.258	6376
921.368	6243
921.477	6178
921.587	6155
921.697	6072
921.806	6167
921.916	6064
922.025	5977
922.134	5904
922.244	5855
922.353	5889
922.462	5817
922.571	5790
922.68	5707
922.789	5695
922.898	5722
923.007	5585
923.116	5733
923.224	5676
923.333	5668
923.442	5630
923.55	5566
923.659	5570
923.767	5649
923.876	5524
923.984	5592
924.092	5501
924.201	5566
924.309	5539
924.417	5589
924.525	5501
924.633	5509
924.741	6258
924.849	5341
924.956	5471
925.064	5341
925.172	5277
925.279	5299
925.387	5307
925.494	5280
925.602	5425
925.709	5395
925.816	5269
925.924	5322
926.031	5406
926.138	5318
926.245	5299
926.352	5166
926.459	5345
926.566	5280
926.673	5223
926.779	5197
926.886	5155
926.993	5014
927.099	5003
927.206	4999
927.312	4919
927.419	4976
927.525	4980
927.631	4949
927.737	4873
927.843	4831
927.95	4767
928.056	4786
928.162	4771
928.267	4854
928.373	5322
928.479	4850
928.585	4660
928.69	4774
928.796	4759
928.901	4687
929.007	4561
929.112	4672
929.218	4634
929.323	4626
929.428	4535
929.533	4645
929.638	4459
929.743	4538
929.848	4500
929.953	4489
930.058	4432
930.163	4306
930.267	4367
930.372	4405
930.477	4322
930.581	4459
930.685	4394
930.79	4230
930.894	4265
930.998	4276
931.103	4363
931.207	4093
931.311	4051
931.415	4025
931.519	3953
931.623	3968
