Data from glass_V78500241_550.txt Node
Date: Wed Sep 01 19:18:18 CST 2021
User: usil
Spectrometer: V785-0024
Trigger mode: 0
Integration Time (sec): 4.000000E-1
Scans to average: 1
Nonlinearity correction enabled: false
Boxcar width: 0
Storing dark spectrum: false
XAxis mode: Wavelengths
Number of Pixels in Spectrum: 1024
>>>>>Begin Spectral Data<<<<<
801.071	3762
801.214	3778
801.356	3755
801.499	3766
801.641	3759
801.783	3789
801.926	3876
802.068	3846
802.211	3846
802.353	3930
802.496	3880
802.638	3918
802.78	3937
802.923	3945
803.065	3918
803.208	3915
803.35	3865
803.492	3892
803.635	3934
803.777	3778
803.919	3899
804.061	4166
804.204	3937
804.346	4025
804.488	3884
804.63	4025
804.773	3968
804.915	4048
805.057	4173
805.199	4078
805.341	4128
805.483	4188
805.626	4166
805.768	4124
805.91	4246
806.052	4249
806.194	4207
806.336	4348
806.478	4234
806.62	4185
806.762	4196
806.904	4268
807.046	4348
807.188	4261
807.33	4200
807.472	4219
807.614	4188
807.756	4272
807.898	4215
808.04	4249
808.182	4287
808.324	4322
808.465	4398
808.607	4436
808.749	4478
808.891	4451
809.033	4519
809.174	4413
809.316	4261
809.458	4249
809.6	4147
809.741	4192
809.883	4154
810.025	4234
810.166	4223
810.308	4196
810.45	4291
810.591	4272
810.733	4306
810.875	4542
811.016	4850
811.158	5204
811.299	5261
811.441	5318
811.582	5067
811.724	4767
811.865	4443
812.007	4474
812.148	4447
812.29	4432
812.431	4402
812.573	4398
812.714	4379
812.855	4459
812.997	4375
813.138	4508
813.279	4451
813.421	4386
813.562	4371
813.703	4367
813.845	4344
813.986	4261
814.127	4257
814.268	4291
814.41	4322
814.551	4257
814.692	4314
814.833	4291
814.974	4295
815.115	4344
815.256	4268
815.397	4257
815.539	4230
815.68	4242
815.821	4223
815.962	4284
816.103	4314
816.244	4276
816.385	4268
816.526	4306
816.666	4219
816.807	4116
816.948	4135
817.089	4185
817.23	4120
817.371	4063
817.512	4078
817.653	4048
817.793	4063
817.934	4048
818.075	4093
818.216	4071
818.356	4067
818.497	3972
818.638	3941
818.778	3964
818.919	3888
819.06	3869
819.2	3926
819.341	3850
819.481	3865
819.622	3888
819.762	4025
819.903	3960
820.043	3899
820.184	3846
820.324	3880
820.465	3899
820.605	3831
820.746	3896
820.886	3816
821.026	3979
821.167	3869
821.307	3991
821.447	3960
821.588	3949
821.728	3987
821.868	4006
822.008	3838
822.149	3937
822.289	3941
822.429	3827
822.569	3778
822.709	3766
822.849	3686
822.99	3793
823.13	3755
823.27	3793
823.41	3747
823.55	3747
823.69	3720
823.83	3728
823.97	3717
824.11	3614
824.25	3610
824.389	3599
824.529	3679
824.669	3652
824.809	3701
824.949	3755
825.089	3778
825.228	3736
825.368	3580
825.508	3584
825.648	3564
825.787	3557
825.927	3671
826.067	3660
826.206	3690
826.346	3793
826.485	3831
826.625	3861
826.765	3972
826.904	3812
827.044	3606
827.183	3545
827.323	3466
827.462	3504
827.601	3431
827.741	3443
827.88	3504
828.02	3393
828.159	3477
828.298	3447
828.437	3507
828.577	3488
828.716	3606
828.855	3526
828.994	3424
829.134	3397
829.273	3412
829.412	3321
829.551	3340
829.69	3355
829.829	3409
829.968	3481
830.107	3424
830.246	3443
830.385	3401
830.524	3359
830.663	3317
830.802	3256
830.941	3203
831.08	3188
831.219	3298
831.357	3283
831.496	3424
831.635	3253
831.774	3226
831.913	3218
832.051	3142
832.19	3154
832.329	3211
832.467	3157
832.606	3116
832.744	3192
832.883	3192
833.022	3188
833.16	3298
833.299	3291
833.437	3359
833.576	3370
833.714	3409
833.852	3458
833.991	3450
834.129	3515
834.267	3477
834.406	3370
834.544	3435
834.682	3462
834.821	3397
834.959	3637
835.097	3412
835.235	3557
835.373	3500
835.511	3488
835.65	3488
835.788	3496
835.926	3454
836.064	3420
836.202	3412
836.34	3625
836.478	3629
836.615	3530
836.753	3637
836.891	3663
837.029	3625
837.167	3576
837.305	3595
837.443	3549
837.58	3515
837.718	3584
837.856	3603
837.993	3526
838.131	3637
838.269	3614
838.406	3580
838.544	3587
838.681	3515
838.819	3473
838.956	3401
839.094	3405
839.231	3454
839.369	3564
839.506	3713
839.643	3622
839.781	3496
839.918	3492
840.055	3534
840.193	3507
840.33	3534
840.467	3557
840.604	3591
840.742	3819
840.879	3534
841.016	3580
841.153	3591
841.29	3793
841.427	3751
841.564	3720
841.701	3732
841.838	3717
841.975	3663
842.112	3747
842.249	3690
842.385	3625
842.522	3873
842.659	3701
842.796	3667
842.933	3705
843.069	3720
843.206	3690
843.343	3831
843.479	3751
843.616	3831
843.752	3690
843.889	3705
844.025	3835
844.162	3766
844.298	3899
844.435	3778
844.571	3823
844.708	3945
844.844	3994
844.98	3991
845.117	4017
845.253	4010
845.389	3918
845.525	3930
845.661	3998
845.798	3964
845.934	4036
846.07	3991
846.206	4090
846.342	4071
846.478	4074
846.614	4025
846.75	3994
846.886	3937
847.022	4059
847.158	4006
847.294	4013
847.429	4002
847.565	3975
847.701	4280
847.837	3899
847.972	3869
848.108	4013
848.244	3972
848.379	3892
848.515	3789
848.65	3812
848.786	3865
848.921	3873
849.057	3918
849.192	3937
849.328	3915
849.463	3892
849.598	3876
849.734	3865
849.869	3812
850.004	3838
850.14	3819
850.275	3762
850.41	3720
850.545	3800
850.68	3755
850.815	3778
850.95	3781
851.085	3964
851.22	3876
851.355	3835
851.49	3751
851.625	3869
851.76	3808
851.895	3713
852.03	3724
852.165	3846
852.299	3880
852.434	3888
852.569	3865
852.703	3884
852.838	3987
852.973	3991
853.107	3987
853.242	3922
853.376	3857
853.511	3816
853.645	3838
853.78	3953
853.914	3873
854.048	3930
854.183	3876
854.317	4013
854.451	4116
854.585	3949
854.72	3975
854.854	4093
854.988	3934
855.122	4032
855.256	3953
855.39	4063
855.524	4120
855.658	4097
855.792	4101
855.926	4150
856.06	4173
856.194	4200
856.327	4177
856.461	4181
856.595	4128
856.729	4177
856.862	4295
856.996	4257
857.13	4295
857.263	4314
857.397	4367
857.53	4287
857.664	4383
857.797	4428
857.931	4443
858.064	4383
858.197	4497
858.331	4379
858.464	4424
858.597	4363
858.731	4470
858.864	4462
858.997	4489
859.13	4577
859.263	4527
859.396	4607
859.529	4500
859.662	4527
859.795	4493
859.928	4637
860.061	4748
860.194	4763
860.327	4675
860.46	4599
860.592	4771
860.725	4740
860.858	4759
860.99	4733
861.123	4729
861.256	4668
861.388	4816
861.521	5570
861.653	4714
861.786	4698
861.918	4767
862.05	4809
862.183	4870
862.315	4881
862.447	4965
862.58	4854
862.712	4790
862.844	4736
862.976	4885
863.108	4881
863.24	5159
863.372	4835
863.504	4908
863.636	4900
863.768	4984
863.9	4961
864.032	4862
864.164	4961
864.296	5022
864.428	5079
864.559	5155
864.691	5121
864.823	5136
864.954	5185
865.086	5155
865.217	5079
865.349	5136
865.48	5189
865.612	5273
865.743	5307
865.875	5201
866.006	5174
866.137	5269
866.269	5239
866.4	5296
866.531	5311
866.662	5280
866.793	5258
866.924	5311
867.055	5376
867.186	5353
867.317	5337
867.448	5315
867.579	5383
867.71	5387
867.841	5433
867.972	5509
868.103	5471
868.233	5509
868.364	5474
868.495	5566
868.625	5688
868.756	5805
868.886	5668
869.017	5733
869.147	5813
869.278	5844
869.408	5824
869.539	5817
869.669	5920
869.799	5950
869.929	6026
870.06	6007
870.19	6186
870.32	6270
870.45	6311
870.58	6334
870.71	6407
870.84	6429
870.97	6422
871.1	6475
871.23	6677
871.36	6768
871.489	6658
871.619	6738
871.749	6802
871.879	6863
872.008	6939
872.138	6981
872.267	7072
872.397	7050
872.526	7088
872.656	7145
872.785	7217
872.915	7419
873.044	7544
873.173	7544
873.303	7628
873.432	7845
873.561	7864
873.69	7909
873.819	8077
873.948	8176
874.077	8164
874.206	8298
874.335	8488
874.464	8617
874.593	8910
874.722	8906
874.851	9165
874.979	9233
875.108	9424
875.237	9496
875.365	9485
875.494	9679
875.623	9804
875.751	9835
875.88	10071
876.008	10101
876.136	10200
876.265	10546
876.393	10641
876.521	10687
876.65	10763
876.778	10889
876.906	10961
877.034	11025
877.162	11086
877.29	11174
877.418	11330
877.546	11417
877.674	11490
877.802	11543
877.93	11490
878.058	11547
878.185	11551
878.313	11691
878.441	11752
878.568	11733
878.696	11790
878.824	11824
878.951	11912
879.079	12007
879.206	12091
879.333	12068
879.461	12007
879.588	12102
879.715	12087
879.842	12194
879.97	12076
880.097	11923
880.224	11935
880.351	11904
880.478	12007
880.605	11805
880.732	11790
880.859	12019
880.986	11798
881.112	11901
881.239	11665
881.366	11653
881.493	11566
881.619	11543
881.746	11653
881.872	11543
881.999	11570
882.125	11520
882.252	11585
882.378	11535
882.505	11570
882.631	11360
882.757	11280
882.883	11330
883.01	11280
883.136	11117
883.262	11113
883.388	11105
883.514	11239
883.64	11166
883.766	11117
883.892	11010
884.018	10976
884.143	11151
884.269	11056
884.395	10748
884.52	10767
884.646	10816
884.772	10771
884.897	10767
885.023	10679
885.148	10721
885.274	10896
885.399	10675
885.524	10618
885.65	10535
885.775	10546
885.9	10531
886.025	10702
886.15	10603
886.275	10558
886.4	10344
886.525	10375
886.65	10367
886.775	10398
886.9	10428
887.025	10493
887.149	10371
887.274	10227
887.399	10177
887.523	10196
887.648	10078
887.773	10143
887.897	10272
888.021	10276
888.146	10230
888.27	10299
888.395	10238
888.519	10166
888.643	10242
888.767	10215
888.891	10055
889.015	9968
889.139	9945
889.263	9930
889.387	10048
889.511	10135
889.635	10082
889.759	9964
889.883	9964
890.006	10010
890.13	10040
890.254	10025
890.377	9987
890.501	9869
890.624	9899
890.748	9880
890.871	9778
890.995	9732
891.118	9774
891.241	9747
891.364	9759
891.488	9838
891.611	9759
891.734	9751
891.857	9781
891.98	9671
892.103	9774
892.226	9698
892.349	9686
892.471	9526
892.594	9637
892.717	9622
892.839	9610
892.962	9660
893.085	9644
893.207	9580
893.33	9504
893.452	9534
893.575	9549
893.697	9397
893.819	9606
893.941	9701
894.064	9679
894.186	9393
894.308	9454
894.43	9538
894.552	9572
894.674	9515
894.796	9344
894.918	9405
895.04	9378
895.161	9374
895.283	9355
895.405	9260
895.526	9302
895.648	9222
895.769	9253
895.891	9256
896.012	9306
896.134	9195
896.255	9192
896.376	9165
896.498	9131
896.619	9142
896.74	9112
896.861	9188
896.982	9287
897.103	9332
897.224	9207
897.345	9135
897.466	9005
897.587	9032
897.708	9112
897.828	9024
897.949	9009
898.07	8842
898.19	8975
898.311	9051
898.431	8914
898.552	8956
898.672	8967
898.792	8994
898.913	8861
899.033	8864
899.153	8792
899.273	8674
899.393	8781
899.513	8807
899.633	8781
899.753	8743
899.873	8682
899.993	8777
900.113	8667
900.232	8720
900.352	8667
900.472	8659
900.591	8610
900.711	8632
900.83	8522
900.95	8712
901.069	8735
901.189	8606
901.308	8526
901.427	8351
901.546	8476
901.665	8454
901.784	8545
901.904	8370
902.023	8366
902.141	8279
902.26	8168
902.379	8218
902.498	8229
902.617	8263
902.735	8301
902.854	8313
902.973	8290
903.091	8142
903.21	8153
903.328	8206
903.446	8100
903.565	8046
903.683	8088
903.801	8077
903.919	8130
904.038	8157
904.156	8058
904.274	8138
904.392	8039
904.51	8024
904.627	8096
904.745	8073
904.863	8126
904.981	7951
905.098	7890
905.216	7902
905.334	7921
905.451	7875
905.569	7909
905.686	7940
905.803	7951
905.921	7792
906.038	7917
906.155	7852
906.272	7723
906.389	7742
906.506	7636
906.623	7624
906.74	7590
906.857	7575
906.974	7575
907.091	7658
907.208	7715
907.324	7616
907.441	7563
907.557	7438
907.674	7449
907.79	7403
907.907	7438
908.023	7495
908.139	7415
908.256	7381
908.372	7381
908.488	7377
908.604	7293
908.72	7244
908.836	7240
908.952	7289
909.068	7270
909.184	7312
909.3	7285
909.415	7365
909.531	7305
909.647	7168
909.762	7091
909.878	7107
909.993	7114
910.108	7179
910.224	7129
910.339	7171
910.454	7080
910.57	7008
910.685	6932
910.8	7168
910.915	7095
911.03	6993
911.145	6894
911.259	6837
911.374	6878
911.489	6821
911.604	6825
911.718	6707
911.833	6749
911.947	6601
912.062	6616
912.176	6719
912.291	6688
912.405	6662
912.519	6795
912.633	6863
912.748	6715
912.862	6681
912.976	6684
913.09	6532
913.204	6582
913.318	6593
913.431	6658
913.545	6639
913.659	6700
913.772	6707
913.886	6555
914	6635
914.113	6593
914.226	6692
914.34	6623
914.453	6464
914.566	6627
914.68	6502
914.793	6494
914.906	6502
915.019	6422
915.132	6346
915.245	6388
915.358	6452
915.47	6418
915.583	6471
915.696	6502
915.809	6547
915.921	6521
916.034	6403
916.146	6418
916.259	6441
916.371	6471
916.483	6448
916.595	6414
916.708	6433
916.82	6441
916.932	6433
917.044	6433
917.156	6433
917.268	6361
917.38	6327
917.491	6334
917.603	6296
917.715	6391
917.826	6456
917.938	6296
918.049	6258
918.161	6407
918.272	6422
918.384	6388
918.495	6410
918.606	6213
918.717	6197
918.828	6281
918.939	6258
919.05	6194
919.161	6311
919.272	6121
919.383	6190
919.494	6292
919.604	6433
919.715	6289
919.826	6197
919.936	6315
920.047	6327
920.157	6285
920.267	6486
920.378	6300
920.488	6357
920.598	6521
920.708	6513
920.818	6532
920.928	6460
921.038	6620
921.148	6593
921.258	6395
921.368	6251
921.477	6216
921.587	6213
921.697	6098
921.806	6243
921.916	6091
922.025	5942
922.134	5961
922.244	5847
922.353	5973
922.462	5897
922.571	5790
922.68	5710
922.789	5752
922.898	5680
923.007	5695
923.116	5653
923.224	5668
923.333	5676
923.442	5630
923.55	5581
923.659	5570
923.767	5653
923.876	5573
923.984	5611
924.092	5509
924.201	5512
924.309	5589
924.417	5505
924.525	5497
924.633	5497
924.741	6308
924.849	5395
924.956	5486
925.064	5349
925.172	5372
925.279	5318
925.387	5341
925.494	5337
925.602	5482
925.709	5417
925.816	5277
925.924	5277
926.031	5376
926.138	5315
926.245	5353
926.352	5193
926.459	5311
926.566	5353
926.673	5254
926.779	5227
926.886	5098
926.993	5071
927.099	5006
927.206	4995
927.312	4930
927.419	5006
927.525	4953
927.631	5018
927.737	4904
927.843	4896
927.95	4809
928.056	4850
928.162	4854
928.267	4843
928.373	5261
928.479	4797
928.585	4702
928.69	4767
928.796	4790
928.901	4733
929.007	4630
929.112	4672
929.218	4618
929.323	4611
929.428	4561
929.533	4694
929.638	4573
929.743	4580
929.848	4554
929.953	4550
930.058	4436
930.163	4360
930.267	4386
930.372	4447
930.477	4329
930.581	4440
930.685	4341
930.79	4306
930.894	4253
930.998	4280
931.103	4402
931.207	4154
931.311	4082
931.415	4048
931.519	3915
931.623	3987
