Data from glass_V78500241_2406.txt Node
Date: Wed Sep 01 19:31:10 CST 2021
User: usil
Spectrometer: V785-0024
Trigger mode: 0
Integration Time (sec): 4.000000E-1
Scans to average: 1
Nonlinearity correction enabled: false
Boxcar width: 0
Storing dark spectrum: false
XAxis mode: Wavelengths
Number of Pixels in Spectrum: 1024
>>>>>Begin Spectral Data<<<<<
801.071	3720
801.214	3770
801.356	3709
801.499	3778
801.641	3694
801.783	3747
801.926	3873
802.068	3842
802.211	3869
802.353	3884
802.496	3850
802.638	3861
802.78	3907
802.923	3892
803.065	3869
803.208	3804
803.35	3865
803.492	3926
803.635	3918
803.777	3819
803.919	3903
804.061	4169
804.204	3960
804.346	3922
804.488	3869
804.63	4013
804.773	3979
804.915	4029
805.057	4143
805.199	4017
805.341	4090
805.483	4105
805.626	4067
805.768	4116
805.91	4207
806.052	4204
806.194	4192
806.336	4344
806.478	4223
806.62	4120
806.762	4196
806.904	4246
807.046	4333
807.188	4234
807.33	4158
807.472	4265
807.614	4173
807.756	4238
807.898	4181
808.04	4185
808.182	4272
808.324	4299
808.465	4341
808.607	4462
808.749	4436
808.891	4474
809.033	4455
809.174	4363
809.316	4246
809.458	4234
809.6	4188
809.741	4120
809.883	4120
810.025	4230
810.166	4173
810.308	4185
810.45	4230
810.591	4234
810.733	4246
810.875	4504
811.016	4809
811.158	5147
811.299	5292
811.441	5292
811.582	5132
811.724	4694
811.865	4462
812.007	4466
812.148	4470
812.29	4375
812.431	4402
812.573	4360
812.714	4413
812.855	4413
812.997	4375
813.138	4424
813.279	4447
813.421	4367
813.562	4398
813.703	4268
813.845	4329
813.986	4249
814.127	4166
814.268	4261
814.41	4314
814.551	4257
814.692	4276
814.833	4234
814.974	4284
815.115	4329
815.256	4211
815.397	4211
815.539	4230
815.68	4173
815.821	4219
815.962	4314
816.103	4242
816.244	4265
816.385	4177
816.526	4238
816.666	4196
816.807	4093
816.948	4169
817.089	4139
817.23	4082
817.371	4044
817.512	4067
817.653	4090
817.793	4067
817.934	4021
818.075	4082
818.216	4078
818.356	4059
818.497	3949
818.638	3884
818.778	3907
818.919	3903
819.06	3922
819.2	3899
819.341	3850
819.481	3812
819.622	3865
819.762	4036
819.903	3975
820.043	3835
820.184	3812
820.324	3850
820.465	3865
820.605	3869
820.746	3861
820.886	3800
821.026	3911
821.167	3896
821.307	3998
821.447	3987
821.588	3930
821.728	3930
821.868	3884
822.008	3865
822.149	3880
822.289	3945
822.429	3762
822.569	3759
822.709	3774
822.849	3679
822.99	3732
823.13	3766
823.27	3797
823.41	3751
823.55	3694
823.69	3667
823.83	3720
823.97	3663
824.11	3587
824.25	3576
824.389	3660
824.529	3690
824.669	3652
824.809	3663
824.949	3736
825.089	3713
825.228	3682
825.368	3530
825.508	3553
825.648	3561
825.787	3587
825.927	3633
826.067	3629
826.206	3667
826.346	3751
826.485	3808
826.625	3880
826.765	3915
826.904	3823
827.044	3618
827.183	3530
827.323	3428
827.462	3454
827.601	3428
827.741	3424
827.88	3435
828.02	3412
828.159	3412
828.298	3431
828.437	3523
828.577	3469
828.716	3587
828.855	3477
828.994	3351
829.134	3359
829.273	3397
829.412	3340
829.551	3336
829.69	3344
829.829	3412
829.968	3492
830.107	3412
830.246	3477
830.385	3367
830.524	3344
830.663	3310
830.802	3253
830.941	3203
831.08	3188
831.219	3241
831.357	3230
831.496	3405
831.635	3222
831.774	3169
831.913	3214
832.051	3119
832.19	3146
832.329	3188
832.467	3127
832.606	3097
832.744	3146
832.883	3135
833.022	3192
833.16	3275
833.299	3291
833.437	3310
833.576	3401
833.714	3363
833.852	3428
833.991	3469
834.129	3462
834.267	3435
834.406	3370
834.544	3397
834.682	3409
834.821	3397
834.959	3545
835.097	3412
835.235	3511
835.373	3496
835.511	3466
835.65	3485
835.788	3492
835.926	3431
836.064	3348
836.202	3420
836.34	3557
836.478	3599
836.615	3511
836.753	3614
836.891	3652
837.029	3584
837.167	3564
837.305	3515
837.443	3591
837.58	3485
837.718	3584
837.856	3553
837.993	3496
838.131	3587
838.269	3595
838.406	3587
838.544	3572
838.681	3458
838.819	3420
838.956	3382
839.094	3420
839.231	3431
839.369	3530
839.506	3701
839.643	3591
839.781	3485
839.918	3473
840.055	3526
840.193	3519
840.33	3492
840.467	3584
840.604	3587
840.742	3846
840.879	3568
841.016	3587
841.153	3606
841.29	3717
841.427	3709
841.564	3717
841.701	3720
841.838	3663
841.975	3637
842.112	3740
842.249	3595
842.385	3656
842.522	3808
842.659	3701
842.796	3644
842.933	3724
843.069	3682
843.206	3690
843.343	3827
843.479	3751
843.616	3797
843.752	3614
843.889	3686
844.025	3911
844.162	3690
844.298	3797
844.435	3762
844.571	3781
844.708	3915
844.844	3964
844.98	3991
845.117	3953
845.253	3907
845.389	3903
845.525	3956
845.661	3968
845.798	3907
845.934	4006
846.07	3941
846.206	4017
846.342	4082
846.478	4055
846.614	3975
846.75	3926
846.886	3922
847.022	3979
847.158	3907
847.294	3956
847.429	4013
847.565	3983
847.701	4219
847.837	3857
847.972	3865
848.108	3994
848.244	3987
848.379	3838
848.515	3789
848.65	3831
848.786	3869
848.921	3861
849.057	3899
849.192	3880
849.328	3880
849.463	3937
849.598	3865
849.734	3854
849.869	3823
850.004	3816
850.14	3793
850.275	3747
850.41	3701
850.545	3743
850.68	3728
850.815	3800
850.95	3797
851.085	3922
851.22	3865
851.355	3846
851.49	3778
851.625	3800
851.76	3793
851.895	3698
852.03	3705
852.165	3778
852.299	3804
852.434	3896
852.569	3800
852.703	3915
852.838	3934
852.973	3960
853.107	3953
853.242	3888
853.376	3842
853.511	3740
853.645	3804
853.78	3953
853.914	3926
854.048	3876
854.183	3850
854.317	3941
854.451	4078
854.585	3968
854.72	3953
854.854	4044
854.988	3907
855.122	3964
855.256	3953
855.39	3991
855.524	4109
855.658	4093
855.792	4074
855.926	4162
856.06	4177
856.194	4166
856.327	4097
856.461	4093
856.595	4162
856.729	4101
856.862	4272
856.996	4211
857.13	4295
857.263	4333
857.397	4367
857.53	4314
857.664	4325
857.797	4371
857.931	4421
858.064	4360
858.197	4443
858.331	4367
858.464	4371
858.597	4352
858.731	4386
858.864	4436
858.997	4424
859.13	4478
859.263	4485
859.396	4554
859.529	4497
859.662	4580
859.795	4485
859.928	4603
860.061	4653
860.194	4691
860.327	4683
860.46	4622
860.592	4694
860.725	4759
860.858	4740
860.99	4710
861.123	4672
861.256	4725
861.388	4774
861.521	5547
861.653	4725
861.786	4714
861.918	4721
862.05	4752
862.183	4835
862.315	4911
862.447	4850
862.58	4885
862.712	4755
862.844	4721
862.976	4889
863.108	4847
863.24	5132
863.372	4809
863.504	4885
863.636	4847
863.768	4972
863.9	4953
864.032	4915
864.164	4972
864.296	5033
864.428	5075
864.559	5071
864.691	5079
864.823	5147
864.954	5079
865.086	5174
865.217	5166
865.349	5098
865.48	5136
865.612	5185
865.743	5239
865.875	5223
866.006	5151
866.137	5239
866.269	5261
866.4	5231
866.531	5223
866.662	5151
866.793	5223
866.924	5250
867.055	5357
867.186	5345
867.317	5299
867.448	5311
867.579	5322
867.71	5372
867.841	5360
867.972	5444
868.103	5482
868.233	5455
868.364	5539
868.495	5558
868.625	5630
868.756	5836
868.886	5767
869.017	5714
869.147	5817
869.278	5855
869.408	5756
869.539	5870
869.669	5901
869.799	5817
869.929	6019
870.06	6019
870.19	6285
870.32	6232
870.45	6213
870.58	6273
870.71	6456
870.84	6460
870.97	6464
871.1	6445
871.23	6589
871.36	6757
871.489	6631
871.619	6719
871.749	6833
871.879	6837
872.008	6951
872.138	6947
872.267	7065
872.397	7019
872.526	6958
872.656	7145
872.785	7259
872.915	7335
873.044	7449
873.173	7540
873.303	7609
873.432	7685
873.561	7906
873.69	7940
873.819	7917
873.948	8130
874.077	8244
874.206	8332
874.335	8461
874.464	8648
874.593	8872
874.722	8918
874.851	9081
874.979	9264
875.108	9302
875.237	9416
875.365	9469
875.494	9614
875.623	9778
875.751	9816
875.88	9998
876.008	10192
876.136	10310
876.265	10481
876.393	10694
876.521	10733
876.65	10748
876.778	10866
876.906	10919
877.034	10987
877.162	11075
877.29	11132
877.418	11242
877.546	11341
877.674	11436
877.802	11486
877.93	11562
878.058	11486
878.185	11600
878.313	11619
878.441	11726
878.568	11710
878.696	11752
878.824	11828
878.951	11863
879.079	12026
879.206	12159
879.333	11958
879.461	11977
879.588	12068
879.715	12038
879.842	12136
879.97	12003
880.097	11855
880.224	11889
880.351	11874
880.478	11790
880.605	11847
880.732	11824
880.859	11916
880.986	11805
881.112	11775
881.239	11737
881.366	11604
881.493	11688
881.619	11467
881.746	11611
881.872	11482
881.999	11467
882.125	11459
882.252	11512
882.378	11463
882.505	11577
882.631	11417
882.757	11280
882.883	11334
883.01	11277
883.136	11178
883.262	11121
883.388	11086
883.514	11250
883.64	11143
883.766	11121
883.892	10987
884.018	11067
884.143	11102
884.269	11064
884.395	10797
884.52	10691
884.646	10733
884.772	10664
884.897	10664
885.023	10710
885.148	10706
885.274	10717
885.399	10679
885.524	10630
885.65	10504
885.775	10637
885.9	10618
886.025	10626
886.15	10542
886.275	10466
886.4	10398
886.525	10291
886.65	10413
886.775	10276
886.9	10459
887.025	10504
887.149	10310
887.274	10257
887.399	10227
887.523	10135
887.648	10207
887.773	10086
887.897	10246
888.021	10230
888.146	10131
888.27	10284
888.395	10169
888.519	10188
888.643	10192
888.767	10173
888.891	10093
889.015	9960
889.139	10051
889.263	9998
889.387	10139
889.511	10101
889.635	10051
889.759	9983
889.883	10010
890.006	10006
890.13	10051
890.254	10002
890.377	10048
890.501	9895
890.624	9827
890.748	9922
890.871	9789
890.995	9686
891.118	9857
891.241	9766
891.364	9682
891.488	9854
891.611	9720
891.734	9698
891.857	9785
891.98	9694
892.103	9766
892.226	9671
892.349	9713
892.471	9587
892.594	9549
892.717	9572
892.839	9587
892.962	9584
893.085	9603
893.207	9545
893.33	9511
893.452	9435
893.575	9488
893.697	9424
893.819	9663
893.941	9652
894.064	9610
894.186	9447
894.308	9386
894.43	9507
894.552	9576
894.674	9492
894.796	9351
894.918	9355
895.04	9329
895.161	9424
895.283	9310
895.405	9169
895.526	9207
895.648	9264
895.769	9256
895.891	9233
896.012	9321
896.134	9176
896.255	9154
896.376	9150
896.498	9104
896.619	9135
896.74	9055
896.861	9097
896.982	9184
897.103	9272
897.224	9192
897.345	9024
897.466	8941
897.587	9017
897.708	9123
897.828	8979
897.949	8941
898.07	8929
898.19	8902
898.311	9039
898.431	8925
898.552	8872
898.672	9024
898.792	8937
898.913	8868
899.033	8781
899.153	8746
899.273	8606
899.393	8686
899.513	8705
899.633	8682
899.753	8727
899.873	8743
899.993	8686
900.113	8686
900.232	8659
900.352	8587
900.472	8579
900.591	8545
900.711	8617
900.83	8530
900.95	8594
901.069	8636
901.189	8541
901.308	8404
901.427	8393
901.546	8393
901.665	8415
901.784	8514
901.904	8374
902.023	8313
902.141	8199
902.26	8256
902.379	8279
902.498	8244
902.617	8221
902.735	8271
902.854	8298
902.973	8279
903.091	8126
903.21	8111
903.328	8077
903.446	8161
903.565	8077
903.683	8123
903.801	8024
903.919	8130
904.038	8092
904.156	8027
904.274	8157
904.392	8054
904.51	8027
904.627	8084
904.745	8103
904.863	8149
904.981	7940
905.098	7852
905.216	7849
905.334	7921
905.451	7913
905.569	7776
905.686	7868
905.803	7883
905.921	7723
906.038	7841
906.155	7818
906.272	7742
906.389	7715
906.506	7552
906.623	7609
906.74	7605
906.857	7487
906.974	7563
907.091	7563
907.208	7677
907.324	7643
907.441	7540
907.557	7468
907.674	7362
907.79	7392
907.907	7419
908.023	7422
908.139	7411
908.256	7339
908.372	7343
908.488	7339
908.604	7282
908.72	7232
908.836	7263
908.952	7225
909.068	7209
909.184	7308
909.3	7255
909.415	7274
909.531	7308
909.647	7042
909.762	7118
909.878	7042
909.993	7145
910.108	7107
910.224	7080
910.339	7141
910.454	7019
910.57	7027
910.685	6958
910.8	7221
910.915	7057
911.03	6977
911.145	6848
911.259	6894
911.374	6829
911.489	6798
911.604	6837
911.718	6734
911.833	6700
911.947	6642
912.062	6582
912.176	6722
912.291	6730
912.405	6684
912.519	6814
912.633	6772
912.748	6677
912.862	6715
912.976	6631
913.09	6486
913.204	6570
913.318	6593
913.431	6684
913.545	6608
913.659	6749
913.772	6639
913.886	6616
914	6540
914.113	6620
914.226	6635
914.34	6601
914.453	6475
914.566	6658
914.68	6593
914.793	6509
914.906	6467
915.019	6391
915.132	6372
915.245	6403
915.358	6418
915.47	6418
915.583	6456
915.696	6464
915.809	6483
915.921	6532
916.034	6403
916.146	6429
916.259	6296
916.371	6388
916.483	6471
916.595	6372
916.708	6426
916.82	6334
916.932	6338
917.044	6391
917.156	6441
917.268	6380
917.38	6338
917.491	6251
917.603	6311
917.715	6399
917.826	6331
917.938	6308
918.049	6209
918.161	6289
918.272	6422
918.384	6456
918.495	6258
918.606	6308
918.717	6178
918.828	6273
918.939	6251
919.05	6129
919.161	6281
919.272	6091
919.383	6102
919.494	6239
919.604	6422
919.715	6285
919.826	6190
919.936	6273
920.047	6372
920.157	6258
920.267	6410
920.378	6338
920.488	6224
920.598	6418
920.708	6570
920.818	6502
920.928	6445
921.038	6612
921.148	6536
921.258	6300
921.368	6311
921.477	6186
921.587	6148
921.697	6087
921.806	6121
921.916	6038
922.025	5931
922.134	5904
922.244	5844
922.353	5912
922.462	5836
922.571	5802
922.68	5737
922.789	5668
922.898	5729
923.007	5627
923.116	5684
923.224	5718
923.333	5627
923.442	5577
923.55	5516
923.659	5611
923.767	5554
923.876	5577
923.984	5634
924.092	5493
924.201	5539
924.309	5554
924.417	5608
924.525	5463
924.633	5497
924.741	6235
924.849	5368
924.956	5467
925.064	5353
925.172	5284
925.279	5296
925.387	5296
925.494	5284
925.602	5448
925.709	5398
925.816	5242
925.924	5296
926.031	5334
926.138	5288
926.245	5315
926.352	5212
926.459	5277
926.566	5345
926.673	5178
926.779	5086
926.886	5098
926.993	5060
927.099	5045
927.206	4999
927.312	4968
927.419	4984
927.525	4976
927.631	5029
927.737	4866
927.843	4877
927.95	4740
928.056	4820
928.162	4820
928.267	4831
928.373	5231
928.479	4828
928.585	4691
928.69	4752
928.796	4778
928.901	4656
929.007	4573
929.112	4710
929.218	4580
929.323	4580
929.428	4596
929.533	4622
929.638	4485
929.743	4535
929.848	4565
929.953	4516
930.058	4447
930.163	4325
930.267	4344
930.372	4398
930.477	4333
930.581	4443
930.685	4318
930.79	4211
930.894	4280
930.998	4291
931.103	4375
931.207	4112
931.311	4078
931.415	4074
931.519	3915
931.623	3979
