Data from glass_V78500241_193.txt Node
Date: Wed Sep 01 19:15:50 CST 2021
User: usil
Spectrometer: V785-0024
Trigger mode: 0
Integration Time (sec): 4.000000E-1
Scans to average: 1
Nonlinearity correction enabled: false
Boxcar width: 0
Storing dark spectrum: false
XAxis mode: Wavelengths
Number of Pixels in Spectrum: 1024
>>>>>Begin Spectral Data<<<<<
801.071	3759
801.214	3766
801.356	3743
801.499	3774
801.641	3743
801.783	3732
801.926	3899
802.068	3835
802.211	3842
802.353	3880
802.496	3869
802.638	3911
802.78	3922
802.923	3968
803.065	3915
803.208	3861
803.35	3926
803.492	3926
803.635	3911
803.777	3865
803.919	3884
804.061	4150
804.204	3998
804.346	3987
804.488	3918
804.63	4093
804.773	4013
804.915	3987
805.057	4181
805.199	4059
805.341	4105
805.483	4131
805.626	4139
805.768	4090
805.91	4192
806.052	4276
806.194	4238
806.336	4363
806.478	4242
806.62	4249
806.762	4223
806.904	4276
807.046	4322
807.188	4219
807.33	4238
807.472	4211
807.614	4215
807.756	4314
807.898	4246
808.04	4185
808.182	4306
808.324	4375
808.465	4360
808.607	4481
808.749	4440
808.891	4424
809.033	4485
809.174	4409
809.316	4310
809.458	4261
809.6	4223
809.741	4166
809.883	4185
810.025	4219
810.166	4211
810.308	4257
810.45	4257
810.591	4287
810.733	4230
810.875	4546
811.016	4778
811.158	5178
811.299	5284
811.441	5261
811.582	5117
811.724	4714
811.865	4485
812.007	4481
812.148	4421
812.29	4421
812.431	4451
812.573	4394
812.714	4405
812.855	4394
812.997	4440
813.138	4508
813.279	4417
813.421	4428
813.562	4390
813.703	4325
813.845	4356
813.986	4276
814.127	4257
814.268	4287
814.41	4272
814.551	4295
814.692	4337
814.833	4268
814.974	4303
815.115	4360
815.256	4268
815.397	4238
815.539	4242
815.68	4249
815.821	4223
815.962	4318
816.103	4318
816.244	4291
816.385	4200
816.526	4299
816.666	4223
816.807	4135
816.948	4227
817.089	4181
817.23	4166
817.371	4109
817.512	4109
817.653	4074
817.793	4040
817.934	4044
818.075	4112
818.216	4078
818.356	4124
818.497	4006
818.638	3926
818.778	3907
818.919	3953
819.06	3903
819.2	3937
819.341	3915
819.481	3903
819.622	3930
819.762	4059
819.903	3994
820.043	3888
820.184	3884
820.324	3842
820.465	3869
820.605	3869
820.746	3907
820.886	3819
821.026	3975
821.167	3941
821.307	4010
821.447	3956
821.588	3937
821.728	3960
821.868	3964
822.008	3884
822.149	3915
822.289	3964
822.429	3838
822.569	3755
822.709	3819
822.849	3743
822.99	3743
823.13	3747
823.27	3850
823.41	3717
823.55	3728
823.69	3724
823.83	3762
823.97	3690
824.11	3641
824.25	3637
824.389	3660
824.529	3686
824.669	3663
824.809	3728
824.949	3793
825.089	3759
825.228	3736
825.368	3610
825.508	3584
825.648	3576
825.787	3618
825.927	3694
826.067	3622
826.206	3660
826.346	3812
826.485	3846
826.625	3888
826.765	3953
826.904	3846
827.044	3599
827.183	3538
827.323	3443
827.462	3504
827.601	3443
827.741	3458
827.88	3450
828.02	3401
828.159	3435
828.298	3469
828.437	3584
828.577	3466
828.716	3614
828.855	3515
828.994	3439
829.134	3370
829.273	3409
829.412	3370
829.551	3336
829.69	3367
829.829	3481
829.968	3557
830.107	3458
830.246	3507
830.385	3363
830.524	3336
830.663	3264
830.802	3321
830.941	3188
831.08	3207
831.219	3268
831.357	3275
831.496	3466
831.635	3211
831.774	3222
831.913	3214
832.051	3154
832.19	3150
832.329	3203
832.467	3157
832.606	3131
832.744	3188
832.883	3135
833.022	3207
833.16	3260
833.299	3298
833.437	3336
833.576	3401
833.714	3458
833.852	3393
833.991	3450
834.129	3473
834.267	3458
834.406	3447
834.544	3450
834.682	3420
834.821	3428
834.959	3584
835.097	3443
835.235	3564
835.373	3511
835.511	3542
835.65	3488
835.788	3545
835.926	3401
836.064	3401
836.202	3420
836.34	3553
836.478	3606
836.615	3549
836.753	3568
836.891	3648
837.029	3641
837.167	3603
837.305	3557
837.443	3542
837.58	3538
837.718	3625
837.856	3557
837.993	3519
838.131	3603
838.269	3603
838.406	3591
838.544	3629
838.681	3481
838.819	3473
838.956	3370
839.094	3431
839.231	3462
839.369	3545
839.506	3743
839.643	3660
839.781	3496
839.918	3504
840.055	3549
840.193	3545
840.33	3553
840.467	3587
840.604	3610
840.742	3857
840.879	3591
841.016	3561
841.153	3618
841.29	3778
841.427	3751
841.564	3755
841.701	3762
841.838	3736
841.975	3652
842.112	3759
842.249	3656
842.385	3633
842.522	3831
842.659	3728
842.796	3709
842.933	3781
843.069	3728
843.206	3713
843.343	3861
843.479	3827
843.616	3838
843.752	3694
843.889	3690
844.025	3846
844.162	3762
844.298	3880
844.435	3846
844.571	3778
844.708	3892
844.844	4006
844.98	4025
845.117	3987
845.253	3922
845.389	3922
845.525	4006
845.661	4002
845.798	3968
845.934	4025
846.07	4006
846.206	4063
846.342	4215
846.478	4101
846.614	3972
846.75	3956
846.886	3956
847.022	4082
847.158	4029
847.294	4006
847.429	4071
847.565	4044
847.701	4303
847.837	3888
847.972	3876
848.108	4032
848.244	4006
848.379	3888
848.515	3850
848.65	3831
848.786	3880
848.921	3892
849.057	3918
849.192	3949
849.328	3873
849.463	3945
849.598	3884
849.734	3903
849.869	3842
850.004	3797
850.14	3861
850.275	3800
850.41	3781
850.545	3759
850.68	3812
850.815	3816
850.95	3831
851.085	3994
851.22	3934
851.355	3808
851.49	3793
851.625	3827
851.76	3789
851.895	3736
852.03	3740
852.165	3816
852.299	3850
852.434	3907
852.569	3907
852.703	3907
852.838	3964
852.973	4032
853.107	4040
853.242	3915
853.376	3896
853.511	3808
853.645	3857
853.78	3987
853.914	3945
854.048	3937
854.183	3888
854.317	3991
854.451	4097
854.585	3972
854.72	3953
854.854	4067
854.988	3953
855.122	4025
855.256	3926
855.39	4074
855.524	4154
855.658	4109
855.792	4120
855.926	4135
856.06	4173
856.194	4257
856.327	4158
856.461	4173
856.595	4188
856.729	4200
856.862	4310
856.996	4253
857.13	4299
857.263	4371
857.397	4363
857.53	4299
857.664	4356
857.797	4363
857.931	4455
858.064	4383
858.197	4447
858.331	4405
858.464	4398
858.597	4386
858.731	4470
858.864	4462
858.997	4485
859.13	4550
859.263	4508
859.396	4584
859.529	4538
859.662	4523
859.795	4565
859.928	4622
860.061	4691
860.194	4710
860.327	4679
860.46	4668
860.592	4736
860.725	4809
860.858	4755
860.99	4683
861.123	4687
861.256	4698
861.388	4805
861.521	5414
861.653	4752
861.786	4759
861.918	4717
862.05	4786
862.183	4877
862.315	4889
862.447	4927
862.58	4873
862.712	4816
862.844	4797
862.976	4908
863.108	4843
863.24	5292
863.372	4896
863.504	4908
863.636	4911
863.768	4957
863.9	4984
864.032	4942
864.164	5025
864.296	5098
864.428	5079
864.559	5124
864.691	5121
864.823	5124
864.954	5086
865.086	5166
865.217	5124
865.349	5102
865.48	5166
865.612	5189
865.743	5292
865.875	5193
866.006	5193
866.137	5235
866.269	5246
866.4	5242
866.531	5277
866.662	5239
866.793	5216
866.924	5318
867.055	5357
867.186	5315
867.317	5334
867.448	5307
867.579	5368
867.71	5402
867.841	5414
867.972	5471
868.103	5478
868.233	5486
868.364	5516
868.495	5543
868.625	5657
868.756	5783
868.886	5676
869.017	5748
869.147	5916
869.278	5859
869.408	5798
869.539	5844
869.669	5988
869.799	5920
869.929	6030
870.06	6060
870.19	6182
870.32	6201
870.45	6251
870.58	6353
870.71	6353
870.84	6422
870.97	6433
871.1	6433
871.23	6601
871.36	6764
871.489	6627
871.619	6749
871.749	6821
871.879	6920
872.008	7061
872.138	7031
872.267	6985
872.397	6981
872.526	7023
872.656	7160
872.785	7198
872.915	7377
873.044	7499
873.173	7639
873.303	7628
873.432	7795
873.561	7879
873.69	7906
873.819	8016
873.948	8199
874.077	8294
874.206	8286
874.335	8488
874.464	8590
874.593	8826
874.722	8944
874.851	9116
874.979	9260
875.108	9408
875.237	9428
875.365	9492
875.494	9667
875.623	9869
875.751	9937
875.88	9941
876.008	10150
876.136	10223
876.265	10481
876.393	10656
876.521	10744
876.65	10755
876.778	10873
876.906	11045
877.034	10991
877.162	11174
877.29	11239
877.418	11269
877.546	11387
877.674	11414
877.802	11421
877.93	11516
878.058	11661
878.185	11524
878.313	11615
878.441	11627
878.568	11623
878.696	11745
878.824	11961
878.951	11931
879.079	12019
879.206	12148
879.333	12060
879.461	12034
879.588	12133
879.715	12117
879.842	12213
879.97	12034
880.097	11855
880.224	11855
880.351	11866
880.478	11889
880.605	11866
880.732	11889
880.859	11973
880.986	11805
881.112	11828
881.239	11707
881.366	11680
881.493	11623
881.619	11562
881.746	11551
881.872	11547
881.999	11577
882.125	11497
882.252	11486
882.378	11474
882.505	11573
882.631	11368
882.757	11307
882.883	11402
883.01	11334
883.136	11159
883.262	11178
883.388	11105
883.514	11254
883.64	11197
883.766	11052
883.892	11022
884.018	10995
884.143	11067
884.269	11045
884.395	10923
884.52	10801
884.646	10725
884.772	10755
884.897	10630
885.023	10733
885.148	10782
885.274	10714
885.399	10702
885.524	10637
885.65	10672
885.775	10641
885.9	10531
886.025	10577
886.15	10569
886.275	10462
886.4	10398
886.525	10402
886.65	10341
886.775	10367
886.9	10519
887.025	10634
887.149	10394
887.274	10219
887.399	10253
887.523	10234
887.648	10135
887.773	10124
887.897	10261
888.021	10303
888.146	10169
888.27	10253
888.395	10268
888.519	10249
888.643	10162
888.767	10200
888.891	10090
889.015	10082
889.139	10055
889.263	10013
889.387	10093
889.511	10173
889.635	10093
889.759	10002
889.883	10044
890.006	10048
890.13	10116
890.254	10021
890.377	9968
890.501	9884
890.624	9857
890.748	9911
890.871	9774
890.995	9774
891.118	9724
891.241	9842
891.364	9751
891.488	9770
891.611	9728
891.734	9793
891.857	9812
891.98	9717
892.103	9717
892.226	9781
892.349	9660
892.471	9530
892.594	9622
892.717	9576
892.839	9595
892.962	9641
893.085	9648
893.207	9568
893.33	9580
893.452	9545
893.575	9622
893.697	9542
893.819	9675
893.941	9671
894.064	9679
894.186	9359
894.308	9447
894.43	9507
894.552	9561
894.674	9568
894.796	9393
894.918	9363
895.04	9340
895.161	9382
895.283	9351
895.405	9268
895.526	9249
895.648	9321
895.769	9291
895.891	9283
896.012	9317
896.134	9169
896.255	9207
896.376	9043
896.498	9150
896.619	9051
896.74	9077
896.861	9074
896.982	9214
897.103	9340
897.224	9127
897.345	9043
897.466	8994
897.587	9070
897.708	9058
897.828	9024
897.949	8990
898.07	8941
898.19	8899
898.311	9032
898.431	8933
898.552	8952
898.672	9020
898.792	9009
898.913	8876
899.033	8811
899.153	8720
899.273	8743
899.393	8739
899.513	8758
899.633	8727
899.753	8754
899.873	8682
899.993	8750
900.113	8663
900.232	8674
900.352	8670
900.472	8602
900.591	8552
900.711	8663
900.83	8530
900.95	8602
901.069	8746
901.189	8583
901.308	8381
901.427	8366
901.546	8457
901.665	8492
901.784	8484
901.904	8385
902.023	8275
902.141	8275
902.26	8206
902.379	8309
902.498	8130
902.617	8225
902.735	8298
902.854	8286
902.973	8305
903.091	8145
903.21	8065
903.328	8172
903.446	8107
903.565	8092
903.683	8176
903.801	8031
903.919	8164
904.038	8088
904.156	8077
904.274	8115
904.392	8058
904.51	8020
904.627	8027
904.745	8145
904.863	8119
904.981	7936
905.098	7913
905.216	7795
905.334	7894
905.451	7898
905.569	7887
905.686	7875
905.803	7932
905.921	7784
906.038	7970
906.155	7837
906.272	7738
906.389	7734
906.506	7708
906.623	7700
906.74	7582
906.857	7597
906.974	7563
907.091	7636
907.208	7704
907.324	7636
907.441	7620
907.557	7514
907.674	7483
907.79	7403
907.907	7438
908.023	7514
908.139	7419
908.256	7434
908.372	7301
908.488	7392
908.604	7213
908.72	7213
908.836	7305
908.952	7312
909.068	7251
909.184	7289
909.3	7217
909.415	7240
909.531	7339
909.647	7179
909.762	7171
909.878	7053
909.993	7152
910.108	7198
910.224	7061
910.339	7225
910.454	7107
910.57	7046
910.685	7019
910.8	7175
910.915	7175
911.03	7057
911.145	6943
911.259	6886
911.374	6943
911.489	6875
911.604	6825
911.718	6730
911.833	6776
911.947	6715
912.062	6639
912.176	6688
912.291	6692
912.405	6764
912.519	6783
912.633	6825
912.748	6738
912.862	6745
912.976	6612
913.09	6528
913.204	6650
913.318	6593
913.431	6722
913.545	6707
913.659	6787
913.772	6665
913.886	6623
914	6593
914.113	6604
914.226	6662
914.34	6608
914.453	6585
914.566	6646
914.68	6521
914.793	6490
914.906	6426
915.019	6441
915.132	6334
915.245	6384
915.358	6414
915.47	6441
915.583	6483
915.696	6479
915.809	6570
915.921	6551
916.034	6494
916.146	6407
916.259	6407
916.371	6486
916.483	6509
916.595	6486
916.708	6418
916.82	6384
916.932	6342
917.044	6403
917.156	6395
917.268	6342
917.38	6300
917.491	6266
917.603	6353
917.715	6414
917.826	6384
917.938	6380
918.049	6289
918.161	6361
918.272	6464
918.384	6445
918.495	6350
918.606	6273
918.717	6175
918.828	6266
918.939	6273
919.05	6266
919.161	6194
919.272	6091
919.383	6155
919.494	6254
919.604	6445
919.715	6338
919.826	6224
919.936	6319
920.047	6357
920.157	6289
920.267	6502
920.378	6391
920.488	6281
920.598	6464
920.708	6525
920.818	6506
920.928	6502
921.038	6646
921.148	6570
921.258	6388
921.368	6315
921.477	6273
921.587	6155
921.697	6144
921.806	6239
921.916	6057
922.025	5992
922.134	5946
922.244	5897
922.353	5912
922.462	5828
922.571	5828
922.68	5756
922.789	5657
922.898	5722
923.007	5627
923.116	5726
923.224	5653
923.333	5699
923.442	5627
923.55	5585
923.659	5589
923.767	5604
923.876	5543
923.984	5611
924.092	5577
924.201	5608
924.309	5535
924.417	5551
924.525	5551
924.633	5512
924.741	6140
924.849	5330
924.956	5459
925.064	5440
925.172	5353
925.279	5296
925.387	5398
925.494	5326
925.602	5414
925.709	5425
925.816	5258
925.924	5326
926.031	5360
926.138	5311
926.245	5311
926.352	5212
926.459	5372
926.566	5326
926.673	5212
926.779	5147
926.886	5151
926.993	5067
927.099	5033
927.206	4949
927.312	4965
927.419	5056
927.525	4999
927.631	5014
927.737	4938
927.843	4854
927.95	4786
928.056	4873
928.162	4866
928.267	4820
928.373	5216
928.479	4881
928.585	4656
928.69	4797
928.796	4812
928.901	4679
929.007	4607
929.112	4698
929.218	4645
929.323	4641
929.428	4584
929.533	4675
929.638	4493
929.743	4561
929.848	4554
929.953	4519
930.058	4436
930.163	4325
930.267	4360
930.372	4462
930.477	4295
930.581	4504
930.685	4390
930.79	4276
930.894	4284
930.998	4242
931.103	4417
931.207	4135
931.311	4086
931.415	4036
931.519	3903
931.623	3968
