Data from glass_V78500241_1044.txt Node
Date: Wed Sep 01 19:21:44 CST 2021
User: usil
Spectrometer: V785-0024
Trigger mode: 0
Integration Time (sec): 4.000000E-1
Scans to average: 1
Nonlinearity correction enabled: false
Boxcar width: 0
Storing dark spectrum: false
XAxis mode: Wavelengths
Number of Pixels in Spectrum: 1024
>>>>>Begin Spectral Data<<<<<
801.071	3724
801.214	3740
801.356	3690
801.499	3793
801.641	3720
801.783	3804
801.926	3876
802.068	3865
802.211	3922
802.353	3880
802.496	3827
802.638	3903
802.78	3884
802.923	3937
803.065	3876
803.208	3896
803.35	3888
803.492	3903
803.635	3926
803.777	3827
803.919	3915
804.061	4204
804.204	3975
804.346	3998
804.488	3926
804.63	4048
804.773	3987
804.915	4067
805.057	4105
805.199	4010
805.341	4109
805.483	4105
805.626	4135
805.768	4109
805.91	4227
806.052	4261
806.194	4196
806.336	4363
806.478	4215
806.62	4196
806.762	4215
806.904	4242
807.046	4341
807.188	4211
807.33	4154
807.472	4253
807.614	4223
807.756	4253
807.898	4185
808.04	4242
808.182	4249
808.324	4314
808.465	4413
808.607	4497
808.749	4428
808.891	4497
809.033	4497
809.174	4367
809.316	4280
809.458	4230
809.6	4185
809.741	4158
809.883	4173
810.025	4211
810.166	4238
810.308	4238
810.45	4272
810.591	4219
810.733	4261
810.875	4512
811.016	4866
811.158	5128
811.299	5288
811.441	5273
811.582	5060
811.724	4691
811.865	4470
812.007	4455
812.148	4424
812.29	4402
812.431	4421
812.573	4394
812.714	4421
812.855	4348
812.997	4398
813.138	4436
813.279	4413
813.421	4424
813.562	4352
813.703	4322
813.845	4375
813.986	4265
814.127	4234
814.268	4272
814.41	4322
814.551	4276
814.692	4287
814.833	4223
814.974	4306
815.115	4360
815.256	4284
815.397	4211
815.539	4207
815.68	4215
815.821	4223
815.962	4325
816.103	4238
816.244	4234
816.385	4249
816.526	4291
816.666	4253
816.807	4139
816.948	4181
817.089	4169
817.23	4109
817.371	4055
817.512	4025
817.653	4105
817.793	4025
817.934	4078
818.075	4139
818.216	4078
818.356	4128
818.497	4010
818.638	3941
818.778	3907
818.919	3918
819.06	3842
819.2	3911
819.341	3876
819.481	3873
819.622	3918
819.762	4032
819.903	3975
820.043	3903
820.184	3812
820.324	3873
820.465	3880
820.605	3823
820.746	3876
820.886	3831
821.026	3907
821.167	3896
821.307	3968
821.447	3956
821.588	3968
821.728	3964
821.868	3899
822.008	3907
822.149	3911
822.289	3934
822.429	3846
822.569	3808
822.709	3766
822.849	3690
822.99	3709
823.13	3720
823.27	3774
823.41	3705
823.55	3770
823.69	3709
823.83	3705
823.97	3667
824.11	3637
824.25	3644
824.389	3641
824.529	3698
824.669	3641
824.809	3694
824.949	3732
825.089	3747
825.228	3713
825.368	3587
825.508	3587
825.648	3576
825.787	3652
825.927	3675
826.067	3629
826.206	3656
826.346	3808
826.485	3846
826.625	3884
826.765	3949
826.904	3838
827.044	3584
827.183	3523
827.323	3450
827.462	3496
827.601	3439
827.741	3447
827.88	3462
828.02	3374
828.159	3473
828.298	3458
828.437	3545
828.577	3500
828.716	3629
828.855	3542
828.994	3370
829.134	3363
829.273	3382
829.412	3332
829.551	3348
829.69	3389
829.829	3428
829.968	3500
830.107	3420
830.246	3447
830.385	3378
830.524	3374
830.663	3294
830.802	3256
830.941	3199
831.08	3184
831.219	3264
831.357	3291
831.496	3428
831.635	3245
831.774	3169
831.913	3237
832.051	3131
832.19	3150
832.329	3237
832.467	3142
832.606	3100
832.744	3180
832.883	3222
833.022	3214
833.16	3233
833.299	3325
833.437	3359
833.576	3363
833.714	3401
833.852	3439
833.991	3454
834.129	3507
834.267	3462
834.406	3435
834.544	3428
834.682	3424
834.821	3428
834.959	3568
835.097	3420
835.235	3519
835.373	3488
835.511	3507
835.65	3496
835.788	3443
835.926	3397
836.064	3386
836.202	3416
836.34	3603
836.478	3595
836.615	3557
836.753	3629
836.891	3698
837.029	3606
837.167	3580
837.305	3561
837.443	3591
837.58	3549
837.718	3580
837.856	3622
837.993	3507
838.131	3576
838.269	3587
838.406	3572
838.544	3564
838.681	3481
838.819	3424
838.956	3340
839.094	3389
839.231	3450
839.369	3481
839.506	3675
839.643	3660
839.781	3519
839.918	3496
840.055	3534
840.193	3549
840.33	3557
840.467	3549
840.604	3606
840.742	3808
840.879	3564
841.016	3568
841.153	3606
841.29	3778
841.427	3778
841.564	3705
841.701	3770
841.838	3663
841.975	3667
842.112	3724
842.249	3660
842.385	3622
842.522	3793
842.659	3690
842.796	3652
842.933	3728
843.069	3717
843.206	3740
843.343	3827
843.479	3804
843.616	3842
843.752	3671
843.889	3705
844.025	3857
844.162	3701
844.298	3884
844.435	3785
844.571	3804
844.708	3892
844.844	3998
844.98	4006
845.117	4021
845.253	3915
845.389	3880
845.525	3918
845.661	3953
845.798	3941
845.934	4059
846.07	3941
846.206	4051
846.342	4166
846.478	4071
846.614	4021
846.75	3960
846.886	3934
847.022	4063
847.158	4021
847.294	4055
847.429	4036
847.565	3979
847.701	4246
847.837	3873
847.972	3915
848.108	3994
848.244	4002
848.379	3876
848.515	3804
848.65	3800
848.786	3869
848.921	3873
849.057	3960
849.192	3941
849.328	3926
849.463	3911
849.598	3964
849.734	3857
849.869	3823
850.004	3819
850.14	3804
850.275	3770
850.41	3724
850.545	3766
850.68	3800
850.815	3823
850.95	3835
851.085	3994
851.22	3896
851.355	3861
851.49	3793
851.625	3831
851.76	3762
851.895	3736
852.03	3755
852.165	3816
852.299	3884
852.434	3956
852.569	3861
852.703	3884
852.838	3953
852.973	4010
853.107	3994
853.242	3941
853.376	3842
853.511	3789
853.645	3838
853.78	3945
853.914	3915
854.048	3880
854.183	3922
854.317	3991
854.451	4116
854.585	3968
854.72	3930
854.854	4051
854.988	3979
855.122	4036
855.256	3903
855.39	4063
855.524	4074
855.658	4071
855.792	4120
855.926	4162
856.06	4215
856.194	4211
856.327	4181
856.461	4124
856.595	4158
856.729	4192
856.862	4261
856.996	4287
857.13	4284
857.263	4348
857.397	4360
857.53	4287
857.664	4367
857.797	4367
857.931	4447
858.064	4409
858.197	4436
858.331	4379
858.464	4383
858.597	4333
858.731	4436
858.864	4455
858.997	4436
859.13	4535
859.263	4508
859.396	4561
859.529	4516
859.662	4531
859.795	4538
859.928	4584
860.061	4698
860.194	4767
860.327	4656
860.46	4630
860.592	4717
860.725	4721
860.858	4782
860.99	4733
861.123	4736
861.256	4683
861.388	4797
861.521	5402
861.653	4744
861.786	4714
861.918	4786
862.05	4805
862.183	4877
862.315	4911
862.447	4972
862.58	4870
862.712	4816
862.844	4790
862.976	4896
863.108	4949
863.24	5254
863.372	4835
863.504	4904
863.636	4919
863.768	5022
863.9	4949
864.032	5003
864.164	4904
864.296	4995
864.428	5094
864.559	5143
864.691	5155
864.823	5067
864.954	5155
865.086	5181
865.217	5151
865.349	5102
865.48	5174
865.612	5166
865.743	5299
865.875	5170
866.006	5174
866.137	5227
866.269	5212
866.4	5299
866.531	5239
866.662	5292
866.793	5227
866.924	5334
867.055	5379
867.186	5383
867.317	5372
867.448	5307
867.579	5410
867.71	5395
867.841	5398
867.972	5459
868.103	5444
868.233	5467
868.364	5486
868.495	5604
868.625	5646
868.756	5813
868.886	5672
869.017	5752
869.147	5836
869.278	5866
869.408	5851
869.539	5855
869.669	5916
869.799	5904
869.929	5961
870.06	6083
870.19	6224
870.32	6273
870.45	6285
870.58	6361
870.71	6464
870.84	6544
870.97	6437
871.1	6388
871.23	6669
871.36	6631
871.489	6650
871.619	6745
871.749	6814
871.879	6871
872.008	6939
872.138	6996
872.267	7080
872.397	6947
872.526	7095
872.656	7107
872.785	7198
872.915	7476
873.044	7529
873.173	7533
873.303	7696
873.432	7677
873.561	7894
873.69	7940
873.819	7967
873.948	8100
874.077	8347
874.206	8351
874.335	8450
874.464	8674
874.593	8811
874.722	8937
874.851	9195
874.979	9211
875.108	9367
875.237	9420
875.365	9428
875.494	9682
875.623	9827
875.751	9861
875.88	9994
876.008	10169
876.136	10272
876.265	10508
876.393	10698
876.521	10694
876.65	10839
876.778	10881
876.906	10934
877.034	11048
877.162	11075
877.29	11140
877.418	11292
877.546	11387
877.674	11509
877.802	11425
877.93	11554
878.058	11543
878.185	11672
878.313	11623
878.441	11729
878.568	11684
878.696	11813
878.824	11832
878.951	11935
879.079	11996
879.206	12098
879.333	12041
879.461	11999
879.588	12091
879.715	12011
879.842	12258
879.97	12030
880.097	11901
880.224	11889
880.351	11863
880.478	11942
880.605	11916
880.732	11843
880.859	12053
880.986	11790
881.112	11882
881.239	11737
881.366	11718
881.493	11592
881.619	11524
881.746	11516
881.872	11501
881.999	11520
882.125	11509
882.252	11535
882.378	11429
882.505	11547
882.631	11368
882.757	11318
882.883	11421
883.01	11334
883.136	11151
883.262	11117
883.388	11102
883.514	11227
883.64	11159
883.766	11155
883.892	10957
884.018	11052
884.143	11090
884.269	11037
884.395	10816
884.52	10721
884.646	10816
884.772	10683
884.897	10721
885.023	10714
885.148	10729
885.274	10828
885.399	10675
885.524	10656
885.65	10558
885.775	10626
885.9	10592
886.025	10615
886.15	10554
886.275	10443
886.4	10379
886.525	10348
886.65	10405
886.775	10363
886.9	10516
887.025	10565
887.149	10337
887.274	10196
887.399	10169
887.523	10097
887.648	10109
887.773	10120
887.897	10253
888.021	10246
888.146	10101
888.27	10299
888.395	10215
888.519	10150
888.643	10173
888.767	10177
888.891	10124
889.015	9972
889.139	10086
889.263	9983
889.387	10055
889.511	10093
889.635	10071
889.759	9941
889.883	10051
890.006	10017
890.13	10105
890.254	9956
890.377	10078
890.501	9831
890.624	9857
890.748	9876
890.871	9743
890.995	9724
891.118	9797
891.241	9728
891.364	9690
891.488	9854
891.611	9797
891.734	9793
891.857	9819
891.98	9694
892.103	9823
892.226	9675
892.349	9713
892.471	9523
892.594	9576
892.717	9671
892.839	9603
892.962	9576
893.085	9656
893.207	9572
893.33	9549
893.452	9576
893.575	9549
893.697	9534
893.819	9667
893.941	9618
894.064	9614
894.186	9534
894.308	9378
894.43	9542
894.552	9633
894.674	9500
894.796	9359
894.918	9424
895.04	9382
895.161	9428
895.283	9389
895.405	9245
895.526	9374
895.648	9287
895.769	9157
895.891	9325
896.012	9329
896.134	9135
896.255	9150
896.376	9138
896.498	9150
896.619	9074
896.74	9062
896.861	9142
896.982	9264
897.103	9344
897.224	9180
897.345	9028
897.466	9085
897.587	8986
897.708	9100
897.828	9093
897.949	8906
898.07	8849
898.19	8872
898.311	9062
898.431	8899
898.552	8948
898.672	8944
898.792	8921
898.913	8883
899.033	8804
899.153	8781
899.273	8682
899.393	8758
899.513	8758
899.633	8697
899.753	8708
899.873	8701
899.993	8792
900.113	8712
900.232	8724
900.352	8663
900.472	8678
900.591	8549
900.711	8530
900.83	8613
900.95	8659
901.069	8785
901.189	8613
901.308	8396
901.427	8427
901.546	8412
901.665	8473
901.784	8480
901.904	8465
902.023	8362
902.141	8210
902.26	8248
902.379	8298
902.498	8206
902.617	8202
902.735	8263
902.854	8298
902.973	8290
903.091	8115
903.21	8039
903.328	8126
903.446	8191
903.565	8100
903.683	8180
903.801	8050
903.919	8138
904.038	8157
904.156	8039
904.274	8107
904.392	8084
904.51	8043
904.627	8035
904.745	8119
904.863	8145
904.981	7849
905.098	7925
905.216	7890
905.334	7894
905.451	7947
905.569	7894
905.686	7944
905.803	7925
905.921	7811
906.038	7875
906.155	7845
906.272	7727
906.389	7761
906.506	7655
906.623	7597
906.74	7639
906.857	7552
906.974	7552
907.091	7605
907.208	7772
907.324	7639
907.441	7586
907.557	7441
907.674	7510
907.79	7381
907.907	7434
908.023	7487
908.139	7388
908.256	7426
908.372	7411
908.488	7411
908.604	7251
908.72	7343
908.836	7236
908.952	7236
909.068	7301
909.184	7419
909.3	7282
909.415	7339
909.531	7255
909.647	7122
909.762	7145
909.878	7095
909.993	7080
910.108	7084
910.224	7057
910.339	7149
910.454	7042
910.57	6993
910.685	6935
910.8	7202
910.915	7088
911.03	6993
911.145	6932
911.259	6901
911.374	6924
911.489	6844
911.604	6825
911.718	6658
911.833	6779
911.947	6681
912.062	6608
912.176	6665
912.291	6719
912.405	6719
912.519	6844
912.633	6848
912.748	6730
912.862	6669
912.976	6642
913.09	6528
913.204	6620
913.318	6627
913.431	6654
913.545	6665
913.659	6730
913.772	6703
913.886	6566
914	6566
914.113	6642
914.226	6585
914.34	6623
914.453	6532
914.566	6654
914.68	6563
914.793	6555
914.906	6410
915.019	6448
915.132	6391
915.245	6471
915.358	6460
915.47	6418
915.583	6395
915.696	6486
915.809	6551
915.921	6509
916.034	6372
916.146	6464
916.259	6376
916.371	6441
916.483	6479
916.595	6372
916.708	6384
916.82	6380
916.932	6372
917.044	6433
917.156	6395
917.268	6323
917.38	6357
917.491	6342
917.603	6365
917.715	6410
917.826	6452
917.938	6331
918.049	6277
918.161	6395
918.272	6429
918.384	6437
918.495	6315
918.606	6258
918.717	6228
918.828	6311
918.939	6338
919.05	6224
919.161	6277
919.272	6140
919.383	6117
919.494	6311
919.604	6441
919.715	6292
919.826	6285
919.936	6277
920.047	6353
920.157	6270
920.267	6448
920.378	6384
920.488	6228
920.598	6486
920.708	6574
920.818	6456
920.928	6452
921.038	6551
921.148	6646
921.258	6338
921.368	6342
921.477	6186
921.587	6159
921.697	6117
921.806	6136
921.916	6152
922.025	5927
922.134	5996
922.244	5885
922.353	5977
922.462	5851
922.571	5775
922.68	5665
922.789	5707
922.898	5741
923.007	5608
923.116	5707
923.224	5665
923.333	5634
923.442	5600
923.55	5596
923.659	5611
923.767	5615
923.876	5535
923.984	5604
924.092	5486
924.201	5547
924.309	5505
924.417	5558
924.525	5505
924.633	5463
924.741	6300
924.849	5391
924.956	5509
925.064	5391
925.172	5341
925.279	5322
925.387	5326
925.494	5334
925.602	5395
925.709	5376
925.816	5330
925.924	5307
926.031	5444
926.138	5246
926.245	5360
926.352	5212
926.459	5345
926.566	5353
926.673	5239
926.779	5155
926.886	5102
926.993	5037
927.099	5060
927.206	4999
927.312	4968
927.419	5022
927.525	4995
927.631	5025
927.737	4965
927.843	4854
927.95	4790
928.056	4854
928.162	4870
928.267	4866
928.373	5360
928.479	4858
928.585	4710
928.69	4755
928.796	4736
928.901	4714
929.007	4618
929.112	4683
929.218	4622
929.323	4622
929.428	4580
929.533	4599
929.638	4508
929.743	4535
929.848	4531
929.953	4554
930.058	4504
930.163	4379
930.267	4337
930.372	4459
930.477	4303
930.581	4466
930.685	4360
930.79	4234
930.894	4344
930.998	4253
931.103	4428
931.207	4131
931.311	4120
931.415	4036
931.519	3956
931.623	3953
