Data from glass_V78500241_1185.txt Node
Date: Wed Sep 01 19:22:42 CST 2021
User: usil
Spectrometer: V785-0024
Trigger mode: 0
Integration Time (sec): 4.000000E-1
Scans to average: 1
Nonlinearity correction enabled: false
Boxcar width: 0
Storing dark spectrum: false
XAxis mode: Wavelengths
Number of Pixels in Spectrum: 1024
>>>>>Begin Spectral Data<<<<<
801.071	3759
801.214	3781
801.356	3713
801.499	3740
801.641	3720
801.783	3766
801.926	3861
802.068	3816
802.211	3903
802.353	3934
802.496	3903
802.638	3911
802.78	3926
802.923	3915
803.065	3915
803.208	3899
803.35	3865
803.492	3907
803.635	3926
803.777	3846
803.919	3903
804.061	4169
804.204	3960
804.346	3972
804.488	3911
804.63	4010
804.773	3987
804.915	3991
805.057	4150
805.199	4051
805.341	4105
805.483	4124
805.626	4135
805.768	4162
805.91	4249
806.052	4257
806.194	4234
806.336	4337
806.478	4192
806.62	4215
806.762	4204
806.904	4246
807.046	4344
807.188	4284
807.33	4204
807.472	4253
807.614	4219
807.756	4238
807.898	4185
808.04	4215
808.182	4261
808.324	4284
808.465	4367
808.607	4398
808.749	4451
808.891	4447
809.033	4504
809.174	4424
809.316	4291
809.458	4257
809.6	4169
809.741	4162
809.883	4169
810.025	4261
810.166	4223
810.308	4215
810.45	4261
810.591	4238
810.733	4310
810.875	4523
811.016	4828
811.158	5128
811.299	5261
811.441	5273
811.582	5079
811.724	4679
811.865	4478
812.007	4421
812.148	4443
812.29	4470
812.431	4447
812.573	4428
812.714	4417
812.855	4443
812.997	4424
813.138	4489
813.279	4462
813.421	4409
813.562	4394
813.703	4356
813.845	4383
813.986	4265
814.127	4242
814.268	4295
814.41	4314
814.551	4268
814.692	4413
814.833	4257
814.974	4303
815.115	4303
815.256	4249
815.397	4257
815.539	4287
815.68	4188
815.821	4219
815.962	4310
816.103	4280
816.244	4234
816.385	4185
816.526	4299
816.666	4276
816.807	4093
816.948	4177
817.089	4246
817.23	4158
817.371	4055
817.512	4112
817.653	4067
817.793	4078
817.934	4063
818.075	4082
818.216	4063
818.356	4120
818.497	4010
818.638	3911
818.778	3899
818.919	3892
819.06	3896
819.2	3956
819.341	3876
819.481	3850
819.622	3926
819.762	3991
819.903	3918
820.043	3869
820.184	3854
820.324	3838
820.465	3884
820.605	3907
820.746	3907
820.886	3831
821.026	3926
821.167	3907
821.307	3994
821.447	3991
821.588	3941
821.728	3934
821.868	3918
822.008	3857
822.149	3896
822.289	3907
822.429	3789
822.569	3774
822.709	3842
822.849	3720
822.99	3698
823.13	3774
823.27	3781
823.41	3747
823.55	3740
823.69	3686
823.83	3762
823.97	3698
824.11	3610
824.25	3625
824.389	3656
824.529	3690
824.669	3663
824.809	3751
824.949	3740
825.089	3797
825.228	3717
825.368	3610
825.508	3599
825.648	3599
825.787	3629
825.927	3648
826.067	3671
826.206	3641
826.346	3789
826.485	3888
826.625	3842
826.765	3964
826.904	3827
827.044	3637
827.183	3568
827.323	3466
827.462	3481
827.601	3477
827.741	3416
827.88	3462
828.02	3367
828.159	3462
828.298	3466
828.437	3526
828.577	3447
828.716	3606
828.855	3549
828.994	3409
829.134	3389
829.273	3367
829.412	3325
829.551	3363
829.69	3370
829.829	3439
829.968	3553
830.107	3428
830.246	3428
830.385	3416
830.524	3344
830.663	3291
830.802	3275
830.941	3195
831.08	3207
831.219	3253
831.357	3237
831.496	3401
831.635	3230
831.774	3195
831.913	3218
832.051	3116
832.19	3184
832.329	3188
832.467	3180
832.606	3161
832.744	3188
832.883	3165
833.022	3173
833.16	3275
833.299	3329
833.437	3321
833.576	3370
833.714	3378
833.852	3409
833.991	3431
834.129	3443
834.267	3443
834.406	3416
834.544	3443
834.682	3412
834.821	3405
834.959	3595
835.097	3439
835.235	3545
835.373	3485
835.511	3485
835.65	3500
835.788	3488
835.926	3428
836.064	3359
836.202	3412
836.34	3549
836.478	3622
836.615	3599
836.753	3614
836.891	3648
837.029	3614
837.167	3564
837.305	3580
837.443	3557
837.58	3538
837.718	3614
837.856	3587
837.993	3523
838.131	3633
838.269	3595
838.406	3576
838.544	3534
838.681	3504
838.819	3431
838.956	3382
839.094	3393
839.231	3450
839.369	3538
839.506	3743
839.643	3637
839.781	3523
839.918	3485
840.055	3530
840.193	3557
840.33	3553
840.467	3534
840.604	3641
840.742	3823
840.879	3549
841.016	3549
841.153	3572
841.29	3755
841.427	3736
841.564	3736
841.701	3736
841.838	3713
841.975	3694
842.112	3774
842.249	3682
842.385	3671
842.522	3774
842.659	3713
842.796	3690
842.933	3690
843.069	3728
843.206	3713
843.343	3785
843.479	3823
843.616	3819
843.752	3644
843.889	3667
844.025	3907
844.162	3724
844.298	3819
844.435	3774
844.571	3797
844.708	3876
844.844	4078
844.98	4017
845.117	4013
845.253	3956
845.389	3892
845.525	3968
845.661	4002
845.798	3918
845.934	3975
846.07	3956
846.206	4078
846.342	4143
846.478	4051
846.614	3956
846.75	3987
846.886	3892
847.022	4036
847.158	3972
847.294	4017
847.429	4055
847.565	3998
847.701	4230
847.837	3876
847.972	3880
848.108	3968
848.244	3987
848.379	3876
848.515	3846
848.65	3865
848.786	3850
848.921	3892
849.057	3949
849.192	3975
849.328	3865
849.463	3941
849.598	3876
849.734	3892
849.869	3808
850.004	3762
850.14	3854
850.275	3808
850.41	3762
850.545	3774
850.68	3793
850.815	3781
850.95	3812
851.085	3918
851.22	3903
851.355	3831
851.49	3800
851.625	3831
851.76	3789
851.895	3789
852.03	3728
852.165	3804
852.299	3827
852.434	3896
852.569	3907
852.703	3884
852.838	3922
852.973	3998
853.107	3972
853.242	3930
853.376	3850
853.511	3778
853.645	3812
853.78	3949
853.914	3876
854.048	3926
854.183	3926
854.317	3972
854.451	4078
854.585	3956
854.72	3941
854.854	4074
854.988	3934
855.122	3998
855.256	3896
855.39	4013
855.524	4112
855.658	4131
855.792	4135
855.926	4143
856.06	4166
856.194	4219
856.327	4150
856.461	4169
856.595	4162
856.729	4147
856.862	4280
856.996	4257
857.13	4322
857.263	4379
857.397	4337
857.53	4291
857.664	4363
857.797	4379
857.931	4421
858.064	4390
858.197	4447
858.331	4443
858.464	4356
858.597	4363
858.731	4409
858.864	4462
858.997	4432
859.13	4493
859.263	4516
859.396	4573
859.529	4508
859.662	4512
859.795	4550
859.928	4592
860.061	4710
860.194	4710
860.327	4721
860.46	4694
860.592	4778
860.725	4744
860.858	4763
860.99	4687
861.123	4675
861.256	4698
861.388	4797
861.521	5406
861.653	4691
861.786	4710
861.918	4744
862.05	4828
862.183	4881
862.315	4885
862.447	4980
862.58	4854
862.712	4793
862.844	4778
862.976	4854
863.108	4900
863.24	5204
863.372	4824
863.504	4930
863.636	4900
863.768	4991
863.9	4984
864.032	4946
864.164	4984
864.296	5056
864.428	5060
864.559	5102
864.691	5124
864.823	5155
864.954	5151
865.086	5159
865.217	5170
865.349	5090
865.48	5147
865.612	5220
865.743	5334
865.875	5193
866.006	5231
866.137	5239
866.269	5296
866.4	5246
866.531	5265
866.662	5231
866.793	5284
866.924	5315
867.055	5337
867.186	5349
867.317	5353
867.448	5296
867.579	5379
867.71	5376
867.841	5372
867.972	5509
868.103	5497
868.233	5501
868.364	5566
868.495	5543
868.625	5649
868.756	5771
868.886	5634
869.017	5752
869.147	5878
869.278	5901
869.408	5824
869.539	5904
869.669	5920
869.799	5889
869.929	6034
870.06	5984
870.19	6254
870.32	6182
870.45	6262
870.58	6361
870.71	6433
870.84	6475
870.97	6338
871.1	6467
871.23	6623
871.36	6722
871.489	6681
871.619	6798
871.749	6829
871.879	6852
872.008	6916
872.138	7015
872.267	6989
872.397	6993
872.526	7038
872.656	7103
872.785	7202
872.915	7419
873.044	7502
873.173	7567
873.303	7712
873.432	7731
873.561	7917
873.69	7852
873.819	7951
873.948	8153
874.077	8301
874.206	8347
874.335	8438
874.464	8663
874.593	8807
874.722	8941
874.851	9123
874.979	9226
875.108	9355
875.237	9431
875.365	9477
875.494	9538
875.623	9835
875.751	9835
875.88	10006
876.008	10139
876.136	10272
876.265	10516
876.393	10660
876.521	10694
876.65	10858
876.778	10835
876.906	10881
877.034	11003
877.162	11121
877.29	11155
877.418	11368
877.546	11436
877.674	11474
877.802	11444
877.93	11493
878.058	11505
878.185	11615
878.313	11718
878.441	11718
878.568	11684
878.696	11752
878.824	11863
878.951	11961
879.079	11988
879.206	12098
879.333	12068
879.461	12011
879.588	12083
879.715	12072
879.842	12209
879.97	11969
880.097	11923
880.224	11942
880.351	11828
880.478	11843
880.605	11874
880.732	11828
880.859	12079
880.986	11916
881.112	11870
881.239	11783
881.366	11646
881.493	11630
881.619	11581
881.746	11516
881.872	11585
881.999	11532
882.125	11558
882.252	11516
882.378	11577
882.505	11471
882.631	11395
882.757	11345
882.883	11277
883.01	11235
883.136	11181
883.262	11079
883.388	11113
883.514	11159
883.64	11201
883.766	11075
883.892	10987
884.018	11079
884.143	11075
884.269	11147
884.395	10892
884.52	10835
884.646	10850
884.772	10721
884.897	10630
885.023	10706
885.148	10668
885.274	10797
885.399	10626
885.524	10664
885.65	10634
885.775	10626
885.9	10573
886.025	10618
886.15	10569
886.275	10497
886.4	10481
886.525	10421
886.65	10386
886.775	10356
886.9	10440
887.025	10538
887.149	10333
887.274	10230
887.399	10188
887.523	10124
887.648	10071
887.773	10166
887.897	10162
888.021	10227
888.146	10139
888.27	10253
888.395	10207
888.519	10135
888.643	10219
888.767	10246
888.891	10097
889.015	10021
889.139	10090
889.263	9987
889.387	10071
889.511	10120
889.635	10135
889.759	10051
889.883	9949
890.006	10078
890.13	10063
890.254	9945
890.377	9953
890.501	9949
890.624	9823
890.748	9945
890.871	9823
890.995	9747
891.118	9701
891.241	9732
891.364	9705
891.488	9857
891.611	9785
891.734	9766
891.857	9778
891.98	9720
892.103	9762
892.226	9751
892.349	9648
892.471	9542
892.594	9625
892.717	9557
892.839	9644
892.962	9580
893.085	9572
893.207	9557
893.33	9584
893.452	9599
893.575	9682
893.697	9523
893.819	9652
893.941	9599
894.064	9637
894.186	9424
894.308	9412
894.43	9572
894.552	9553
894.674	9492
894.796	9454
894.918	9378
895.04	9336
895.161	9401
895.283	9359
895.405	9283
895.526	9233
895.648	9230
895.769	9218
895.891	9272
896.012	9310
896.134	9245
896.255	9169
896.376	9123
896.498	9119
896.619	9093
896.74	9100
896.861	9135
896.982	9283
897.103	9253
897.224	9165
897.345	9097
897.466	8994
897.587	9009
897.708	9077
897.828	9013
897.949	8937
898.07	8887
898.19	8921
898.311	9001
898.431	8910
898.552	8895
898.672	8986
898.792	8979
898.913	8902
899.033	8876
899.153	8777
899.273	8625
899.393	8678
899.513	8766
899.633	8701
899.753	8731
899.873	8682
899.993	8762
900.113	8735
900.232	8796
900.352	8644
900.472	8590
900.591	8488
900.711	8564
900.83	8617
900.95	8670
901.069	8697
901.189	8606
901.308	8404
901.427	8412
901.546	8457
901.665	8492
901.784	8492
901.904	8366
902.023	8336
902.141	8183
902.26	8244
902.379	8252
902.498	8199
902.617	8191
902.735	8332
902.854	8244
902.973	8290
903.091	8084
903.21	8195
903.328	8240
903.446	8153
903.565	8027
903.683	8134
903.801	7993
903.919	8149
904.038	8164
904.156	8058
904.274	8081
904.392	8031
904.51	8050
904.627	8096
904.745	8081
904.863	8103
904.981	7936
905.098	7898
905.216	7917
905.334	7883
905.451	7925
905.569	7887
905.686	7940
905.803	7928
905.921	7811
906.038	7883
906.155	7784
906.272	7677
906.389	7738
906.506	7647
906.623	7609
906.74	7643
906.857	7537
906.974	7548
907.091	7689
907.208	7719
907.324	7712
907.441	7578
907.557	7468
907.674	7464
907.79	7377
907.907	7411
908.023	7441
908.139	7445
908.256	7377
908.372	7278
908.488	7369
908.604	7320
908.72	7221
908.836	7320
908.952	7251
909.068	7187
909.184	7278
909.3	7259
909.415	7305
909.531	7282
909.647	7084
909.762	7168
909.878	7122
909.993	7110
910.108	7076
910.224	7129
910.339	7149
910.454	7053
910.57	7008
910.685	6935
910.8	7202
910.915	7129
911.03	6985
911.145	6890
911.259	6932
911.374	6943
911.489	6916
911.604	6821
911.718	6726
911.833	6726
911.947	6662
912.062	6585
912.176	6741
912.291	6730
912.405	6669
912.519	6863
912.633	6882
912.748	6760
912.862	6757
912.976	6658
913.09	6517
913.204	6639
913.318	6604
913.431	6650
913.545	6665
913.659	6734
913.772	6620
913.886	6620
914	6563
914.113	6681
914.226	6700
914.34	6604
914.453	6513
914.566	6601
914.68	6479
914.793	6547
914.906	6365
915.019	6372
915.132	6350
915.245	6395
915.358	6410
915.47	6475
915.583	6452
915.696	6517
915.809	6540
915.921	6616
916.034	6422
916.146	6350
916.259	6403
916.371	6429
916.483	6441
916.595	6353
916.708	6460
916.82	6372
916.932	6418
917.044	6391
917.156	6429
917.268	6292
917.38	6372
917.491	6311
917.603	6353
917.715	6388
917.826	6429
917.938	6357
918.049	6323
918.161	6323
918.272	6395
918.384	6403
918.495	6369
918.606	6300
918.717	6209
918.828	6323
918.939	6323
919.05	6251
919.161	6266
919.272	6159
919.383	6186
919.494	6285
919.604	6399
919.715	6304
919.826	6258
919.936	6327
920.047	6365
920.157	6285
920.267	6498
920.378	6319
920.488	6285
920.598	6464
920.708	6559
920.818	6479
920.928	6437
921.038	6604
921.148	6540
921.258	6410
921.368	6285
921.477	6243
921.587	6167
921.697	6053
921.806	6220
921.916	6064
922.025	5996
922.134	5931
922.244	5893
922.353	5965
922.462	5855
922.571	5794
922.68	5722
922.789	5676
922.898	5748
923.007	5699
923.116	5691
923.224	5649
923.333	5756
923.442	5623
923.55	5592
923.659	5539
923.767	5627
923.876	5509
923.984	5649
924.092	5524
924.201	5619
924.309	5623
924.417	5585
924.525	5471
924.633	5505
924.741	6277
924.849	5398
924.956	5421
925.064	5357
925.172	5296
925.279	5322
925.387	5311
925.494	5307
925.602	5395
925.709	5387
925.816	5246
925.924	5326
926.031	5383
926.138	5288
926.245	5353
926.352	5292
926.459	5334
926.566	5326
926.673	5212
926.779	5147
926.886	5166
926.993	4968
927.099	5014
927.206	4980
927.312	4976
927.419	4995
927.525	4999
927.631	5018
927.737	4896
927.843	4873
927.95	4801
928.056	4831
928.162	4801
928.267	4839
928.373	5368
928.479	4824
928.585	4710
928.69	4771
928.796	4725
928.901	4637
929.007	4592
929.112	4725
929.218	4660
929.323	4622
929.428	4569
929.533	4687
929.638	4519
929.743	4558
929.848	4573
929.953	4493
930.058	4436
930.163	4325
930.267	4394
930.372	4405
930.477	4276
930.581	4478
930.685	4390
930.79	4249
930.894	4261
930.998	4303
931.103	4344
931.207	4093
931.311	4097
931.415	4032
931.519	3930
931.623	3983
