Data from glass_V78500241_993.txt Node
Date: Wed Sep 01 19:21:22 CST 2021
User: usil
Spectrometer: V785-0024
Trigger mode: 0
Integration Time (sec): 4.000000E-1
Scans to average: 1
Nonlinearity correction enabled: false
Boxcar width: 0
Storing dark spectrum: false
XAxis mode: Wavelengths
Number of Pixels in Spectrum: 1024
>>>>>Begin Spectral Data<<<<<
801.071	3724
801.214	3747
801.356	3713
801.499	3747
801.641	3755
801.783	3793
801.926	3838
802.068	3854
802.211	3903
802.353	3884
802.496	3823
802.638	3873
802.78	3888
802.923	3922
803.065	3918
803.208	3930
803.35	3899
803.492	3907
803.635	3964
803.777	3762
803.919	3876
804.061	4150
804.204	3945
804.346	3968
804.488	3972
804.63	4051
804.773	3937
804.915	4029
805.057	4139
805.199	4063
805.341	4093
805.483	4097
805.626	4131
805.768	4139
805.91	4211
806.052	4246
806.194	4211
806.336	4344
806.478	4249
806.62	4196
806.762	4196
806.904	4261
807.046	4363
807.188	4204
807.33	4200
807.472	4230
807.614	4215
807.756	4223
807.898	4246
808.04	4246
808.182	4303
808.324	4344
808.465	4383
808.607	4478
808.749	4493
808.891	4497
809.033	4519
809.174	4383
809.316	4284
809.458	4230
809.6	4181
809.741	4131
809.883	4162
810.025	4242
810.166	4234
810.308	4227
810.45	4242
810.591	4291
810.733	4295
810.875	4523
811.016	4870
811.158	5140
811.299	5254
811.441	5288
811.582	5113
811.724	4694
811.865	4466
812.007	4409
812.148	4432
812.29	4402
812.431	4424
812.573	4428
812.714	4405
812.855	4455
812.997	4462
813.138	4466
813.279	4424
813.421	4432
813.562	4409
813.703	4386
813.845	4394
813.986	4242
814.127	4230
814.268	4272
814.41	4295
814.551	4246
814.692	4375
814.833	4268
814.974	4299
815.115	4356
815.256	4257
815.397	4246
815.539	4303
815.68	4230
815.821	4242
815.962	4306
816.103	4284
816.244	4249
816.385	4227
816.526	4287
816.666	4192
816.807	4112
816.948	4181
817.089	4207
817.23	4139
817.371	4017
817.512	4055
817.653	4051
817.793	4063
817.934	4048
818.075	4120
818.216	4097
818.356	4067
818.497	4029
818.638	3941
818.778	3953
818.919	3922
819.06	3899
819.2	3960
819.341	3918
819.481	3896
819.622	3930
819.762	4013
819.903	3956
820.043	3876
820.184	3823
820.324	3816
820.465	3884
820.605	3831
820.746	3835
820.886	3835
821.026	3896
821.167	3930
821.307	3968
821.447	4013
821.588	3937
821.728	3987
821.868	3922
822.008	3869
822.149	3937
822.289	3937
822.429	3774
822.569	3740
822.709	3800
822.849	3724
822.99	3781
823.13	3724
823.27	3800
823.41	3720
823.55	3762
823.69	3732
823.83	3724
823.97	3671
824.11	3580
824.25	3599
824.389	3637
824.529	3690
824.669	3644
824.809	3766
824.949	3740
825.089	3774
825.228	3709
825.368	3576
825.508	3584
825.648	3568
825.787	3641
825.927	3663
826.067	3622
826.206	3667
826.346	3819
826.485	3857
826.625	3850
826.765	3972
826.904	3804
827.044	3599
827.183	3530
827.323	3458
827.462	3485
827.601	3428
827.741	3469
827.88	3469
828.02	3389
828.159	3416
828.298	3492
828.437	3561
828.577	3485
828.716	3618
828.855	3485
828.994	3378
829.134	3367
829.273	3409
829.412	3367
829.551	3310
829.69	3359
829.829	3439
829.968	3526
830.107	3370
830.246	3481
830.385	3386
830.524	3382
830.663	3268
830.802	3279
830.941	3211
831.08	3165
831.219	3298
831.357	3294
831.496	3420
831.635	3230
831.774	3203
831.913	3241
832.051	3150
832.19	3184
832.329	3192
832.467	3150
832.606	3108
832.744	3176
832.883	3188
833.022	3199
833.16	3294
833.299	3283
833.437	3332
833.576	3386
833.714	3420
833.852	3450
833.991	3439
834.129	3466
834.267	3469
834.406	3378
834.544	3447
834.682	3428
834.821	3397
834.959	3595
835.097	3409
835.235	3538
835.373	3538
835.511	3561
835.65	3466
835.788	3549
835.926	3386
836.064	3340
836.202	3424
836.34	3606
836.478	3675
836.615	3523
836.753	3595
836.891	3648
837.029	3637
837.167	3614
837.305	3538
837.443	3564
837.58	3507
837.718	3652
837.856	3553
837.993	3545
838.131	3572
838.269	3610
838.406	3599
838.544	3553
838.681	3496
838.819	3481
838.956	3405
839.094	3382
839.231	3473
839.369	3538
839.506	3732
839.643	3633
839.781	3523
839.918	3462
840.055	3538
840.193	3576
840.33	3500
840.467	3591
840.604	3584
840.742	3816
840.879	3511
841.016	3568
841.153	3606
841.29	3774
841.427	3724
841.564	3747
841.701	3762
841.838	3770
841.975	3682
842.112	3701
842.249	3675
842.385	3648
842.522	3850
842.659	3709
842.796	3705
842.933	3663
843.069	3728
843.206	3743
843.343	3819
843.479	3743
843.616	3812
843.752	3694
843.889	3720
844.025	3899
844.162	3732
844.298	3869
844.435	3789
844.571	3812
844.708	3880
844.844	4006
844.98	4029
845.117	4002
845.253	3918
845.389	3876
845.525	3941
845.661	3972
845.798	3930
845.934	4013
846.07	3960
846.206	4063
846.342	4162
846.478	4116
846.614	3975
846.75	3922
846.886	3915
847.022	4048
847.158	3998
847.294	4021
847.429	4029
847.565	4025
847.701	4280
847.837	3896
847.972	3876
848.108	4010
848.244	3991
848.379	3816
848.515	3842
848.65	3869
848.786	3850
848.921	3888
849.057	3934
849.192	3975
849.328	3930
849.463	3941
849.598	3945
849.734	3884
849.869	3831
850.004	3831
850.14	3850
850.275	3778
850.41	3770
850.545	3793
850.68	3789
850.815	3812
850.95	3842
851.085	3915
851.22	3865
851.355	3823
851.49	3789
851.625	3804
851.76	3842
851.895	3774
852.03	3800
852.165	3835
852.299	3888
852.434	3861
852.569	3892
852.703	3899
852.838	3930
852.973	4040
853.107	4032
853.242	3930
853.376	3903
853.511	3804
853.645	3857
853.78	3968
853.914	3934
854.048	3896
854.183	3907
854.317	3987
854.451	4074
854.585	3972
854.72	3991
854.854	4071
854.988	3979
855.122	4021
855.256	3915
855.39	3983
855.524	4154
855.658	4086
855.792	4101
855.926	4181
856.06	4215
856.194	4185
856.327	4150
856.461	4112
856.595	4128
856.729	4169
856.862	4287
856.996	4265
857.13	4291
857.263	4341
857.397	4371
857.53	4291
857.664	4344
857.797	4413
857.931	4440
858.064	4451
858.197	4466
858.331	4405
858.464	4314
858.597	4329
858.731	4360
858.864	4462
858.997	4447
859.13	4542
859.263	4630
859.396	4592
859.529	4504
859.662	4561
859.795	4565
859.928	4573
860.061	4675
860.194	4740
860.327	4694
860.46	4653
860.592	4782
860.725	4782
860.858	4820
860.99	4721
861.123	4675
861.256	4706
861.388	4771
861.521	5490
861.653	4698
861.786	4729
861.918	4767
862.05	4786
862.183	4877
862.315	4942
862.447	4934
862.58	4862
862.712	4793
862.844	4771
862.976	4866
863.108	4896
863.24	5216
863.372	4839
863.504	4957
863.636	4923
863.768	5014
863.9	4957
864.032	4946
864.164	4968
864.296	5056
864.428	5094
864.559	5109
864.691	5151
864.823	5075
864.954	5143
865.086	5140
865.217	5105
865.349	5121
865.48	5193
865.612	5197
865.743	5273
865.875	5216
866.006	5189
866.137	5254
866.269	5265
866.4	5269
866.531	5231
866.662	5197
866.793	5292
866.924	5322
867.055	5360
867.186	5379
867.317	5334
867.448	5296
867.579	5376
867.71	5349
867.841	5406
867.972	5471
868.103	5486
868.233	5448
868.364	5493
868.495	5547
868.625	5688
868.756	5783
868.886	5695
869.017	5752
869.147	5828
869.278	5863
869.408	5847
869.539	5840
869.669	5863
869.799	5908
869.929	5965
870.06	6041
870.19	6194
870.32	6171
870.45	6224
870.58	6418
870.71	6407
870.84	6483
870.97	6456
871.1	6490
871.23	6684
871.36	6616
871.489	6654
871.619	6798
871.749	6818
871.879	6848
872.008	6970
872.138	6973
872.267	6989
872.397	6981
872.526	7027
872.656	7194
872.785	7232
872.915	7415
873.044	7544
873.173	7575
873.303	7620
873.432	7727
873.561	7925
873.69	7890
873.819	8031
873.948	8149
874.077	8240
874.206	8351
874.335	8484
874.464	8602
874.593	8952
874.722	8956
874.851	9146
874.979	9230
875.108	9424
875.237	9412
875.365	9481
875.494	9679
875.623	9797
875.751	9869
875.88	10051
876.008	10078
876.136	10303
876.265	10516
876.393	10725
876.521	10694
876.65	10866
876.778	10839
876.906	10949
877.034	11052
877.162	11029
877.29	11185
877.418	11353
877.546	11326
877.674	11391
877.802	11554
877.93	11535
878.058	11516
878.185	11604
878.313	11646
878.441	11752
878.568	11623
878.696	11783
878.824	11836
878.951	11935
879.079	11942
879.206	11946
879.333	12022
879.461	11942
879.588	12034
879.715	12140
879.842	12232
879.97	12038
880.097	11912
880.224	11939
880.351	12003
880.478	11859
880.605	11832
880.732	11866
880.859	11988
880.986	11836
881.112	11977
881.239	11722
881.366	11676
881.493	11604
881.619	11539
881.746	11608
881.872	11520
881.999	11649
882.125	11551
882.252	11516
882.378	11486
882.505	11600
882.631	11478
882.757	11258
882.883	11318
883.01	11250
883.136	11189
883.262	11155
883.388	11132
883.514	11231
883.64	11170
883.766	11090
883.892	10976
884.018	10934
884.143	11064
884.269	11147
884.395	10858
884.52	10793
884.646	10748
884.772	10691
884.897	10634
885.023	10752
885.148	10755
885.274	10683
885.399	10675
885.524	10584
885.65	10588
885.775	10588
885.9	10611
886.025	10660
886.15	10599
886.275	10421
886.4	10371
886.525	10493
886.65	10390
886.775	10375
886.9	10504
887.025	10508
887.149	10360
887.274	10249
887.399	10211
887.523	10177
887.648	10181
887.773	10166
887.897	10257
888.021	10219
888.146	10116
888.27	10246
888.395	10246
888.519	10162
888.643	10105
888.767	10188
888.891	10074
889.015	10051
889.139	10063
889.263	9934
889.387	10101
889.511	10162
889.635	10120
889.759	10055
889.883	10032
890.006	10010
890.13	10147
890.254	9941
890.377	9956
890.501	9850
890.624	9934
890.748	9941
890.871	9827
890.995	9717
891.118	9747
891.241	9819
891.364	9766
891.488	9861
891.611	9732
891.734	9781
891.857	9774
891.98	9728
892.103	9686
892.226	9713
892.349	9663
892.471	9572
892.594	9656
892.717	9724
892.839	9686
892.962	9568
893.085	9584
893.207	9618
893.33	9492
893.452	9496
893.575	9656
893.697	9435
893.819	9591
893.941	9652
894.064	9572
894.186	9374
894.308	9462
894.43	9519
894.552	9568
894.674	9412
894.796	9450
894.918	9336
895.04	9370
895.161	9412
895.283	9416
895.405	9272
895.526	9272
895.648	9249
895.769	9253
895.891	9214
896.012	9325
896.134	9268
896.255	9150
896.376	9112
896.498	9157
896.619	9093
896.74	9119
896.861	9062
896.982	9241
897.103	9332
897.224	9184
897.345	9089
897.466	9089
897.587	9036
897.708	9077
897.828	9009
897.949	8948
898.07	8830
898.19	8902
898.311	9077
898.431	8849
898.552	8933
898.672	8921
898.792	8998
898.913	8921
899.033	8838
899.153	8731
899.273	8727
899.393	8693
899.513	8754
899.633	8727
899.753	8800
899.873	8689
899.993	8766
900.113	8693
900.232	8651
900.352	8606
900.472	8571
900.591	8518
900.711	8625
900.83	8575
900.95	8689
901.069	8689
901.189	8602
901.308	8495
901.427	8389
901.546	8393
901.665	8533
901.784	8511
901.904	8396
902.023	8343
902.141	8275
902.26	8240
902.379	8313
902.498	8191
902.617	8233
902.735	8279
902.854	8240
902.973	8279
903.091	8164
903.21	8153
903.328	8172
903.446	8119
903.565	8073
903.683	8126
903.801	8054
903.919	8145
904.038	8130
904.156	8065
904.274	8119
904.392	8084
904.51	8012
904.627	8039
904.745	8088
904.863	8126
904.981	7902
905.098	7894
905.216	7830
905.334	7894
905.451	7986
905.569	7894
905.686	7928
905.803	7887
905.921	7765
906.038	7852
906.155	7849
906.272	7731
906.389	7738
906.506	7704
906.623	7594
906.74	7658
906.857	7571
906.974	7578
907.091	7693
907.208	7704
907.324	7651
907.441	7590
907.557	7472
907.674	7483
907.79	7373
907.907	7373
908.023	7476
908.139	7430
908.256	7388
908.372	7384
908.488	7362
908.604	7289
908.72	7244
908.836	7247
908.952	7213
909.068	7305
909.184	7354
909.3	7289
909.415	7324
909.531	7289
909.647	7088
909.762	7194
909.878	7080
909.993	7080
910.108	7110
910.224	7091
910.339	7168
910.454	7057
910.57	6981
910.685	6993
910.8	7149
910.915	7129
911.03	6985
911.145	6863
911.259	6920
911.374	6962
911.489	6856
911.604	6818
911.718	6749
911.833	6760
911.947	6642
912.062	6631
912.176	6711
912.291	6776
912.405	6726
912.519	6783
912.633	6825
912.748	6779
912.862	6662
912.976	6589
913.09	6566
913.204	6650
913.318	6559
913.431	6692
913.545	6711
913.659	6734
913.772	6612
913.886	6563
914	6589
914.113	6612
914.226	6616
914.34	6601
914.453	6532
914.566	6665
914.68	6483
914.793	6593
914.906	6448
915.019	6403
915.132	6441
915.245	6437
915.358	6448
915.47	6422
915.583	6479
915.696	6513
915.809	6566
915.921	6578
916.034	6467
916.146	6414
916.259	6407
916.371	6494
916.483	6456
916.595	6376
916.708	6414
916.82	6445
916.932	6319
917.044	6448
917.156	6403
917.268	6296
917.38	6315
917.491	6304
917.603	6395
917.715	6422
917.826	6388
917.938	6323
918.049	6266
918.161	6376
918.272	6490
918.384	6429
918.495	6372
918.606	6338
918.717	6205
918.828	6281
918.939	6311
919.05	6209
919.161	6251
919.272	6175
919.383	6152
919.494	6304
919.604	6460
919.715	6296
919.826	6235
919.936	6247
920.047	6308
920.157	6281
920.267	6479
920.378	6361
920.488	6346
920.598	6441
920.708	6540
920.818	6490
920.928	6498
921.038	6627
921.148	6608
921.258	6296
921.368	6300
921.477	6224
921.587	6125
921.697	6121
921.806	6182
921.916	6091
922.025	5923
922.134	5889
922.244	5859
922.353	5973
922.462	5847
922.571	5775
922.68	5657
922.789	5729
922.898	5714
923.007	5661
923.116	5699
923.224	5684
923.333	5680
923.442	5577
923.55	5566
923.659	5604
923.767	5615
923.876	5532
923.984	5619
924.092	5562
924.201	5535
924.309	5551
924.417	5604
924.525	5433
924.633	5524
924.741	6110
924.849	5364
924.956	5490
925.064	5395
925.172	5318
925.279	5353
925.387	5349
925.494	5315
925.602	5391
925.709	5433
925.816	5288
925.924	5353
926.031	5341
926.138	5261
926.245	5337
926.352	5231
926.459	5280
926.566	5372
926.673	5235
926.779	5132
926.886	5147
926.993	5041
927.099	5079
927.206	4991
927.312	5014
927.419	5006
927.525	5003
927.631	4991
927.737	4854
927.843	4885
927.95	4763
928.056	4858
928.162	4828
928.267	4862
928.373	5318
928.479	4862
928.585	4653
928.69	4801
928.796	4767
928.901	4714
929.007	4607
929.112	4721
929.218	4710
929.323	4599
929.428	4599
929.533	4660
929.638	4558
929.743	4584
929.848	4565
929.953	4519
930.058	4462
930.163	4337
930.267	4333
930.372	4443
930.477	4306
930.581	4489
930.685	4402
930.79	4257
930.894	4295
930.998	4268
931.103	4402
931.207	4116
931.311	4093
931.415	4082
931.519	3918
931.623	3926
