Data from glass_V78500241_2222.txt Node
Date: Wed Sep 01 19:29:54 CST 2021
User: usil
Spectrometer: V785-0024
Trigger mode: 0
Integration Time (sec): 4.000000E-1
Scans to average: 1
Nonlinearity correction enabled: false
Boxcar width: 0
Storing dark spectrum: false
XAxis mode: Wavelengths
Number of Pixels in Spectrum: 1024
>>>>>Begin Spectral Data<<<<<
801.071	3717
801.214	3762
801.356	3713
801.499	3724
801.641	3728
801.783	3774
801.926	3831
802.068	3800
802.211	3838
802.353	3896
802.496	3857
802.638	3880
802.78	3896
802.923	3907
803.065	3861
803.208	3861
803.35	3831
803.492	3884
803.635	3964
803.777	3804
803.919	3915
804.061	4124
804.204	3953
804.346	3907
804.488	3911
804.63	3975
804.773	3953
804.915	4074
805.057	4147
805.199	3994
805.341	4093
805.483	4154
805.626	4120
805.768	4147
805.91	4242
806.052	4215
806.194	4207
806.336	4341
806.478	4246
806.62	4135
806.762	4211
806.904	4276
807.046	4360
807.188	4204
807.33	4162
807.472	4238
807.614	4173
807.756	4299
807.898	4204
808.04	4211
808.182	4265
808.324	4291
808.465	4367
808.607	4466
808.749	4474
808.891	4424
809.033	4516
809.174	4344
809.316	4284
809.458	4299
809.6	4150
809.741	4215
809.883	4105
810.025	4230
810.166	4207
810.308	4249
810.45	4246
810.591	4200
810.733	4253
810.875	4504
811.016	4835
811.158	5109
811.299	5277
811.441	5258
811.582	5056
811.724	4729
811.865	4474
812.007	4462
812.148	4417
812.29	4424
812.431	4390
812.573	4375
812.714	4322
812.855	4337
812.997	4409
813.138	4466
813.279	4417
813.421	4367
813.562	4386
813.703	4299
813.845	4348
813.986	4234
814.127	4196
814.268	4249
814.41	4287
814.551	4265
814.692	4295
814.833	4238
814.974	4284
815.115	4352
815.256	4257
815.397	4223
815.539	4253
815.68	4200
815.821	4207
815.962	4295
816.103	4257
816.244	4253
816.385	4188
816.526	4299
816.666	4227
816.807	4078
816.948	4147
817.089	4147
817.23	4093
817.371	4010
817.512	4059
817.653	4059
817.793	4010
817.934	4044
818.075	4093
818.216	4051
818.356	4044
818.497	3975
818.638	3911
818.778	3926
818.919	3861
819.06	3876
819.2	3873
819.341	3873
819.481	3869
819.622	3873
819.762	4021
819.903	3964
820.043	3842
820.184	3865
820.324	3789
820.465	3842
820.605	3880
820.746	3838
820.886	3797
821.026	3945
821.167	3907
821.307	3918
821.447	4002
821.588	3926
821.728	3930
821.868	3953
822.008	3873
822.149	3922
822.289	3899
822.429	3770
822.569	3762
822.709	3785
822.849	3667
822.99	3701
823.13	3747
823.27	3785
823.41	3698
823.55	3713
823.69	3709
823.83	3766
823.97	3675
824.11	3576
824.25	3576
824.389	3629
824.529	3675
824.669	3625
824.809	3724
824.949	3717
825.089	3774
825.228	3740
825.368	3530
825.508	3519
825.648	3515
825.787	3584
825.927	3633
826.067	3618
826.206	3690
826.346	3835
826.485	3819
826.625	3850
826.765	3918
826.904	3827
827.044	3625
827.183	3538
827.323	3428
827.462	3488
827.601	3424
827.741	3409
827.88	3431
828.02	3382
828.159	3458
828.298	3462
828.437	3485
828.577	3485
828.716	3584
828.855	3469
828.994	3363
829.134	3401
829.273	3363
829.412	3313
829.551	3317
829.69	3340
829.829	3424
829.968	3523
830.107	3409
830.246	3431
830.385	3351
830.524	3310
830.663	3291
830.802	3249
830.941	3192
831.08	3184
831.219	3256
831.357	3245
831.496	3393
831.635	3230
831.774	3176
831.913	3188
832.051	3112
832.19	3150
832.329	3218
832.467	3104
832.606	3097
832.744	3154
832.883	3195
833.022	3237
833.16	3207
833.299	3275
833.437	3313
833.576	3348
833.714	3424
833.852	3393
833.991	3424
834.129	3466
834.267	3389
834.406	3359
834.544	3439
834.682	3424
834.821	3412
834.959	3553
835.097	3431
835.235	3534
835.373	3515
835.511	3458
835.65	3439
835.788	3492
835.926	3363
836.064	3386
836.202	3409
836.34	3568
836.478	3587
836.615	3553
836.753	3614
836.891	3660
837.029	3606
837.167	3633
837.305	3572
837.443	3526
837.58	3458
837.718	3595
837.856	3564
837.993	3523
838.131	3580
838.269	3572
838.406	3591
838.544	3564
838.681	3481
838.819	3462
838.956	3370
839.094	3386
839.231	3462
839.369	3504
839.506	3701
839.643	3629
839.781	3454
839.918	3485
840.055	3534
840.193	3473
840.33	3515
840.467	3515
840.604	3591
840.742	3797
840.879	3519
841.016	3561
841.153	3584
841.29	3759
841.427	3743
841.564	3686
841.701	3701
841.838	3720
841.975	3614
842.112	3762
842.249	3629
842.385	3625
842.522	3800
842.659	3682
842.796	3629
842.933	3682
843.069	3686
843.206	3682
843.343	3800
843.479	3793
843.616	3808
843.752	3701
843.889	3644
844.025	3850
844.162	3682
844.298	3797
844.435	3827
844.571	3747
844.708	3892
844.844	3953
844.98	4017
845.117	3991
845.253	3945
845.389	3888
845.525	3922
845.661	3945
845.798	3903
845.934	3998
846.07	3930
846.206	4006
846.342	4105
846.478	4044
846.614	3968
846.75	3941
846.886	3918
847.022	4071
847.158	3987
847.294	4013
847.429	4021
847.565	4029
847.701	4249
847.837	3819
847.972	3865
848.108	3964
848.244	3918
848.379	3873
848.515	3812
848.65	3766
848.786	3842
848.921	3899
849.057	3896
849.192	3964
849.328	3865
849.463	3903
849.598	3892
849.734	3831
849.869	3854
850.004	3766
850.14	3808
850.275	3778
850.41	3755
850.545	3781
850.68	3747
850.815	3831
850.95	3770
851.085	3953
851.22	3873
851.355	3816
851.49	3793
851.625	3812
851.76	3812
851.895	3747
852.03	3724
852.165	3816
852.299	3774
852.434	3899
852.569	3831
852.703	3873
852.838	3922
852.973	3994
853.107	3964
853.242	3857
853.376	3857
853.511	3743
853.645	3831
853.78	3953
853.914	3888
854.048	3903
854.183	3884
854.317	3918
854.451	4093
854.585	3903
854.72	3930
854.854	4078
854.988	3953
855.122	3987
855.256	3876
855.39	4044
855.524	4097
855.658	4086
855.792	4128
855.926	4112
856.06	4112
856.194	4158
856.327	4139
856.461	4105
856.595	4169
856.729	4131
856.862	4234
856.996	4227
857.13	4303
857.263	4299
857.397	4371
857.53	4280
857.664	4306
857.797	4383
857.931	4390
858.064	4402
858.197	4447
858.331	4379
858.464	4405
858.597	4344
858.731	4436
858.864	4466
858.997	4428
859.13	4516
859.263	4500
859.396	4565
859.529	4531
859.662	4508
859.795	4531
859.928	4580
860.061	4653
860.194	4714
860.327	4691
860.46	4710
860.592	4733
860.725	4767
860.858	4740
860.99	4706
861.123	4656
861.256	4721
861.388	4759
861.521	5395
861.653	4706
861.786	4679
861.918	4733
862.05	4809
862.183	4801
862.315	4866
862.447	4953
862.58	4873
862.712	4748
862.844	4767
862.976	4839
863.108	4835
863.24	5212
863.372	4850
863.504	4881
863.636	4904
863.768	4942
863.9	4908
864.032	4934
864.164	4972
864.296	5025
864.428	5064
864.559	5079
864.691	5105
864.823	5109
864.954	5094
865.086	5178
865.217	5117
865.349	5094
865.48	5151
865.612	5174
865.743	5288
865.875	5166
866.006	5220
866.137	5277
866.269	5235
866.4	5246
866.531	5227
866.662	5254
866.793	5250
866.924	5239
867.055	5360
867.186	5330
867.317	5326
867.448	5273
867.579	5379
867.71	5364
867.841	5357
867.972	5421
868.103	5501
868.233	5547
868.364	5478
868.495	5570
868.625	5661
868.756	5790
868.886	5653
869.017	5699
869.147	5832
869.278	5851
869.408	5802
869.539	5817
869.669	5904
869.799	5863
869.929	5980
870.06	5984
870.19	6148
870.32	6144
870.45	6220
870.58	6361
870.71	6486
870.84	6441
870.97	6384
871.1	6452
871.23	6665
871.36	6707
871.489	6669
871.619	6749
871.749	6848
871.879	6886
872.008	6989
872.138	7015
872.267	6966
872.397	7023
872.526	7034
872.656	7065
872.785	7175
872.915	7365
873.044	7502
873.173	7582
873.303	7605
873.432	7750
873.561	7833
873.69	7875
873.819	8001
873.948	8172
874.077	8271
874.206	8362
874.335	8480
874.464	8674
874.593	8845
874.722	8941
874.851	9077
874.979	9230
875.108	9359
875.237	9389
875.365	9447
875.494	9686
875.623	9838
875.751	9804
875.88	9979
876.008	10116
876.136	10238
876.265	10459
876.393	10694
876.521	10683
876.65	10801
876.778	10839
876.906	10980
877.034	10957
877.162	11083
877.29	11159
877.418	11193
877.546	11353
877.674	11440
877.802	11528
877.93	11539
878.058	11535
878.185	11646
878.313	11596
878.441	11775
878.568	11657
878.696	11775
878.824	11794
878.951	11999
879.079	12072
879.206	12121
879.333	12019
879.461	11980
879.588	12079
879.715	12155
879.842	12277
879.97	12213
880.097	11897
880.224	11859
880.351	11870
880.478	11851
880.605	11836
880.732	11863
880.859	11904
880.986	11859
881.112	11851
881.239	11718
881.366	11642
881.493	11653
881.619	11543
881.746	11562
881.872	11532
881.999	11516
882.125	11486
882.252	11493
882.378	11463
882.505	11490
882.631	11444
882.757	11284
882.883	11292
883.01	11258
883.136	11220
883.262	11117
883.388	11121
883.514	11269
883.64	11170
883.766	11117
883.892	10953
884.018	11018
884.143	11041
884.269	11033
884.395	10850
884.52	10744
884.646	10790
884.772	10717
884.897	10668
885.023	10675
885.148	10698
885.274	10816
885.399	10778
885.524	10599
885.65	10615
885.775	10561
885.9	10550
886.025	10577
886.15	10512
886.275	10306
886.4	10390
886.525	10440
886.65	10310
886.775	10386
886.9	10493
887.025	10569
887.149	10424
887.274	10166
887.399	10154
887.523	10166
887.648	10200
887.773	10074
887.897	10272
888.021	10185
888.146	10192
888.27	10287
888.395	10223
888.519	10166
888.643	10158
888.767	10196
888.891	10093
889.015	9979
889.139	10124
889.263	9991
889.387	10025
889.511	10105
889.635	10067
889.759	9937
889.883	9918
890.006	10006
890.13	10116
890.254	9892
890.377	9926
890.501	9869
890.624	9861
890.748	9915
890.871	9759
890.995	9770
891.118	9671
891.241	9762
891.364	9800
891.488	9797
891.611	9774
891.734	9736
891.857	9686
891.98	9622
892.103	9743
892.226	9652
892.349	9686
892.471	9568
892.594	9557
892.717	9614
892.839	9576
892.962	9553
893.085	9686
893.207	9523
893.33	9519
893.452	9557
893.575	9568
893.697	9500
893.819	9656
893.941	9599
894.064	9530
894.186	9378
894.308	9359
894.43	9435
894.552	9591
894.674	9507
894.796	9397
894.918	9469
895.04	9313
895.161	9298
895.283	9283
895.405	9287
895.526	9253
895.648	9264
895.769	9264
895.891	9287
896.012	9287
896.134	9218
896.255	9108
896.376	9085
896.498	9230
896.619	9142
896.74	9085
896.861	9089
896.982	9233
897.103	9306
897.224	9211
897.345	9093
897.466	8990
897.587	9081
897.708	9135
897.828	9039
897.949	8891
898.07	8819
898.19	8906
898.311	9062
898.431	8941
898.552	8887
898.672	8982
898.792	8937
898.913	8872
899.033	8788
899.153	8807
899.273	8697
899.393	8682
899.513	8697
899.633	8731
899.753	8686
899.873	8655
899.993	8769
900.113	8678
900.232	8689
900.352	8667
900.472	8530
900.591	8632
900.711	8583
900.83	8560
900.95	8575
901.069	8708
901.189	8556
901.308	8415
901.427	8396
901.546	8423
901.665	8518
901.784	8476
901.904	8358
902.023	8358
902.141	8218
902.26	8191
902.379	8343
902.498	8218
902.617	8282
902.735	8286
902.854	8248
902.973	8225
903.091	8077
903.21	8145
903.328	8126
903.446	8096
903.565	8058
903.683	8065
903.801	8001
903.919	8130
904.038	8157
904.156	7989
904.274	8123
904.392	8031
904.51	8046
904.627	7982
904.745	8039
904.863	8134
904.981	7955
905.098	7890
905.216	7849
905.334	7894
905.451	7932
905.569	7811
905.686	7879
905.803	7932
905.921	7750
906.038	7902
906.155	7822
906.272	7761
906.389	7742
906.506	7639
906.623	7674
906.74	7624
906.857	7499
906.974	7548
907.091	7700
907.208	7628
907.324	7662
907.441	7521
907.557	7377
907.674	7476
907.79	7327
907.907	7343
908.023	7514
908.139	7407
908.256	7350
908.372	7343
908.488	7308
908.604	7270
908.72	7221
908.836	7263
908.952	7209
909.068	7255
909.184	7285
909.3	7232
909.415	7247
909.531	7289
909.647	7076
909.762	7076
909.878	7057
909.993	7156
910.108	6981
910.224	7061
910.339	7069
910.454	7110
910.57	7027
910.685	7012
910.8	7164
910.915	7133
911.03	7091
911.145	6848
911.259	6825
911.374	6871
911.489	6829
911.604	6863
911.718	6700
911.833	6741
911.947	6646
912.062	6608
912.176	6635
912.291	6768
912.405	6757
912.519	6810
912.633	6837
912.748	6715
912.862	6677
912.976	6593
913.09	6479
913.204	6563
913.318	6589
913.431	6688
913.545	6589
913.659	6688
913.772	6616
913.886	6563
914	6608
914.113	6597
914.226	6627
914.34	6532
914.453	6555
914.566	6589
914.68	6502
914.793	6513
914.906	6376
915.019	6384
915.132	6369
915.245	6452
915.358	6426
915.47	6448
915.583	6464
915.696	6456
915.809	6551
915.921	6517
916.034	6418
916.146	6376
916.259	6372
916.371	6483
916.483	6448
916.595	6422
916.708	6376
916.82	6315
916.932	6414
917.044	6334
917.156	6376
917.268	6342
917.38	6266
917.491	6289
917.603	6376
917.715	6369
917.826	6327
917.938	6327
918.049	6258
918.161	6353
918.272	6353
918.384	6494
918.495	6350
918.606	6296
918.717	6243
918.828	6247
918.939	6300
919.05	6228
919.161	6285
919.272	6125
919.383	6175
919.494	6254
919.604	6426
919.715	6289
919.826	6228
919.936	6270
920.047	6342
920.157	6277
920.267	6372
920.378	6323
920.488	6281
920.598	6426
920.708	6498
920.818	6437
920.928	6441
921.038	6582
921.148	6517
921.258	6342
921.368	6273
921.477	6216
921.587	6148
921.697	6102
921.806	6155
921.916	6064
922.025	5942
922.134	5908
922.244	5908
922.353	5958
922.462	5794
922.571	5821
922.68	5707
922.789	5676
922.898	5642
923.007	5630
923.116	5707
923.224	5630
923.333	5699
923.442	5596
923.55	5573
923.659	5596
923.767	5623
923.876	5543
923.984	5661
924.092	5505
924.201	5562
924.309	5547
924.417	5551
924.525	5471
924.633	5421
924.741	6258
924.849	5364
924.956	5440
925.064	5395
925.172	5292
925.279	5330
925.387	5353
925.494	5341
925.602	5414
925.709	5414
925.816	5303
925.924	5299
926.031	5360
926.138	5265
926.245	5330
926.352	5197
926.459	5269
926.566	5372
926.673	5170
926.779	5147
926.886	5162
926.993	5014
927.099	4953
927.206	4995
927.312	4908
927.419	4987
927.525	4976
927.631	4942
927.737	4862
927.843	4870
927.95	4740
928.056	4828
928.162	4771
928.267	4854
928.373	5334
928.479	4858
928.585	4668
928.69	4763
928.796	4839
928.901	4653
929.007	4596
929.112	4668
929.218	4675
929.323	4596
929.428	4588
929.533	4649
929.638	4504
929.743	4569
929.848	4573
929.953	4538
930.058	4379
930.163	4329
930.267	4367
930.372	4447
930.477	4325
930.581	4459
930.685	4333
930.79	4211
930.894	4291
930.998	4257
931.103	4428
931.207	4124
931.311	4086
931.415	4071
931.519	3937
931.623	3953
