Data from glass_V78500241_1020.txt Node
Date: Wed Sep 01 19:21:34 CST 2021
User: usil
Spectrometer: V785-0024
Trigger mode: 0
Integration Time (sec): 4.000000E-1
Scans to average: 1
Nonlinearity correction enabled: false
Boxcar width: 0
Storing dark spectrum: false
XAxis mode: Wavelengths
Number of Pixels in Spectrum: 1024
>>>>>Begin Spectral Data<<<<<
801.071	3740
801.214	3740
801.356	3709
801.499	3766
801.641	3747
801.783	3747
801.926	3823
802.068	3850
802.211	3861
802.353	3854
802.496	3838
802.638	3922
802.78	3922
802.923	3922
803.065	3941
803.208	3846
803.35	3892
803.492	3911
803.635	3907
803.777	3819
803.919	3861
804.061	4158
804.204	3953
804.346	4017
804.488	3922
804.63	4059
804.773	3956
804.915	3987
805.057	4154
805.199	4063
805.341	4124
805.483	4143
805.626	4169
805.768	4128
805.91	4265
806.052	4227
806.194	4223
806.336	4337
806.478	4284
806.62	4177
806.762	4211
806.904	4310
807.046	4356
807.188	4242
807.33	4181
807.472	4246
807.614	4204
807.756	4276
807.898	4242
808.04	4246
808.182	4261
808.324	4371
808.465	4428
808.607	4481
808.749	4447
808.891	4478
809.033	4523
809.174	4417
809.316	4287
809.458	4246
809.6	4169
809.741	4150
809.883	4147
810.025	4261
810.166	4219
810.308	4207
810.45	4265
810.591	4246
810.733	4318
810.875	4474
811.016	4812
811.158	5102
811.299	5223
811.441	5277
811.582	5060
811.724	4683
811.865	4481
812.007	4470
812.148	4523
812.29	4398
812.431	4402
812.573	4413
812.714	4367
812.855	4428
812.997	4390
813.138	4474
813.279	4428
813.421	4443
813.562	4413
813.703	4314
813.845	4352
813.986	4265
814.127	4200
814.268	4265
814.41	4322
814.551	4329
814.692	4341
814.833	4261
814.974	4280
815.115	4363
815.256	4211
815.397	4268
815.539	4211
815.68	4192
815.821	4265
815.962	4287
816.103	4268
816.244	4265
816.385	4238
816.526	4306
816.666	4238
816.807	4112
816.948	4185
817.089	4188
817.23	4143
817.371	4055
817.512	4051
817.653	4097
817.793	4036
817.934	4048
818.075	4109
818.216	4078
818.356	4074
818.497	4013
818.638	3930
818.778	3922
818.919	3896
819.06	3884
819.2	3903
819.341	3861
819.481	3857
819.622	3911
819.762	4013
819.903	3953
820.043	3880
820.184	3819
820.324	3808
820.465	3899
820.605	3911
820.746	3857
820.886	3797
821.026	3937
821.167	3911
821.307	3968
821.447	3998
821.588	3964
821.728	3941
821.868	3930
822.008	3873
822.149	3941
822.289	3896
822.429	3800
822.569	3728
822.709	3808
822.849	3705
822.99	3705
823.13	3755
823.27	3778
823.41	3736
823.55	3759
823.69	3736
823.83	3770
823.97	3671
824.11	3622
824.25	3603
824.389	3667
824.529	3656
824.669	3660
824.809	3701
824.949	3804
825.089	3755
825.228	3698
825.368	3584
825.508	3591
825.648	3572
825.787	3606
825.927	3675
826.067	3633
826.206	3641
826.346	3800
826.485	3842
826.625	3865
826.765	3956
826.904	3861
827.044	3667
827.183	3549
827.323	3450
827.462	3507
827.601	3458
827.741	3447
827.88	3447
828.02	3401
828.159	3420
828.298	3485
828.437	3507
828.577	3477
828.716	3618
828.855	3530
828.994	3397
829.134	3401
829.273	3397
829.412	3374
829.551	3367
829.69	3389
829.829	3443
829.968	3500
830.107	3428
830.246	3450
830.385	3389
830.524	3382
830.663	3317
830.802	3207
830.941	3218
831.08	3218
831.219	3260
831.357	3268
831.496	3428
831.635	3218
831.774	3180
831.913	3192
832.051	3146
832.19	3150
832.329	3230
832.467	3131
832.606	3116
832.744	3233
832.883	3188
833.022	3218
833.16	3275
833.299	3279
833.437	3374
833.576	3393
833.714	3412
833.852	3462
833.991	3447
834.129	3450
834.267	3439
834.406	3416
834.544	3412
834.682	3424
834.821	3420
834.959	3587
835.097	3359
835.235	3561
835.373	3492
835.511	3545
835.65	3458
835.788	3469
835.926	3431
836.064	3378
836.202	3389
836.34	3625
836.478	3625
836.615	3542
836.753	3595
836.891	3629
837.029	3614
837.167	3625
837.305	3622
837.443	3580
837.58	3485
837.718	3614
837.856	3538
837.993	3576
838.131	3603
838.269	3587
838.406	3644
838.544	3576
838.681	3492
838.819	3477
838.956	3378
839.094	3382
839.231	3469
839.369	3542
839.506	3766
839.643	3641
839.781	3500
839.918	3466
840.055	3504
840.193	3545
840.33	3553
840.467	3561
840.604	3656
840.742	3838
840.879	3545
841.016	3576
841.153	3572
841.29	3755
841.427	3709
841.564	3755
841.701	3770
841.838	3671
841.975	3724
842.112	3720
842.249	3610
842.385	3660
842.522	3865
842.659	3656
842.796	3686
842.933	3686
843.069	3705
843.206	3713
843.343	3804
843.479	3789
843.616	3835
843.752	3667
843.889	3709
844.025	3831
844.162	3747
844.298	3861
844.435	3816
844.571	3793
844.708	3922
844.844	3964
844.98	4013
845.117	3983
845.253	3987
845.389	3880
845.525	3987
845.661	3975
845.798	3945
845.934	4006
846.07	3964
846.206	4063
846.342	4112
846.478	4116
846.614	3994
846.75	3945
846.886	3896
847.022	4086
847.158	3994
847.294	3991
847.429	4025
847.565	3994
847.701	4223
847.837	3884
847.972	3869
848.108	3983
848.244	3991
848.379	3846
848.515	3819
848.65	3797
848.786	3854
848.921	3892
849.057	3968
849.192	3937
849.328	3918
849.463	3899
849.598	3899
849.734	3922
849.869	3835
850.004	3770
850.14	3800
850.275	3793
850.41	3736
850.545	3755
850.68	3819
850.815	3804
850.95	3804
851.085	3960
851.22	3880
851.355	3835
851.49	3812
851.625	3831
851.76	3819
851.895	3701
852.03	3743
852.165	3816
852.299	3888
852.434	3911
852.569	3884
852.703	3907
852.838	3915
852.973	4002
853.107	4013
853.242	3945
853.376	3873
853.511	3785
853.645	3827
853.78	3964
853.914	3888
854.048	3941
854.183	3911
854.317	3983
854.451	4051
854.585	3975
854.72	3930
854.854	4006
854.988	3991
855.122	4029
855.256	3953
855.39	4010
855.524	4143
855.658	4105
855.792	4135
855.926	4158
856.06	4131
856.194	4238
856.327	4120
856.461	4116
856.595	4131
856.729	4204
856.862	4280
856.996	4261
857.13	4344
857.263	4333
857.397	4383
857.53	4303
857.664	4352
857.797	4394
857.931	4424
858.064	4417
858.197	4500
858.331	4390
858.464	4436
858.597	4333
858.731	4428
858.864	4500
858.997	4489
859.13	4558
859.263	4519
859.396	4641
859.529	4577
859.662	4573
859.795	4546
859.928	4599
860.061	4672
860.194	4694
860.327	4653
860.46	4698
860.592	4714
860.725	4778
860.858	4801
860.99	4740
861.123	4714
861.256	4721
861.388	4759
861.521	5535
861.653	4748
861.786	4687
861.918	4790
862.05	4793
862.183	4805
862.315	4885
862.447	4949
862.58	4900
862.712	4839
862.844	4763
862.976	4904
863.108	4881
863.24	5258
863.372	4843
863.504	4938
863.636	4908
863.768	4995
863.9	4957
864.032	4942
864.164	4889
864.296	5079
864.428	5140
864.559	5094
864.691	5136
864.823	5132
864.954	5136
865.086	5193
865.217	5117
865.349	5155
865.48	5155
865.612	5143
865.743	5311
865.875	5216
866.006	5147
866.137	5246
866.269	5258
866.4	5216
866.531	5265
866.662	5220
866.793	5261
866.924	5292
867.055	5326
867.186	5337
867.317	5353
867.448	5280
867.579	5345
867.71	5357
867.841	5391
867.972	5505
868.103	5490
868.233	5532
868.364	5543
868.495	5592
868.625	5707
868.756	5741
868.886	5699
869.017	5741
869.147	5859
869.278	5828
869.408	5786
869.539	5813
869.669	5923
869.799	5916
869.929	6038
870.06	6011
870.19	6228
870.32	6194
870.45	6281
870.58	6384
870.71	6437
870.84	6513
870.97	6426
871.1	6422
871.23	6631
871.36	6745
871.489	6639
871.619	6764
871.749	6776
871.879	6932
872.008	7031
872.138	6993
872.267	7023
872.397	7031
872.526	6993
872.656	7072
872.785	7160
872.915	7441
873.044	7506
873.173	7537
873.303	7647
873.432	7818
873.561	7833
873.69	7982
873.819	8035
873.948	8191
874.077	8259
874.206	8309
874.335	8427
874.464	8590
874.593	8804
874.722	8933
874.851	9112
874.979	9233
875.108	9405
875.237	9443
875.365	9500
875.494	9629
875.623	9854
875.751	9873
875.88	10006
876.008	10185
876.136	10314
876.265	10535
876.393	10687
876.521	10710
876.65	10877
876.778	10854
876.906	10984
877.034	11045
877.162	11113
877.29	11216
877.418	11242
877.546	11376
877.674	11493
877.802	11490
877.93	11532
878.058	11516
878.185	11592
878.313	11649
878.441	11699
878.568	11695
878.696	11824
878.824	11916
878.951	11992
879.079	11996
879.206	12110
879.333	12026
879.461	12041
879.588	12026
879.715	12034
879.842	12311
879.97	12087
880.097	11847
880.224	11859
880.351	11843
880.478	11855
880.605	11874
880.732	11851
880.859	12045
880.986	11828
881.112	11859
881.239	11695
881.366	11688
881.493	11653
881.619	11562
881.746	11558
881.872	11520
881.999	11440
882.125	11497
882.252	11646
882.378	11459
882.505	11592
882.631	11467
882.757	11311
882.883	11307
883.01	11258
883.136	11201
883.262	11117
883.388	11132
883.514	11265
883.64	11143
883.766	11178
883.892	11003
884.018	10938
884.143	11056
884.269	11094
884.395	10858
884.52	10801
884.646	10740
884.772	10664
884.897	10698
885.023	10740
885.148	10778
885.274	10748
885.399	10698
885.524	10649
885.65	10599
885.775	10485
885.9	10592
886.025	10611
886.15	10554
886.275	10497
886.4	10466
886.525	10390
886.65	10428
886.775	10360
886.9	10360
887.025	10485
887.149	10386
887.274	10284
887.399	10234
887.523	10207
887.648	10124
887.773	10131
887.897	10257
888.021	10207
888.146	10166
888.27	10204
888.395	10188
888.519	10230
888.643	10196
888.767	10227
888.891	10032
889.015	9987
889.139	10013
889.263	9979
889.387	10086
889.511	10181
889.635	10101
889.759	9975
889.883	10013
890.006	10036
890.13	10067
890.254	9945
890.377	9994
890.501	9861
890.624	9861
890.748	9930
890.871	9835
890.995	9785
891.118	9800
891.241	9755
891.364	9740
891.488	9785
891.611	9778
891.734	9800
891.857	9850
891.98	9774
892.103	9793
892.226	9679
892.349	9720
892.471	9629
892.594	9625
892.717	9679
892.839	9625
892.962	9587
893.085	9743
893.207	9633
893.33	9500
893.452	9595
893.575	9580
893.697	9530
893.819	9595
893.941	9644
894.064	9557
894.186	9447
894.308	9447
894.43	9564
894.552	9564
894.674	9500
894.796	9313
894.918	9405
895.04	9363
895.161	9401
895.283	9431
895.405	9226
895.526	9313
895.648	9268
895.769	9237
895.891	9306
896.012	9298
896.134	9222
896.255	9127
896.376	9184
896.498	9184
896.619	9157
896.74	9100
896.861	9127
896.982	9245
897.103	9306
897.224	9165
897.345	9093
897.466	8994
897.587	9024
897.708	9062
897.828	9024
897.949	9001
898.07	8819
898.19	8941
898.311	9020
898.431	8918
898.552	8971
898.672	8998
898.792	8937
898.913	8963
899.033	8842
899.153	8788
899.273	8705
899.393	8769
899.513	8754
899.633	8697
899.753	8716
899.873	8712
899.993	8773
900.113	8735
900.232	8686
900.352	8663
900.472	8632
900.591	8552
900.711	8621
900.83	8492
900.95	8674
901.069	8701
901.189	8522
901.308	8415
901.427	8377
901.546	8377
901.665	8503
901.784	8564
901.904	8339
902.023	8339
902.141	8240
902.26	8225
902.379	8271
902.498	8298
902.617	8195
902.735	8294
902.854	8294
902.973	8366
903.091	8119
903.21	8180
903.328	8202
903.446	8138
903.565	8107
903.683	8115
903.801	8058
903.919	8172
904.038	8084
904.156	8088
904.274	8103
904.392	8043
904.51	8069
904.627	8119
904.745	8111
904.863	8142
904.981	7917
905.098	7936
905.216	7849
905.334	7970
905.451	7898
905.569	7852
905.686	7940
905.803	7921
905.921	7723
906.038	7860
906.155	7811
906.272	7803
906.389	7681
906.506	7674
906.623	7616
906.74	7590
906.857	7628
906.974	7533
907.091	7696
907.208	7712
907.324	7715
907.441	7643
907.557	7506
907.674	7457
907.79	7365
907.907	7388
908.023	7419
908.139	7510
908.256	7343
908.372	7335
908.488	7362
908.604	7327
908.72	7266
908.836	7270
908.952	7316
909.068	7194
909.184	7327
909.3	7289
909.415	7274
909.531	7247
909.647	7107
909.762	7175
909.878	7107
909.993	7099
910.108	7114
910.224	7076
910.339	7118
910.454	7034
910.57	7038
910.685	7031
910.8	7232
910.915	7110
911.03	7080
911.145	6920
911.259	6878
911.374	6905
911.489	6829
911.604	6776
911.718	6726
911.833	6730
911.947	6669
912.062	6570
912.176	6753
912.291	6753
912.405	6707
912.519	6882
912.633	6875
912.748	6734
912.862	6722
912.976	6658
913.09	6574
913.204	6642
913.318	6593
913.431	6650
913.545	6635
913.659	6760
913.772	6642
913.886	6639
914	6551
914.113	6585
914.226	6684
914.34	6627
914.453	6544
914.566	6650
914.68	6551
914.793	6547
914.906	6502
915.019	6418
915.132	6448
915.245	6422
915.358	6448
915.47	6471
915.583	6437
915.696	6525
915.809	6506
915.921	6532
916.034	6414
916.146	6448
916.259	6357
916.371	6498
916.483	6486
916.595	6384
916.708	6372
916.82	6407
916.932	6407
917.044	6384
917.156	6353
917.268	6357
917.38	6311
917.491	6342
917.603	6376
917.715	6376
917.826	6471
917.938	6334
918.049	6243
918.161	6384
918.272	6380
918.384	6479
918.495	6414
918.606	6251
918.717	6220
918.828	6213
918.939	6220
919.05	6224
919.161	6266
919.272	6155
919.383	6152
919.494	6213
919.604	6426
919.715	6346
919.826	6213
919.936	6209
920.047	6407
920.157	6350
920.267	6433
920.378	6357
920.488	6285
920.598	6483
920.708	6597
920.818	6433
920.928	6471
921.038	6589
921.148	6578
921.258	6380
921.368	6311
921.477	6254
921.587	6186
921.697	6076
921.806	6159
921.916	6072
922.025	5942
922.134	5931
922.244	5935
922.353	5961
922.462	5863
922.571	5802
922.68	5691
922.789	5630
922.898	5710
923.007	5596
923.116	5707
923.224	5707
923.333	5691
923.442	5592
923.55	5551
923.659	5649
923.767	5649
923.876	5573
923.984	5596
924.092	5493
924.201	5596
924.309	5566
924.417	5505
924.525	5474
924.633	5493
924.741	6292
924.849	5444
924.956	5543
925.064	5364
925.172	5334
925.279	5353
925.387	5379
925.494	5360
925.602	5353
925.709	5421
925.816	5311
925.924	5326
926.031	5357
926.138	5337
926.245	5299
926.352	5201
926.459	5357
926.566	5292
926.673	5204
926.779	5185
926.886	5109
926.993	5052
927.099	5018
927.206	5041
927.312	4980
927.419	4995
927.525	4942
927.631	4976
927.737	4938
927.843	4790
927.95	4782
928.056	4847
928.162	4854
928.267	4877
928.373	5360
928.479	4915
928.585	4736
928.69	4835
928.796	4816
928.901	4679
929.007	4592
929.112	4668
929.218	4634
929.323	4615
929.428	4607
929.533	4729
929.638	4527
929.743	4565
929.848	4592
929.953	4519
930.058	4470
930.163	4363
930.267	4352
930.372	4455
930.477	4265
930.581	4466
930.685	4356
930.79	4253
930.894	4295
930.998	4272
931.103	4417
931.207	4147
931.311	4090
931.415	4086
931.519	3922
931.623	3930
