Data from glass_V78500241_2557.txt Node
Date: Wed Sep 01 19:32:13 CST 2021
User: usil
Spectrometer: V785-0024
Trigger mode: 0
Integration Time (sec): 4.000000E-1
Scans to average: 1
Nonlinearity correction enabled: false
Boxcar width: 0
Storing dark spectrum: false
XAxis mode: Wavelengths
Number of Pixels in Spectrum: 1024
>>>>>Begin Spectral Data<<<<<
801.071	3766
801.214	3736
801.356	3705
801.499	3793
801.641	3728
801.783	3759
801.926	3838
802.068	3812
802.211	3842
802.353	3915
802.496	3819
802.638	3880
802.78	3911
802.923	3896
803.065	3861
803.208	3892
803.35	3819
803.492	3922
803.635	3926
803.777	3751
803.919	3880
804.061	4090
804.204	3983
804.346	3956
804.488	3945
804.63	4040
804.773	3930
804.915	3998
805.057	4181
805.199	4032
805.341	4051
805.483	4147
805.626	4082
805.768	4093
805.91	4177
806.052	4192
806.194	4192
806.336	4322
806.478	4173
806.62	4169
806.762	4181
806.904	4261
807.046	4284
807.188	4192
807.33	4196
807.472	4188
807.614	4196
807.756	4276
807.898	4242
808.04	4204
808.182	4295
808.324	4310
808.465	4333
808.607	4436
808.749	4462
808.891	4447
809.033	4478
809.174	4383
809.316	4306
809.458	4227
809.6	4150
809.741	4150
809.883	4112
810.025	4207
810.166	4211
810.308	4223
810.45	4234
810.591	4200
810.733	4249
810.875	4462
811.016	4790
811.158	5098
811.299	5246
811.441	5231
811.582	5094
811.724	4687
811.865	4535
812.007	4489
812.148	4405
812.29	4402
812.431	4462
812.573	4390
812.714	4371
812.855	4371
812.997	4440
813.138	4489
813.279	4371
813.421	4322
813.562	4348
813.703	4314
813.845	4318
813.986	4242
814.127	4246
814.268	4272
814.41	4268
814.551	4230
814.692	4333
814.833	4314
814.974	4303
815.115	4287
815.256	4204
815.397	4242
815.539	4227
815.68	4188
815.821	4188
815.962	4284
816.103	4291
816.244	4246
816.385	4219
816.526	4261
816.666	4253
816.807	4128
816.948	4166
817.089	4188
817.23	4097
817.371	4048
817.512	4048
817.653	4063
817.793	4040
817.934	4017
818.075	4082
818.216	4074
818.356	4082
818.497	3975
818.638	3945
818.778	3915
818.919	3888
819.06	3838
819.2	3838
819.341	3819
819.481	3846
819.622	3926
819.762	3945
819.903	3972
820.043	3880
820.184	3800
820.324	3842
820.465	3865
820.605	3861
820.746	3854
820.886	3781
821.026	3953
821.167	3926
821.307	3972
821.447	3915
821.588	3907
821.728	3968
821.868	3918
822.008	3865
822.149	3896
822.289	3896
822.429	3774
822.569	3793
822.709	3816
822.849	3728
822.99	3728
823.13	3751
823.27	3789
823.41	3762
823.55	3701
823.69	3736
823.83	3743
823.97	3663
824.11	3580
824.25	3633
824.389	3641
824.529	3648
824.669	3629
824.809	3743
824.949	3740
825.089	3720
825.228	3648
825.368	3568
825.508	3557
825.648	3553
825.787	3561
825.927	3656
826.067	3618
826.206	3690
826.346	3743
826.485	3835
826.625	3838
826.765	3899
826.904	3800
827.044	3622
827.183	3515
827.323	3462
827.462	3496
827.601	3428
827.741	3439
827.88	3424
828.02	3351
828.159	3435
828.298	3492
828.437	3534
828.577	3458
828.716	3606
828.855	3545
828.994	3359
829.134	3348
829.273	3378
829.412	3348
829.551	3332
829.69	3332
829.829	3386
829.968	3481
830.107	3416
830.246	3496
830.385	3374
830.524	3386
830.663	3310
830.802	3249
830.941	3180
831.08	3180
831.219	3268
831.357	3249
831.496	3397
831.635	3230
831.774	3169
831.913	3184
832.051	3100
832.19	3097
832.329	3230
832.467	3119
832.606	3074
832.744	3146
832.883	3165
833.022	3169
833.16	3211
833.299	3268
833.437	3298
833.576	3336
833.714	3431
833.852	3420
833.991	3458
834.129	3439
834.267	3401
834.406	3378
834.544	3397
834.682	3393
834.821	3389
834.959	3538
835.097	3393
835.235	3492
835.373	3477
835.511	3481
835.65	3454
835.788	3469
835.926	3374
836.064	3409
836.202	3363
836.34	3572
836.478	3591
836.615	3534
836.753	3545
836.891	3648
837.029	3595
837.167	3549
837.305	3545
837.443	3507
837.58	3492
837.718	3603
837.856	3523
837.993	3511
838.131	3610
838.269	3587
838.406	3534
838.544	3538
838.681	3504
838.819	3420
838.956	3393
839.094	3397
839.231	3435
839.369	3488
839.506	3717
839.643	3614
839.781	3492
839.918	3428
840.055	3564
840.193	3507
840.33	3523
840.467	3523
840.604	3591
840.742	3823
840.879	3507
841.016	3542
841.153	3603
841.29	3736
841.427	3701
841.564	3732
841.701	3713
841.838	3663
841.975	3694
842.112	3686
842.249	3622
842.385	3629
842.522	3831
842.659	3682
842.796	3648
842.933	3686
843.069	3709
843.206	3713
843.343	3774
843.479	3785
843.616	3812
843.752	3660
843.889	3686
844.025	3850
844.162	3671
844.298	3804
844.435	3774
844.571	3781
844.708	3869
844.844	3953
844.98	3998
845.117	3991
845.253	3899
845.389	3884
845.525	3937
845.661	3907
845.798	3884
845.934	3949
846.07	3945
846.206	4032
846.342	4078
846.478	4051
846.614	3964
846.75	3892
846.886	3873
847.022	4048
847.158	3983
847.294	3991
847.429	4021
847.565	3964
847.701	4238
847.837	3880
847.972	3846
848.108	3968
848.244	3953
848.379	3850
848.515	3804
848.65	3770
848.786	3873
848.921	3823
849.057	3884
849.192	3964
849.328	3907
849.463	3873
849.598	3915
849.734	3896
849.869	3838
850.004	3789
850.14	3827
850.275	3819
850.41	3698
850.545	3747
850.68	3781
850.815	3789
850.95	3793
851.085	3941
851.22	3831
851.355	3869
851.49	3804
851.625	3766
851.76	3751
851.895	3732
852.03	3709
852.165	3797
852.299	3797
852.434	3903
852.569	3854
852.703	3850
852.838	3918
852.973	3979
853.107	3987
853.242	3865
853.376	3846
853.511	3770
853.645	3819
853.78	3983
853.914	3892
854.048	3873
854.183	3846
854.317	3949
854.451	4051
854.585	3991
854.72	3945
854.854	3991
854.988	3915
855.122	4010
855.256	3915
855.39	4032
855.524	4124
855.658	4086
855.792	4078
855.926	4124
856.06	4128
856.194	4150
856.327	4124
856.461	4173
856.595	4128
856.729	4124
856.862	4284
856.996	4268
857.13	4261
857.263	4341
857.397	4367
857.53	4223
857.664	4333
857.797	4375
857.931	4451
858.064	4375
858.197	4478
858.331	4451
858.464	4367
858.597	4371
858.731	4470
858.864	4489
858.997	4455
859.13	4462
859.263	4504
859.396	4580
859.529	4546
859.662	4466
859.795	4493
859.928	4561
860.061	4702
860.194	4672
860.327	4687
860.46	4675
860.592	4694
860.725	4714
860.858	4790
860.99	4611
861.123	4679
861.256	4706
861.388	4729
861.521	5429
861.653	4702
861.786	4710
861.918	4736
862.05	4740
862.183	4858
862.315	4866
862.447	4957
862.58	4881
862.712	4797
862.844	4733
862.976	4904
863.108	4858
863.24	5185
863.372	4873
863.504	4904
863.636	4896
863.768	4946
863.9	4984
864.032	4911
864.164	4923
864.296	4995
864.428	5060
864.559	5071
864.691	5090
864.823	5090
864.954	5105
865.086	5090
865.217	5067
865.349	5109
865.48	5098
865.612	5178
865.743	5334
865.875	5128
866.006	5170
866.137	5227
866.269	5216
866.4	5269
866.531	5178
866.662	5231
866.793	5273
866.924	5265
867.055	5261
867.186	5337
867.317	5296
867.448	5265
867.579	5353
867.71	5414
867.841	5326
867.972	5448
868.103	5444
868.233	5440
868.364	5516
868.495	5520
868.625	5657
868.756	5771
868.886	5646
869.017	5714
869.147	5813
869.278	5832
869.408	5878
869.539	5836
869.669	5885
869.799	5908
869.929	6015
870.06	6015
870.19	6155
870.32	6197
870.45	6270
870.58	6266
870.71	6403
870.84	6471
870.97	6433
871.1	6410
871.23	6650
871.36	6696
871.489	6650
871.619	6757
871.749	6768
871.879	6821
872.008	6970
872.138	6973
872.267	6977
872.397	7072
872.526	6996
872.656	7137
872.785	7213
872.915	7415
873.044	7556
873.173	7499
873.303	7643
873.432	7761
873.561	7894
873.69	7894
873.819	8001
873.948	8107
874.077	8263
874.206	8317
874.335	8469
874.464	8659
874.593	8868
874.722	8994
874.851	9077
874.979	9199
875.108	9367
875.237	9393
875.365	9439
875.494	9740
875.623	9785
875.751	9800
875.88	10036
876.008	10128
876.136	10310
876.265	10447
876.393	10607
876.521	10744
876.65	10843
876.778	10892
876.906	10927
877.034	11033
877.162	11086
877.29	11121
877.418	11254
877.546	11417
877.674	11429
877.802	11501
877.93	11505
878.058	11596
878.185	11562
878.313	11653
878.441	11737
878.568	11642
878.696	11729
878.824	11855
878.951	11958
879.079	12007
879.206	12114
879.333	12057
879.461	12064
879.588	12049
879.715	12152
879.842	12258
879.97	11996
880.097	11836
880.224	11859
880.351	11805
880.478	11950
880.605	11889
880.732	11817
880.859	11965
880.986	11813
881.112	11901
881.239	11703
881.366	11726
881.493	11558
881.619	11589
881.746	11581
881.872	11589
881.999	11570
882.125	11486
882.252	11558
882.378	11478
882.505	11524
882.631	11376
882.757	11292
882.883	11379
883.01	11277
883.136	11113
883.262	11117
883.388	11094
883.514	11170
883.64	11147
883.766	11143
883.892	11041
884.018	11067
884.143	11071
884.269	11067
884.395	10850
884.52	10740
884.646	10706
884.772	10687
884.897	10672
885.023	10691
885.148	10706
885.274	10714
885.399	10725
885.524	10596
885.65	10573
885.775	10611
885.9	10561
886.025	10641
886.15	10580
886.275	10394
886.4	10398
886.525	10379
886.65	10409
886.775	10299
886.9	10409
887.025	10474
887.149	10360
887.274	10207
887.399	10227
887.523	10139
887.648	10147
887.773	10120
887.897	10227
888.021	10238
888.146	10074
888.27	10230
888.395	10246
888.519	10128
888.643	10181
888.767	10204
888.891	10097
889.015	10093
889.139	9960
889.263	9994
889.387	10078
889.511	10097
889.635	10082
889.759	9899
889.883	9960
890.006	10036
890.13	10044
890.254	9926
890.377	9968
890.501	9850
890.624	9865
890.748	9953
890.871	9774
890.995	9686
891.118	9679
891.241	9781
891.364	9717
891.488	9934
891.611	9736
891.734	9789
891.857	9755
891.98	9740
892.103	9747
892.226	9736
892.349	9671
892.471	9523
892.594	9682
892.717	9614
892.839	9610
892.962	9561
893.085	9622
893.207	9568
893.33	9458
893.452	9538
893.575	9694
893.697	9397
893.819	9625
893.941	9633
894.064	9507
894.186	9431
894.308	9389
894.43	9618
894.552	9595
894.674	9500
894.796	9416
894.918	9351
895.04	9389
895.161	9272
895.283	9359
895.405	9233
895.526	9298
895.648	9188
895.769	9264
895.891	9245
896.012	9283
896.134	9279
896.255	9184
896.376	9089
896.498	9161
896.619	9184
896.74	9112
896.861	9062
896.982	9135
897.103	9310
897.224	9123
897.345	9070
897.466	8986
897.587	9055
897.708	9119
897.828	8994
897.949	8960
898.07	8918
898.19	8902
898.311	9043
898.431	8963
898.552	8937
898.672	8979
898.792	8960
898.913	8906
899.033	8758
899.153	8746
899.273	8670
899.393	8712
899.513	8796
899.633	8739
899.753	8693
899.873	8693
899.993	8708
900.113	8758
900.232	8655
900.352	8682
900.472	8613
900.591	8560
900.711	8560
900.83	8522
900.95	8697
901.069	8606
901.189	8541
901.308	8465
901.427	8434
901.546	8454
901.665	8415
901.784	8473
901.904	8400
902.023	8286
902.141	8206
902.26	8282
902.379	8263
902.498	8218
902.617	8210
902.735	8290
902.854	8225
902.973	8279
903.091	8096
903.21	8054
903.328	8157
903.446	8077
903.565	8107
903.683	8088
903.801	8012
903.919	8111
904.038	8130
904.156	8024
904.274	8149
904.392	8020
904.51	8046
904.627	8027
904.745	8073
904.863	8134
904.981	7898
905.098	7868
905.216	7856
905.334	7944
905.451	7932
905.569	7845
905.686	7898
905.803	7845
905.921	7772
906.038	7788
906.155	7712
906.272	7727
906.389	7734
906.506	7647
906.623	7597
906.74	7639
906.857	7552
906.974	7563
907.091	7662
907.208	7712
907.324	7594
907.441	7567
907.557	7460
907.674	7419
907.79	7324
907.907	7388
908.023	7430
908.139	7472
908.256	7365
908.372	7411
908.488	7362
908.604	7278
908.72	7206
908.836	7270
908.952	7251
909.068	7240
909.184	7365
909.3	7232
909.415	7282
909.531	7308
909.647	7084
909.762	7114
909.878	7084
909.993	7065
910.108	7050
910.224	6996
910.339	7095
910.454	7004
910.57	7031
910.685	6932
910.8	7187
910.915	7095
911.03	7050
911.145	6871
911.259	6871
911.374	6897
911.489	6867
911.604	6768
911.718	6711
911.833	6703
911.947	6692
912.062	6608
912.176	6688
912.291	6665
912.405	6711
912.519	6844
912.633	6810
912.748	6684
912.862	6688
912.976	6597
913.09	6536
913.204	6608
913.318	6578
913.431	6639
913.545	6608
913.659	6673
913.772	6639
913.886	6559
914	6483
914.113	6631
914.226	6650
914.34	6582
914.453	6513
914.566	6616
914.68	6509
914.793	6467
914.906	6418
915.019	6338
915.132	6357
915.245	6407
915.358	6448
915.47	6426
915.583	6399
915.696	6445
915.809	6532
915.921	6502
916.034	6445
916.146	6403
916.259	6350
916.371	6475
916.483	6414
916.595	6471
916.708	6395
916.82	6395
916.932	6372
917.044	6365
917.156	6422
917.268	6270
917.38	6369
917.491	6300
917.603	6327
917.715	6338
917.826	6422
917.938	6292
918.049	6243
918.161	6372
918.272	6426
918.384	6467
918.495	6365
918.606	6262
918.717	6254
918.828	6262
918.939	6285
919.05	6182
919.161	6254
919.272	6121
919.383	6087
919.494	6266
919.604	6422
919.715	6266
919.826	6155
919.936	6243
920.047	6254
920.157	6232
920.267	6452
920.378	6292
920.488	6266
920.598	6422
920.708	6585
920.818	6494
920.928	6471
921.038	6570
921.148	6517
921.258	6319
921.368	6311
921.477	6216
921.587	6121
921.697	6011
921.806	6175
921.916	6045
922.025	5958
922.134	5904
922.244	5870
922.353	5908
922.462	5824
922.571	5824
922.68	5752
922.789	5665
922.898	5733
923.007	5623
923.116	5707
923.224	5638
923.333	5638
923.442	5547
923.55	5543
923.659	5611
923.767	5585
923.876	5592
923.984	5573
924.092	5516
924.201	5516
924.309	5600
924.417	5611
924.525	5482
924.633	5490
924.741	6281
924.849	5379
924.956	5395
925.064	5360
925.172	5261
925.279	5307
925.387	5303
925.494	5337
925.602	5345
925.709	5360
925.816	5261
925.924	5296
926.031	5353
926.138	5288
926.245	5311
926.352	5208
926.459	5296
926.566	5330
926.673	5250
926.779	5132
926.886	5105
926.993	5048
927.099	5014
927.206	4984
927.312	4911
927.419	5003
927.525	4953
927.631	4919
927.737	4873
927.843	4877
927.95	4755
928.056	4831
928.162	4835
928.267	4824
928.373	5261
928.479	4877
928.585	4694
928.69	4782
928.796	4736
928.901	4694
929.007	4599
929.112	4630
929.218	4622
929.323	4615
929.428	4558
929.533	4637
929.638	4542
929.743	4588
929.848	4546
929.953	4481
930.058	4424
930.163	4306
930.267	4337
930.372	4424
930.477	4291
930.581	4432
930.685	4310
930.79	4238
930.894	4322
930.998	4265
931.103	4333
931.207	4124
931.311	4063
931.415	4013
931.519	3918
931.623	3899
