Data from glass_V78500241_1431.txt Node
Date: Wed Sep 01 19:24:25 CST 2021
User: usil
Spectrometer: V785-0024
Trigger mode: 0
Integration Time (sec): 4.000000E-1
Scans to average: 1
Nonlinearity correction enabled: false
Boxcar width: 0
Storing dark spectrum: false
XAxis mode: Wavelengths
Number of Pixels in Spectrum: 1024
>>>>>Begin Spectral Data<<<<<
801.071	3720
801.214	3747
801.356	3743
801.499	3747
801.641	3743
801.783	3835
801.926	3838
802.068	3808
802.211	3903
802.353	3861
802.496	3873
802.638	3892
802.78	3918
802.923	3903
803.065	3892
803.208	3899
803.35	3854
803.492	3884
803.635	3892
803.777	3789
803.919	3911
804.061	4143
804.204	3983
804.346	3956
804.488	3903
804.63	4082
804.773	4017
804.915	4032
805.057	4158
805.199	4059
805.341	4086
805.483	4147
805.626	4158
805.768	4124
805.91	4219
806.052	4219
806.194	4192
806.336	4310
806.478	4200
806.62	4173
806.762	4207
806.904	4268
807.046	4360
807.188	4173
807.33	4192
807.472	4238
807.614	4166
807.756	4246
807.898	4227
808.04	4166
808.182	4299
808.324	4341
808.465	4394
808.607	4485
808.749	4466
808.891	4489
809.033	4527
809.174	4428
809.316	4268
809.458	4261
809.6	4166
809.741	4166
809.883	4097
810.025	4234
810.166	4188
810.308	4192
810.45	4261
810.591	4234
810.733	4268
810.875	4523
811.016	4858
811.158	5098
811.299	5277
811.441	5299
811.582	5086
811.724	4706
811.865	4447
812.007	4497
812.148	4432
812.29	4440
812.431	4390
812.573	4421
812.714	4363
812.855	4402
812.997	4394
813.138	4504
813.279	4451
813.421	4405
813.562	4337
813.703	4394
813.845	4352
813.986	4249
814.127	4234
814.268	4223
814.41	4280
814.551	4227
814.692	4325
814.833	4276
814.974	4303
815.115	4310
815.256	4261
815.397	4234
815.539	4276
815.68	4181
815.821	4211
815.962	4310
816.103	4291
816.244	4261
816.385	4257
816.526	4306
816.666	4242
816.807	4128
816.948	4200
817.089	4185
817.23	4116
817.371	4032
817.512	4112
817.653	4082
817.793	4040
817.934	4063
818.075	4116
818.216	4051
818.356	4074
818.497	3975
818.638	3934
818.778	3949
818.919	3876
819.06	3823
819.2	3888
819.341	3819
819.481	3865
819.622	3941
819.762	4032
819.903	3949
820.043	3869
820.184	3804
820.324	3785
820.465	3918
820.605	3854
820.746	3892
820.886	3808
821.026	3941
821.167	3911
821.307	3930
821.447	3968
821.588	3979
821.728	3945
821.868	3953
822.008	3911
822.149	3899
822.289	3903
822.429	3816
822.569	3781
822.709	3835
822.849	3682
822.99	3728
823.13	3770
823.27	3781
823.41	3720
823.55	3720
823.69	3743
823.83	3720
823.97	3701
824.11	3629
824.25	3606
824.389	3648
824.529	3667
824.669	3633
824.809	3736
824.949	3762
825.089	3740
825.228	3675
825.368	3591
825.508	3599
825.648	3606
825.787	3606
825.927	3663
826.067	3648
826.206	3701
826.346	3823
826.485	3812
826.625	3888
826.765	3968
826.904	3823
827.044	3603
827.183	3553
827.323	3443
827.462	3481
827.601	3412
827.741	3431
827.88	3488
828.02	3397
828.159	3447
828.298	3466
828.437	3519
828.577	3477
828.716	3599
828.855	3507
828.994	3439
829.134	3405
829.273	3401
829.412	3325
829.551	3332
829.69	3325
829.829	3412
829.968	3507
830.107	3488
830.246	3450
830.385	3382
830.524	3363
830.663	3283
830.802	3279
830.941	3214
831.08	3203
831.219	3287
831.357	3302
831.496	3412
831.635	3230
831.774	3192
831.913	3199
832.051	3135
832.19	3176
832.329	3188
832.467	3142
832.606	3112
832.744	3188
832.883	3203
833.022	3199
833.16	3256
833.299	3291
833.437	3317
833.576	3332
833.714	3428
833.852	3431
833.991	3450
834.129	3519
834.267	3431
834.406	3416
834.544	3435
834.682	3428
834.821	3443
834.959	3553
835.097	3466
835.235	3515
835.373	3523
835.511	3496
835.65	3428
835.788	3447
835.926	3424
836.064	3416
836.202	3393
836.34	3591
836.478	3663
836.615	3526
836.753	3603
836.891	3652
837.029	3625
837.167	3568
837.305	3576
837.443	3549
837.58	3481
837.718	3572
837.856	3580
837.993	3545
838.131	3564
838.269	3538
838.406	3591
838.544	3557
838.681	3481
838.819	3469
838.956	3393
839.094	3416
839.231	3462
839.369	3530
839.506	3728
839.643	3667
839.781	3511
839.918	3416
840.055	3538
840.193	3523
840.33	3473
840.467	3542
840.604	3587
840.742	3819
840.879	3561
841.016	3584
841.153	3587
841.29	3789
841.427	3736
841.564	3736
841.701	3751
841.838	3705
841.975	3694
842.112	3732
842.249	3686
842.385	3656
842.522	3850
842.659	3648
842.796	3701
842.933	3766
843.069	3724
843.206	3778
843.343	3793
843.479	3755
843.616	3823
843.752	3675
843.889	3663
844.025	3865
844.162	3740
844.298	3835
844.435	3800
844.571	3793
844.708	3896
844.844	3964
844.98	4010
845.117	3998
845.253	3953
845.389	3907
845.525	3930
845.661	3964
845.798	3964
845.934	4044
846.07	3964
846.206	4029
846.342	4120
846.478	4105
846.614	3960
846.75	3915
846.886	3918
847.022	4013
847.158	3949
847.294	4025
847.429	4040
847.565	3987
847.701	4234
847.837	3899
847.972	3907
848.108	4017
848.244	4029
848.379	3861
848.515	3835
848.65	3804
848.786	3861
848.921	3850
849.057	3953
849.192	3953
849.328	3922
849.463	3945
849.598	3888
849.734	3888
849.869	3835
850.004	3800
850.14	3816
850.275	3793
850.41	3751
850.545	3789
850.68	3800
850.815	3808
850.95	3800
851.085	3979
851.22	3857
851.355	3800
851.49	3747
851.625	3838
851.76	3770
851.895	3732
852.03	3740
852.165	3808
852.299	3876
852.434	3953
852.569	3831
852.703	3876
852.838	3968
852.973	3994
853.107	4013
853.242	3869
853.376	3804
853.511	3797
853.645	3831
853.78	3983
853.914	3911
854.048	3915
854.183	3907
854.317	3964
854.451	4048
854.585	3972
854.72	3930
854.854	4051
854.988	3934
855.122	4032
855.256	3903
855.39	4006
855.524	4074
855.658	4090
855.792	4109
855.926	4097
856.06	4162
856.194	4207
856.327	4109
856.461	4143
856.595	4162
856.729	4143
856.862	4265
856.996	4238
857.13	4322
857.263	4337
857.397	4356
857.53	4276
857.664	4318
857.797	4390
857.931	4424
858.064	4371
858.197	4462
858.331	4390
858.464	4402
858.597	4356
858.731	4459
858.864	4474
858.997	4443
859.13	4580
859.263	4558
859.396	4592
859.529	4531
859.662	4523
859.795	4531
859.928	4622
860.061	4744
860.194	4759
860.327	4634
860.46	4649
860.592	4759
860.725	4774
860.858	4748
860.99	4702
861.123	4691
861.256	4725
861.388	4790
861.521	5296
861.653	4721
861.786	4725
861.918	4744
862.05	4755
862.183	4843
862.315	4866
862.447	4949
862.58	4862
862.712	4828
862.844	4778
862.976	4843
863.108	4866
863.24	5197
863.372	4824
863.504	4911
863.636	4881
863.768	4923
863.9	4984
864.032	4911
864.164	4995
864.296	5025
864.428	5071
864.559	5090
864.691	5113
864.823	5162
864.954	5128
865.086	5197
865.217	5109
865.349	5147
865.48	5181
865.612	5155
865.743	5318
865.875	5178
866.006	5174
866.137	5239
866.269	5269
866.4	5220
866.531	5273
866.662	5166
866.793	5246
866.924	5239
867.055	5357
867.186	5360
867.317	5326
867.448	5296
867.579	5353
867.71	5383
867.841	5414
867.972	5467
868.103	5433
868.233	5490
868.364	5520
868.495	5543
868.625	5665
868.756	5783
868.886	5668
869.017	5703
869.147	5840
869.278	5863
869.408	5840
869.539	5855
869.669	5942
869.799	5912
869.929	5973
870.06	6026
870.19	6186
870.32	6159
870.45	6277
870.58	6311
870.71	6433
870.84	6410
870.97	6426
871.1	6490
871.23	6635
871.36	6730
871.489	6601
871.619	6715
871.749	6901
871.879	6840
872.008	7015
872.138	6977
872.267	7031
872.397	7008
872.526	7015
872.656	7091
872.785	7228
872.915	7411
873.044	7540
873.173	7590
873.303	7643
873.432	7712
873.561	7792
873.69	7879
873.819	8005
873.948	8206
874.077	8233
874.206	8343
874.335	8454
874.464	8701
874.593	8773
874.722	8944
874.851	9146
874.979	9214
875.108	9416
875.237	9424
875.365	9454
875.494	9709
875.623	9861
875.751	9816
875.88	10078
876.008	10131
876.136	10265
876.265	10504
876.393	10641
876.521	10774
876.65	10839
876.778	10881
876.906	10946
877.034	10984
877.162	11128
877.29	11117
877.418	11212
877.546	11356
877.674	11459
877.802	11520
877.93	11581
878.058	11509
878.185	11577
878.313	11710
878.441	11756
878.568	11767
878.696	11843
878.824	11908
878.951	11992
879.079	12007
879.206	12144
879.333	12038
879.461	12049
879.588	12064
879.715	12064
879.842	12171
879.97	12045
880.097	11893
880.224	11847
880.351	11920
880.478	11946
880.605	11824
880.732	11847
880.859	12045
880.986	11843
881.112	11707
881.239	11737
881.366	11688
881.493	11596
881.619	11509
881.746	11585
881.872	11509
881.999	11547
882.125	11436
882.252	11596
882.378	11474
882.505	11589
882.631	11436
882.757	11292
882.883	11269
883.01	11303
883.136	11170
883.262	11166
883.388	10984
883.514	11181
883.64	11204
883.766	11151
883.892	10961
884.018	10984
884.143	11105
884.269	11155
884.395	10987
884.52	10763
884.646	10771
884.772	10698
884.897	10687
885.023	10577
885.148	10771
885.274	10656
885.399	10687
885.524	10569
885.65	10630
885.775	10660
885.9	10531
886.025	10565
886.15	10573
886.275	10470
886.4	10417
886.525	10375
886.65	10428
886.775	10314
886.9	10451
887.025	10554
887.149	10360
887.274	10135
887.399	10242
887.523	10124
887.648	10090
887.773	10158
887.897	10303
888.021	10234
888.146	10097
888.27	10223
888.395	10211
888.519	10200
888.643	10211
888.767	10188
888.891	10128
889.015	10025
889.139	10044
889.263	9960
889.387	10086
889.511	10086
889.635	10032
889.759	9987
889.883	10013
890.006	10071
890.13	10109
890.254	9854
890.377	10036
890.501	9774
890.624	9857
890.748	9926
890.871	9850
890.995	9835
891.118	9694
891.241	9854
891.364	9682
891.488	9785
891.611	9701
891.734	9793
891.857	9857
891.98	9732
892.103	9751
892.226	9774
892.349	9694
892.471	9458
892.594	9557
892.717	9587
892.839	9584
892.962	9572
893.085	9679
893.207	9542
893.33	9492
893.452	9584
893.575	9564
893.697	9507
893.819	9511
893.941	9618
894.064	9606
894.186	9450
894.308	9329
894.43	9534
894.552	9603
894.674	9492
894.796	9389
894.918	9351
895.04	9351
895.161	9340
895.283	9313
895.405	9226
895.526	9268
895.648	9329
895.769	9230
895.891	9264
896.012	9310
896.134	9222
896.255	9119
896.376	9123
896.498	9123
896.619	9116
896.74	9116
896.861	9108
896.982	9207
897.103	9302
897.224	9150
897.345	9112
897.466	9020
897.587	9032
897.708	9157
897.828	9058
897.949	8895
898.07	8857
898.19	8929
898.311	8971
898.431	8883
898.552	8872
898.672	8956
898.792	8998
898.913	8948
899.033	8796
899.153	8735
899.273	8663
899.393	8758
899.513	8811
899.633	8674
899.753	8785
899.873	8727
899.993	8804
900.113	8727
900.232	8708
900.352	8598
900.472	8533
900.591	8571
900.711	8648
900.83	8545
900.95	8644
901.069	8727
901.189	8610
901.308	8438
901.427	8377
901.546	8415
901.665	8461
901.784	8503
901.904	8400
902.023	8347
902.141	8206
902.26	8305
902.379	8290
902.498	8214
902.617	8225
902.735	8332
902.854	8279
902.973	8313
903.091	8157
903.21	8202
903.328	8157
903.446	8142
903.565	8043
903.683	8111
903.801	8073
903.919	8077
904.038	8111
904.156	8027
904.274	8142
904.392	7974
904.51	8050
904.627	8046
904.745	8115
904.863	8088
904.981	7894
905.098	7909
905.216	7906
905.334	7921
905.451	7925
905.569	7860
905.686	7925
905.803	7909
905.921	7830
906.038	7921
906.155	7807
906.272	7731
906.389	7696
906.506	7632
906.623	7643
906.74	7655
906.857	7575
906.974	7559
907.091	7613
907.208	7757
907.324	7582
907.441	7540
907.557	7506
907.674	7445
907.79	7400
907.907	7392
908.023	7396
908.139	7415
908.256	7407
908.372	7316
908.488	7305
908.604	7255
908.72	7190
908.836	7259
908.952	7247
909.068	7187
909.184	7392
909.3	7278
909.415	7335
909.531	7278
909.647	7084
909.762	7164
909.878	7091
909.993	7118
910.108	7069
910.224	7095
910.339	7065
910.454	7042
910.57	7012
910.685	6985
910.8	7137
910.915	7088
911.03	7023
911.145	6890
911.259	6863
911.374	6951
911.489	6825
911.604	6833
911.718	6741
911.833	6772
911.947	6646
912.062	6559
912.176	6677
912.291	6684
912.405	6707
912.519	6802
912.633	6791
912.748	6650
912.862	6738
912.976	6646
913.09	6517
913.204	6623
913.318	6597
913.431	6715
913.545	6692
913.659	6711
913.772	6642
913.886	6566
914	6547
914.113	6597
914.226	6707
914.34	6616
914.453	6563
914.566	6559
914.68	6506
914.793	6555
914.906	6380
915.019	6407
915.132	6372
915.245	6376
915.358	6422
915.47	6410
915.583	6479
915.696	6498
915.809	6532
915.921	6544
916.034	6452
916.146	6437
916.259	6403
916.371	6521
916.483	6464
916.595	6361
916.708	6380
916.82	6331
916.932	6342
917.044	6346
917.156	6407
917.268	6323
917.38	6365
917.491	6289
917.603	6315
917.715	6350
917.826	6445
917.938	6361
918.049	6270
918.161	6369
918.272	6372
918.384	6475
918.495	6388
918.606	6266
918.717	6213
918.828	6239
918.939	6273
919.05	6235
919.161	6277
919.272	6167
919.383	6114
919.494	6315
919.604	6414
919.715	6262
919.826	6194
919.936	6296
920.047	6388
920.157	6266
920.267	6429
920.378	6338
920.488	6270
920.598	6475
920.708	6551
920.818	6433
920.928	6460
921.038	6616
921.148	6597
921.258	6380
921.368	6289
921.477	6243
921.587	6163
921.697	6106
921.806	6144
921.916	6102
922.025	5935
922.134	5931
922.244	5946
922.353	5931
922.462	5783
922.571	5859
922.68	5680
922.789	5649
922.898	5699
923.007	5585
923.116	5665
923.224	5691
923.333	5737
923.442	5596
923.55	5532
923.659	5596
923.767	5657
923.876	5551
923.984	5592
924.092	5535
924.201	5558
924.309	5554
924.417	5547
924.525	5467
924.633	5512
924.741	6175
924.849	5395
924.956	5501
925.064	5383
925.172	5322
925.279	5303
925.387	5337
925.494	5334
925.602	5417
925.709	5395
925.816	5273
925.924	5296
926.031	5421
926.138	5337
926.245	5303
926.352	5284
926.459	5280
926.566	5326
926.673	5239
926.779	5105
926.886	5102
926.993	5022
927.099	4984
927.206	4984
927.312	4972
927.419	5025
927.525	4938
927.631	4972
927.737	4911
927.843	4839
927.95	4778
928.056	4805
928.162	4816
928.267	4839
928.373	5208
928.479	4850
928.585	4649
928.69	4831
928.796	4797
928.901	4694
929.007	4599
929.112	4675
929.218	4653
929.323	4580
929.428	4558
929.533	4653
929.638	4516
929.743	4565
929.848	4584
929.953	4481
930.058	4386
930.163	4333
930.267	4348
930.372	4432
930.477	4287
930.581	4481
930.685	4341
930.79	4265
930.894	4284
930.998	4211
931.103	4386
931.207	4128
931.311	4105
931.415	4040
931.519	3911
931.623	3991
