Data from glass_V78500241_1917.txt Node
Date: Wed Sep 01 19:27:47 CST 2021
User: usil
Spectrometer: V785-0024
Trigger mode: 0
Integration Time (sec): 4.000000E-1
Scans to average: 1
Nonlinearity correction enabled: false
Boxcar width: 0
Storing dark spectrum: false
XAxis mode: Wavelengths
Number of Pixels in Spectrum: 1024
>>>>>Begin Spectral Data<<<<<
801.071	3724
801.214	3717
801.356	3713
801.499	3762
801.641	3713
801.783	3781
801.926	3831
802.068	3850
802.211	3854
802.353	3915
802.496	3812
802.638	3869
802.78	3888
802.923	3899
803.065	3922
803.208	3812
803.35	3869
803.492	3918
803.635	3899
803.777	3785
803.919	3903
804.061	4147
804.204	3949
804.346	3956
804.488	3903
804.63	4048
804.773	3983
804.915	4048
805.057	4124
805.199	4067
805.341	4093
805.483	4128
805.626	4128
805.768	4124
805.91	4200
806.052	4227
806.194	4223
806.336	4329
806.478	4196
806.62	4200
806.762	4192
806.904	4227
807.046	4329
807.188	4177
807.33	4166
807.472	4227
807.614	4223
807.756	4227
807.898	4200
808.04	4188
808.182	4257
808.324	4390
808.465	4356
808.607	4462
808.749	4455
808.891	4459
809.033	4504
809.174	4352
809.316	4234
809.458	4204
809.6	4169
809.741	4169
809.883	4128
810.025	4219
810.166	4211
810.308	4246
810.45	4261
810.591	4223
810.733	4230
810.875	4523
811.016	4797
811.158	5109
811.299	5280
811.441	5265
811.582	5018
811.724	4691
811.865	4436
812.007	4470
812.148	4409
812.29	4409
812.431	4428
812.573	4402
812.714	4398
812.855	4409
812.997	4386
813.138	4428
813.279	4436
813.421	4367
813.562	4375
813.703	4314
813.845	4314
813.986	4280
814.127	4215
814.268	4280
814.41	4291
814.551	4276
814.692	4287
814.833	4284
814.974	4284
815.115	4341
815.256	4230
815.397	4219
815.539	4272
815.68	4207
815.821	4227
815.962	4352
816.103	4272
816.244	4287
816.385	4196
816.526	4272
816.666	4166
816.807	4105
816.948	4196
817.089	4154
817.23	4082
817.371	4013
817.512	4040
817.653	4097
817.793	4063
817.934	4040
818.075	4078
818.216	4109
818.356	4116
818.497	4025
818.638	3934
818.778	3911
818.919	3861
819.06	3835
819.2	3911
819.341	3884
819.481	3827
819.622	3930
819.762	4040
819.903	3968
820.043	3861
820.184	3861
820.324	3797
820.465	3930
820.605	3873
820.746	3869
820.886	3778
821.026	3899
821.167	3873
821.307	3972
821.447	3937
821.588	3945
821.728	3884
821.868	3934
822.008	3907
822.149	3918
822.289	3899
822.429	3781
822.569	3743
822.709	3778
822.849	3679
822.99	3747
823.13	3759
823.27	3812
823.41	3732
823.55	3740
823.69	3713
823.83	3743
823.97	3652
824.11	3599
824.25	3591
824.389	3625
824.529	3614
824.669	3618
824.809	3705
824.949	3797
825.089	3724
825.228	3705
825.368	3587
825.508	3587
825.648	3568
825.787	3614
825.927	3656
826.067	3633
826.206	3660
826.346	3766
826.485	3800
826.625	3831
826.765	3896
826.904	3831
827.044	3587
827.183	3481
827.323	3458
827.462	3477
827.601	3412
827.741	3420
827.88	3443
828.02	3401
828.159	3412
828.298	3443
828.437	3511
828.577	3488
828.716	3618
828.855	3454
828.994	3336
829.134	3355
829.273	3351
829.412	3393
829.551	3329
829.69	3348
829.829	3393
829.968	3507
830.107	3454
830.246	3431
830.385	3397
830.524	3351
830.663	3283
830.802	3230
830.941	3184
831.08	3203
831.219	3230
831.357	3249
831.496	3382
831.635	3222
831.774	3150
831.913	3192
832.051	3119
832.19	3119
832.329	3203
832.467	3127
832.606	3112
832.744	3161
832.883	3176
833.022	3195
833.16	3207
833.299	3306
833.437	3306
833.576	3401
833.714	3367
833.852	3412
833.991	3412
834.129	3454
834.267	3458
834.406	3428
834.544	3435
834.682	3420
834.821	3409
834.959	3523
835.097	3401
835.235	3515
835.373	3473
835.511	3500
835.65	3424
835.788	3485
835.926	3416
836.064	3340
836.202	3386
836.34	3538
836.478	3595
836.615	3561
836.753	3599
836.891	3656
837.029	3587
837.167	3568
837.305	3534
837.443	3519
837.58	3488
837.718	3606
837.856	3530
837.993	3534
838.131	3576
838.269	3584
838.406	3606
838.544	3557
838.681	3473
838.819	3431
838.956	3424
839.094	3386
839.231	3378
839.369	3515
839.506	3717
839.643	3603
839.781	3534
839.918	3454
840.055	3526
840.193	3530
840.33	3530
840.467	3564
840.604	3580
840.742	3789
840.879	3496
841.016	3549
841.153	3572
841.29	3762
841.427	3720
841.564	3686
841.701	3747
841.838	3709
841.975	3679
842.112	3709
842.249	3675
842.385	3644
842.522	3816
842.659	3698
842.796	3622
842.933	3694
843.069	3701
843.206	3698
843.343	3759
843.479	3827
843.616	3819
843.752	3682
843.889	3644
844.025	3831
844.162	3709
844.298	3812
844.435	3808
844.571	3785
844.708	3915
844.844	3968
844.98	4010
845.117	4029
845.253	3945
845.389	3888
845.525	3975
845.661	3968
845.798	3918
845.934	4013
846.07	3987
846.206	4025
846.342	4105
846.478	4067
846.614	3930
846.75	3918
846.886	3873
847.022	4006
847.158	3998
847.294	3994
847.429	4013
847.565	3975
847.701	4246
847.837	3907
847.972	3857
848.108	3998
848.244	3934
848.379	3873
848.515	3838
848.65	3831
848.786	3835
848.921	3888
849.057	3880
849.192	3953
849.328	3892
849.463	3972
849.598	3884
849.734	3861
849.869	3842
850.004	3800
850.14	3850
850.275	3797
850.41	3717
850.545	3755
850.68	3789
850.815	3800
850.95	3785
851.085	3907
851.22	3892
851.355	3804
851.49	3762
851.625	3812
851.76	3835
851.895	3743
852.03	3732
852.165	3808
852.299	3861
852.434	3934
852.569	3876
852.703	3850
852.838	3941
852.973	3998
853.107	4006
853.242	3846
853.376	3854
853.511	3747
853.645	3857
853.78	3975
853.914	3861
854.048	3888
854.183	3884
854.317	3945
854.451	4036
854.585	3960
854.72	3972
854.854	4029
854.988	3972
855.122	4040
855.256	3892
855.39	4040
855.524	4086
855.658	4021
855.792	4071
855.926	4128
856.06	4162
856.194	4158
856.327	4143
856.461	4112
856.595	4124
856.729	4177
856.862	4257
856.996	4257
857.13	4284
857.263	4348
857.397	4360
857.53	4299
857.664	4356
857.797	4375
857.931	4421
858.064	4386
858.197	4500
858.331	4367
858.464	4352
858.597	4379
858.731	4428
858.864	4451
858.997	4432
859.13	4519
859.263	4542
859.396	4577
859.529	4493
859.662	4584
859.795	4531
859.928	4558
860.061	4706
860.194	4748
860.327	4649
860.46	4626
860.592	4668
860.725	4793
860.858	4774
860.99	4683
861.123	4736
861.256	4675
861.388	4824
861.521	5387
861.653	4702
861.786	4725
861.918	4752
862.05	4767
862.183	4839
862.315	4881
862.447	4934
862.58	4850
862.712	4839
862.844	4782
862.976	4889
863.108	4904
863.24	5178
863.372	4835
863.504	4877
863.636	4904
863.768	4934
863.9	4938
864.032	4923
864.164	4938
864.296	5022
864.428	5041
864.559	5086
864.691	5090
864.823	5174
864.954	5128
865.086	5140
865.217	5159
865.349	5140
865.48	5121
865.612	5147
865.743	5227
865.875	5223
866.006	5197
866.137	5204
866.269	5201
866.4	5239
866.531	5258
866.662	5242
866.793	5292
866.924	5296
867.055	5349
867.186	5383
867.317	5311
867.448	5307
867.579	5379
867.71	5376
867.841	5398
867.972	5436
868.103	5490
868.233	5505
868.364	5539
868.495	5577
868.625	5577
868.756	5779
868.886	5661
869.017	5676
869.147	5870
869.278	5828
869.408	5813
869.539	5817
869.669	5923
869.799	5923
869.929	5931
870.06	6022
870.19	6167
870.32	6152
870.45	6247
870.58	6350
870.71	6467
870.84	6532
870.97	6429
871.1	6353
871.23	6696
871.36	6700
871.489	6692
871.619	6722
871.749	6856
871.879	6871
872.008	7004
872.138	6981
872.267	7027
872.397	7023
872.526	7034
872.656	7114
872.785	7187
872.915	7457
873.044	7525
873.173	7506
873.303	7643
873.432	7742
873.561	7879
873.69	7860
873.819	8062
873.948	8081
874.077	8328
874.206	8339
874.335	8419
874.464	8651
874.593	8902
874.722	8948
874.851	9085
874.979	9298
875.108	9351
875.237	9435
875.365	9485
875.494	9701
875.623	9781
875.751	9808
875.88	9956
876.008	10063
876.136	10238
876.265	10455
876.393	10653
876.521	10755
876.65	10797
876.778	10904
876.906	10972
877.034	10961
877.162	11090
877.29	11128
877.418	11227
877.546	11288
877.674	11436
877.802	11395
877.93	11543
878.058	11604
878.185	11562
878.313	11638
878.441	11752
878.568	11726
878.696	11840
878.824	11809
878.951	11878
879.079	11984
879.206	12167
879.333	12068
879.461	11946
879.588	11988
879.715	12030
879.842	12224
879.97	12045
880.097	11885
880.224	11802
880.351	11863
880.478	11908
880.605	11912
880.732	11798
880.859	12030
880.986	11786
881.112	11794
881.239	11737
881.366	11718
881.493	11680
881.619	11558
881.746	11589
881.872	11570
881.999	11600
882.125	11505
882.252	11490
882.378	11535
882.505	11490
882.631	11288
882.757	11261
882.883	11318
883.01	11258
883.136	11235
883.262	11090
883.388	11067
883.514	11067
883.64	11174
883.766	11105
883.892	10953
884.018	10980
884.143	11052
884.269	11056
884.395	10835
884.52	10805
884.646	10767
884.772	10736
884.897	10634
885.023	10649
885.148	10733
885.274	10759
885.399	10672
885.524	10653
885.65	10584
885.775	10618
885.9	10558
886.025	10558
886.15	10584
886.275	10478
886.4	10451
886.525	10382
886.65	10325
886.775	10363
886.9	10538
887.025	10523
887.149	10402
887.274	10181
887.399	10219
887.523	10177
887.648	10112
887.773	10090
887.897	10219
888.021	10207
888.146	10177
888.27	10211
888.395	10242
888.519	10116
888.643	10173
888.767	10169
888.891	10063
889.015	10036
889.139	10078
889.263	10010
889.387	10051
889.511	10105
889.635	10109
889.759	9937
889.883	10006
890.006	9911
890.13	10071
890.254	9876
890.377	10055
890.501	9808
890.624	9880
890.748	9857
890.871	9838
890.995	9789
891.118	9690
891.241	9762
891.364	9759
891.488	9869
891.611	9736
891.734	9747
891.857	9812
891.98	9720
892.103	9770
892.226	9675
892.349	9682
892.471	9538
892.594	9549
892.717	9595
892.839	9603
892.962	9606
893.085	9682
893.207	9526
893.33	9447
893.452	9488
893.575	9633
893.697	9469
893.819	9656
893.941	9587
894.064	9618
894.186	9401
894.308	9401
894.43	9496
894.552	9553
894.674	9500
894.796	9401
894.918	9378
895.04	9382
895.161	9329
895.283	9405
895.405	9306
895.526	9287
895.648	9218
895.769	9211
895.891	9222
896.012	9275
896.134	9188
896.255	9188
896.376	9066
896.498	9150
896.619	9089
896.74	9039
896.861	9074
896.982	9253
897.103	9325
897.224	9119
897.345	9062
897.466	9070
897.587	8998
897.708	9100
897.828	9032
897.949	8952
898.07	8891
898.19	8929
898.311	9032
898.431	8853
898.552	8899
898.672	8986
898.792	8967
898.913	8853
899.033	8815
899.153	8750
899.273	8602
899.393	8678
899.513	8754
899.633	8674
899.753	8788
899.873	8629
899.993	8705
900.113	8648
900.232	8705
900.352	8708
900.472	8621
900.591	8568
900.711	8617
900.83	8575
900.95	8594
901.069	8621
901.189	8541
901.308	8434
901.427	8415
901.546	8393
901.665	8446
901.784	8514
901.904	8423
902.023	8366
902.141	8259
902.26	8164
902.379	8298
902.498	8252
902.617	8210
902.735	8237
902.854	8271
902.973	8259
903.091	8107
903.21	8115
903.328	8164
903.446	8103
903.565	7989
903.683	8092
903.801	8027
903.919	8115
904.038	8107
904.156	8012
904.274	8111
904.392	7989
904.51	8069
904.627	8084
904.745	8050
904.863	8096
904.981	7883
905.098	7875
905.216	7868
905.334	7925
905.451	7951
905.569	7879
905.686	7917
905.803	7868
905.921	7723
906.038	7879
906.155	7814
906.272	7632
906.389	7666
906.506	7609
906.623	7632
906.74	7643
906.857	7495
906.974	7590
907.091	7689
907.208	7677
907.324	7670
907.441	7529
907.557	7430
907.674	7445
907.79	7419
907.907	7381
908.023	7453
908.139	7438
908.256	7407
908.372	7369
908.488	7316
908.604	7263
908.72	7168
908.836	7270
908.952	7263
909.068	7209
909.184	7331
909.3	7244
909.415	7225
909.531	7305
909.647	7114
909.762	7145
909.878	7107
909.993	7152
910.108	7126
910.224	7103
910.339	7149
910.454	7027
910.57	6996
910.685	6947
910.8	7168
910.915	7080
911.03	6970
911.145	6993
911.259	6829
911.374	6852
911.489	6863
911.604	6818
911.718	6741
911.833	6707
911.947	6631
912.062	6589
912.176	6692
912.291	6684
912.405	6673
912.519	6829
912.633	6802
912.748	6734
912.862	6711
912.976	6620
913.09	6494
913.204	6582
913.318	6593
913.431	6730
913.545	6658
913.659	6669
913.772	6635
913.886	6536
914	6570
914.113	6559
914.226	6654
914.34	6593
914.453	6490
914.566	6612
914.68	6555
914.793	6506
914.906	6384
915.019	6429
915.132	6395
915.245	6342
915.358	6445
915.47	6399
915.583	6498
915.696	6540
915.809	6544
915.921	6525
916.034	6433
916.146	6410
916.259	6467
916.371	6471
916.483	6448
916.595	6403
916.708	6391
916.82	6380
916.932	6399
917.044	6407
917.156	6395
917.268	6323
917.38	6315
917.491	6361
917.603	6319
917.715	6346
917.826	6361
917.938	6342
918.049	6254
918.161	6338
918.272	6395
918.384	6479
918.495	6353
918.606	6273
918.717	6232
918.828	6228
918.939	6247
919.05	6228
919.161	6266
919.272	6076
919.383	6163
919.494	6346
919.604	6479
919.715	6243
919.826	6247
919.936	6281
920.047	6277
920.157	6308
920.267	6433
920.378	6292
920.488	6228
920.598	6452
920.708	6593
920.818	6464
920.928	6467
921.038	6604
921.148	6528
921.258	6304
921.368	6304
921.477	6201
921.587	6178
921.697	6102
921.806	6129
921.916	6076
922.025	5992
922.134	5920
922.244	5855
922.353	5882
922.462	5824
922.571	5794
922.68	5661
922.789	5630
922.898	5668
923.007	5634
923.116	5699
923.224	5665
923.333	5649
923.442	5615
923.55	5577
923.659	5585
923.767	5615
923.876	5551
923.984	5592
924.092	5509
924.201	5566
924.309	5539
924.417	5535
924.525	5467
924.633	5471
924.741	6243
924.849	5337
924.956	5463
925.064	5368
925.172	5246
925.279	5311
925.387	5303
925.494	5345
925.602	5421
925.709	5417
925.816	5246
925.924	5307
926.031	5357
926.138	5292
926.245	5311
926.352	5231
926.459	5292
926.566	5288
926.673	5212
926.779	5140
926.886	5056
926.993	5041
927.099	5010
927.206	5018
927.312	4976
927.419	5045
927.525	4991
927.631	4980
927.737	4866
927.843	4850
927.95	4759
928.056	4812
928.162	4824
928.267	4854
928.373	5318
928.479	4896
928.585	4702
928.69	4752
928.796	4786
928.901	4710
929.007	4546
929.112	4649
929.218	4603
929.323	4607
929.428	4538
929.533	4630
929.638	4569
929.743	4523
929.848	4542
929.953	4508
930.058	4462
930.163	4333
930.267	4333
930.372	4383
930.477	4318
930.581	4462
930.685	4314
930.79	4280
930.894	4249
930.998	4204
931.103	4367
931.207	4120
931.311	4086
931.415	4044
931.519	3949
931.623	3968
