Data from glass_V78500241_2040.txt Node
Date: Wed Sep 01 19:28:38 CST 2021
User: usil
Spectrometer: V785-0024
Trigger mode: 0
Integration Time (sec): 4.000000E-1
Scans to average: 1
Nonlinearity correction enabled: false
Boxcar width: 0
Storing dark spectrum: false
XAxis mode: Wavelengths
Number of Pixels in Spectrum: 1024
>>>>>Begin Spectral Data<<<<<
801.071	3743
801.214	3740
801.356	3717
801.499	3793
801.641	3778
801.783	3743
801.926	3854
802.068	3827
802.211	3842
802.353	3869
802.496	3816
802.638	3850
802.78	3915
802.923	3934
803.065	3903
803.208	3899
803.35	3892
803.492	3865
803.635	3911
803.777	3789
803.919	3918
804.061	4124
804.204	3987
804.346	3922
804.488	3937
804.63	4029
804.773	3972
804.915	4055
805.057	4162
805.199	4040
805.341	4071
805.483	4109
805.626	4120
805.768	4097
805.91	4242
806.052	4249
806.194	4211
806.336	4333
806.478	4227
806.62	4173
806.762	4196
806.904	4211
807.046	4371
807.188	4204
807.33	4162
807.472	4192
807.614	4196
807.756	4265
807.898	4200
808.04	4207
808.182	4291
808.324	4322
808.465	4325
808.607	4500
808.749	4462
808.891	4413
809.033	4481
809.174	4371
809.316	4242
809.458	4276
809.6	4109
809.741	4173
809.883	4147
810.025	4215
810.166	4223
810.308	4162
810.45	4215
810.591	4242
810.733	4265
810.875	4504
811.016	4831
811.158	5136
811.299	5258
811.441	5296
811.582	5045
811.724	4691
811.865	4424
812.007	4451
812.148	4470
812.29	4443
812.431	4390
812.573	4432
812.714	4352
812.855	4367
812.997	4371
813.138	4481
813.279	4436
813.421	4341
813.562	4386
813.703	4375
813.845	4295
813.986	4238
814.127	4173
814.268	4227
814.41	4257
814.551	4246
814.692	4329
814.833	4314
814.974	4314
815.115	4337
815.256	4238
815.397	4223
815.539	4314
815.68	4238
815.821	4234
815.962	4341
816.103	4287
816.244	4280
816.385	4219
816.526	4310
816.666	4204
816.807	4101
816.948	4181
817.089	4181
817.23	4112
817.371	4051
817.512	4090
817.653	4086
817.793	4036
817.934	4040
818.075	4101
818.216	4082
818.356	4116
818.497	3964
818.638	3899
818.778	3884
818.919	3888
819.06	3869
819.2	3899
819.341	3850
819.481	3812
819.622	3907
819.762	3987
819.903	3949
820.043	3857
820.184	3842
820.324	3819
820.465	3827
820.605	3876
820.746	3842
820.886	3793
821.026	3907
821.167	3941
821.307	3953
821.447	3987
821.588	3926
821.728	3953
821.868	3918
822.008	3835
822.149	3911
822.289	3865
822.429	3789
822.569	3736
822.709	3713
822.849	3656
822.99	3728
823.13	3717
823.27	3774
823.41	3671
823.55	3713
823.69	3698
823.83	3743
823.97	3671
824.11	3595
824.25	3534
824.389	3644
824.529	3648
824.669	3584
824.809	3709
824.949	3709
825.089	3743
825.228	3682
825.368	3587
825.508	3576
825.648	3572
825.787	3629
825.927	3580
826.067	3648
826.206	3675
826.346	3800
826.485	3835
826.625	3861
826.765	3941
826.904	3842
827.044	3618
827.183	3534
827.323	3420
827.462	3500
827.601	3477
827.741	3424
827.88	3428
828.02	3382
828.159	3462
828.298	3443
828.437	3504
828.577	3469
828.716	3538
828.855	3485
828.994	3416
829.134	3378
829.273	3367
829.412	3378
829.551	3310
829.69	3393
829.829	3466
829.968	3466
830.107	3447
830.246	3450
830.385	3393
830.524	3348
830.663	3336
830.802	3222
830.941	3214
831.08	3176
831.219	3268
831.357	3268
831.496	3416
831.635	3245
831.774	3176
831.913	3180
832.051	3123
832.19	3165
832.329	3207
832.467	3131
832.606	3077
832.744	3146
832.883	3207
833.022	3222
833.16	3264
833.299	3283
833.437	3310
833.576	3374
833.714	3420
833.852	3416
833.991	3450
834.129	3454
834.267	3393
834.406	3378
834.544	3447
834.682	3428
834.821	3435
834.959	3557
835.097	3428
835.235	3530
835.373	3507
835.511	3469
835.65	3412
835.788	3469
835.926	3424
836.064	3374
836.202	3378
836.34	3572
836.478	3610
836.615	3561
836.753	3629
836.891	3633
837.029	3610
837.167	3564
837.305	3557
837.443	3519
837.58	3473
837.718	3599
837.856	3568
837.993	3526
838.131	3614
838.269	3587
838.406	3587
838.544	3534
838.681	3488
838.819	3473
838.956	3420
839.094	3405
839.231	3424
839.369	3504
839.506	3724
839.643	3614
839.781	3469
839.918	3466
840.055	3496
840.193	3534
840.33	3545
840.467	3545
840.604	3644
840.742	3781
840.879	3523
841.016	3557
841.153	3614
841.29	3774
841.427	3709
841.564	3717
841.701	3759
841.838	3705
841.975	3709
842.112	3698
842.249	3686
842.385	3606
842.522	3793
842.659	3644
842.796	3656
842.933	3698
843.069	3713
843.206	3724
843.343	3800
843.479	3785
843.616	3838
843.752	3720
843.889	3679
844.025	3857
844.162	3698
844.298	3808
844.435	3800
844.571	3797
844.708	3876
844.844	4006
844.98	3991
845.117	4010
845.253	3880
845.389	3884
845.525	3899
845.661	3983
845.798	3903
845.934	3968
846.07	3915
846.206	3987
846.342	4135
846.478	4044
846.614	3941
846.75	3934
846.886	3941
847.022	4040
847.158	3987
847.294	4032
847.429	4032
847.565	3987
847.701	4261
847.837	3857
847.972	3861
848.108	3953
848.244	3953
848.379	3823
848.515	3842
848.65	3835
848.786	3816
848.921	3854
849.057	3907
849.192	3884
849.328	3911
849.463	3930
849.598	3903
849.734	3869
849.869	3838
850.004	3755
850.14	3797
850.275	3816
850.41	3740
850.545	3732
850.68	3781
850.815	3789
850.95	3766
851.085	3918
851.22	3846
851.355	3823
851.49	3778
851.625	3812
851.76	3812
851.895	3732
852.03	3732
852.165	3762
852.299	3850
852.434	3873
852.569	3854
852.703	3911
852.838	3896
852.973	3998
853.107	3972
853.242	3861
853.376	3888
853.511	3755
853.645	3827
853.78	3941
853.914	3911
854.048	3918
854.183	3865
854.317	3945
854.451	4055
854.585	3941
854.72	3926
854.854	4025
854.988	3880
855.122	3964
855.256	3945
855.39	4025
855.524	4093
855.658	4105
855.792	4078
855.926	4131
856.06	4135
856.194	4188
856.327	4128
856.461	4105
856.595	4131
856.729	4200
856.862	4287
856.996	4287
857.13	4306
857.263	4284
857.397	4360
857.53	4299
857.664	4383
857.797	4371
857.931	4421
858.064	4379
858.197	4413
858.331	4394
858.464	4367
858.597	4371
858.731	4455
858.864	4428
858.997	4409
859.13	4512
859.263	4516
859.396	4596
859.529	4504
859.662	4504
859.795	4538
859.928	4615
860.061	4626
860.194	4748
860.327	4599
860.46	4645
860.592	4694
860.725	4740
860.858	4752
860.99	4683
861.123	4694
861.256	4672
861.388	4755
861.521	5364
861.653	4729
861.786	4645
861.918	4793
862.05	4790
862.183	4797
862.315	4881
862.447	4927
862.58	4911
862.712	4790
862.844	4706
862.976	4885
863.108	4854
863.24	5220
863.372	4809
863.504	4885
863.636	4870
863.768	4949
863.9	4999
864.032	4949
864.164	4949
864.296	4987
864.428	5060
864.559	5048
864.691	5170
864.823	5151
864.954	5121
865.086	5140
865.217	5151
865.349	5109
865.48	5166
865.612	5239
865.743	5280
865.875	5204
866.006	5124
866.137	5242
866.269	5185
866.4	5227
866.531	5227
866.662	5235
866.793	5258
866.924	5330
867.055	5315
867.186	5318
867.317	5345
867.448	5246
867.579	5383
867.71	5360
867.841	5334
867.972	5452
868.103	5425
868.233	5490
868.364	5501
868.495	5535
868.625	5619
868.756	5783
868.886	5630
869.017	5707
869.147	5824
869.278	5798
869.408	5828
869.539	5882
869.669	5904
869.799	5885
869.929	5954
870.06	6053
870.19	6186
870.32	6178
870.45	6258
870.58	6338
870.71	6369
870.84	6460
870.97	6418
871.1	6467
871.23	6608
871.36	6696
871.489	6696
871.619	6700
871.749	6753
871.879	6856
872.008	6951
872.138	6947
872.267	6947
872.397	6989
872.526	7061
872.656	7088
872.785	7202
872.915	7354
873.044	7476
873.173	7556
873.303	7605
873.432	7788
873.561	7852
873.69	7917
873.819	7974
873.948	8168
874.077	8271
874.206	8309
874.335	8419
874.464	8625
874.593	8906
874.722	8971
874.851	9108
874.979	9233
875.108	9386
875.237	9359
875.365	9454
875.494	9671
875.623	9854
875.751	9827
875.88	9998
876.008	10154
876.136	10219
876.265	10481
876.393	10702
876.521	10706
876.65	10774
876.778	10858
876.906	10885
877.034	10980
877.162	11124
877.29	11075
877.418	11337
877.546	11395
877.674	11493
877.802	11509
877.93	11524
878.058	11551
878.185	11554
878.313	11634
878.441	11866
878.568	11699
878.696	11737
878.824	11863
878.951	11889
879.079	12015
879.206	12125
879.333	12068
879.461	11999
879.588	12041
879.715	12072
879.842	12243
879.97	12038
880.097	11866
880.224	11840
880.351	11927
880.478	11828
880.605	11843
880.732	11912
880.859	11988
880.986	11752
881.112	11824
881.239	11722
881.366	11668
881.493	11577
881.619	11570
881.746	11535
881.872	11455
881.999	11547
882.125	11467
882.252	11524
882.378	11558
882.505	11627
882.631	11349
882.757	11292
882.883	11250
883.01	11235
883.136	11170
883.262	11102
883.388	11010
883.514	11193
883.64	11151
883.766	11067
883.892	10930
884.018	11041
884.143	11048
884.269	11102
884.395	10877
884.52	10797
884.646	10786
884.772	10733
884.897	10752
885.023	10649
885.148	10733
885.274	10740
885.399	10694
885.524	10596
885.65	10561
885.775	10577
885.9	10531
886.025	10641
886.15	10561
886.275	10459
886.4	10421
886.525	10470
886.65	10375
886.775	10306
886.9	10489
887.025	10626
887.149	10386
887.274	10204
887.399	10109
887.523	10169
887.648	10158
887.773	10082
887.897	10219
888.021	10219
888.146	10044
888.27	10196
888.395	10181
888.519	10181
888.643	10120
888.767	10162
888.891	10082
889.015	10109
889.139	10055
889.263	9956
889.387	10116
889.511	10063
889.635	10090
889.759	9937
889.883	9972
890.006	9945
890.13	10002
890.254	9956
890.377	9945
890.501	9888
890.624	9838
890.748	9846
890.871	9781
890.995	9797
891.118	9713
891.241	9823
891.364	9781
891.488	9808
891.611	9770
891.734	9812
891.857	9747
891.98	9701
892.103	9728
892.226	9789
892.349	9698
892.471	9496
892.594	9580
892.717	9595
892.839	9641
892.962	9572
893.085	9641
893.207	9595
893.33	9507
893.452	9458
893.575	9572
893.697	9435
893.819	9694
893.941	9557
894.064	9618
894.186	9458
894.308	9397
894.43	9553
894.552	9515
894.674	9526
894.796	9488
894.918	9393
895.04	9336
895.161	9344
895.283	9317
895.405	9313
895.526	9298
895.648	9195
895.769	9294
895.891	9214
896.012	9256
896.134	9188
896.255	9180
896.376	9089
896.498	9097
896.619	9161
896.74	9154
896.861	9066
896.982	9230
897.103	9275
897.224	9104
897.345	9066
897.466	9062
897.587	9024
897.708	9066
897.828	9024
897.949	8944
898.07	8872
898.19	8960
898.311	8975
898.431	8925
898.552	8887
898.672	8925
898.792	8906
898.913	8895
899.033	8826
899.153	8739
899.273	8689
899.393	8708
899.513	8731
899.633	8708
899.753	8777
899.873	8777
899.993	8796
900.113	8693
900.232	8693
900.352	8651
900.472	8625
900.591	8503
900.711	8552
900.83	8560
900.95	8632
901.069	8648
901.189	8522
901.308	8442
901.427	8358
901.546	8434
901.665	8465
901.784	8533
901.904	8461
902.023	8309
902.141	8271
902.26	8229
902.379	8263
902.498	8183
902.617	8202
902.735	8328
902.854	8225
902.973	8252
903.091	8168
903.21	8115
903.328	8180
903.446	8081
903.565	8081
903.683	8039
903.801	8069
903.919	8138
904.038	8138
904.156	8008
904.274	8107
904.392	7986
904.51	8016
904.627	8039
904.745	8016
904.863	8103
904.981	7928
905.098	7814
905.216	7856
905.334	7928
905.451	7860
905.569	7818
905.686	7932
905.803	7944
905.921	7708
906.038	7871
906.155	7780
906.272	7681
906.389	7731
906.506	7616
906.623	7620
906.74	7651
906.857	7582
906.974	7559
907.091	7704
907.208	7685
907.324	7624
907.441	7578
907.557	7468
907.674	7464
907.79	7358
907.907	7396
908.023	7392
908.139	7411
908.256	7312
908.372	7320
908.488	7308
908.604	7320
908.72	7217
908.836	7297
908.952	7228
909.068	7274
909.184	7324
909.3	7289
909.415	7305
909.531	7293
909.647	7126
909.762	7107
909.878	7072
909.993	7076
910.108	7008
910.224	7069
910.339	7091
910.454	7099
910.57	7008
910.685	6924
910.8	7194
910.915	7027
911.03	7061
911.145	6924
911.259	6901
911.374	6825
911.489	6753
911.604	6818
911.718	6715
911.833	6734
911.947	6684
912.062	6582
912.176	6650
912.291	6734
912.405	6692
912.519	6802
912.633	6795
912.748	6768
912.862	6654
912.976	6608
913.09	6525
913.204	6574
913.318	6665
913.431	6700
913.545	6642
913.659	6646
913.772	6620
913.886	6566
914	6506
914.113	6604
914.226	6616
914.34	6597
914.453	6509
914.566	6642
914.68	6509
914.793	6536
914.906	6384
915.019	6441
915.132	6384
915.245	6429
915.358	6418
915.47	6437
915.583	6407
915.696	6486
915.809	6540
915.921	6574
916.034	6460
916.146	6441
916.259	6338
916.371	6513
916.483	6433
916.595	6384
916.708	6388
916.82	6418
916.932	6407
917.044	6433
917.156	6369
917.268	6361
917.38	6338
917.491	6308
917.603	6289
917.715	6380
917.826	6410
917.938	6277
918.049	6235
918.161	6319
918.272	6369
918.384	6483
918.495	6369
918.606	6220
918.717	6216
918.828	6254
918.939	6213
919.05	6224
919.161	6171
919.272	6133
919.383	6133
919.494	6292
919.604	6437
919.715	6315
919.826	6277
919.936	6266
920.047	6380
920.157	6251
920.267	6426
920.378	6350
920.488	6270
920.598	6483
920.708	6555
920.818	6483
920.928	6422
921.038	6582
921.148	6563
921.258	6342
921.368	6342
921.477	6235
921.587	6155
921.697	6076
921.806	6171
921.916	6068
922.025	5954
922.134	5973
922.244	5904
922.353	5958
922.462	5821
922.571	5790
922.68	5699
922.789	5649
922.898	5726
923.007	5634
923.116	5695
923.224	5646
923.333	5703
923.442	5611
923.55	5623
923.659	5562
923.767	5615
923.876	5592
923.984	5554
924.092	5505
924.201	5581
924.309	5528
924.417	5592
924.525	5509
924.633	5524
924.741	6213
924.849	5334
924.956	5455
925.064	5318
925.172	5288
925.279	5307
925.387	5349
925.494	5322
925.602	5391
925.709	5326
925.816	5265
925.924	5296
926.031	5326
926.138	5311
926.245	5299
926.352	5273
926.459	5353
926.566	5318
926.673	5201
926.779	5132
926.886	5132
926.993	5014
927.099	5033
927.206	4957
927.312	4965
927.419	5025
927.525	4927
927.631	5003
927.737	4885
927.843	4896
927.95	4755
928.056	4828
928.162	4824
928.267	4824
928.373	5273
928.479	4862
928.585	4687
928.69	4752
928.796	4744
928.901	4664
929.007	4538
929.112	4672
929.218	4637
929.323	4611
929.428	4569
929.533	4687
929.638	4535
929.743	4569
929.848	4569
929.953	4470
930.058	4409
930.163	4352
930.267	4322
930.372	4409
930.477	4291
930.581	4481
930.685	4337
930.79	4253
930.894	4204
930.998	4227
931.103	4386
931.207	4139
931.311	4078
931.415	4017
931.519	3918
931.623	3983
