Data from glass_V78500241_2660.txt Node
Date: Wed Sep 01 19:32:56 CST 2021
User: usil
Spectrometer: V785-0024
Trigger mode: 0
Integration Time (sec): 4.000000E-1
Scans to average: 1
Nonlinearity correction enabled: false
Boxcar width: 0
Storing dark spectrum: false
XAxis mode: Wavelengths
Number of Pixels in Spectrum: 1024
>>>>>Begin Spectral Data<<<<<
801.071	3743
801.214	3728
801.356	3671
801.499	3717
801.641	3686
801.783	3800
801.926	3888
802.068	3800
802.211	3854
802.353	3918
802.496	3842
802.638	3838
802.78	3857
802.923	3896
803.065	3888
803.208	3869
803.35	3861
803.492	3880
803.635	3907
803.777	3804
803.919	3880
804.061	4112
804.204	3968
804.346	3903
804.488	3907
804.63	4059
804.773	3968
804.915	3987
805.057	4181
805.199	4051
805.341	4112
805.483	4131
805.626	4135
805.768	4139
805.91	4204
806.052	4215
806.194	4124
806.336	4341
806.478	4188
806.62	4154
806.762	4147
806.904	4246
807.046	4299
807.188	4181
807.33	4135
807.472	4249
807.614	4131
807.756	4215
807.898	4204
808.04	4200
808.182	4272
808.324	4333
808.465	4356
808.607	4421
808.749	4440
808.891	4485
809.033	4516
809.174	4363
809.316	4268
809.458	4257
809.6	4166
809.741	4131
809.883	4120
810.025	4234
810.166	4207
810.308	4188
810.45	4268
810.591	4200
810.733	4299
810.875	4497
811.016	4812
811.158	5071
811.299	5250
811.441	5261
811.582	5037
811.724	4714
811.865	4459
812.007	4443
812.148	4409
812.29	4386
812.431	4413
812.573	4409
812.714	4329
812.855	4383
812.997	4436
813.138	4466
813.279	4402
813.421	4390
813.562	4360
813.703	4314
813.845	4310
813.986	4253
814.127	4257
814.268	4215
814.41	4276
814.551	4185
814.692	4333
814.833	4230
814.974	4291
815.115	4344
815.256	4230
815.397	4227
815.539	4242
815.68	4227
815.821	4211
815.962	4306
816.103	4299
816.244	4238
816.385	4143
816.526	4284
816.666	4200
816.807	4109
816.948	4128
817.089	4173
817.23	4097
817.371	4036
817.512	4067
817.653	4078
817.793	3998
817.934	4032
818.075	4021
818.216	4063
818.356	4116
818.497	3972
818.638	3899
818.778	3903
818.919	3934
819.06	3850
819.2	3930
819.341	3831
819.481	3819
819.622	3907
819.762	4013
819.903	3975
820.043	3842
820.184	3800
820.324	3823
820.465	3876
820.605	3835
820.746	3861
820.886	3793
821.026	3911
821.167	3873
821.307	3934
821.447	3945
821.588	3945
821.728	3937
821.868	3899
822.008	3804
822.149	3876
822.289	3892
822.429	3778
822.569	3766
822.709	3838
822.849	3671
822.99	3686
823.13	3724
823.27	3720
823.41	3675
823.55	3698
823.69	3709
823.83	3720
823.97	3660
824.11	3610
824.25	3561
824.389	3633
824.529	3667
824.669	3629
824.809	3713
824.949	3724
825.089	3709
825.228	3682
825.368	3595
825.508	3561
825.648	3564
825.787	3614
825.927	3641
826.067	3603
826.206	3637
826.346	3751
826.485	3816
826.625	3850
826.765	3922
826.904	3838
827.044	3618
827.183	3534
827.323	3454
827.462	3496
827.601	3439
827.741	3397
827.88	3405
828.02	3389
828.159	3485
828.298	3507
828.437	3496
828.577	3462
828.716	3584
828.855	3485
828.994	3370
829.134	3382
829.273	3386
829.412	3313
829.551	3332
829.69	3355
829.829	3386
829.968	3496
830.107	3424
830.246	3435
830.385	3332
830.524	3313
830.663	3279
830.802	3218
830.941	3180
831.08	3188
831.219	3241
831.357	3256
831.496	3370
831.635	3222
831.774	3176
831.913	3195
832.051	3146
832.19	3135
832.329	3207
832.467	3089
832.606	3097
832.744	3173
832.883	3173
833.022	3180
833.16	3245
833.299	3264
833.437	3298
833.576	3351
833.714	3431
833.852	3447
833.991	3420
834.129	3477
834.267	3439
834.406	3424
834.544	3416
834.682	3386
834.821	3389
834.959	3584
835.097	3424
835.235	3545
835.373	3447
835.511	3450
835.65	3466
835.788	3492
835.926	3370
836.064	3340
836.202	3397
836.34	3549
836.478	3595
836.615	3534
836.753	3568
836.891	3610
837.029	3572
837.167	3595
837.305	3587
837.443	3523
837.58	3481
837.718	3576
837.856	3542
837.993	3545
838.131	3584
838.269	3534
838.406	3606
838.544	3553
838.681	3450
838.819	3435
838.956	3355
839.094	3389
839.231	3401
839.369	3507
839.506	3701
839.643	3622
839.781	3405
839.918	3458
840.055	3492
840.193	3530
840.33	3496
840.467	3580
840.604	3580
840.742	3789
840.879	3591
841.016	3557
841.153	3580
841.29	3747
841.427	3709
841.564	3682
841.701	3717
841.838	3682
841.975	3667
842.112	3679
842.249	3610
842.385	3591
842.522	3816
842.659	3698
842.796	3694
842.933	3713
843.069	3717
843.206	3686
843.343	3804
843.479	3778
843.616	3823
843.752	3644
843.889	3682
844.025	3865
844.162	3751
844.298	3842
844.435	3789
844.571	3762
844.708	3861
844.844	3979
844.98	3998
845.117	3998
845.253	3918
845.389	3915
845.525	3972
845.661	3949
845.798	3937
845.934	3987
846.07	3956
846.206	4013
846.342	4150
846.478	4036
846.614	3975
846.75	3949
846.886	3899
847.022	4078
847.158	3953
847.294	4021
847.429	4013
847.565	3949
847.701	4204
847.837	3884
847.972	3857
848.108	4002
848.244	3960
848.379	3854
848.515	3797
848.65	3816
848.786	3827
848.921	3884
849.057	3926
849.192	3892
849.328	3831
849.463	3922
849.598	3896
849.734	3861
849.869	3850
850.004	3797
850.14	3800
850.275	3793
850.41	3694
850.545	3755
850.68	3759
850.815	3823
850.95	3812
851.085	3918
851.22	3827
851.355	3804
851.49	3781
851.625	3793
851.76	3854
851.895	3759
852.03	3720
852.165	3781
852.299	3827
852.434	3854
852.569	3835
852.703	3850
852.838	3922
852.973	3987
853.107	3987
853.242	3816
853.376	3842
853.511	3808
853.645	3827
853.78	3937
853.914	3846
854.048	3888
854.183	3899
854.317	3888
854.451	4055
854.585	3915
854.72	3934
854.854	4002
854.988	3880
855.122	4002
855.256	3876
855.39	4006
855.524	4101
855.658	4063
855.792	4055
855.926	4131
856.06	4131
856.194	4166
856.327	4150
856.461	4135
856.595	4120
856.729	4131
856.862	4246
856.996	4207
857.13	4306
857.263	4325
857.397	4306
857.53	4242
857.664	4329
857.797	4337
857.931	4398
858.064	4386
858.197	4405
858.331	4402
858.464	4371
858.597	4325
858.731	4436
858.864	4470
858.997	4447
859.13	4523
859.263	4447
859.396	4558
859.529	4508
859.662	4512
859.795	4508
859.928	4538
860.061	4683
860.194	4763
860.327	4653
860.46	4641
860.592	4694
860.725	4755
860.858	4736
860.99	4687
861.123	4675
861.256	4679
861.388	4774
861.521	5417
861.653	4710
861.786	4672
861.918	4729
862.05	4805
862.183	4816
862.315	4847
862.447	4889
862.58	4904
862.712	4790
862.844	4755
862.976	4870
863.108	4824
863.24	5227
863.372	4790
863.504	4847
863.636	4881
863.768	4949
863.9	4949
864.032	4892
864.164	4965
864.296	5010
864.428	5060
864.559	5041
864.691	5105
864.823	5143
864.954	5117
865.086	5128
865.217	5124
865.349	5113
865.48	5143
865.612	5159
865.743	5303
865.875	5201
866.006	5117
866.137	5239
866.269	5231
866.4	5246
866.531	5174
866.662	5231
866.793	5216
866.924	5250
867.055	5376
867.186	5315
867.317	5337
867.448	5292
867.579	5372
867.71	5395
867.841	5357
867.972	5455
868.103	5493
868.233	5505
868.364	5474
868.495	5528
868.625	5653
868.756	5756
868.886	5592
869.017	5726
869.147	5855
869.278	5817
869.408	5790
869.539	5805
869.669	5942
869.799	5931
869.929	5942
870.06	5965
870.19	6239
870.32	6171
870.45	6182
870.58	6308
870.71	6445
870.84	6410
870.97	6403
871.1	6433
871.23	6616
871.36	6730
871.489	6635
871.619	6677
871.749	6821
871.879	6818
872.008	6996
872.138	6939
872.267	6981
872.397	7008
872.526	6989
872.656	7118
872.785	7133
872.915	7381
873.044	7476
873.173	7540
873.303	7594
873.432	7738
873.561	7887
873.69	7883
873.819	7974
873.948	8161
874.077	8248
874.206	8339
874.335	8415
874.464	8636
874.593	8842
874.722	8861
874.851	9154
874.979	9195
875.108	9329
875.237	9416
875.365	9507
875.494	9701
875.623	9876
875.751	9842
875.88	9991
876.008	10101
876.136	10219
876.265	10474
876.393	10660
876.521	10736
876.65	10831
876.778	10908
876.906	10889
877.034	10987
877.162	11094
877.29	11094
877.418	11303
877.546	11296
877.674	11509
877.802	11547
877.93	11497
878.058	11543
878.185	11554
878.313	11649
878.441	11699
878.568	11615
878.696	11813
878.824	11805
878.951	11923
879.079	11988
879.206	12121
879.333	12060
879.461	11901
879.588	12091
879.715	12129
879.842	12190
879.97	11999
880.097	11912
880.224	11821
880.351	11771
880.478	11851
880.605	11908
880.732	11786
880.859	11912
880.986	11855
881.112	11813
881.239	11733
881.366	11615
881.493	11661
881.619	11524
881.746	11535
881.872	11528
881.999	11497
882.125	11501
882.252	11585
882.378	11509
882.505	11562
882.631	11311
882.757	11315
882.883	11292
883.01	11216
883.136	11193
883.262	11128
883.388	11045
883.514	11261
883.64	11235
883.766	11060
883.892	11018
884.018	11033
884.143	11090
884.269	11121
884.395	10873
884.52	10740
884.646	10816
884.772	10675
884.897	10660
885.023	10660
885.148	10763
885.274	10740
885.399	10725
885.524	10596
885.65	10584
885.775	10668
885.9	10615
886.025	10584
886.15	10561
886.275	10512
886.4	10375
886.525	10379
886.65	10379
886.775	10284
886.9	10443
887.025	10554
887.149	10303
887.274	10253
887.399	10284
887.523	10192
887.648	10147
887.773	10188
887.897	10272
888.021	10234
888.146	10124
888.27	10310
888.395	10158
888.519	10211
888.643	10090
888.767	10185
888.891	9987
889.015	10036
889.139	10059
889.263	9960
889.387	10040
889.511	10139
889.635	10032
889.759	9987
889.883	9972
890.006	9953
890.13	10097
890.254	9850
890.377	9968
890.501	9854
890.624	9895
890.748	9857
890.871	9812
890.995	9682
891.118	9705
891.241	9785
891.364	9751
891.488	9789
891.611	9740
891.734	9755
891.857	9774
891.98	9759
892.103	9622
892.226	9759
892.349	9682
892.471	9504
892.594	9648
892.717	9580
892.839	9561
892.962	9580
893.085	9584
893.207	9526
893.33	9435
893.452	9526
893.575	9584
893.697	9447
893.819	9667
893.941	9606
894.064	9545
894.186	9370
894.308	9329
894.43	9507
894.552	9561
894.674	9492
894.796	9351
894.918	9378
895.04	9306
895.161	9363
895.283	9401
895.405	9203
895.526	9283
895.648	9264
895.769	9233
895.891	9230
896.012	9275
896.134	9226
896.255	9173
896.376	9138
896.498	9138
896.619	9085
896.74	9043
896.861	9074
896.982	9279
897.103	9298
897.224	9077
897.345	9036
897.466	9047
897.587	9001
897.708	9074
897.828	9119
897.949	8933
898.07	8876
898.19	8880
898.311	8956
898.431	8941
898.552	8933
898.672	9020
898.792	8925
898.913	8975
899.033	8857
899.153	8754
899.273	8644
899.393	8663
899.513	8731
899.633	8712
899.753	8686
899.873	8708
899.993	8731
900.113	8735
900.232	8705
900.352	8655
900.472	8648
900.591	8541
900.711	8587
900.83	8560
900.95	8678
901.069	8777
901.189	8533
901.308	8427
901.427	8332
901.546	8488
901.665	8492
901.784	8480
901.904	8408
902.023	8294
902.141	8157
902.26	8229
902.379	8195
902.498	8134
902.617	8244
902.735	8240
902.854	8328
902.973	8233
903.091	8092
903.21	8088
903.328	8111
903.446	8130
903.565	8134
903.683	8046
903.801	8039
903.919	8062
904.038	8134
904.156	8077
904.274	8084
904.392	8039
904.51	8031
904.627	8092
904.745	8027
904.863	8100
904.981	7970
905.098	7928
905.216	7803
905.334	7906
905.451	7940
905.569	7887
905.686	7963
905.803	7932
905.921	7837
906.038	7902
906.155	7803
906.272	7704
906.389	7677
906.506	7620
906.623	7651
906.74	7556
906.857	7548
906.974	7521
907.091	7643
907.208	7772
907.324	7662
907.441	7499
907.557	7457
907.674	7407
907.79	7331
907.907	7346
908.023	7411
908.139	7373
908.256	7365
908.372	7377
908.488	7339
908.604	7289
908.72	7266
908.836	7221
908.952	7255
909.068	7228
909.184	7255
909.3	7247
909.415	7228
909.531	7320
909.647	7129
909.762	7084
909.878	7069
909.993	7050
910.108	7088
910.224	7012
910.339	7072
910.454	7027
910.57	7004
910.685	6947
910.8	7160
910.915	7088
911.03	7023
911.145	7012
911.259	6852
911.374	6848
911.489	6833
911.604	6840
911.718	6722
911.833	6711
911.947	6623
912.062	6593
912.176	6654
912.291	6749
912.405	6719
912.519	6795
912.633	6810
912.748	6745
912.862	6700
912.976	6654
913.09	6525
913.204	6517
913.318	6582
913.431	6684
913.545	6627
913.659	6707
913.772	6642
913.886	6540
914	6475
914.113	6574
914.226	6574
914.34	6547
914.453	6452
914.566	6597
914.68	6521
914.793	6506
914.906	6380
915.019	6490
915.132	6376
915.245	6361
915.358	6429
915.47	6448
915.583	6433
915.696	6410
915.809	6528
915.921	6479
916.034	6407
916.146	6334
916.259	6407
916.371	6445
916.483	6410
916.595	6376
916.708	6426
916.82	6361
916.932	6395
917.044	6422
917.156	6395
917.268	6342
917.38	6342
917.491	6281
917.603	6353
917.715	6384
917.826	6407
917.938	6357
918.049	6232
918.161	6311
918.272	6361
918.384	6422
918.495	6308
918.606	6224
918.717	6163
918.828	6247
918.939	6239
919.05	6232
919.161	6281
919.272	6091
919.383	6152
919.494	6266
919.604	6414
919.715	6266
919.826	6190
919.936	6247
920.047	6308
920.157	6224
920.267	6445
920.378	6311
920.488	6277
920.598	6426
920.708	6532
920.818	6429
920.928	6441
921.038	6635
921.148	6574
921.258	6346
921.368	6247
921.477	6171
921.587	6216
921.697	6095
921.806	6190
921.916	6053
922.025	5958
922.134	5912
922.244	5942
922.353	5927
922.462	5824
922.571	5817
922.68	5718
922.789	5653
922.898	5748
923.007	5585
923.116	5733
923.224	5657
923.333	5585
923.442	5611
923.55	5562
923.659	5554
923.767	5524
923.876	5585
923.984	5592
924.092	5497
924.201	5505
924.309	5497
924.417	5547
924.525	5463
924.633	5509
924.741	6277
924.849	5368
924.956	5490
925.064	5360
925.172	5269
925.279	5330
925.387	5322
925.494	5303
925.602	5417
925.709	5368
925.816	5235
925.924	5261
926.031	5337
926.138	5303
926.245	5299
926.352	5246
926.459	5292
926.566	5349
926.673	5220
926.779	5143
926.886	5109
926.993	5056
927.099	5010
927.206	4961
927.312	4965
927.419	4957
927.525	4927
927.631	4999
927.737	4881
927.843	4850
927.95	4755
928.056	4812
928.162	4793
928.267	4877
928.373	5258
928.479	4828
928.585	4622
928.69	4778
928.796	4729
928.901	4683
929.007	4607
929.112	4637
929.218	4649
929.323	4577
929.428	4565
929.533	4672
929.638	4550
929.743	4508
929.848	4588
929.953	4504
930.058	4421
930.163	4322
930.267	4367
930.372	4402
930.477	4295
930.581	4504
930.685	4341
930.79	4227
930.894	4261
930.998	4246
931.103	4402
931.207	4105
931.311	4090
931.415	4017
931.519	3930
931.623	3911
