Data from glass_V78500241_2338.txt Node
Date: Wed Sep 01 19:30:42 CST 2021
User: usil
Spectrometer: V785-0024
Trigger mode: 0
Integration Time (sec): 4.000000E-1
Scans to average: 1
Nonlinearity correction enabled: false
Boxcar width: 0
Storing dark spectrum: false
XAxis mode: Wavelengths
Number of Pixels in Spectrum: 1024
>>>>>Begin Spectral Data<<<<<
801.071	3713
801.214	3766
801.356	3694
801.499	3701
801.641	3690
801.783	3747
801.926	3857
802.068	3857
802.211	3854
802.353	3838
802.496	3861
802.638	3865
802.78	3892
802.923	3888
803.065	3869
803.208	3835
803.35	3884
803.492	3899
803.635	3892
803.777	3816
803.919	3915
804.061	4131
804.204	3934
804.346	3899
804.488	3937
804.63	4044
804.773	3937
804.915	3994
805.057	4162
805.199	4017
805.341	4059
805.483	4181
805.626	4131
805.768	4101
805.91	4162
806.052	4265
806.194	4230
806.336	4276
806.478	4185
806.62	4150
806.762	4177
806.904	4223
807.046	4352
807.188	4215
807.33	4143
807.472	4223
807.614	4196
807.756	4257
807.898	4234
808.04	4242
808.182	4299
808.324	4310
808.465	4383
808.607	4440
808.749	4436
808.891	4424
809.033	4497
809.174	4394
809.316	4280
809.458	4246
809.6	4120
809.741	4162
809.883	4150
810.025	4207
810.166	4177
810.308	4196
810.45	4238
810.591	4249
810.733	4280
810.875	4519
811.016	4854
811.158	5147
811.299	5254
811.441	5235
811.582	5067
811.724	4748
811.865	4459
812.007	4459
812.148	4447
812.29	4421
812.431	4421
812.573	4363
812.714	4360
812.855	4386
812.997	4455
813.138	4424
813.279	4440
813.421	4352
813.562	4371
813.703	4337
813.845	4268
813.986	4223
814.127	4257
814.268	4219
814.41	4219
814.551	4265
814.692	4329
814.833	4227
814.974	4291
815.115	4325
815.256	4242
815.397	4219
815.539	4230
815.68	4150
815.821	4234
815.962	4314
816.103	4265
816.244	4249
816.385	4204
816.526	4215
816.666	4158
816.807	4116
816.948	4185
817.089	4185
817.23	4112
817.371	4048
817.512	3972
817.653	4101
817.793	4025
817.934	4055
818.075	4090
818.216	4063
818.356	4063
818.497	3983
818.638	3911
818.778	3888
818.919	3876
819.06	3816
819.2	3953
819.341	3888
819.481	3854
819.622	3922
819.762	4006
819.903	4002
820.043	3869
820.184	3842
820.324	3831
820.465	3899
820.605	3838
820.746	3873
820.886	3781
821.026	3911
821.167	3911
821.307	3941
821.447	3968
821.588	3922
821.728	3956
821.868	3915
822.008	3896
822.149	3915
822.289	3903
822.429	3831
822.569	3751
822.709	3797
822.849	3720
822.99	3720
823.13	3736
823.27	3759
823.41	3694
823.55	3751
823.69	3701
823.83	3667
823.97	3679
824.11	3637
824.25	3591
824.389	3625
824.529	3633
824.669	3618
824.809	3690
824.949	3778
825.089	3705
825.228	3732
825.368	3580
825.508	3523
825.648	3572
825.787	3610
825.927	3618
826.067	3595
826.206	3644
826.346	3766
826.485	3793
826.625	3854
826.765	3964
826.904	3778
827.044	3606
827.183	3507
827.323	3401
827.462	3450
827.601	3397
827.741	3382
827.88	3443
828.02	3378
828.159	3447
828.298	3462
828.437	3507
828.577	3447
828.716	3610
828.855	3481
828.994	3374
829.134	3367
829.273	3378
829.412	3317
829.551	3336
829.69	3355
829.829	3409
829.968	3488
830.107	3424
830.246	3393
830.385	3370
830.524	3374
830.663	3321
830.802	3264
830.941	3195
831.08	3192
831.219	3245
831.357	3256
831.496	3409
831.635	3237
831.774	3203
831.913	3233
832.051	3119
832.19	3100
832.329	3165
832.467	3142
832.606	3074
832.744	3154
832.883	3176
833.022	3199
833.16	3245
833.299	3313
833.437	3351
833.576	3382
833.714	3386
833.852	3401
833.991	3450
834.129	3447
834.267	3416
834.406	3359
834.544	3420
834.682	3386
834.821	3393
834.959	3584
835.097	3431
835.235	3515
835.373	3447
835.511	3473
835.65	3397
835.788	3507
835.926	3393
836.064	3370
836.202	3405
836.34	3557
836.478	3606
836.615	3561
836.753	3564
836.891	3606
837.029	3663
837.167	3576
837.305	3534
837.443	3523
837.58	3519
837.718	3606
837.856	3568
837.993	3496
838.131	3595
838.269	3584
838.406	3591
838.544	3553
838.681	3447
838.819	3454
838.956	3389
839.094	3386
839.231	3481
839.369	3511
839.506	3720
839.643	3610
839.781	3526
839.918	3443
840.055	3549
840.193	3542
840.33	3507
840.467	3504
840.604	3606
840.742	3800
840.879	3568
841.016	3553
841.153	3591
841.29	3728
841.427	3698
841.564	3694
841.701	3709
841.838	3671
841.975	3667
842.112	3736
842.249	3603
842.385	3618
842.522	3808
842.659	3686
842.796	3660
842.933	3720
843.069	3690
843.206	3694
843.343	3835
843.479	3778
843.616	3816
843.752	3644
843.889	3644
844.025	3812
844.162	3694
844.298	3869
844.435	3755
844.571	3743
844.708	3915
844.844	4021
844.98	4017
845.117	4059
845.253	3937
845.389	3899
845.525	3956
845.661	3937
845.798	3899
845.934	3994
846.07	3960
846.206	4006
846.342	4071
846.478	4082
846.614	3972
846.75	3926
846.886	3899
847.022	4010
847.158	3972
847.294	4010
847.429	4017
847.565	3968
847.701	4211
847.837	3850
847.972	3854
848.108	3960
848.244	3949
848.379	3857
848.515	3831
848.65	3823
848.786	3865
848.921	3819
849.057	3884
849.192	3945
849.328	3918
849.463	3922
849.598	3892
849.734	3857
849.869	3816
850.004	3793
850.14	3789
850.275	3789
850.41	3709
850.545	3755
850.68	3797
850.815	3835
850.95	3789
851.085	3934
851.22	3850
851.355	3755
851.49	3770
851.625	3816
851.76	3781
851.895	3762
852.03	3747
852.165	3808
852.299	3831
852.434	3869
852.569	3873
852.703	3869
852.838	3960
852.973	3994
853.107	3979
853.242	3850
853.376	3804
853.511	3781
853.645	3823
853.78	3918
853.914	3918
854.048	3911
854.183	3876
854.317	3941
854.451	4082
854.585	3983
854.72	3915
854.854	4074
854.988	3907
855.122	3975
855.256	3907
855.39	4006
855.524	4059
855.658	4048
855.792	4135
855.926	4162
856.06	4188
856.194	4261
856.327	4143
856.461	4128
856.595	4147
856.729	4158
856.862	4295
856.996	4223
857.13	4280
857.263	4329
857.397	4287
857.53	4230
857.664	4337
857.797	4424
857.931	4424
858.064	4356
858.197	4436
858.331	4405
858.464	4375
858.597	4322
858.731	4405
858.864	4424
858.997	4421
859.13	4470
859.263	4527
859.396	4584
859.529	4497
859.662	4531
859.795	4538
859.928	4588
860.061	4664
860.194	4679
860.327	4645
860.46	4641
860.592	4759
860.725	4782
860.858	4752
860.99	4630
861.123	4729
861.256	4702
861.388	4774
861.521	5220
861.653	4721
861.786	4672
861.918	4740
862.05	4786
862.183	4835
862.315	4896
862.447	4904
862.58	4835
862.712	4771
862.844	4759
862.976	4923
863.108	4866
863.24	5159
863.372	4786
863.504	4900
863.636	4892
863.768	4938
863.9	5003
864.032	4942
864.164	4896
864.296	5018
864.428	5083
864.559	5083
864.691	5067
864.823	5067
864.954	5162
865.086	5113
865.217	5094
865.349	5090
865.48	5178
865.612	5121
865.743	5284
865.875	5181
866.006	5197
866.137	5189
866.269	5231
866.4	5239
866.531	5220
866.662	5223
866.793	5242
866.924	5284
867.055	5345
867.186	5250
867.317	5349
867.448	5326
867.579	5383
867.71	5368
867.841	5307
867.972	5452
868.103	5444
868.233	5433
868.364	5459
868.495	5539
868.625	5665
868.756	5832
868.886	5627
869.017	5726
869.147	5851
869.278	5828
869.408	5809
869.539	5840
869.669	5939
869.799	5893
869.929	5969
870.06	5935
870.19	6133
870.32	6140
870.45	6254
870.58	6296
870.71	6452
870.84	6452
870.97	6407
871.1	6391
871.23	6570
871.36	6681
871.489	6703
871.619	6692
871.749	6745
871.879	6886
872.008	6993
872.138	6966
872.267	6985
872.397	6989
872.526	6993
872.656	7038
872.785	7198
872.915	7320
873.044	7567
873.173	7499
873.303	7639
873.432	7704
873.561	7925
873.69	7967
873.819	7970
873.948	8153
874.077	8229
874.206	8339
874.335	8434
874.464	8682
874.593	8861
874.722	8880
874.851	9116
874.979	9222
875.108	9443
875.237	9389
875.365	9428
875.494	9637
875.623	9762
875.751	9766
875.88	10067
876.008	10101
876.136	10173
876.265	10588
876.393	10702
876.521	10763
876.65	10812
876.778	10854
876.906	10885
877.034	10976
877.162	11079
877.29	11143
877.418	11288
877.546	11448
877.674	11562
877.802	11410
877.93	11524
878.058	11471
878.185	11577
878.313	11668
878.441	11722
878.568	11726
878.696	11752
878.824	11889
878.951	11863
879.079	11973
879.206	12178
879.333	12053
879.461	11916
879.588	12136
879.715	12140
879.842	12197
879.97	12106
880.097	11923
880.224	11847
880.351	11840
880.478	11863
880.605	11866
880.732	11840
880.859	12011
880.986	11756
881.112	11851
881.239	11707
881.366	11668
881.493	11668
881.619	11501
881.746	11646
881.872	11478
881.999	11474
882.125	11459
882.252	11600
882.378	11440
882.505	11573
882.631	11299
882.757	11318
882.883	11292
883.01	11216
883.136	11201
883.262	11174
883.388	11075
883.514	11231
883.64	11174
883.766	10995
883.892	11010
884.018	10968
884.143	11037
884.269	11117
884.395	10736
884.52	10774
884.646	10752
884.772	10702
884.897	10653
885.023	10672
885.148	10679
885.274	10771
885.399	10710
885.524	10615
885.65	10584
885.775	10588
885.9	10531
886.025	10512
886.15	10588
886.275	10493
886.4	10432
886.525	10371
886.65	10348
886.775	10333
886.9	10462
887.025	10538
887.149	10360
887.274	10268
887.399	10135
887.523	10169
887.648	10207
887.773	10131
887.897	10207
888.021	10219
888.146	10124
888.27	10215
888.395	10128
888.519	10147
888.643	10120
888.767	10227
888.891	10109
889.015	9972
889.139	10105
889.263	9937
889.387	10002
889.511	10044
889.635	10067
889.759	9972
889.883	9953
890.006	9998
890.13	10105
890.254	9991
890.377	9968
890.501	9846
890.624	9884
890.748	9861
890.871	9812
890.995	9755
891.118	9633
891.241	9804
891.364	9800
891.488	9888
891.611	9740
891.734	9743
891.857	9804
891.98	9698
892.103	9675
892.226	9778
892.349	9675
892.471	9526
892.594	9530
892.717	9587
892.839	9584
892.962	9618
893.085	9663
893.207	9603
893.33	9530
893.452	9488
893.575	9633
893.697	9439
893.819	9561
893.941	9587
894.064	9515
894.186	9393
894.308	9359
894.43	9481
894.552	9580
894.674	9576
894.796	9363
894.918	9416
895.04	9367
895.161	9351
895.283	9340
895.405	9272
895.526	9275
895.648	9272
895.769	9249
895.891	9233
896.012	9287
896.134	9245
896.255	9169
896.376	9112
896.498	9097
896.619	9173
896.74	9062
896.861	9142
896.982	9245
897.103	9291
897.224	9165
897.345	9032
897.466	8963
897.587	8990
897.708	9081
897.828	9089
897.949	8899
898.07	8853
898.19	8906
898.311	9032
898.431	8887
898.552	8899
898.672	8998
898.792	8921
898.913	8914
899.033	8868
899.153	8724
899.273	8651
899.393	8701
899.513	8781
899.633	8697
899.753	8769
899.873	8674
899.993	8663
900.113	8686
900.232	8739
900.352	8625
900.472	8636
900.591	8575
900.711	8556
900.83	8579
900.95	8697
901.069	8705
901.189	8579
901.308	8366
901.427	8381
901.546	8450
901.665	8412
901.784	8473
901.904	8366
902.023	8355
902.141	8206
902.26	8206
902.379	8256
902.498	8240
902.617	8271
902.735	8244
902.854	8290
902.973	8191
903.091	8138
903.21	8142
903.328	8103
903.446	8107
903.565	8039
903.683	8077
903.801	8062
903.919	8130
904.038	8100
904.156	8092
904.274	8081
904.392	8001
904.51	8088
904.627	8058
904.745	8027
904.863	8084
904.981	7875
905.098	7894
905.216	7875
905.334	7883
905.451	7898
905.569	7921
905.686	7875
905.803	7822
905.921	7761
906.038	7879
906.155	7822
906.272	7715
906.389	7757
906.506	7655
906.623	7639
906.74	7609
906.857	7544
906.974	7571
907.091	7670
907.208	7719
907.324	7639
907.441	7506
907.557	7400
907.674	7483
907.79	7392
907.907	7396
908.023	7430
908.139	7449
908.256	7331
908.372	7305
908.488	7320
908.604	7305
908.72	7247
908.836	7278
908.952	7266
909.068	7232
909.184	7327
909.3	7202
909.415	7297
909.531	7247
909.647	7118
909.762	7091
909.878	7137
909.993	7175
910.108	7091
910.224	7103
910.339	7107
910.454	7019
910.57	7023
910.685	6985
910.8	7126
910.915	7129
911.03	6977
911.145	6848
911.259	6886
911.374	6859
911.489	6806
911.604	6871
911.718	6700
911.833	6722
911.947	6681
912.062	6585
912.176	6654
912.291	6650
912.405	6669
912.519	6818
912.633	6783
912.748	6741
912.862	6696
912.976	6604
913.09	6528
913.204	6559
913.318	6646
913.431	6684
913.545	6635
913.659	6768
913.772	6616
913.886	6525
914	6585
914.113	6563
914.226	6601
914.34	6532
914.453	6509
914.566	6555
914.68	6517
914.793	6525
914.906	6350
915.019	6365
915.132	6391
915.245	6346
915.358	6506
915.47	6494
915.583	6460
915.696	6486
915.809	6525
915.921	6532
916.034	6437
916.146	6369
916.259	6376
916.371	6464
916.483	6498
916.595	6426
916.708	6384
916.82	6403
916.932	6346
917.044	6391
917.156	6376
917.268	6327
917.38	6289
917.491	6361
917.603	6350
917.715	6391
917.826	6384
917.938	6289
918.049	6205
918.161	6334
918.272	6388
918.384	6426
918.495	6342
918.606	6178
918.717	6235
918.828	6220
918.939	6270
919.05	6235
919.161	6266
919.272	6076
919.383	6159
919.494	6273
919.604	6410
919.715	6270
919.826	6163
919.936	6281
920.047	6315
920.157	6232
920.267	6426
920.378	6247
920.488	6254
920.598	6448
920.708	6544
920.818	6437
920.928	6376
921.038	6604
921.148	6544
921.258	6342
921.368	6273
921.477	6194
921.587	6167
921.697	6060
921.806	6136
921.916	6038
922.025	5999
922.134	5927
922.244	5870
922.353	5931
922.462	5805
922.571	5783
922.68	5665
922.789	5627
922.898	5718
923.007	5619
923.116	5767
923.224	5714
923.333	5680
923.442	5592
923.55	5585
923.659	5600
923.767	5657
923.876	5596
923.984	5608
924.092	5486
924.201	5562
924.309	5524
924.417	5478
924.525	5497
924.633	5486
924.741	6266
924.849	5318
924.956	5440
925.064	5372
925.172	5326
925.279	5250
925.387	5311
925.494	5292
925.602	5383
925.709	5368
925.816	5284
925.924	5288
926.031	5334
926.138	5341
926.245	5345
926.352	5216
926.459	5303
926.566	5277
926.673	5216
926.779	5117
926.886	5094
926.993	5041
927.099	4965
927.206	4968
927.312	4987
927.419	5006
927.525	5025
927.631	4957
927.737	4934
927.843	4873
927.95	4744
928.056	4771
928.162	4828
928.267	4831
928.373	5296
928.479	4843
928.585	4653
928.69	4763
928.796	4744
928.901	4702
929.007	4618
929.112	4641
929.218	4637
929.323	4584
929.428	4573
929.533	4649
929.638	4504
929.743	4542
929.848	4558
929.953	4512
930.058	4466
930.163	4303
930.267	4333
930.372	4417
930.477	4280
930.581	4470
930.685	4318
930.79	4246
930.894	4284
930.998	4257
931.103	4367
931.207	4143
931.311	4116
931.415	4002
931.519	3922
931.623	3956
