Data from glass_V78500241_337.txt Node
Date: Wed Sep 01 19:16:50 CST 2021
User: usil
Spectrometer: V785-0024
Trigger mode: 0
Integration Time (sec): 4.000000E-1
Scans to average: 1
Nonlinearity correction enabled: false
Boxcar width: 0
Storing dark spectrum: false
XAxis mode: Wavelengths
Number of Pixels in Spectrum: 1024
>>>>>Begin Spectral Data<<<<<
801.071	3724
801.214	3740
801.356	3698
801.499	3793
801.641	3793
801.783	3778
801.926	3880
802.068	3827
802.211	3850
802.353	3899
802.496	3888
802.638	3876
802.78	3888
802.923	3941
803.065	3915
803.208	3861
803.35	3903
803.492	3918
803.635	3911
803.777	3842
803.919	3937
804.061	4177
804.204	3994
804.346	3968
804.488	3964
804.63	4029
804.773	3975
804.915	4055
805.057	4223
805.199	4071
805.341	4143
805.483	4124
805.626	4147
805.768	4162
805.91	4261
806.052	4287
806.194	4238
806.336	4356
806.478	4207
806.62	4227
806.762	4188
806.904	4268
807.046	4371
807.188	4215
807.33	4188
807.472	4257
807.614	4158
807.756	4253
807.898	4268
808.04	4219
808.182	4284
808.324	4310
808.465	4402
808.607	4485
808.749	4462
808.891	4493
809.033	4485
809.174	4405
809.316	4265
809.458	4314
809.6	4192
809.741	4185
809.883	4154
810.025	4188
810.166	4238
810.308	4192
810.45	4261
810.591	4261
810.733	4356
810.875	4542
811.016	4831
811.158	5166
811.299	5345
811.441	5360
811.582	5064
811.724	4672
811.865	4470
812.007	4497
812.148	4432
812.29	4386
812.431	4413
812.573	4443
812.714	4409
812.855	4398
812.997	4443
813.138	4481
813.279	4348
813.421	4402
813.562	4398
813.703	4341
813.845	4314
813.986	4242
814.127	4265
814.268	4280
814.41	4306
814.551	4276
814.692	4367
814.833	4272
814.974	4348
815.115	4383
815.256	4265
815.397	4238
815.539	4276
815.68	4219
815.821	4200
815.962	4329
816.103	4284
816.244	4261
816.385	4246
816.526	4276
816.666	4234
816.807	4139
816.948	4188
817.089	4196
817.23	4150
817.371	4044
817.512	4067
817.653	4147
817.793	4059
817.934	4071
818.075	4097
818.216	4101
818.356	4120
818.497	4002
818.638	3953
818.778	3907
818.919	3873
819.06	3888
819.2	3926
819.341	3873
819.481	3846
819.622	3911
819.762	3991
819.903	3949
820.043	3865
820.184	3854
820.324	3808
820.465	3846
820.605	3888
820.746	3907
820.886	3816
821.026	3956
821.167	3953
821.307	4025
821.447	4021
821.588	3972
821.728	3979
821.868	3945
822.008	3915
822.149	3915
822.289	3903
822.429	3808
822.569	3808
822.709	3808
822.849	3698
822.99	3728
823.13	3755
823.27	3778
823.41	3774
823.55	3740
823.69	3740
823.83	3800
823.97	3690
824.11	3625
824.25	3633
824.389	3671
824.529	3713
824.669	3652
824.809	3728
824.949	3774
825.089	3732
825.228	3675
825.368	3606
825.508	3538
825.648	3587
825.787	3572
825.927	3641
826.067	3614
826.206	3701
826.346	3793
826.485	3854
826.625	3812
826.765	4025
826.904	3846
827.044	3603
827.183	3576
827.323	3462
827.462	3500
827.601	3439
827.741	3466
827.88	3424
828.02	3386
828.159	3477
828.298	3519
828.437	3515
828.577	3477
828.716	3637
828.855	3504
828.994	3393
829.134	3344
829.273	3386
829.412	3389
829.551	3351
829.69	3386
829.829	3466
829.968	3530
830.107	3450
830.246	3447
830.385	3435
830.524	3378
830.663	3340
830.802	3291
830.941	3222
831.08	3222
831.219	3283
831.357	3237
831.496	3454
831.635	3226
831.774	3199
831.913	3192
832.051	3085
832.19	3203
832.329	3207
832.467	3169
832.606	3135
832.744	3173
832.883	3230
833.022	3222
833.16	3272
833.299	3294
833.437	3367
833.576	3363
833.714	3450
833.852	3412
833.991	3458
834.129	3488
834.267	3439
834.406	3412
834.544	3424
834.682	3454
834.821	3409
834.959	3622
835.097	3393
835.235	3564
835.373	3496
835.511	3545
835.65	3458
835.788	3496
835.926	3405
836.064	3412
836.202	3431
836.34	3561
836.478	3641
836.615	3530
836.753	3568
836.891	3641
837.029	3633
837.167	3591
837.305	3553
837.443	3526
837.58	3523
837.718	3572
837.856	3568
837.993	3526
838.131	3614
838.269	3580
838.406	3610
838.544	3591
838.681	3504
838.819	3485
838.956	3370
839.094	3420
839.231	3462
839.369	3519
839.506	3762
839.643	3618
839.781	3515
839.918	3477
840.055	3507
840.193	3553
840.33	3564
840.467	3557
840.604	3595
840.742	3838
840.879	3534
841.016	3587
841.153	3584
841.29	3747
841.427	3751
841.564	3732
841.701	3778
841.838	3686
841.975	3663
842.112	3759
842.249	3663
842.385	3622
842.522	3831
842.659	3717
842.796	3656
842.933	3724
843.069	3701
843.206	3740
843.343	3835
843.479	3827
843.616	3800
843.752	3679
843.889	3667
844.025	3850
844.162	3747
844.298	3907
844.435	3781
844.571	3816
844.708	3922
844.844	4010
844.98	4044
845.117	3987
845.253	3937
845.389	3903
845.525	3972
845.661	4002
845.798	3922
845.934	4074
846.07	3983
846.206	4074
846.342	4162
846.478	4074
846.614	3972
846.75	3911
846.886	3945
847.022	4025
847.158	4017
847.294	3987
847.429	4017
847.565	3998
847.701	4261
847.837	3911
847.972	3892
848.108	4013
848.244	4006
848.379	3899
848.515	3865
848.65	3789
848.786	3899
848.921	3854
849.057	3934
849.192	3949
849.328	3937
849.463	3930
849.598	3918
849.734	3876
849.869	3838
850.004	3800
850.14	3850
850.275	3781
850.41	3747
850.545	3762
850.68	3808
850.815	3850
850.95	3842
851.085	3975
851.22	3918
851.355	3827
851.49	3812
851.625	3770
851.76	3816
851.895	3728
852.03	3766
852.165	3827
852.299	3854
852.434	3911
852.569	3918
852.703	3896
852.838	3949
852.973	3972
853.107	4048
853.242	3880
853.376	3896
853.511	3823
853.645	3842
853.78	4006
853.914	3899
854.048	3918
854.183	3896
854.317	3922
854.451	4109
854.585	3934
854.72	3994
854.854	4063
854.988	3941
855.122	4040
855.256	3960
855.39	4051
855.524	4147
855.658	4124
855.792	4116
855.926	4093
856.06	4185
856.194	4200
856.327	4150
856.461	4116
856.595	4181
856.729	4185
856.862	4280
856.996	4261
857.13	4291
857.263	4310
857.397	4379
857.53	4261
857.664	4371
857.797	4447
857.931	4428
858.064	4375
858.197	4436
858.331	4440
858.464	4466
858.597	4333
858.731	4459
858.864	4489
858.997	4455
859.13	4542
859.263	4577
859.396	4634
859.529	4535
859.662	4584
859.795	4542
859.928	4626
860.061	4717
860.194	4767
860.327	4687
860.46	4672
860.592	4744
860.725	4790
860.858	4801
860.99	4721
861.123	4691
861.256	4706
861.388	4774
861.521	5417
861.653	4744
861.786	4698
861.918	4774
862.05	4820
862.183	4870
862.315	4915
862.447	4957
862.58	4930
862.712	4771
862.844	4816
862.976	4866
863.108	4854
863.24	5288
863.372	4866
863.504	4946
863.636	4949
863.768	4957
863.9	4927
864.032	4953
864.164	5025
864.296	4987
864.428	5132
864.559	5151
864.691	5109
864.823	5121
864.954	5128
865.086	5162
865.217	5170
865.349	5079
865.48	5140
865.612	5174
865.743	5246
865.875	5216
866.006	5208
866.137	5231
866.269	5299
866.4	5280
866.531	5296
866.662	5204
866.793	5284
866.924	5284
867.055	5345
867.186	5349
867.317	5315
867.448	5330
867.579	5349
867.71	5357
867.841	5357
867.972	5421
868.103	5463
868.233	5482
868.364	5539
868.495	5608
868.625	5676
868.756	5767
868.886	5699
869.017	5741
869.147	5885
869.278	5847
869.408	5794
869.539	5847
869.669	5908
869.799	5969
869.929	6041
870.06	5992
870.19	6239
870.32	6216
870.45	6319
870.58	6361
870.71	6422
870.84	6494
870.97	6426
871.1	6460
871.23	6673
871.36	6703
871.489	6692
871.619	6688
871.749	6856
871.879	6920
872.008	7012
872.138	6958
872.267	7057
872.397	7031
872.526	7053
872.656	7095
872.785	7126
872.915	7407
873.044	7567
873.173	7548
873.303	7628
873.432	7776
873.561	7890
873.69	7887
873.819	7978
873.948	8202
874.077	8355
874.206	8336
874.335	8446
874.464	8655
874.593	8815
874.722	8899
874.851	9142
874.979	9192
875.108	9416
875.237	9431
875.365	9477
875.494	9625
875.623	9873
875.751	9823
875.88	10017
876.008	10109
876.136	10280
876.265	10489
876.393	10740
876.521	10710
876.65	10831
876.778	10866
876.906	10908
877.034	10961
877.162	11086
877.29	11261
877.418	11277
877.546	11406
877.674	11474
877.802	11402
877.93	11493
878.058	11562
878.185	11596
878.313	11589
878.441	11741
878.568	11680
878.696	11855
878.824	11851
878.951	11935
879.079	11969
879.206	12159
879.333	12076
879.461	12083
879.588	12114
879.715	12068
879.842	12239
879.97	12064
880.097	11866
880.224	11897
880.351	11874
880.478	11927
880.605	11855
880.732	11771
880.859	12030
880.986	11786
881.112	11859
881.239	11722
881.366	11649
881.493	11577
881.619	11551
881.746	11554
881.872	11543
881.999	11543
882.125	11501
882.252	11585
882.378	11539
882.505	11668
882.631	11356
882.757	11349
882.883	11311
883.01	11261
883.136	11193
883.262	11094
883.388	11117
883.514	11220
883.64	11162
883.766	11147
883.892	11060
884.018	10915
884.143	11166
884.269	11045
884.395	10858
884.52	10786
884.646	10790
884.772	10763
884.897	10710
885.023	10714
885.148	10725
885.274	10809
885.399	10675
885.524	10687
885.65	10618
885.775	10615
885.9	10519
886.025	10561
886.15	10558
886.275	10451
886.4	10451
886.525	10462
886.65	10382
886.775	10337
886.9	10478
887.025	10565
887.149	10371
887.274	10120
887.399	10204
887.523	10219
887.648	10181
887.773	10147
887.897	10227
888.021	10291
888.146	10139
888.27	10181
888.395	10246
888.519	10192
888.643	10188
888.767	10211
888.891	10051
889.015	10006
889.139	10048
889.263	10074
889.387	10139
889.511	10143
889.635	10112
889.759	9937
889.883	9979
890.006	10032
890.13	10090
890.254	10013
890.377	10021
890.501	9903
890.624	9915
890.748	9869
890.871	9785
890.995	9766
891.118	9709
891.241	9736
891.364	9709
891.488	9835
891.611	9766
891.734	9778
891.857	9850
891.98	9709
892.103	9766
892.226	9728
892.349	9648
892.471	9549
892.594	9595
892.717	9584
892.839	9549
892.962	9557
893.085	9637
893.207	9656
893.33	9481
893.452	9492
893.575	9614
893.697	9572
893.819	9705
893.941	9644
894.064	9705
894.186	9412
894.308	9370
894.43	9492
894.552	9568
894.674	9500
894.796	9435
894.918	9485
895.04	9363
895.161	9332
895.283	9275
895.405	9230
895.526	9222
895.648	9211
895.769	9260
895.891	9249
896.012	9291
896.134	9253
896.255	9207
896.376	9188
896.498	9165
896.619	9108
896.74	9009
896.861	9047
896.982	9264
897.103	9389
897.224	9123
897.345	9089
897.466	9017
897.587	8963
897.708	9138
897.828	9070
897.949	8960
898.07	8918
898.19	8921
898.311	9036
898.431	8918
898.552	8944
898.672	9017
898.792	8944
898.913	8941
899.033	8724
899.153	8686
899.273	8708
899.393	8750
899.513	8750
899.633	8720
899.753	8674
899.873	8678
899.993	8758
900.113	8716
900.232	8746
900.352	8674
900.472	8594
900.591	8598
900.711	8686
900.83	8522
900.95	8693
901.069	8686
901.189	8526
901.308	8469
901.427	8317
901.546	8473
901.665	8434
901.784	8511
901.904	8339
902.023	8393
902.141	8271
902.26	8195
902.379	8294
902.498	8275
902.617	8237
902.735	8271
902.854	8362
902.973	8301
903.091	8107
903.21	8145
903.328	8191
903.446	8069
903.565	8062
903.683	8020
903.801	8062
903.919	8119
904.038	8161
904.156	7978
904.274	8107
904.392	8138
904.51	8084
904.627	8050
904.745	8092
904.863	8058
904.981	7947
905.098	7890
905.216	7883
905.334	7913
905.451	7875
905.569	7894
905.686	7970
905.803	7913
905.921	7822
906.038	7906
906.155	7814
906.272	7772
906.389	7807
906.506	7658
906.623	7674
906.74	7586
906.857	7605
906.974	7559
907.091	7742
907.208	7689
907.324	7666
907.441	7601
907.557	7457
907.674	7445
907.79	7419
907.907	7407
908.023	7441
908.139	7499
908.256	7422
908.372	7343
908.488	7403
908.604	7289
908.72	7255
908.836	7221
908.952	7266
909.068	7301
909.184	7320
909.3	7305
909.415	7324
909.531	7266
909.647	7141
909.762	7088
909.878	7072
909.993	7114
910.108	7072
910.224	7053
910.339	7156
910.454	7065
910.57	7004
910.685	6962
910.8	7175
910.915	7118
911.03	7031
911.145	6947
911.259	6882
911.374	6871
911.489	6833
911.604	6848
911.718	6707
911.833	6821
911.947	6681
912.062	6585
912.176	6764
912.291	6696
912.405	6741
912.519	6825
912.633	6814
912.748	6749
912.862	6722
912.976	6639
913.09	6528
913.204	6578
913.318	6612
913.431	6726
913.545	6703
913.659	6662
913.772	6673
913.886	6597
914	6585
914.113	6620
914.226	6623
914.34	6593
914.453	6506
914.566	6620
914.68	6544
914.793	6506
914.906	6471
915.019	6391
915.132	6388
915.245	6437
915.358	6426
915.47	6525
915.583	6483
915.696	6464
915.809	6566
915.921	6509
916.034	6475
916.146	6490
916.259	6399
916.371	6475
916.483	6479
916.595	6429
916.708	6437
916.82	6391
916.932	6334
917.044	6407
917.156	6395
917.268	6251
917.38	6357
917.491	6338
917.603	6334
917.715	6376
917.826	6433
917.938	6304
918.049	6258
918.161	6391
918.272	6464
918.384	6460
918.495	6361
918.606	6289
918.717	6243
918.828	6353
918.939	6273
919.05	6140
919.161	6334
919.272	6163
919.383	6144
919.494	6319
919.604	6498
919.715	6327
919.826	6258
919.936	6254
920.047	6365
920.157	6281
920.267	6433
920.378	6342
920.488	6270
920.598	6479
920.708	6544
920.818	6479
920.928	6460
921.038	6578
921.148	6620
921.258	6365
921.368	6270
921.477	6243
921.587	6178
921.697	6098
921.806	6178
921.916	6125
922.025	5935
922.134	5923
922.244	5958
922.353	5954
922.462	5927
922.571	5805
922.68	5748
922.789	5672
922.898	5707
923.007	5661
923.116	5726
923.224	5710
923.333	5691
923.442	5589
923.55	5589
923.659	5619
923.767	5596
923.876	5543
923.984	5619
924.092	5539
924.201	5551
924.309	5577
924.417	5573
924.525	5562
924.633	5501
924.741	6319
924.849	5337
924.956	5532
925.064	5414
925.172	5292
925.279	5337
925.387	5368
925.494	5345
925.602	5387
925.709	5383
925.816	5292
925.924	5353
926.031	5387
926.138	5334
926.245	5360
926.352	5231
926.459	5330
926.566	5345
926.673	5246
926.779	5143
926.886	5162
926.993	5060
927.099	5060
927.206	5003
927.312	5018
927.419	5079
927.525	5010
927.631	4980
927.737	4919
927.843	4892
927.95	4767
928.056	4843
928.162	4850
928.267	4881
928.373	5223
928.479	4850
928.585	4683
928.69	4752
928.796	4793
928.901	4668
929.007	4618
929.112	4675
929.218	4675
929.323	4607
929.428	4561
929.533	4668
929.638	4512
929.743	4580
929.848	4580
929.953	4558
930.058	4428
930.163	4352
930.267	4375
930.372	4443
930.477	4310
930.581	4459
930.685	4398
930.79	4268
930.894	4341
930.998	4268
931.103	4421
931.207	4124
931.311	4112
931.415	4029
931.519	3937
931.623	3956
