Data from glass_V78500241_1915.txt Node
Date: Wed Sep 01 19:27:46 CST 2021
User: usil
Spectrometer: V785-0024
Trigger mode: 0
Integration Time (sec): 4.000000E-1
Scans to average: 1
Nonlinearity correction enabled: false
Boxcar width: 0
Storing dark spectrum: false
XAxis mode: Wavelengths
Number of Pixels in Spectrum: 1024
>>>>>Begin Spectral Data<<<<<
801.071	3720
801.214	3797
801.356	3747
801.499	3774
801.641	3713
801.783	3755
801.926	3869
802.068	3819
802.211	3854
802.353	3884
802.496	3869
802.638	3861
802.78	3873
802.923	3869
803.065	3857
803.208	3838
803.35	3850
803.492	3884
803.635	3907
803.777	3823
803.919	3854
804.061	4131
804.204	3930
804.346	4017
804.488	3956
804.63	4048
804.773	3934
804.915	4044
805.057	4169
805.199	4032
805.341	4116
805.483	4139
805.626	4124
805.768	4109
805.91	4211
806.052	4249
806.194	4181
806.336	4348
806.478	4139
806.62	4162
806.762	4192
806.904	4261
807.046	4360
807.188	4181
807.33	4181
807.472	4207
807.614	4169
807.756	4253
807.898	4196
808.04	4227
808.182	4295
808.324	4280
808.465	4379
808.607	4421
808.749	4390
808.891	4478
809.033	4508
809.174	4386
809.316	4234
809.458	4223
809.6	4196
809.741	4128
809.883	4116
810.025	4242
810.166	4223
810.308	4211
810.45	4257
810.591	4188
810.733	4303
810.875	4504
811.016	4858
811.158	5117
811.299	5250
811.441	5311
811.582	5041
811.724	4645
811.865	4485
812.007	4451
812.148	4455
812.29	4447
812.431	4428
812.573	4455
812.714	4371
812.855	4451
812.997	4424
813.138	4443
813.279	4405
813.421	4386
813.562	4344
813.703	4318
813.845	4299
813.986	4310
814.127	4257
814.268	4291
814.41	4265
814.551	4234
814.692	4299
814.833	4268
814.974	4291
815.115	4322
815.256	4261
815.397	4253
815.539	4265
815.68	4181
815.821	4261
815.962	4303
816.103	4257
816.244	4234
816.385	4162
816.526	4280
816.666	4227
816.807	4032
816.948	4162
817.089	4150
817.23	4082
817.371	4082
817.512	4093
817.653	4071
817.793	4021
817.934	4090
818.075	4105
818.216	4112
818.356	4105
818.497	3968
818.638	3918
818.778	3934
818.919	3888
819.06	3857
819.2	3888
819.341	3873
819.481	3831
819.622	3934
819.762	3994
819.903	3926
820.043	3842
820.184	3850
820.324	3850
820.465	3838
820.605	3869
820.746	3873
820.886	3835
821.026	3930
821.167	3930
821.307	3949
821.447	3949
821.588	3975
821.728	3918
821.868	3899
822.008	3838
822.149	3888
822.289	3918
822.429	3774
822.569	3743
822.709	3819
822.849	3675
822.99	3705
823.13	3785
823.27	3740
823.41	3663
823.55	3705
823.69	3762
823.83	3732
823.97	3663
824.11	3606
824.25	3603
824.389	3629
824.529	3614
824.669	3637
824.809	3694
824.949	3781
825.089	3728
825.228	3709
825.368	3618
825.508	3538
825.648	3587
825.787	3629
825.927	3568
826.067	3633
826.206	3690
826.346	3778
826.485	3835
826.625	3861
826.765	3922
826.904	3823
827.044	3637
827.183	3530
827.323	3443
827.462	3462
827.601	3397
827.741	3405
827.88	3416
828.02	3393
828.159	3458
828.298	3492
828.437	3515
828.577	3466
828.716	3576
828.855	3515
828.994	3370
829.134	3367
829.273	3386
829.412	3378
829.551	3321
829.69	3382
829.829	3431
829.968	3515
830.107	3412
830.246	3443
830.385	3370
830.524	3344
830.663	3302
830.802	3241
830.941	3214
831.08	3165
831.219	3260
831.357	3253
831.496	3393
831.635	3211
831.774	3195
831.913	3173
832.051	3116
832.19	3089
832.329	3264
832.467	3131
832.606	3100
832.744	3165
832.883	3199
833.022	3150
833.16	3268
833.299	3291
833.437	3313
833.576	3405
833.714	3431
833.852	3439
833.991	3458
834.129	3462
834.267	3416
834.406	3393
834.544	3420
834.682	3447
834.821	3409
834.959	3576
835.097	3420
835.235	3534
835.373	3481
835.511	3454
835.65	3431
835.788	3488
835.926	3367
836.064	3378
836.202	3393
836.34	3576
836.478	3618
836.615	3561
836.753	3553
836.891	3618
837.029	3606
837.167	3564
837.305	3542
837.443	3530
837.58	3511
837.718	3584
837.856	3542
837.993	3549
838.131	3595
838.269	3599
838.406	3595
838.544	3553
838.681	3447
838.819	3462
838.956	3386
839.094	3367
839.231	3431
839.369	3511
839.506	3713
839.643	3648
839.781	3485
839.918	3420
840.055	3523
840.193	3492
840.33	3534
840.467	3534
840.604	3584
840.742	3759
840.879	3523
841.016	3553
841.153	3587
841.29	3751
841.427	3713
841.564	3698
841.701	3762
841.838	3660
841.975	3663
842.112	3709
842.249	3610
842.385	3614
842.522	3808
842.659	3747
842.796	3675
842.933	3701
843.069	3663
843.206	3694
843.343	3838
843.479	3709
843.616	3804
843.752	3648
843.889	3698
844.025	3854
844.162	3713
844.298	3846
844.435	3781
844.571	3774
844.708	3888
844.844	4021
844.98	4002
845.117	3972
845.253	3953
845.389	3873
845.525	3964
845.661	3987
845.798	3949
845.934	3991
846.07	3968
846.206	4055
846.342	4086
846.478	4055
846.614	3945
846.75	3956
846.886	3896
847.022	4059
847.158	3968
847.294	3983
847.429	3987
847.565	4032
847.701	4223
847.837	3896
847.972	3865
848.108	4006
848.244	3930
848.379	3861
848.515	3819
848.65	3774
848.786	3835
848.921	3854
849.057	3979
849.192	3960
849.328	3903
849.463	3911
849.598	3854
849.734	3846
849.869	3808
850.004	3823
850.14	3823
850.275	3762
850.41	3751
850.545	3740
850.68	3774
850.815	3819
850.95	3751
851.085	3953
851.22	3857
851.355	3781
851.49	3808
851.625	3816
851.76	3808
851.895	3728
852.03	3736
852.165	3819
852.299	3865
852.434	3903
852.569	3838
852.703	3854
852.838	3949
852.973	3941
853.107	3972
853.242	3892
853.376	3854
853.511	3743
853.645	3823
853.78	3953
853.914	3884
854.048	3850
854.183	3854
854.317	3934
854.451	4090
854.585	3941
854.72	3964
854.854	3998
854.988	3968
855.122	3983
855.256	3937
855.39	4029
855.524	4135
855.658	4025
855.792	4101
855.926	4082
856.06	4154
856.194	4147
856.327	4166
856.461	4147
856.595	4124
856.729	4173
856.862	4272
856.996	4249
857.13	4272
857.263	4337
857.397	4371
857.53	4291
857.664	4344
857.797	4386
857.931	4390
858.064	4367
858.197	4470
858.331	4386
858.464	4409
858.597	4344
858.731	4443
858.864	4459
858.997	4455
859.13	4500
859.263	4535
859.396	4558
859.529	4455
859.662	4497
859.795	4489
859.928	4573
860.061	4702
860.194	4702
860.327	4649
860.46	4656
860.592	4714
860.725	4721
860.858	4793
860.99	4672
861.123	4702
861.256	4691
861.388	4771
861.521	5357
861.653	4714
861.786	4698
861.918	4767
862.05	4774
862.183	4805
862.315	4896
862.447	4873
862.58	4854
862.712	4816
862.844	4786
862.976	4866
863.108	4820
863.24	5102
863.372	4793
863.504	4877
863.636	4919
863.768	4930
863.9	4980
864.032	4965
864.164	4946
864.296	5018
864.428	5037
864.559	5151
864.691	5121
864.823	5155
864.954	5102
865.086	5109
865.217	5162
865.349	5079
865.48	5147
865.612	5220
865.743	5277
865.875	5220
866.006	5162
866.137	5246
866.269	5235
866.4	5201
866.531	5273
866.662	5258
866.793	5193
866.924	5204
867.055	5337
867.186	5334
867.317	5376
867.448	5311
867.579	5379
867.71	5368
867.841	5345
867.972	5444
868.103	5406
868.233	5478
868.364	5497
868.495	5547
868.625	5707
868.756	5794
868.886	5665
869.017	5722
869.147	5874
869.278	5824
869.408	5859
869.539	5859
869.669	5882
869.799	5901
869.929	5897
870.06	6030
870.19	6167
870.32	6197
870.45	6247
870.58	6311
870.71	6380
870.84	6475
870.97	6414
871.1	6460
871.23	6597
871.36	6715
871.489	6673
871.619	6707
871.749	6776
871.879	6852
872.008	6962
872.138	7027
872.267	6970
872.397	6962
872.526	7023
872.656	7107
872.785	7175
872.915	7373
873.044	7514
873.173	7537
873.303	7586
873.432	7795
873.561	7875
873.69	7894
873.819	8024
873.948	8191
874.077	8237
874.206	8286
874.335	8484
874.464	8625
874.593	8914
874.722	8849
874.851	9142
874.979	9184
875.108	9313
875.237	9355
875.365	9564
875.494	9656
875.623	9842
875.751	9838
875.88	9975
876.008	10215
876.136	10291
876.265	10603
876.393	10691
876.521	10721
876.65	10816
876.778	10847
876.906	10923
877.034	10980
877.162	11052
877.29	11121
877.418	11345
877.546	11410
877.674	11452
877.802	11497
877.93	11551
878.058	11528
878.185	11543
878.313	11707
878.441	11688
878.568	11619
878.696	11779
878.824	11866
878.951	11885
879.079	11977
879.206	12205
879.333	12091
879.461	12015
879.588	12098
879.715	12079
879.842	12182
879.97	12022
880.097	11840
880.224	11885
880.351	11866
880.478	11843
880.605	11779
880.732	11809
880.859	12045
880.986	11786
881.112	11779
881.239	11707
881.366	11668
881.493	11535
881.619	11535
881.746	11589
881.872	11558
881.999	11478
882.125	11478
882.252	11482
882.378	11478
882.505	11551
882.631	11379
882.757	11349
882.883	11330
883.01	11277
883.136	11193
883.262	11098
883.388	11090
883.514	11178
883.64	11181
883.766	11102
883.892	10961
884.018	11060
884.143	11067
884.269	11132
884.395	10763
884.52	10721
884.646	10729
884.772	10763
884.897	10592
885.023	10660
885.148	10675
885.274	10710
885.399	10706
885.524	10584
885.65	10626
885.775	10527
885.9	10607
886.025	10588
886.15	10512
886.275	10421
886.4	10352
886.525	10440
886.65	10314
886.775	10382
886.9	10455
887.025	10428
887.149	10352
887.274	10112
887.399	10242
887.523	10287
887.648	10128
887.773	10154
887.897	10230
888.021	10207
888.146	10109
888.27	10280
888.395	10196
888.519	10074
888.643	10200
888.767	10185
888.891	10074
889.015	10051
889.139	10109
889.263	9991
889.387	9987
889.511	10116
889.635	10067
889.759	10010
889.883	10002
890.006	9979
890.13	10101
890.254	9960
890.377	9930
890.501	9895
890.624	9835
890.748	9899
890.871	9762
890.995	9732
891.118	9759
891.241	9819
891.364	9698
891.488	9816
891.611	9675
891.734	9736
891.857	9778
891.98	9667
892.103	9732
892.226	9724
892.349	9663
892.471	9481
892.594	9564
892.717	9629
892.839	9610
892.962	9584
893.085	9641
893.207	9545
893.33	9485
893.452	9526
893.575	9549
893.697	9523
893.819	9686
893.941	9603
894.064	9584
894.186	9428
894.308	9473
894.43	9492
894.552	9576
894.674	9622
894.796	9405
894.918	9355
895.04	9363
895.161	9287
895.283	9389
895.405	9291
895.526	9211
895.648	9192
895.769	9214
895.891	9237
896.012	9203
896.134	9313
896.255	9146
896.376	9051
896.498	9154
896.619	9097
896.74	9062
896.861	9062
896.982	9302
897.103	9256
897.224	9157
897.345	9097
897.466	8998
897.587	9013
897.708	9051
897.828	9039
897.949	8967
898.07	8880
898.19	8895
898.311	9001
898.431	8887
898.552	8921
898.672	8918
898.792	8925
898.913	8891
899.033	8792
899.153	8781
899.273	8697
899.393	8686
899.513	8754
899.633	8670
899.753	8762
899.873	8766
899.993	8735
900.113	8655
900.232	8670
900.352	8651
900.472	8575
900.591	8556
900.711	8583
900.83	8564
900.95	8720
901.069	8720
901.189	8556
901.308	8461
901.427	8355
901.546	8427
901.665	8492
901.784	8495
901.904	8290
902.023	8381
902.141	8225
902.26	8244
902.379	8301
902.498	8282
902.617	8176
902.735	8343
902.854	8282
902.973	8259
903.091	8100
903.21	8115
903.328	8187
903.446	8100
903.565	8073
903.683	8096
903.801	8077
903.919	8164
904.038	8149
904.156	7974
904.274	8027
904.392	8065
904.51	8005
904.627	8016
904.745	8126
904.863	8084
904.981	7944
905.098	7837
905.216	7845
905.334	7894
905.451	7936
905.569	7894
905.686	7871
905.803	7906
905.921	7769
906.038	7868
906.155	7818
906.272	7700
906.389	7742
906.506	7655
906.623	7590
906.74	7674
906.857	7510
906.974	7636
907.091	7666
907.208	7704
907.324	7620
907.441	7540
907.557	7441
907.674	7373
907.79	7415
907.907	7438
908.023	7468
908.139	7441
908.256	7392
908.372	7354
908.488	7232
908.604	7266
908.72	7221
908.836	7312
908.952	7236
909.068	7194
909.184	7358
909.3	7255
909.415	7301
909.531	7316
909.647	7091
909.762	7164
909.878	7023
909.993	7107
910.108	7171
910.224	7141
910.339	7133
910.454	7088
910.57	6977
910.685	6970
910.8	7118
910.915	7103
911.03	7008
911.145	6867
911.259	6875
911.374	6837
911.489	6856
911.604	6787
911.718	6707
911.833	6760
911.947	6711
912.062	6623
912.176	6753
912.291	6631
912.405	6700
912.519	6825
912.633	6844
912.748	6703
912.862	6707
912.976	6639
913.09	6540
913.204	6589
913.318	6627
913.431	6665
913.545	6677
913.659	6627
913.772	6635
913.886	6532
914	6517
914.113	6642
914.226	6547
914.34	6570
914.453	6513
914.566	6620
914.68	6490
914.793	6467
914.906	6391
915.019	6391
915.132	6376
915.245	6380
915.358	6433
915.47	6380
915.583	6498
915.696	6464
915.809	6536
915.921	6544
916.034	6422
916.146	6407
916.259	6399
916.371	6509
916.483	6410
916.595	6361
916.708	6372
916.82	6426
916.932	6350
917.044	6300
917.156	6418
917.268	6346
917.38	6334
917.491	6300
917.603	6315
917.715	6376
917.826	6407
917.938	6338
918.049	6205
918.161	6327
918.272	6410
918.384	6391
918.495	6369
918.606	6273
918.717	6232
918.828	6258
918.939	6277
919.05	6213
919.161	6220
919.272	6144
919.383	6216
919.494	6319
919.604	6388
919.715	6292
919.826	6175
919.936	6228
920.047	6281
920.157	6243
920.267	6448
920.378	6300
920.488	6308
920.598	6490
920.708	6593
920.818	6372
920.928	6414
921.038	6608
921.148	6555
921.258	6323
921.368	6258
921.477	6216
921.587	6186
921.697	6072
921.806	6205
921.916	6102
922.025	5977
922.134	5977
922.244	5836
922.353	5912
922.462	5802
922.571	5798
922.68	5722
922.789	5688
922.898	5707
923.007	5638
923.116	5722
923.224	5665
923.333	5672
923.442	5589
923.55	5585
923.659	5562
923.767	5581
923.876	5585
923.984	5627
924.092	5474
924.201	5585
924.309	5577
924.417	5573
924.525	5471
924.633	5505
924.741	6243
924.849	5326
924.956	5421
925.064	5269
925.172	5292
925.279	5311
925.387	5337
925.494	5337
925.602	5410
925.709	5360
925.816	5322
925.924	5250
926.031	5341
926.138	5303
926.245	5326
926.352	5231
926.459	5288
926.566	5315
926.673	5185
926.779	5121
926.886	5086
926.993	5033
927.099	5045
927.206	4961
927.312	4961
927.419	4987
927.525	5003
927.631	4961
927.737	4870
927.843	4835
927.95	4812
928.056	4828
928.162	4828
928.267	4812
928.373	5277
928.479	4870
928.585	4653
928.69	4786
928.796	4820
928.901	4679
929.007	4569
929.112	4641
929.218	4649
929.323	4592
929.428	4546
929.533	4626
929.638	4546
929.743	4508
929.848	4516
929.953	4500
930.058	4424
930.163	4352
930.267	4337
930.372	4421
930.477	4306
930.581	4436
930.685	4360
930.79	4291
930.894	4310
930.998	4242
931.103	4390
931.207	4128
931.311	4090
931.415	4021
931.519	3930
931.623	3956
