Data from glass_V78500241_94.txt Node
Date: Wed Sep 01 19:15:09 CST 2021
User: usil
Spectrometer: V785-0024
Trigger mode: 0
Integration Time (sec): 4.000000E-1
Scans to average: 1
Nonlinearity correction enabled: false
Boxcar width: 0
Storing dark spectrum: false
XAxis mode: Wavelengths
Number of Pixels in Spectrum: 1024
>>>>>Begin Spectral Data<<<<<
801.071	3770
801.214	3759
801.356	3720
801.499	3751
801.641	3728
801.783	3774
801.926	3869
802.068	3823
802.211	3880
802.353	3880
802.496	3827
802.638	3907
802.78	3922
802.923	3956
803.065	3934
803.208	3857
803.35	3915
803.492	3873
803.635	3922
803.777	3808
803.919	3907
804.061	4196
804.204	3930
804.346	4013
804.488	3930
804.63	4063
804.773	3968
804.915	3998
805.057	4154
805.199	4059
805.341	4109
805.483	4166
805.626	4150
805.768	4124
805.91	4223
806.052	4265
806.194	4238
806.336	4390
806.478	4268
806.62	4249
806.762	4223
806.904	4246
807.046	4325
807.188	4230
807.33	4173
807.472	4246
807.614	4196
807.756	4284
807.898	4253
808.04	4257
808.182	4333
808.324	4306
808.465	4409
808.607	4489
808.749	4424
808.891	4493
809.033	4512
809.174	4379
809.316	4333
809.458	4280
809.6	4215
809.741	4128
809.883	4131
810.025	4261
810.166	4242
810.308	4207
810.45	4295
810.591	4234
810.733	4303
810.875	4542
811.016	4858
811.158	5117
811.299	5296
811.441	5296
811.582	5090
811.724	4763
811.865	4459
812.007	4481
812.148	4459
812.29	4417
812.431	4421
812.573	4398
812.714	4386
812.855	4402
812.997	4398
813.138	4485
813.279	4432
813.421	4379
813.562	4409
813.703	4367
813.845	4379
813.986	4261
814.127	4268
814.268	4234
814.41	4337
814.551	4280
814.692	4329
814.833	4280
814.974	4280
815.115	4318
815.256	4284
815.397	4230
815.539	4261
815.68	4188
815.821	4200
815.962	4363
816.103	4306
816.244	4238
816.385	4249
816.526	4291
816.666	4223
816.807	4063
816.948	4196
817.089	4150
817.23	4093
817.371	4101
817.512	4055
817.653	4116
817.793	4055
817.934	4067
818.075	4101
818.216	4074
818.356	4112
818.497	4013
818.638	3937
818.778	3945
818.919	3918
819.06	3915
819.2	3949
819.341	3884
819.481	3823
819.622	3930
819.762	4063
819.903	3964
820.043	3911
820.184	3854
820.324	3835
820.465	3941
820.605	3892
820.746	3899
820.886	3838
821.026	3968
821.167	3964
821.307	4010
821.447	4013
821.588	3945
821.728	3941
821.868	3956
822.008	3854
822.149	3968
822.289	3922
822.429	3785
822.569	3766
822.709	3797
822.849	3720
822.99	3751
823.13	3793
823.27	3789
823.41	3698
823.55	3781
823.69	3724
823.83	3705
823.97	3690
824.11	3637
824.25	3610
824.389	3663
824.529	3709
824.669	3633
824.809	3717
824.949	3740
825.089	3770
825.228	3728
825.368	3633
825.508	3606
825.648	3580
825.787	3618
825.927	3644
826.067	3660
826.206	3663
826.346	3816
826.485	3880
826.625	3854
826.765	3934
826.904	3857
827.044	3625
827.183	3568
827.323	3443
827.462	3504
827.601	3466
827.741	3435
827.88	3473
828.02	3412
828.159	3435
828.298	3515
828.437	3511
828.577	3473
828.716	3595
828.855	3492
828.994	3424
829.134	3355
829.273	3382
829.412	3367
829.551	3329
829.69	3412
829.829	3428
829.968	3549
830.107	3477
830.246	3450
830.385	3416
830.524	3405
830.663	3348
830.802	3283
830.941	3249
831.08	3180
831.219	3298
831.357	3272
831.496	3424
831.635	3241
831.774	3188
831.913	3218
832.051	3154
832.19	3157
832.329	3256
832.467	3161
832.606	3127
832.744	3180
832.883	3203
833.022	3230
833.16	3302
833.299	3317
833.437	3378
833.576	3409
833.714	3409
833.852	3401
833.991	3458
834.129	3481
834.267	3454
834.406	3416
834.544	3424
834.682	3416
834.821	3424
834.959	3564
835.097	3462
835.235	3545
835.373	3477
835.511	3526
835.65	3473
835.788	3466
835.926	3435
836.064	3367
836.202	3397
836.34	3610
836.478	3610
836.615	3584
836.753	3610
836.891	3618
837.029	3660
837.167	3599
837.305	3637
837.443	3549
837.58	3515
837.718	3660
837.856	3542
837.993	3572
838.131	3625
838.269	3606
838.406	3599
838.544	3564
838.681	3519
838.819	3488
838.956	3389
839.094	3435
839.231	3405
839.369	3519
839.506	3766
839.643	3667
839.781	3488
839.918	3488
840.055	3557
840.193	3542
840.33	3580
840.467	3599
840.604	3584
840.742	3831
840.879	3523
841.016	3595
841.153	3652
841.29	3778
841.427	3747
841.564	3717
841.701	3705
841.838	3717
841.975	3701
842.112	3736
842.249	3743
842.385	3644
842.522	3861
842.659	3713
842.796	3698
842.933	3728
843.069	3705
843.206	3709
843.343	3804
843.479	3816
843.616	3827
843.752	3663
843.889	3759
844.025	3865
844.162	3694
844.298	3831
844.435	3816
844.571	3766
844.708	3915
844.844	4006
844.98	4036
845.117	4093
845.253	3968
845.389	3945
845.525	3998
845.661	3972
845.798	3934
845.934	4017
846.07	3979
846.206	4071
846.342	4112
846.478	4032
846.614	4006
846.75	4021
846.886	3953
847.022	4048
847.158	4021
847.294	4029
847.429	4063
847.565	4040
847.701	4276
847.837	3869
847.972	3884
848.108	4002
848.244	4010
848.379	3869
848.515	3861
848.65	3831
848.786	3915
848.921	3911
849.057	3979
849.192	3983
849.328	3918
849.463	3949
849.598	3911
849.734	3869
849.869	3812
850.004	3827
850.14	3812
850.275	3808
850.41	3743
850.545	3759
850.68	3808
850.815	3838
850.95	3785
851.085	3926
851.22	3846
851.355	3857
851.49	3854
851.625	3759
851.76	3831
851.895	3755
852.03	3728
852.165	3835
852.299	3861
852.434	3922
852.569	3880
852.703	3926
852.838	3994
852.973	4017
853.107	3975
853.242	3934
853.376	3903
853.511	3793
853.645	3880
853.78	3983
853.914	3911
854.048	3896
854.183	3953
854.317	3949
854.451	4124
854.585	4017
854.72	3941
854.854	4067
854.988	3926
855.122	4006
855.256	3926
855.39	4006
855.524	4196
855.658	4124
855.792	4093
855.926	4143
856.06	4200
856.194	4261
856.327	4204
856.461	4112
856.595	4150
856.729	4227
856.862	4337
856.996	4261
857.13	4322
857.263	4329
857.397	4383
857.53	4333
857.664	4344
857.797	4379
857.931	4402
858.064	4432
858.197	4489
858.331	4428
858.464	4360
858.597	4322
858.731	4432
858.864	4466
858.997	4428
859.13	4497
859.263	4584
859.396	4634
859.529	4546
859.662	4493
859.795	4580
859.928	4634
860.061	4755
860.194	4797
860.327	4672
860.46	4702
860.592	4736
860.725	4771
860.858	4812
860.99	4729
861.123	4740
861.256	4706
861.388	4698
861.521	5528
861.653	4725
861.786	4774
861.918	4805
862.05	4831
862.183	4877
862.315	4923
862.447	4946
862.58	4908
862.712	4820
862.844	4755
862.976	4900
863.108	4881
863.24	5292
863.372	4862
863.504	4900
863.636	4904
863.768	4991
863.9	4930
864.032	4953
864.164	4984
864.296	4999
864.428	5117
864.559	5113
864.691	5136
864.823	5124
864.954	5162
865.086	5166
865.217	5140
865.349	5113
865.48	5197
865.612	5189
865.743	5277
865.875	5185
866.006	5220
866.137	5231
866.269	5254
866.4	5292
866.531	5284
866.662	5208
866.793	5315
866.924	5299
867.055	5334
867.186	5345
867.317	5315
867.448	5280
867.579	5372
867.71	5406
867.841	5425
867.972	5433
868.103	5436
868.233	5490
868.364	5547
868.495	5558
868.625	5672
868.756	5794
868.886	5680
869.017	5741
869.147	5817
869.278	5817
869.408	5805
869.539	5840
869.669	5950
869.799	5882
869.929	5946
870.06	6079
870.19	6235
870.32	6232
870.45	6273
870.58	6365
870.71	6475
870.84	6437
870.97	6399
871.1	6456
871.23	6582
871.36	6684
871.489	6658
871.619	6730
871.749	6867
871.879	6935
872.008	7004
872.138	7034
872.267	7050
872.397	7019
872.526	7023
872.656	7141
872.785	7183
872.915	7388
873.044	7514
873.173	7537
873.303	7700
873.432	7780
873.561	7860
873.69	7921
873.819	8088
873.948	8187
874.077	8164
874.206	8339
874.335	8488
874.464	8682
874.593	8887
874.722	8918
874.851	9157
874.979	9233
875.108	9401
875.237	9370
875.365	9526
875.494	9641
875.623	9842
875.751	9854
875.88	10002
876.008	10169
876.136	10291
876.265	10561
876.393	10755
876.521	10733
876.65	10816
876.778	10881
876.906	10923
877.034	10987
877.162	11102
877.29	11189
877.418	11337
877.546	11322
877.674	11452
877.802	11524
877.93	11554
878.058	11535
878.185	11558
878.313	11665
878.441	11707
878.568	11703
878.696	11908
878.824	11874
878.951	11965
879.079	11973
879.206	12140
879.333	12049
879.461	11954
879.588	12102
879.715	12087
879.842	12243
879.97	12026
880.097	11843
880.224	11824
880.351	11897
880.478	11885
880.605	11809
880.732	11821
880.859	11992
880.986	11885
881.112	11950
881.239	11745
881.366	11726
881.493	11661
881.619	11532
881.746	11509
881.872	11543
881.999	11509
882.125	11467
882.252	11558
882.378	11585
882.505	11581
882.631	11318
882.757	11334
882.883	11349
883.01	11223
883.136	11277
883.262	11075
883.388	11064
883.514	11201
883.64	11121
883.766	11086
883.892	10991
884.018	10984
884.143	11140
884.269	11090
884.395	10805
884.52	10847
884.646	10767
884.772	10729
884.897	10702
885.023	10771
885.148	10778
885.274	10717
885.399	10774
885.524	10645
885.65	10607
885.775	10664
885.9	10569
886.025	10573
886.15	10558
886.275	10443
886.4	10447
886.525	10424
886.65	10398
886.775	10371
886.9	10596
887.025	10523
887.149	10424
887.274	10265
887.399	10280
887.523	10257
887.648	10215
887.773	10120
887.897	10295
888.021	10246
888.146	10158
888.27	10265
888.395	10230
888.519	10223
888.643	10227
888.767	10173
888.891	10074
889.015	10002
889.139	10120
889.263	10036
889.387	10063
889.511	10162
889.635	10150
889.759	9998
889.883	10006
890.006	9994
890.13	10116
890.254	9930
890.377	9998
890.501	9899
890.624	9884
890.748	9926
890.871	9766
890.995	9743
891.118	9709
891.241	9812
891.364	9797
891.488	9819
891.611	9728
891.734	9816
891.857	9778
891.98	9724
892.103	9701
892.226	9789
892.349	9679
892.471	9561
892.594	9549
892.717	9618
892.839	9568
892.962	9720
893.085	9686
893.207	9523
893.33	9572
893.452	9481
893.575	9667
893.697	9549
893.819	9648
893.941	9629
894.064	9637
894.186	9450
894.308	9424
894.43	9519
894.552	9618
894.674	9610
894.796	9393
894.918	9348
895.04	9370
895.161	9329
895.283	9317
895.405	9275
895.526	9279
895.648	9230
895.769	9214
895.891	9249
896.012	9230
896.134	9272
896.255	9157
896.376	9176
896.498	9180
896.619	9176
896.74	9131
896.861	9104
896.982	9199
897.103	9355
897.224	9119
897.345	9131
897.466	8967
897.587	9005
897.708	9119
897.828	9028
897.949	9020
898.07	8880
898.19	8929
898.311	8982
898.431	8899
898.552	8933
898.672	9013
898.792	9005
898.913	8963
899.033	8804
899.153	8750
899.273	8667
899.393	8697
899.513	8766
899.633	8739
899.753	8815
899.873	8750
899.993	8785
900.113	8701
900.232	8762
900.352	8705
900.472	8594
900.591	8499
900.711	8644
900.83	8583
900.95	8716
901.069	8712
901.189	8503
901.308	8412
901.427	8431
901.546	8404
901.665	8473
901.784	8541
901.904	8396
902.023	8332
902.141	8183
902.26	8218
902.379	8282
902.498	8218
902.617	8248
902.735	8332
902.854	8290
902.973	8267
903.091	8069
903.21	8142
903.328	8210
903.446	8149
903.565	8065
903.683	8119
903.801	8054
903.919	8149
904.038	8096
904.156	8027
904.274	8054
904.392	8012
904.51	8058
904.627	8050
904.745	8058
904.863	8176
904.981	8027
905.098	7879
905.216	7890
905.334	7940
905.451	7894
905.569	7868
905.686	7883
905.803	7932
905.921	7814
906.038	7936
906.155	7864
906.272	7700
906.389	7753
906.506	7681
906.623	7685
906.74	7613
906.857	7552
906.974	7597
907.091	7681
907.208	7719
907.324	7708
907.441	7575
907.557	7453
907.674	7449
907.79	7388
907.907	7369
908.023	7472
908.139	7430
908.256	7350
908.372	7335
908.488	7346
908.604	7266
908.72	7274
908.836	7324
908.952	7270
909.068	7282
909.184	7331
909.3	7270
909.415	7282
909.531	7285
909.647	7080
909.762	7065
909.878	7149
909.993	7152
910.108	7164
910.224	7095
910.339	7141
910.454	7046
910.57	7008
910.685	6981
910.8	7198
910.915	7164
911.03	7015
911.145	6878
911.259	6848
911.374	6856
911.489	6848
911.604	6863
911.718	6787
911.833	6741
911.947	6673
912.062	6593
912.176	6658
912.291	6719
912.405	6658
912.519	6894
912.633	6833
912.748	6707
912.862	6722
912.976	6589
913.09	6525
913.204	6646
913.318	6620
913.431	6673
913.545	6677
913.659	6802
913.772	6597
913.886	6646
914	6585
914.113	6601
914.226	6642
914.34	6658
914.453	6460
914.566	6635
914.68	6563
914.793	6555
914.906	6445
915.019	6372
915.132	6372
915.245	6471
915.358	6414
915.47	6433
915.583	6494
915.696	6471
915.809	6547
915.921	6544
916.034	6448
916.146	6452
916.259	6467
916.371	6448
916.483	6467
916.595	6437
916.708	6456
916.82	6395
916.932	6376
917.044	6323
917.156	6418
917.268	6331
917.38	6319
917.491	6350
917.603	6395
917.715	6433
917.826	6448
917.938	6365
918.049	6308
918.161	6323
918.272	6422
918.384	6445
918.495	6372
918.606	6323
918.717	6228
918.828	6308
918.939	6315
919.05	6243
919.161	6258
919.272	6129
919.383	6186
919.494	6365
919.604	6486
919.715	6296
919.826	6258
919.936	6239
920.047	6365
920.157	6311
920.267	6479
920.378	6327
920.488	6331
920.598	6433
920.708	6559
920.818	6506
920.928	6479
921.038	6684
921.148	6627
921.258	6372
921.368	6357
921.477	6155
921.587	6190
921.697	6117
921.806	6205
921.916	6129
922.025	5958
922.134	5942
922.244	5889
922.353	5980
922.462	5851
922.571	5817
922.68	5695
922.789	5714
922.898	5665
923.007	5665
923.116	5695
923.224	5695
923.333	5676
923.442	5665
923.55	5554
923.659	5623
923.767	5676
923.876	5558
923.984	5653
924.092	5486
924.201	5547
924.309	5551
924.417	5589
924.525	5554
924.633	5467
924.741	6296
924.849	5364
924.956	5493
925.064	5383
925.172	5326
925.279	5303
925.387	5330
925.494	5326
925.602	5433
925.709	5387
925.816	5261
925.924	5357
926.031	5376
926.138	5284
926.245	5330
926.352	5315
926.459	5322
926.566	5337
926.673	5216
926.779	5155
926.886	5105
926.993	5064
927.099	4930
927.206	4991
927.312	4976
927.419	4999
927.525	5006
927.631	5052
927.737	4980
927.843	4923
927.95	4797
928.056	4854
928.162	4793
928.267	4839
928.373	5334
928.479	4854
928.585	4698
928.69	4748
928.796	4805
928.901	4706
929.007	4615
929.112	4698
929.218	4649
929.323	4641
929.428	4596
929.533	4702
929.638	4546
929.743	4554
929.848	4599
929.953	4508
930.058	4466
930.163	4363
930.267	4333
930.372	4432
930.477	4306
930.581	4478
930.685	4386
930.79	4287
930.894	4287
930.998	4265
931.103	4428
931.207	4154
931.311	4082
931.415	4071
931.519	3983
931.623	3937
