Data from glass_V78500241_13.txt Node
Date: Wed Sep 01 19:14:35 CST 2021
User: usil
Spectrometer: V785-0024
Trigger mode: 0
Integration Time (sec): 4.000000E-1
Scans to average: 1
Nonlinearity correction enabled: false
Boxcar width: 0
Storing dark spectrum: false
XAxis mode: Wavelengths
Number of Pixels in Spectrum: 1024
>>>>>Begin Spectral Data<<<<<
801.071	3747
801.214	3808
801.356	3701
801.499	3743
801.641	3808
801.783	3797
801.926	3888
802.068	3884
802.211	3888
802.353	3930
802.496	3850
802.638	3880
802.78	3975
802.923	3953
803.065	3896
803.208	3865
803.35	3903
803.492	3972
803.635	3949
803.777	3846
803.919	3930
804.061	4181
804.204	3953
804.346	3991
804.488	3960
804.63	4048
804.773	3983
804.915	3983
805.057	4158
805.199	4063
805.341	4124
805.483	4143
805.626	4131
805.768	4116
805.91	4257
806.052	4257
806.194	4219
806.336	4322
806.478	4207
806.62	4230
806.762	4249
806.904	4322
807.046	4360
807.188	4211
807.33	4192
807.472	4249
807.614	4177
807.756	4341
807.898	4265
808.04	4265
808.182	4310
808.324	4318
808.465	4394
808.607	4447
808.749	4470
808.891	4459
809.033	4516
809.174	4417
809.316	4261
809.458	4261
809.6	4230
809.741	4131
809.883	4154
810.025	4211
810.166	4196
810.308	4215
810.45	4306
810.591	4246
810.733	4310
810.875	4519
811.016	4862
811.158	5174
811.299	5296
811.441	5303
811.582	5071
811.724	4767
811.865	4440
812.007	4455
812.148	4424
812.29	4440
812.431	4497
812.573	4402
812.714	4402
812.855	4462
812.997	4409
813.138	4493
813.279	4417
813.421	4466
813.562	4398
813.703	4360
813.845	4363
813.986	4287
814.127	4261
814.268	4280
814.41	4322
814.551	4272
814.692	4322
814.833	4249
814.974	4306
815.115	4306
815.256	4303
815.397	4261
815.539	4242
815.68	4192
815.821	4234
815.962	4333
816.103	4303
816.244	4242
816.385	4265
816.526	4280
816.666	4196
816.807	4169
816.948	4173
817.089	4173
817.23	4154
817.371	4097
817.512	4044
817.653	4082
817.793	4044
817.934	4063
818.075	4116
818.216	4067
818.356	4086
818.497	4059
818.638	3896
818.778	3941
818.919	3922
819.06	3911
819.2	3907
819.341	3861
819.481	3850
819.622	3888
819.762	4013
819.903	3983
820.043	3945
820.184	3850
820.324	3842
820.465	3918
820.605	3903
820.746	3892
820.886	3850
821.026	3926
821.167	3987
821.307	4025
821.447	4025
821.588	4036
821.728	3949
821.868	3926
822.008	3876
822.149	3953
822.289	3956
822.429	3800
822.569	3766
822.709	3789
822.849	3728
822.99	3747
823.13	3759
823.27	3823
823.41	3724
823.55	3728
823.69	3755
823.83	3736
823.97	3652
824.11	3591
824.25	3614
824.389	3641
824.529	3679
824.669	3660
824.809	3713
824.949	3778
825.089	3766
825.228	3724
825.368	3584
825.508	3568
825.648	3557
825.787	3637
825.927	3652
826.067	3641
826.206	3694
826.346	3842
826.485	3831
826.625	3873
826.765	3968
826.904	3865
827.044	3652
827.183	3568
827.323	3424
827.462	3477
827.601	3424
827.741	3420
827.88	3504
828.02	3401
828.159	3466
828.298	3473
828.437	3534
828.577	3473
828.716	3622
828.855	3507
828.994	3393
829.134	3401
829.273	3431
829.412	3348
829.551	3363
829.69	3374
829.829	3473
829.968	3526
830.107	3447
830.246	3469
830.385	3428
830.524	3412
830.663	3313
830.802	3249
830.941	3237
831.08	3222
831.219	3249
831.357	3310
831.496	3431
831.635	3256
831.774	3237
831.913	3218
832.051	3127
832.19	3165
832.329	3195
832.467	3150
832.606	3116
832.744	3188
832.883	3195
833.022	3222
833.16	3253
833.299	3291
833.437	3332
833.576	3382
833.714	3416
833.852	3466
833.991	3500
834.129	3450
834.267	3466
834.406	3367
834.544	3420
834.682	3450
834.821	3397
834.959	3561
835.097	3447
835.235	3564
835.373	3492
835.511	3523
835.65	3481
835.788	3492
835.926	3431
836.064	3416
836.202	3435
836.34	3599
836.478	3599
836.615	3553
836.753	3637
836.891	3648
837.029	3656
837.167	3610
837.305	3553
837.443	3595
837.58	3504
837.718	3625
837.856	3599
837.993	3545
838.131	3618
838.269	3606
838.406	3599
838.544	3606
838.681	3526
838.819	3500
838.956	3393
839.094	3420
839.231	3431
839.369	3534
839.506	3743
839.643	3610
839.781	3507
839.918	3542
840.055	3545
840.193	3530
840.33	3557
840.467	3580
840.604	3606
840.742	3854
840.879	3549
841.016	3564
841.153	3637
841.29	3804
841.427	3728
841.564	3759
841.701	3751
841.838	3747
841.975	3656
842.112	3720
842.249	3641
842.385	3694
842.522	3861
842.659	3728
842.796	3667
842.933	3690
843.069	3717
843.206	3682
843.343	3861
843.479	3778
843.616	3838
843.752	3701
843.889	3690
844.025	3831
844.162	3747
844.298	3899
844.435	3838
844.571	3816
844.708	3918
844.844	4029
844.98	3983
845.117	4067
845.253	3930
845.389	3926
845.525	3994
845.661	3975
845.798	3987
845.934	4013
846.07	3960
846.206	4048
846.342	4143
846.478	4101
846.614	3964
846.75	3907
846.886	3918
847.022	4048
847.158	3956
847.294	4017
847.429	4013
847.565	3998
847.701	4230
847.837	3960
847.972	3850
848.108	4006
848.244	3975
848.379	3888
848.515	3861
848.65	3835
848.786	3827
848.921	3880
849.057	3941
849.192	3983
849.328	3896
849.463	3945
849.598	3884
849.734	3842
849.869	3838
850.004	3770
850.14	3812
850.275	3831
850.41	3736
850.545	3800
850.68	3774
850.815	3808
850.95	3797
851.085	3968
851.22	3892
851.355	3850
851.49	3774
851.625	3831
851.76	3854
851.895	3720
852.03	3736
852.165	3804
852.299	3846
852.434	3949
852.569	3857
852.703	3915
852.838	3960
852.973	3998
853.107	4002
853.242	3903
853.376	3880
853.511	3789
853.645	3819
853.78	4013
853.914	3876
854.048	3892
854.183	3911
854.317	3918
854.451	4048
854.585	3945
854.72	3949
854.854	4048
854.988	3945
855.122	4032
855.256	3907
855.39	4040
855.524	4131
855.658	4082
855.792	4128
855.926	4158
856.06	4223
856.194	4185
856.327	4150
856.461	4169
856.595	4177
856.729	4139
856.862	4295
856.996	4257
857.13	4314
857.263	4333
857.397	4363
857.53	4272
857.664	4371
857.797	4413
857.931	4402
858.064	4394
858.197	4500
858.331	4398
858.464	4371
858.597	4344
858.731	4432
858.864	4470
858.997	4428
859.13	4497
859.263	4573
859.396	4580
859.529	4546
859.662	4569
859.795	4493
859.928	4634
860.061	4710
860.194	4702
860.327	4710
860.46	4687
860.592	4759
860.725	4748
860.858	4774
860.99	4675
861.123	4733
861.256	4736
861.388	4744
861.521	5467
861.653	4733
861.786	4736
861.918	4774
862.05	4843
862.183	4915
862.315	4908
862.447	4965
862.58	4904
862.712	4835
862.844	4774
862.976	4885
863.108	4885
863.24	5242
863.372	4839
863.504	4930
863.636	4919
863.768	5003
863.9	4999
864.032	4915
864.164	4919
864.296	5022
864.428	5098
864.559	5159
864.691	5208
864.823	5124
864.954	5136
865.086	5170
865.217	5105
865.349	5113
865.48	5166
865.612	5166
865.743	5296
865.875	5231
866.006	5250
866.137	5265
866.269	5227
866.4	5220
866.531	5280
866.662	5292
866.793	5284
866.924	5296
867.055	5387
867.186	5322
867.317	5322
867.448	5353
867.579	5414
867.71	5387
867.841	5425
867.972	5436
868.103	5455
868.233	5577
868.364	5551
868.495	5562
868.625	5657
868.756	5821
868.886	5741
869.017	5771
869.147	5882
869.278	5874
869.408	5874
869.539	5802
869.669	5897
869.799	5946
869.929	6011
870.06	6026
870.19	6220
870.32	6220
870.45	6327
870.58	6414
870.71	6490
870.84	6456
870.97	6426
871.1	6483
871.23	6669
871.36	6741
871.489	6658
871.619	6753
871.749	6863
871.879	6905
872.008	7046
872.138	7019
872.267	7027
872.397	6947
872.526	7019
872.656	7072
872.785	7160
872.915	7365
873.044	7605
873.173	7586
873.303	7674
873.432	7769
873.561	7917
873.69	7902
873.819	7974
873.948	8199
874.077	8256
874.206	8400
874.335	8446
874.464	8621
874.593	8906
874.722	8918
874.851	9100
874.979	9313
875.108	9355
875.237	9420
875.365	9534
875.494	9641
875.623	9797
875.751	9861
875.88	10032
876.008	10116
876.136	10386
876.265	10550
876.393	10615
876.521	10752
876.65	10809
876.778	10904
876.906	10930
877.034	10942
877.162	11056
877.29	11124
877.418	11242
877.546	11417
877.674	11433
877.802	11459
877.93	11505
878.058	11551
878.185	11501
878.313	11733
878.441	11745
878.568	11726
878.696	11840
878.824	11828
878.951	11946
879.079	12011
879.206	12068
879.333	12091
879.461	12030
879.588	12129
879.715	12034
879.842	12277
879.97	12102
880.097	11847
880.224	11878
880.351	11916
880.478	11954
880.605	11874
880.732	11851
880.859	11992
880.986	11843
881.112	11901
881.239	11691
881.366	11589
881.493	11638
881.619	11554
881.746	11592
881.872	11558
881.999	11497
882.125	11493
882.252	11573
882.378	11474
882.505	11592
882.631	11360
882.757	11220
882.883	11383
883.01	11261
883.136	11197
883.262	11128
883.388	11121
883.514	11208
883.64	11140
883.766	11102
883.892	11075
884.018	10987
884.143	11056
884.269	11136
884.395	10809
884.52	10835
884.646	10782
884.772	10691
884.897	10714
885.023	10675
885.148	10706
885.274	10771
885.399	10736
885.524	10637
885.65	10596
885.775	10630
885.9	10580
886.025	10641
886.15	10504
886.275	10531
886.4	10371
886.525	10390
886.65	10337
886.775	10261
886.9	10424
887.025	10493
887.149	10360
887.274	10261
887.399	10154
887.523	10173
887.648	10086
887.773	10120
887.897	10230
888.021	10272
888.146	10116
888.27	10261
888.395	10261
888.519	10131
888.643	10261
888.767	10295
888.891	10181
889.015	10063
889.139	10036
889.263	9968
889.387	10074
889.511	10139
889.635	10097
889.759	9972
889.883	10029
890.006	10013
890.13	10051
890.254	9941
890.377	10040
890.501	9911
890.624	9827
890.748	9907
890.871	9827
890.995	9751
891.118	9770
891.241	9816
891.364	9728
891.488	9831
891.611	9793
891.734	9812
891.857	9770
891.98	9690
892.103	9648
892.226	9781
892.349	9690
892.471	9492
892.594	9618
892.717	9644
892.839	9656
892.962	9622
893.085	9587
893.207	9603
893.33	9488
893.452	9549
893.575	9641
893.697	9492
893.819	9629
893.941	9698
894.064	9572
894.186	9389
894.308	9420
894.43	9603
894.552	9682
894.674	9530
894.796	9447
894.918	9477
895.04	9321
895.161	9458
895.283	9363
895.405	9180
895.526	9310
895.648	9325
895.769	9245
895.891	9306
896.012	9283
896.134	9253
896.255	9237
896.376	9195
896.498	9135
896.619	9195
896.74	9131
896.861	9146
896.982	9317
897.103	9260
897.224	9176
897.345	9104
897.466	9009
897.587	9051
897.708	9081
897.828	9001
897.949	8937
898.07	8880
898.19	8921
898.311	9009
898.431	8872
898.552	8990
898.672	9001
898.792	8937
898.913	8952
899.033	8887
899.153	8689
899.273	8667
899.393	8804
899.513	8743
899.633	8777
899.753	8758
899.873	8743
899.993	8826
900.113	8785
900.232	8724
900.352	8663
900.472	8632
900.591	8640
900.711	8697
900.83	8560
900.95	8644
901.069	8762
901.189	8530
901.308	8507
901.427	8408
901.546	8514
901.665	8484
901.784	8511
901.904	8434
902.023	8366
902.141	8183
902.26	8199
902.379	8377
902.498	8233
902.617	8183
902.735	8286
902.854	8324
902.973	8240
903.091	8107
903.21	8187
903.328	8096
903.446	8058
903.565	8050
903.683	8092
903.801	8092
903.919	8134
904.038	8119
904.156	8005
904.274	8062
904.392	8039
904.51	8062
904.627	8016
904.745	8134
904.863	8119
904.981	7906
905.098	7849
905.216	7909
905.334	7917
905.451	7959
905.569	7936
905.686	7989
905.803	7951
905.921	7788
906.038	7913
906.155	7814
906.272	7677
906.389	7693
906.506	7658
906.623	7639
906.74	7616
906.857	7571
906.974	7556
907.091	7772
907.208	7792
907.324	7681
907.441	7647
907.557	7460
907.674	7434
907.79	7457
907.907	7426
908.023	7491
908.139	7514
908.256	7419
908.372	7354
908.488	7339
908.604	7331
908.72	7289
908.836	7285
908.952	7297
909.068	7270
909.184	7339
909.3	7263
909.415	7346
909.531	7263
909.647	7118
909.762	7118
909.878	7088
909.993	7099
910.108	7088
910.224	7072
910.339	7149
910.454	7103
910.57	7126
910.685	6932
910.8	7168
910.915	7137
911.03	7099
911.145	6966
911.259	6894
911.374	6878
911.489	6814
911.604	6833
911.718	6722
911.833	6738
911.947	6673
912.062	6665
912.176	6768
912.291	6703
912.405	6734
912.519	6863
912.633	6863
912.748	6734
912.862	6749
912.976	6623
913.09	6544
913.204	6631
913.318	6650
913.431	6783
913.545	6654
913.659	6715
913.772	6673
913.886	6506
914	6566
914.113	6665
914.226	6631
914.34	6604
914.453	6479
914.566	6631
914.68	6517
914.793	6536
914.906	6418
915.019	6464
915.132	6422
915.245	6372
915.358	6460
915.47	6479
915.583	6441
915.696	6513
915.809	6513
915.921	6502
916.034	6445
916.146	6418
916.259	6399
916.371	6506
916.483	6437
916.595	6399
916.708	6464
916.82	6331
916.932	6433
917.044	6456
917.156	6433
917.268	6365
917.38	6311
917.491	6410
917.603	6323
917.715	6395
917.826	6361
917.938	6391
918.049	6266
918.161	6414
918.272	6391
918.384	6414
918.495	6311
918.606	6251
918.717	6277
918.828	6292
918.939	6247
919.05	6167
919.161	6311
919.272	6178
919.383	6133
919.494	6296
919.604	6464
919.715	6319
919.826	6228
919.936	6281
920.047	6361
920.157	6296
920.267	6422
920.378	6273
920.488	6300
920.598	6494
920.708	6604
920.818	6456
920.928	6555
921.038	6635
921.148	6593
921.258	6361
921.368	6380
921.477	6194
921.587	6190
921.697	6079
921.806	6216
921.916	6129
922.025	5954
922.134	5958
922.244	5874
922.353	5969
922.462	5828
922.571	5779
922.68	5714
922.789	5756
922.898	5707
923.007	5661
923.116	5707
923.224	5726
923.333	5646
923.442	5680
923.55	5634
923.659	5627
923.767	5627
923.876	5512
923.984	5577
924.092	5478
924.201	5566
924.309	5562
924.417	5558
924.525	5524
924.633	5535
924.741	6304
924.849	5414
924.956	5490
925.064	5379
925.172	5368
925.279	5315
925.387	5402
925.494	5337
925.602	5471
925.709	5414
925.816	5353
925.924	5349
926.031	5379
926.138	5349
926.245	5345
926.352	5223
926.459	5364
926.566	5326
926.673	5277
926.779	5132
926.886	5113
926.993	5022
927.099	5056
927.206	4957
927.312	4908
927.419	4987
927.525	5056
927.631	4984
927.737	4908
927.843	4896
927.95	4824
928.056	4873
928.162	4820
928.267	4873
928.373	5398
928.479	4908
928.585	4706
928.69	4816
928.796	4759
928.901	4706
929.007	4618
929.112	4675
929.218	4706
929.323	4630
929.428	4569
929.533	4668
929.638	4481
929.743	4592
929.848	4618
929.953	4542
930.058	4428
930.163	4337
930.267	4341
930.372	4470
930.477	4295
930.581	4500
930.685	4356
930.79	4276
930.894	4284
930.998	4265
931.103	4409
931.207	4105
931.311	4116
931.415	4082
931.519	3960
931.623	3972
