Data from glass_V78500241_2418.txt Node
Date: Wed Sep 01 19:31:15 CST 2021
User: usil
Spectrometer: V785-0024
Trigger mode: 0
Integration Time (sec): 4.000000E-1
Scans to average: 1
Nonlinearity correction enabled: false
Boxcar width: 0
Storing dark spectrum: false
XAxis mode: Wavelengths
Number of Pixels in Spectrum: 1024
>>>>>Begin Spectral Data<<<<<
801.071	3694
801.214	3774
801.356	3713
801.499	3705
801.641	3717
801.783	3770
801.926	3838
802.068	3831
802.211	3861
802.353	3865
802.496	3819
802.638	3842
802.78	3884
802.923	3915
803.065	3915
803.208	3842
803.35	3854
803.492	3880
803.635	3896
803.777	3797
803.919	3823
804.061	4139
804.204	3930
804.346	3930
804.488	3903
804.63	4021
804.773	3926
804.915	4029
805.057	4116
805.199	4048
805.341	4063
805.483	4158
805.626	4128
805.768	4109
805.91	4192
806.052	4223
806.194	4158
806.336	4310
806.478	4219
806.62	4207
806.762	4169
806.904	4261
807.046	4318
807.188	4204
807.33	4192
807.472	4230
807.614	4177
807.756	4257
807.898	4154
808.04	4242
808.182	4295
808.324	4284
808.465	4375
808.607	4436
808.749	4493
808.891	4383
809.033	4504
809.174	4375
809.316	4253
809.458	4249
809.6	4158
809.741	4128
809.883	4154
810.025	4230
810.166	4143
810.308	4204
810.45	4249
810.591	4230
810.733	4287
810.875	4485
811.016	4866
811.158	5147
811.299	5189
811.441	5265
811.582	5090
811.724	4725
811.865	4462
812.007	4462
812.148	4417
812.29	4459
812.431	4398
812.573	4398
812.714	4383
812.855	4390
812.997	4440
813.138	4428
813.279	4417
813.421	4344
813.562	4394
813.703	4310
813.845	4341
813.986	4299
814.127	4204
814.268	4284
814.41	4272
814.551	4246
814.692	4299
814.833	4223
814.974	4272
815.115	4291
815.256	4272
815.397	4215
815.539	4211
815.68	4169
815.821	4223
815.962	4284
816.103	4253
816.244	4207
816.385	4219
816.526	4276
816.666	4215
816.807	4109
816.948	4150
817.089	4139
817.23	4082
817.371	4044
817.512	4078
817.653	4071
817.793	4006
817.934	4017
818.075	4093
818.216	4040
818.356	4097
818.497	3979
818.638	3884
818.778	3869
818.919	3896
819.06	3857
819.2	3903
819.341	3819
819.481	3842
819.622	3903
819.762	4010
819.903	3922
820.043	3850
820.184	3835
820.324	3816
820.465	3835
820.605	3888
820.746	3861
820.886	3793
821.026	3930
821.167	3915
821.307	3956
821.447	3937
821.588	3907
821.728	3918
821.868	3922
822.008	3892
822.149	3907
822.289	3846
822.429	3800
822.569	3732
822.709	3762
822.849	3694
822.99	3701
823.13	3774
823.27	3732
823.41	3705
823.55	3724
823.69	3717
823.83	3755
823.97	3660
824.11	3629
824.25	3595
824.389	3679
824.529	3610
824.669	3629
824.809	3698
824.949	3724
825.089	3728
825.228	3701
825.368	3587
825.508	3545
825.648	3580
825.787	3549
825.927	3618
826.067	3610
826.206	3663
826.346	3816
826.485	3812
826.625	3857
826.765	3934
826.904	3793
827.044	3595
827.183	3504
827.323	3431
827.462	3492
827.601	3443
827.741	3424
827.88	3450
828.02	3363
828.159	3412
828.298	3504
828.437	3526
828.577	3481
828.716	3576
828.855	3492
828.994	3401
829.134	3363
829.273	3428
829.412	3374
829.551	3355
829.69	3340
829.829	3397
829.968	3500
830.107	3420
830.246	3416
830.385	3348
830.524	3310
830.663	3287
830.802	3218
830.941	3169
831.08	3203
831.219	3272
831.357	3317
831.496	3458
831.635	3214
831.774	3169
831.913	3180
832.051	3131
832.19	3104
832.329	3214
832.467	3142
832.606	3085
832.744	3161
832.883	3165
833.022	3195
833.16	3245
833.299	3302
833.437	3325
833.576	3351
833.714	3393
833.852	3428
833.991	3431
834.129	3439
834.267	3412
834.406	3389
834.544	3405
834.682	3439
834.821	3378
834.959	3591
835.097	3420
835.235	3557
835.373	3469
835.511	3488
835.65	3458
835.788	3473
835.926	3386
836.064	3405
836.202	3409
836.34	3549
836.478	3572
836.615	3549
836.753	3591
836.891	3652
837.029	3584
837.167	3576
837.305	3557
837.443	3587
837.58	3511
837.718	3580
837.856	3545
837.993	3515
838.131	3595
838.269	3576
838.406	3610
838.544	3584
838.681	3515
838.819	3458
838.956	3355
839.094	3382
839.231	3447
839.369	3534
839.506	3698
839.643	3610
839.781	3454
839.918	3466
840.055	3500
840.193	3538
840.33	3504
840.467	3587
840.604	3591
840.742	3728
840.879	3538
841.016	3553
841.153	3557
841.29	3717
841.427	3713
841.564	3701
841.701	3736
841.838	3705
841.975	3686
842.112	3709
842.249	3644
842.385	3633
842.522	3800
842.659	3686
842.796	3671
842.933	3682
843.069	3709
843.206	3690
843.343	3793
843.479	3743
843.616	3819
843.752	3705
843.889	3663
844.025	3869
844.162	3671
844.298	3846
844.435	3793
844.571	3766
844.708	3880
844.844	3975
844.98	3975
845.117	3991
845.253	3896
845.389	3896
845.525	3922
845.661	3941
845.798	3842
845.934	3994
846.07	3934
846.206	4071
846.342	4124
846.478	4063
846.614	3987
846.75	3884
846.886	3888
847.022	4002
847.158	3930
847.294	3968
847.429	4074
847.565	3987
847.701	4211
847.837	3865
847.972	3846
848.108	4006
848.244	3934
848.379	3854
848.515	3785
848.65	3819
848.786	3800
848.921	3873
849.057	3903
849.192	3903
849.328	3865
849.463	3880
849.598	3869
849.734	3884
849.869	3819
850.004	3819
850.14	3800
850.275	3808
850.41	3724
850.545	3751
850.68	3770
850.815	3770
850.95	3812
851.085	3880
851.22	3854
851.355	3831
851.49	3800
851.625	3781
851.76	3755
851.895	3736
852.03	3724
852.165	3789
852.299	3831
852.434	3918
852.569	3804
852.703	3838
852.838	3907
852.973	4006
853.107	3953
853.242	3876
853.376	3831
853.511	3736
853.645	3819
853.78	3949
853.914	3896
854.048	3880
854.183	3899
854.317	3968
854.451	3998
854.585	3945
854.72	3937
854.854	4025
854.988	3922
855.122	4036
855.256	3922
855.39	4013
855.524	4090
855.658	4109
855.792	4101
855.926	4147
856.06	4177
856.194	4204
856.327	4105
856.461	4147
856.595	4154
856.729	4185
856.862	4265
856.996	4242
857.13	4295
857.263	4280
857.397	4363
857.53	4265
857.664	4333
857.797	4379
857.931	4424
858.064	4348
858.197	4436
858.331	4413
858.464	4363
858.597	4329
858.731	4409
858.864	4428
858.997	4409
859.13	4546
859.263	4512
859.396	4573
859.529	4508
859.662	4550
859.795	4527
859.928	4596
860.061	4698
860.194	4702
860.327	4679
860.46	4607
860.592	4706
860.725	4759
860.858	4694
860.99	4634
861.123	4694
861.256	4698
861.388	4752
861.521	5516
861.653	4653
861.786	4668
861.918	4740
862.05	4774
862.183	4835
862.315	4938
862.447	4900
862.58	4870
862.712	4786
862.844	4782
862.976	4858
863.108	4858
863.24	5178
863.372	4850
863.504	4889
863.636	4873
863.768	4984
863.9	4946
864.032	4896
864.164	4991
864.296	5006
864.428	5029
864.559	5086
864.691	5075
864.823	5086
864.954	5083
865.086	5147
865.217	5136
865.349	5124
865.48	5132
865.612	5193
865.743	5296
865.875	5151
866.006	5124
866.137	5246
866.269	5254
866.4	5235
866.531	5231
866.662	5193
866.793	5261
866.924	5277
867.055	5311
867.186	5284
867.317	5345
867.448	5311
867.579	5406
867.71	5421
867.841	5353
867.972	5433
868.103	5425
868.233	5497
868.364	5474
868.495	5509
868.625	5657
868.756	5722
868.886	5642
869.017	5722
869.147	5813
869.278	5870
869.408	5779
869.539	5783
869.669	5916
869.799	5916
869.929	5988
870.06	6034
870.19	6216
870.32	6220
870.45	6270
870.58	6323
870.71	6407
870.84	6460
870.97	6388
871.1	6460
871.23	6585
871.36	6681
871.489	6642
871.619	6749
871.749	6700
871.879	6863
872.008	6962
872.138	6947
872.267	6977
872.397	7000
872.526	6993
872.656	7050
872.785	7206
872.915	7419
873.044	7499
873.173	7575
873.303	7651
873.432	7727
873.561	7849
873.69	7894
873.819	7955
873.948	8115
874.077	8237
874.206	8347
874.335	8469
874.464	8610
874.593	8823
874.722	9005
874.851	9013
874.979	9184
875.108	9374
875.237	9416
875.365	9374
875.494	9625
875.623	9785
875.751	9888
875.88	10013
876.008	10109
876.136	10318
876.265	10523
876.393	10755
876.521	10649
876.65	10763
876.778	10904
876.906	10854
877.034	10984
877.162	11098
877.29	11121
877.418	11273
877.546	11303
877.674	11398
877.802	11490
877.93	11501
878.058	11436
878.185	11634
878.313	11627
878.441	11824
878.568	11585
878.696	11752
878.824	11836
878.951	11843
879.079	11961
879.206	12049
879.333	11988
879.461	12007
879.588	12038
879.715	12015
879.842	12213
879.97	12095
880.097	11882
880.224	11889
880.351	11783
880.478	11942
880.605	11855
880.732	11863
880.859	11965
880.986	11885
881.112	11863
881.239	11756
881.366	11653
881.493	11585
881.619	11482
881.746	11558
881.872	11516
881.999	11516
882.125	11452
882.252	11535
882.378	11524
882.505	11497
882.631	11356
882.757	11292
882.883	11280
883.01	11280
883.136	11181
883.262	11075
883.388	11048
883.514	11212
883.64	11143
883.766	11098
883.892	11029
884.018	11003
884.143	11056
884.269	11064
884.395	10885
884.52	10771
884.646	10782
884.772	10641
884.897	10691
885.023	10702
885.148	10694
885.274	10755
885.399	10615
885.524	10649
885.65	10550
885.775	10588
885.9	10516
886.025	10588
886.15	10569
886.275	10417
886.4	10394
886.525	10443
886.65	10360
886.775	10337
886.9	10508
887.025	10588
887.149	10341
887.274	10173
887.399	10185
887.523	10158
887.648	10124
887.773	10120
887.897	10242
888.021	10169
888.146	10188
888.27	10207
888.395	10173
888.519	10143
888.643	10211
888.767	10166
888.891	10120
889.015	9983
889.139	10021
889.263	9983
889.387	10063
889.511	10067
889.635	10010
889.759	9979
889.883	9949
890.006	9994
890.13	10074
890.254	9926
890.377	9941
890.501	9880
890.624	9850
890.748	9869
890.871	9831
890.995	9751
891.118	9709
891.241	9743
891.364	9675
891.488	9800
891.611	9682
891.734	9686
891.857	9720
891.98	9690
892.103	9698
892.226	9755
892.349	9622
892.471	9458
892.594	9538
892.717	9553
892.839	9591
892.962	9641
893.085	9656
893.207	9526
893.33	9523
893.452	9526
893.575	9564
893.697	9530
893.819	9549
893.941	9625
894.064	9584
894.186	9454
894.308	9382
894.43	9519
894.552	9549
894.674	9492
894.796	9355
894.918	9370
895.04	9310
895.161	9336
895.283	9332
895.405	9287
895.526	9222
895.648	9195
895.769	9256
895.891	9298
896.012	9226
896.134	9233
896.255	9150
896.376	9089
896.498	9150
896.619	9112
896.74	9028
896.861	9116
896.982	9237
897.103	9355
897.224	9058
897.345	9123
897.466	8960
897.587	9043
897.708	9108
897.828	9051
897.949	9005
898.07	8826
898.19	8895
898.311	9005
898.431	8876
898.552	8883
898.672	8891
898.792	8960
898.913	8921
899.033	8769
899.153	8746
899.273	8590
899.393	8674
899.513	8720
899.633	8735
899.753	8785
899.873	8640
899.993	8731
900.113	8754
900.232	8674
900.352	8629
900.472	8651
900.591	8518
900.711	8613
900.83	8518
900.95	8625
901.069	8701
901.189	8545
901.308	8412
901.427	8404
901.546	8423
901.665	8408
901.784	8499
901.904	8355
902.023	8282
902.141	8271
902.26	8218
902.379	8240
902.498	8202
902.617	8191
902.735	8290
902.854	8290
902.973	8309
903.091	8065
903.21	8134
903.328	8134
903.446	8077
903.565	8119
903.683	8031
903.801	8012
903.919	8062
904.038	8065
904.156	8069
904.274	8062
904.392	7955
904.51	7967
904.627	8005
904.745	8100
904.863	8096
904.981	7913
905.098	7833
905.216	7852
905.334	7925
905.451	7890
905.569	7944
905.686	7917
905.803	7894
905.921	7708
906.038	7902
906.155	7792
906.272	7734
906.389	7693
906.506	7643
906.623	7616
906.74	7624
906.857	7537
906.974	7586
907.091	7677
907.208	7655
907.324	7666
907.441	7609
907.557	7426
907.674	7411
907.79	7346
907.907	7308
908.023	7388
908.139	7419
908.256	7339
908.372	7422
908.488	7343
908.604	7244
908.72	7232
908.836	7232
908.952	7171
909.068	7236
909.184	7236
909.3	7213
909.415	7213
909.531	7282
909.647	7069
909.762	7168
909.878	7103
909.993	7107
910.108	7137
910.224	7069
910.339	7103
910.454	7004
910.57	7027
910.685	6951
910.8	7149
910.915	7118
911.03	7012
911.145	6928
911.259	6837
911.374	6821
911.489	6810
911.604	6837
911.718	6696
911.833	6711
911.947	6585
912.062	6608
912.176	6768
912.291	6741
912.405	6658
912.519	6837
912.633	6779
912.748	6753
912.862	6665
912.976	6627
913.09	6563
913.204	6506
913.318	6597
913.431	6681
913.545	6673
913.659	6692
913.772	6673
913.886	6582
914	6597
914.113	6582
914.226	6604
914.34	6589
914.453	6483
914.566	6559
914.68	6483
914.793	6464
914.906	6483
915.019	6357
915.132	6361
915.245	6395
915.358	6460
915.47	6441
915.583	6475
915.696	6407
915.809	6513
915.921	6513
916.034	6433
916.146	6422
916.259	6361
916.371	6460
916.483	6445
916.595	6380
916.708	6399
916.82	6369
916.932	6407
917.044	6342
917.156	6380
917.268	6296
917.38	6365
917.491	6331
917.603	6353
917.715	6422
917.826	6433
917.938	6319
918.049	6251
918.161	6327
918.272	6441
918.384	6433
918.495	6296
918.606	6311
918.717	6209
918.828	6251
918.939	6209
919.05	6197
919.161	6262
919.272	6091
919.383	6140
919.494	6266
919.604	6384
919.715	6285
919.826	6163
919.936	6243
920.047	6323
920.157	6197
920.267	6437
920.378	6308
920.488	6311
920.598	6464
920.708	6559
920.818	6445
920.928	6410
921.038	6604
921.148	6555
921.258	6350
921.368	6277
921.477	6220
921.587	6182
921.697	6011
921.806	6148
921.916	6129
922.025	5977
922.134	5870
922.244	5802
922.353	5874
922.462	5851
922.571	5771
922.68	5710
922.789	5688
922.898	5619
923.007	5649
923.116	5691
923.224	5665
923.333	5630
923.442	5611
923.55	5611
923.659	5570
923.767	5604
923.876	5524
923.984	5558
924.092	5505
924.201	5554
924.309	5558
924.417	5497
924.525	5463
924.633	5474
924.741	6220
924.849	5318
924.956	5459
925.064	5353
925.172	5299
925.279	5334
925.387	5330
925.494	5322
925.602	5436
925.709	5436
925.816	5280
925.924	5288
926.031	5292
926.138	5307
926.245	5303
926.352	5201
926.459	5284
926.566	5284
926.673	5147
926.779	5178
926.886	5113
926.993	5064
927.099	4961
927.206	4961
927.312	4927
927.419	4995
927.525	4972
927.631	5014
927.737	4870
927.843	4873
927.95	4763
928.056	4797
928.162	4847
928.267	4870
928.373	5185
928.479	4843
928.585	4645
928.69	4748
928.796	4763
928.901	4672
929.007	4622
929.112	4622
929.218	4630
929.323	4580
929.428	4500
929.533	4656
929.638	4531
929.743	4561
929.848	4493
929.953	4497
930.058	4443
930.163	4310
930.267	4329
930.372	4421
930.477	4314
930.581	4417
930.685	4318
930.79	4287
930.894	4280
930.998	4223
931.103	4402
931.207	4101
931.311	4128
931.415	4044
931.519	3949
931.623	3930
