Data from glass_V78500241_1317.txt Node
Date: Wed Sep 01 19:23:37 CST 2021
User: usil
Spectrometer: V785-0024
Trigger mode: 0
Integration Time (sec): 4.000000E-1
Scans to average: 1
Nonlinearity correction enabled: false
Boxcar width: 0
Storing dark spectrum: false
XAxis mode: Wavelengths
Number of Pixels in Spectrum: 1024
>>>>>Begin Spectral Data<<<<<
801.071	3720
801.214	3766
801.356	3728
801.499	3724
801.641	3732
801.783	3797
801.926	3869
802.068	3778
802.211	3899
802.353	3888
802.496	3857
802.638	3911
802.78	3926
802.923	3926
803.065	3854
803.208	3846
803.35	3827
803.492	3899
803.635	3934
803.777	3835
803.919	3941
804.061	4150
804.204	3918
804.346	3975
804.488	3911
804.63	4074
804.773	3987
804.915	4078
805.057	4162
805.199	4048
805.341	4131
805.483	4135
805.626	4169
805.768	4135
805.91	4215
806.052	4238
806.194	4204
806.336	4337
806.478	4207
806.62	4162
806.762	4162
806.904	4287
807.046	4375
807.188	4185
807.33	4147
807.472	4238
807.614	4181
807.756	4303
807.898	4242
808.04	4249
808.182	4280
808.324	4337
808.465	4360
808.607	4451
808.749	4474
808.891	4470
809.033	4504
809.174	4402
809.316	4265
809.458	4223
809.6	4215
809.741	4135
809.883	4143
810.025	4166
810.166	4253
810.308	4211
810.45	4284
810.591	4196
810.733	4280
810.875	4550
811.016	4843
811.158	5136
811.299	5284
811.441	5250
811.582	5060
811.724	4740
811.865	4447
812.007	4409
812.148	4478
812.29	4470
812.431	4466
812.573	4390
812.714	4356
812.855	4405
812.997	4409
813.138	4466
813.279	4413
813.421	4409
813.562	4383
813.703	4337
813.845	4352
813.986	4280
814.127	4234
814.268	4238
814.41	4268
814.551	4280
814.692	4299
814.833	4303
814.974	4306
815.115	4367
815.256	4215
815.397	4192
815.539	4261
815.68	4196
815.821	4219
815.962	4310
816.103	4276
816.244	4223
816.385	4196
816.526	4276
816.666	4207
816.807	4101
816.948	4185
817.089	4177
817.23	4078
817.371	4074
817.512	4063
817.653	4063
817.793	4044
817.934	4067
818.075	4097
818.216	4131
818.356	4109
818.497	3975
818.638	3926
818.778	3865
818.919	3869
819.06	3865
819.2	3915
819.341	3835
819.481	3804
819.622	3899
819.762	4010
819.903	3994
820.043	3861
820.184	3869
820.324	3808
820.465	3884
820.605	3842
820.746	3888
820.886	3797
821.026	3949
821.167	3934
821.307	3975
821.447	3972
821.588	3987
821.728	3922
821.868	3953
822.008	3873
822.149	3949
822.289	3953
822.429	3785
822.569	3732
822.709	3793
822.849	3698
822.99	3724
823.13	3812
823.27	3804
823.41	3736
823.55	3728
823.69	3778
823.83	3759
823.97	3682
824.11	3584
824.25	3610
824.389	3629
824.529	3667
824.669	3629
824.809	3766
824.949	3720
825.089	3732
825.228	3713
825.368	3587
825.508	3561
825.648	3580
825.787	3622
825.927	3625
826.067	3614
826.206	3675
826.346	3819
826.485	3831
826.625	3861
826.765	3953
826.904	3850
827.044	3591
827.183	3595
827.323	3496
827.462	3477
827.601	3428
827.741	3454
827.88	3428
828.02	3351
828.159	3454
828.298	3466
828.437	3561
828.577	3511
828.716	3584
828.855	3477
828.994	3351
829.134	3393
829.273	3397
829.412	3351
829.551	3374
829.69	3374
829.829	3420
829.968	3526
830.107	3382
830.246	3462
830.385	3359
830.524	3386
830.663	3329
830.802	3260
830.941	3184
831.08	3211
831.219	3298
831.357	3256
831.496	3367
831.635	3233
831.774	3226
831.913	3211
832.051	3161
832.19	3161
832.329	3233
832.467	3135
832.606	3100
832.744	3184
832.883	3192
833.022	3211
833.16	3253
833.299	3329
833.437	3336
833.576	3370
833.714	3420
833.852	3439
833.991	3416
834.129	3458
834.267	3450
834.406	3439
834.544	3450
834.682	3428
834.821	3424
834.959	3545
835.097	3450
835.235	3534
835.373	3515
835.511	3492
835.65	3462
835.788	3466
835.926	3386
836.064	3370
836.202	3386
836.34	3545
836.478	3591
836.615	3580
836.753	3652
836.891	3652
837.029	3629
837.167	3595
837.305	3557
837.443	3530
837.58	3496
837.718	3622
837.856	3561
837.993	3549
838.131	3595
838.269	3564
838.406	3557
838.544	3584
838.681	3454
838.819	3450
838.956	3401
839.094	3370
839.231	3473
839.369	3507
839.506	3751
839.643	3633
839.781	3511
839.918	3450
840.055	3500
840.193	3534
840.33	3523
840.467	3530
840.604	3606
840.742	3835
840.879	3523
841.016	3610
841.153	3587
841.29	3751
841.427	3762
841.564	3740
841.701	3762
841.838	3690
841.975	3701
842.112	3728
842.249	3644
842.385	3629
842.522	3854
842.659	3720
842.796	3671
842.933	3740
843.069	3690
843.206	3694
843.343	3827
843.479	3766
843.616	3827
843.752	3648
843.889	3709
844.025	3808
844.162	3690
844.298	3884
844.435	3812
844.571	3778
844.708	3876
844.844	4010
844.98	3979
845.117	4078
845.253	3915
845.389	3903
845.525	3960
845.661	3953
845.798	3934
845.934	4013
846.07	3964
846.206	4082
846.342	4131
846.478	4105
846.614	3972
846.75	3930
846.886	3922
847.022	4067
847.158	3987
847.294	4006
847.429	4055
847.565	4017
847.701	4234
847.837	3899
847.972	3850
848.108	3972
848.244	3979
848.379	3846
848.515	3823
848.65	3831
848.786	3896
848.921	3907
849.057	3945
849.192	3956
849.328	3903
849.463	3896
849.598	3850
849.734	3899
849.869	3854
850.004	3812
850.14	3785
850.275	3831
850.41	3774
850.545	3743
850.68	3831
850.815	3766
850.95	3781
851.085	3934
851.22	3880
851.355	3869
851.49	3804
851.625	3781
851.76	3800
851.895	3709
852.03	3717
852.165	3785
852.299	3857
852.434	3869
852.569	3857
852.703	3880
852.838	3930
852.973	3983
853.107	3979
853.242	3857
853.376	3896
853.511	3789
853.645	3835
853.78	3953
853.914	3876
854.048	3918
854.183	3869
854.317	3972
854.451	4090
854.585	3949
854.72	3968
854.854	4063
854.988	3930
855.122	4006
855.256	3956
855.39	4044
855.524	4120
855.658	4101
855.792	4120
855.926	4154
856.06	4173
856.194	4223
856.327	4169
856.461	4131
856.595	4162
856.729	4177
856.862	4310
856.996	4257
857.13	4287
857.263	4303
857.397	4402
857.53	4261
857.664	4371
857.797	4383
857.931	4394
858.064	4421
858.197	4462
858.331	4455
858.464	4344
858.597	4375
858.731	4424
858.864	4455
858.997	4462
859.13	4508
859.263	4535
859.396	4580
859.529	4478
859.662	4497
859.795	4546
859.928	4630
860.061	4706
860.194	4706
860.327	4630
860.46	4664
860.592	4786
860.725	4771
860.858	4793
860.99	4717
861.123	4717
861.256	4710
861.388	4774
861.521	5410
861.653	4660
861.786	4721
861.918	4710
862.05	4835
862.183	4839
862.315	4862
862.447	4919
862.58	4873
862.712	4786
862.844	4790
862.976	4885
863.108	4919
863.24	5178
863.372	4824
863.504	4896
863.636	4866
863.768	4968
863.9	4927
864.032	4866
864.164	4938
864.296	5041
864.428	5162
864.559	5124
864.691	5102
864.823	5117
864.954	5121
865.086	5132
865.217	5090
865.349	5140
865.48	5178
865.612	5193
865.743	5303
865.875	5242
866.006	5132
866.137	5280
866.269	5212
866.4	5273
866.531	5296
866.662	5231
866.793	5258
866.924	5277
867.055	5337
867.186	5299
867.317	5368
867.448	5299
867.579	5345
867.71	5383
867.841	5368
867.972	5436
868.103	5471
868.233	5539
868.364	5490
868.495	5547
868.625	5634
868.756	5760
868.886	5680
869.017	5718
869.147	5824
869.278	5885
869.408	5821
869.539	5832
869.669	5961
869.799	5920
869.929	5931
870.06	6041
870.19	6178
870.32	6167
870.45	6277
870.58	6296
870.71	6445
870.84	6433
870.97	6422
871.1	6441
871.23	6604
871.36	6741
871.489	6677
871.619	6738
871.749	6768
871.879	6863
872.008	6973
872.138	6935
872.267	7031
872.397	6943
872.526	7012
872.656	7168
872.785	7209
872.915	7358
873.044	7506
873.173	7567
873.303	7628
873.432	7822
873.561	7909
873.69	7940
873.819	8016
873.948	8218
874.077	8240
874.206	8351
874.335	8480
874.464	8648
874.593	8830
874.722	8910
874.851	9131
874.979	9245
875.108	9363
875.237	9389
875.365	9591
875.494	9682
875.623	9838
875.751	9819
875.88	10048
876.008	10139
876.136	10284
876.265	10443
876.393	10694
876.521	10698
876.65	10805
876.778	10904
876.906	10873
877.034	10980
877.162	11113
877.29	11147
877.418	11345
877.546	11353
877.674	11452
877.802	11463
877.93	11634
878.058	11581
878.185	11592
878.313	11668
878.441	11741
878.568	11596
878.696	11733
878.824	11843
878.951	11954
879.079	12087
879.206	12034
879.333	12015
879.461	11878
879.588	12121
879.715	12068
879.842	12273
879.97	12011
880.097	11847
880.224	11916
880.351	11821
880.478	11908
880.605	11878
880.732	11798
880.859	11958
880.986	11767
881.112	11889
881.239	11748
881.366	11703
881.493	11577
881.619	11554
881.746	11535
881.872	11551
881.999	11436
882.125	11520
882.252	11562
882.378	11524
882.505	11581
882.631	11395
882.757	11258
882.883	11296
883.01	11334
883.136	11231
883.262	11117
883.388	11041
883.514	11166
883.64	11223
883.766	11124
883.892	11006
884.018	10987
884.143	11022
884.269	11155
884.395	10744
884.52	10801
884.646	10824
884.772	10717
884.897	10649
885.023	10721
885.148	10717
885.274	10721
885.399	10725
885.524	10653
885.65	10554
885.775	10588
885.9	10592
886.025	10592
886.15	10588
886.275	10462
886.4	10386
886.525	10436
886.65	10363
886.775	10371
886.9	10485
887.025	10561
887.149	10405
887.274	10196
887.399	10162
887.523	10325
887.648	10169
887.773	10105
887.897	10306
888.021	10303
888.146	10158
888.27	10253
888.395	10181
888.519	10196
888.643	10131
888.767	10200
888.891	10112
889.015	10036
889.139	10067
889.263	9987
889.387	10101
889.511	10074
889.635	10013
889.759	9915
889.883	9994
890.006	10025
890.13	10097
890.254	10010
890.377	9994
890.501	9888
890.624	9800
890.748	9911
890.871	9842
890.995	9759
891.118	9736
891.241	9781
891.364	9686
891.488	9911
891.611	9804
891.734	9667
891.857	9785
891.98	9709
892.103	9736
892.226	9793
892.349	9625
892.471	9515
892.594	9595
892.717	9568
892.839	9545
892.962	9606
893.085	9648
893.207	9644
893.33	9538
893.452	9542
893.575	9637
893.697	9561
893.819	9633
893.941	9587
894.064	9591
894.186	9428
894.308	9454
894.43	9542
894.552	9606
894.674	9549
894.796	9363
894.918	9355
895.04	9317
895.161	9405
895.283	9332
895.405	9192
895.526	9291
895.648	9211
895.769	9268
895.891	9245
896.012	9302
896.134	9283
896.255	9188
896.376	9131
896.498	9123
896.619	9131
896.74	9077
896.861	9070
896.982	9253
897.103	9420
897.224	9230
897.345	9058
897.466	8975
897.587	9009
897.708	9108
897.828	8986
897.949	8921
898.07	8895
898.19	8895
898.311	9005
898.431	8880
898.552	8910
898.672	9024
898.792	8960
898.913	8902
899.033	8876
899.153	8716
899.273	8670
899.393	8708
899.513	8708
899.633	8739
899.753	8724
899.873	8640
899.993	8819
900.113	8708
900.232	8674
900.352	8659
900.472	8594
900.591	8495
900.711	8625
900.83	8549
900.95	8712
901.069	8705
901.189	8598
901.308	8480
901.427	8393
901.546	8419
901.665	8457
901.784	8492
901.904	8457
902.023	8305
902.141	8252
902.26	8237
902.379	8294
902.498	8206
902.617	8248
902.735	8317
902.854	8301
902.973	8153
903.091	8119
903.21	8126
903.328	8153
903.446	8107
903.565	8081
903.683	8111
903.801	8069
903.919	8199
904.038	8073
904.156	8027
904.274	8126
904.392	8043
904.51	7970
904.627	8081
904.745	8058
904.863	8157
904.981	7963
905.098	7841
905.216	7917
905.334	7936
905.451	7868
905.569	7883
905.686	7982
905.803	7982
905.921	7811
906.038	7909
906.155	7818
906.272	7731
906.389	7708
906.506	7624
906.623	7632
906.74	7636
906.857	7540
906.974	7609
907.091	7712
907.208	7788
907.324	7613
907.441	7567
907.557	7464
907.674	7403
907.79	7491
907.907	7430
908.023	7476
908.139	7464
908.256	7358
908.372	7411
908.488	7419
908.604	7282
908.72	7259
908.836	7278
908.952	7209
909.068	7164
909.184	7301
909.3	7270
909.415	7316
909.531	7240
909.647	7126
909.762	7072
909.878	7118
909.993	7122
910.108	7118
910.224	7034
910.339	7156
910.454	7053
910.57	7019
910.685	6928
910.8	7149
910.915	7076
911.03	7050
911.145	6837
911.259	6871
911.374	6871
911.489	6798
911.604	6783
911.718	6719
911.833	6741
911.947	6703
912.062	6642
912.176	6696
912.291	6779
912.405	6692
912.519	6840
912.633	6806
912.748	6768
912.862	6730
912.976	6623
913.09	6521
913.204	6658
913.318	6597
913.431	6639
913.545	6623
913.659	6791
913.772	6639
913.886	6536
914	6517
914.113	6658
914.226	6646
914.34	6589
914.453	6475
914.566	6631
914.68	6536
914.793	6536
914.906	6426
915.019	6414
915.132	6422
915.245	6467
915.358	6486
915.47	6433
915.583	6509
915.696	6525
915.809	6555
915.921	6623
916.034	6452
916.146	6429
916.259	6372
916.371	6490
916.483	6414
916.595	6433
916.708	6418
916.82	6369
916.932	6357
917.044	6410
917.156	6350
917.268	6251
917.38	6331
917.491	6361
917.603	6361
917.715	6418
917.826	6410
917.938	6323
918.049	6224
918.161	6338
918.272	6384
918.384	6456
918.495	6380
918.606	6235
918.717	6209
918.828	6270
918.939	6266
919.05	6209
919.161	6308
919.272	6110
919.383	6171
919.494	6304
919.604	6418
919.715	6323
919.826	6289
919.936	6273
920.047	6315
920.157	6289
920.267	6445
920.378	6331
920.488	6300
920.598	6437
920.708	6597
920.818	6486
920.928	6490
921.038	6585
921.148	6601
921.258	6410
921.368	6277
921.477	6258
921.587	6182
921.697	6095
921.806	6159
921.916	6117
922.025	5992
922.134	5912
922.244	5908
922.353	6045
922.462	5897
922.571	5790
922.68	5729
922.789	5684
922.898	5718
923.007	5649
923.116	5756
923.224	5672
923.333	5710
923.442	5573
923.55	5577
923.659	5630
923.767	5661
923.876	5524
923.984	5623
924.092	5501
924.201	5573
924.309	5551
924.417	5570
924.525	5471
924.633	5535
924.741	6319
924.849	5421
924.956	5444
925.064	5353
925.172	5269
925.279	5280
925.387	5337
925.494	5353
925.602	5448
925.709	5406
925.816	5280
925.924	5334
926.031	5318
926.138	5341
926.245	5364
926.352	5277
926.459	5292
926.566	5322
926.673	5197
926.779	5193
926.886	5162
926.993	5033
927.099	5067
927.206	5010
927.312	4923
927.419	5064
927.525	4968
927.631	4972
927.737	4850
927.843	4866
927.95	4752
928.056	4843
928.162	4885
928.267	4873
928.373	5311
928.479	4843
928.585	4710
928.69	4782
928.796	4752
928.901	4679
929.007	4645
929.112	4668
929.218	4607
929.323	4622
929.428	4558
929.533	4664
929.638	4535
929.743	4546
929.848	4546
929.953	4550
930.058	4432
930.163	4272
930.267	4371
930.372	4424
930.477	4268
930.581	4432
930.685	4405
930.79	4268
930.894	4299
930.998	4227
931.103	4337
931.207	4143
931.311	4086
931.415	4048
931.519	3941
931.623	3922
