Data from glass_V78500241_2594.txt Node
Date: Wed Sep 01 19:32:28 CST 2021
User: usil
Spectrometer: V785-0024
Trigger mode: 0
Integration Time (sec): 4.000000E-1
Scans to average: 1
Nonlinearity correction enabled: false
Boxcar width: 0
Storing dark spectrum: false
XAxis mode: Wavelengths
Number of Pixels in Spectrum: 1024
>>>>>Begin Spectral Data<<<<<
801.071	3740
801.214	3789
801.356	3724
801.499	3724
801.641	3724
801.783	3778
801.926	3850
802.068	3827
802.211	3827
802.353	3896
802.496	3823
802.638	3873
802.78	3857
802.923	3956
803.065	3884
803.208	3854
803.35	3854
803.492	3865
803.635	3896
803.777	3835
803.919	3869
804.061	4143
804.204	3987
804.346	3941
804.488	3953
804.63	4067
804.773	3968
804.915	3975
805.057	4131
805.199	4063
805.341	4059
805.483	4135
805.626	4120
805.768	4097
805.91	4196
806.052	4211
806.194	4139
806.336	4306
806.478	4177
806.62	4158
806.762	4173
806.904	4227
807.046	4352
807.188	4158
807.33	4116
807.472	4246
807.614	4158
807.756	4268
807.898	4211
808.04	4207
808.182	4314
808.324	4322
808.465	4356
808.607	4455
808.749	4424
808.891	4447
809.033	4493
809.174	4390
809.316	4249
809.458	4230
809.6	4135
809.741	4116
809.883	4139
810.025	4215
810.166	4227
810.308	4219
810.45	4276
810.591	4192
810.733	4325
810.875	4516
811.016	4812
811.158	5128
811.299	5277
811.441	5239
811.582	5037
811.724	4687
811.865	4455
812.007	4451
812.148	4440
812.29	4402
812.431	4470
812.573	4348
812.714	4341
812.855	4398
812.997	4379
813.138	4489
813.279	4424
813.421	4409
813.562	4371
813.703	4291
813.845	4337
813.986	4268
814.127	4215
814.268	4242
814.41	4272
814.551	4234
814.692	4318
814.833	4265
814.974	4268
815.115	4268
815.256	4227
815.397	4230
815.539	4280
815.68	4173
815.821	4211
815.962	4306
816.103	4249
816.244	4238
816.385	4177
816.526	4257
816.666	4177
816.807	4128
816.948	4173
817.089	4154
817.23	4109
817.371	4036
817.512	4074
817.653	4067
817.793	4036
817.934	4017
818.075	4105
818.216	4109
818.356	4116
818.497	3968
818.638	3911
818.778	3930
818.919	3896
819.06	3835
819.2	3903
819.341	3850
819.481	3835
819.622	3907
819.762	3953
819.903	3899
820.043	3876
820.184	3835
820.324	3827
820.465	3892
820.605	3808
820.746	3884
820.886	3804
821.026	3930
821.167	3930
821.307	3907
821.447	3975
821.588	3911
821.728	3956
821.868	3960
822.008	3876
822.149	3926
822.289	3888
822.429	3793
822.569	3774
822.709	3793
822.849	3675
822.99	3713
823.13	3724
823.27	3743
823.41	3663
823.55	3701
823.69	3743
823.83	3679
823.97	3694
824.11	3599
824.25	3584
824.389	3599
824.529	3648
824.669	3625
824.809	3709
824.949	3740
825.089	3743
825.228	3709
825.368	3553
825.508	3576
825.648	3553
825.787	3603
825.927	3618
826.067	3572
826.206	3682
826.346	3819
826.485	3785
826.625	3857
826.765	3918
826.904	3838
827.044	3587
827.183	3515
827.323	3405
827.462	3481
827.601	3420
827.741	3405
827.88	3454
828.02	3351
828.159	3424
828.298	3488
828.437	3507
828.577	3450
828.716	3576
828.855	3530
828.994	3378
829.134	3348
829.273	3332
829.412	3321
829.551	3298
829.69	3367
829.829	3416
829.968	3485
830.107	3447
830.246	3469
830.385	3340
830.524	3370
830.663	3287
830.802	3291
830.941	3180
831.08	3192
831.219	3291
831.357	3222
831.496	3416
831.635	3199
831.774	3173
831.913	3169
832.051	3150
832.19	3127
832.329	3188
832.467	3123
832.606	3127
832.744	3138
832.883	3199
833.022	3199
833.16	3279
833.299	3302
833.437	3291
833.576	3332
833.714	3393
833.852	3435
833.991	3443
834.129	3450
834.267	3431
834.406	3393
834.544	3450
834.682	3389
834.821	3409
834.959	3545
835.097	3386
835.235	3492
835.373	3481
835.511	3462
835.65	3466
835.788	3450
835.926	3393
836.064	3386
836.202	3439
836.34	3576
836.478	3568
836.615	3534
836.753	3591
836.891	3610
837.029	3625
837.167	3549
837.305	3549
837.443	3511
837.58	3477
837.718	3618
837.856	3545
837.993	3519
838.131	3568
838.269	3564
838.406	3561
838.544	3564
838.681	3447
838.819	3435
838.956	3389
839.094	3359
839.231	3435
839.369	3523
839.506	3694
839.643	3591
839.781	3496
839.918	3435
840.055	3519
840.193	3534
840.33	3561
840.467	3526
840.604	3637
840.742	3789
840.879	3542
841.016	3580
841.153	3549
841.29	3736
841.427	3709
841.564	3709
841.701	3732
841.838	3717
841.975	3671
842.112	3698
842.249	3618
842.385	3644
842.522	3831
842.659	3652
842.796	3686
842.933	3675
843.069	3705
843.206	3740
843.343	3781
843.479	3804
843.616	3808
843.752	3686
843.889	3660
844.025	3819
844.162	3717
844.298	3827
844.435	3766
844.571	3770
844.708	3903
844.844	4006
844.98	3991
845.117	4013
845.253	3915
845.389	3884
845.525	3934
845.661	3983
845.798	3934
845.934	3979
846.07	3945
846.206	4040
846.342	4139
846.478	4071
846.614	3979
846.75	3903
846.886	3918
847.022	4044
847.158	3964
847.294	3979
847.429	4010
847.565	4010
847.701	4230
847.837	3896
847.972	3888
848.108	4017
848.244	3972
848.379	3884
848.515	3785
848.65	3766
848.786	3842
848.921	3831
849.057	3892
849.192	3926
849.328	3903
849.463	3930
849.598	3888
849.734	3884
849.869	3800
850.004	3827
850.14	3804
850.275	3720
850.41	3724
850.545	3766
850.68	3759
850.815	3759
850.95	3747
851.085	3945
851.22	3861
851.355	3816
851.49	3751
851.625	3778
851.76	3736
851.895	3732
852.03	3686
852.165	3778
852.299	3861
852.434	3926
852.569	3846
852.703	3850
852.838	3880
852.973	3941
853.107	3964
853.242	3899
853.376	3876
853.511	3720
853.645	3846
853.78	3964
853.914	3892
854.048	3911
854.183	3888
854.317	3930
854.451	4063
854.585	3964
854.72	3907
854.854	4055
854.988	3953
855.122	3975
855.256	3888
855.39	4040
855.524	4101
855.658	4048
855.792	4059
855.926	4124
856.06	4143
856.194	4223
856.327	4124
856.461	4078
856.595	4154
856.729	4166
856.862	4265
856.996	4238
857.13	4261
857.263	4280
857.397	4337
857.53	4268
857.664	4371
857.797	4348
857.931	4394
858.064	4386
858.197	4443
858.331	4352
858.464	4337
858.597	4386
858.731	4390
858.864	4512
858.997	4447
859.13	4512
859.263	4535
859.396	4546
859.529	4508
859.662	4508
859.795	4531
859.928	4596
860.061	4714
860.194	4752
860.327	4664
860.46	4683
860.592	4714
860.725	4717
860.858	4805
860.99	4683
861.123	4656
861.256	4706
861.388	4774
861.521	5330
861.653	4721
861.786	4660
861.918	4714
862.05	4733
862.183	4812
862.315	4847
862.447	4923
862.58	4900
862.712	4740
862.844	4763
862.976	4862
863.108	4850
863.24	5159
863.372	4850
863.504	4904
863.636	4881
863.768	4980
863.9	4976
864.032	4923
864.164	4953
864.296	5010
864.428	5041
864.559	5045
864.691	5109
864.823	5075
864.954	5105
865.086	5105
865.217	5098
865.349	5071
865.48	5140
865.612	5212
865.743	5269
865.875	5136
866.006	5174
866.137	5246
866.269	5250
866.4	5181
866.531	5201
866.662	5208
866.793	5261
866.924	5250
867.055	5330
867.186	5292
867.317	5288
867.448	5296
867.579	5368
867.71	5372
867.841	5383
867.972	5417
868.103	5364
868.233	5467
868.364	5501
868.495	5581
868.625	5741
868.756	5760
868.886	5638
869.017	5748
869.147	5805
869.278	5874
869.408	5798
869.539	5790
869.669	5893
869.799	5923
869.929	5996
870.06	6041
870.19	6148
870.32	6178
870.45	6247
870.58	6365
870.71	6422
870.84	6422
870.97	6342
871.1	6372
871.23	6589
871.36	6650
871.489	6646
871.619	6673
871.749	6749
871.879	6833
872.008	6981
872.138	6905
872.267	7019
872.397	6966
872.526	6981
872.656	7023
872.785	7179
872.915	7346
873.044	7537
873.173	7521
873.303	7689
873.432	7685
873.561	7822
873.69	7898
873.819	8008
873.948	8145
874.077	8206
874.206	8328
874.335	8446
874.464	8636
874.593	8876
874.722	8842
874.851	9138
874.979	9264
875.108	9401
875.237	9386
875.365	9408
875.494	9603
875.623	9880
875.751	9835
875.88	10006
876.008	10192
876.136	10249
876.265	10455
876.393	10622
876.521	10729
876.65	10847
876.778	10923
876.906	10873
877.034	10923
877.162	11079
877.29	11189
877.418	11284
877.546	11334
877.674	11379
877.802	11585
877.93	11535
878.058	11490
878.185	11490
878.313	11653
878.441	11737
878.568	11649
878.696	11764
878.824	11821
878.951	11965
879.079	12019
879.206	12110
879.333	12026
879.461	11920
879.588	12083
879.715	11999
879.842	12209
879.97	12038
880.097	11920
880.224	11840
880.351	11817
880.478	11878
880.605	11882
880.732	11828
880.859	11950
880.986	11767
881.112	11840
881.239	11714
881.366	11672
881.493	11577
881.619	11535
881.746	11600
881.872	11535
881.999	11551
882.125	11452
882.252	11543
882.378	11478
882.505	11539
882.631	11349
882.757	11356
882.883	11299
883.01	11246
883.136	11159
883.262	11041
883.388	10953
883.514	11239
883.64	11102
883.766	10999
883.892	10957
884.018	10976
884.143	11045
884.269	11067
884.395	10793
884.52	10744
884.646	10679
884.772	10736
884.897	10721
885.023	10721
885.148	10793
885.274	10740
885.399	10748
885.524	10664
885.65	10592
885.775	10550
885.9	10561
886.025	10634
886.15	10561
886.275	10519
886.4	10386
886.525	10436
886.65	10363
886.775	10371
886.9	10493
887.025	10459
887.149	10341
887.274	10242
887.399	10188
887.523	10261
887.648	10124
887.773	10124
887.897	10238
888.021	10166
888.146	10154
888.27	10147
888.395	10257
888.519	10143
888.643	10139
888.767	10162
888.891	10071
889.015	9953
889.139	10044
889.263	9949
889.387	10021
889.511	10154
889.635	9991
889.759	9911
889.883	9983
890.006	10002
890.13	10067
890.254	9968
890.377	9987
890.501	9895
890.624	9816
890.748	9968
890.871	9797
890.995	9846
891.118	9732
891.241	9778
891.364	9743
891.488	9793
891.611	9747
891.734	9728
891.857	9740
891.98	9709
892.103	9732
892.226	9728
892.349	9584
892.471	9526
892.594	9591
892.717	9599
892.839	9568
892.962	9637
893.085	9622
893.207	9618
893.33	9572
893.452	9515
893.575	9587
893.697	9477
893.819	9675
893.941	9625
894.064	9599
894.186	9492
894.308	9428
894.43	9496
894.552	9584
894.674	9526
894.796	9443
894.918	9401
895.04	9363
895.161	9355
895.283	9351
895.405	9253
895.526	9218
895.648	9138
895.769	9230
895.891	9245
896.012	9233
896.134	9176
896.255	9214
896.376	9036
896.498	9131
896.619	9127
896.74	9032
896.861	9017
896.982	9150
897.103	9291
897.224	9116
897.345	9055
897.466	8994
897.587	9043
897.708	9146
897.828	9005
897.949	8910
898.07	8891
898.19	8941
898.311	8925
898.431	8785
898.552	8899
898.672	9062
898.792	8918
898.913	8899
899.033	8750
899.153	8739
899.273	8610
899.393	8667
899.513	8689
899.633	8708
899.753	8754
899.873	8636
899.993	8697
900.113	8720
900.232	8689
900.352	8617
900.472	8617
900.591	8518
900.711	8617
900.83	8541
900.95	8625
901.069	8625
901.189	8552
901.308	8434
901.427	8370
901.546	8404
901.665	8473
901.784	8545
901.904	8396
902.023	8305
902.141	8195
902.26	8248
902.379	8317
902.498	8237
902.617	8145
902.735	8252
902.854	8279
902.973	8267
903.091	8134
903.21	8149
903.328	8195
903.446	8050
903.565	8077
903.683	8100
903.801	8027
903.919	8119
904.038	8054
904.156	8001
904.274	8035
904.392	8012
904.51	8123
904.627	8084
904.745	8088
904.863	8084
904.981	7913
905.098	7814
905.216	7868
905.334	7807
905.451	7947
905.569	7909
905.686	7986
905.803	7940
905.921	7769
906.038	7898
906.155	7772
906.272	7700
906.389	7712
906.506	7662
906.623	7655
906.74	7605
906.857	7597
906.974	7582
907.091	7658
907.208	7814
907.324	7616
907.441	7533
907.557	7419
907.674	7453
907.79	7373
907.907	7373
908.023	7453
908.139	7392
908.256	7339
908.372	7377
908.488	7305
908.604	7221
908.72	7255
908.836	7244
908.952	7221
909.068	7213
909.184	7217
909.3	7251
909.415	7305
909.531	7358
909.647	7057
909.762	7088
909.878	7069
909.993	7053
910.108	7046
910.224	7042
910.339	7160
910.454	7023
910.57	6951
910.685	6909
910.8	7129
910.915	7107
911.03	7084
911.145	6890
911.259	6871
911.374	6894
911.489	6848
911.604	6787
911.718	6700
911.833	6791
911.947	6665
912.062	6623
912.176	6623
912.291	6673
912.405	6688
912.519	6840
912.633	6787
912.748	6726
912.862	6639
912.976	6597
913.09	6494
913.204	6597
913.318	6559
913.431	6658
913.545	6673
913.659	6741
913.772	6582
913.886	6589
914	6494
914.113	6631
914.226	6570
914.34	6623
914.453	6544
914.566	6570
914.68	6521
914.793	6563
914.906	6418
915.019	6346
915.132	6395
915.245	6369
915.358	6460
915.47	6426
915.583	6475
915.696	6498
915.809	6525
915.921	6521
916.034	6399
916.146	6399
916.259	6315
916.371	6445
916.483	6433
916.595	6361
916.708	6426
916.82	6353
916.932	6395
917.044	6376
917.156	6369
917.268	6342
917.38	6285
917.491	6323
917.603	6323
917.715	6426
917.826	6418
917.938	6334
918.049	6201
918.161	6365
918.272	6422
918.384	6464
918.495	6300
918.606	6292
918.717	6197
918.828	6251
918.939	6285
919.05	6171
919.161	6213
919.272	6095
919.383	6163
919.494	6327
919.604	6437
919.715	6251
919.826	6152
919.936	6235
920.047	6323
920.157	6292
920.267	6479
920.378	6277
920.488	6292
920.598	6441
920.708	6513
920.818	6479
920.928	6433
921.038	6608
921.148	6490
921.258	6372
921.368	6292
921.477	6197
921.587	6148
921.697	6083
921.806	6224
921.916	6087
922.025	5912
922.134	5961
922.244	5840
922.353	5942
922.462	5866
922.571	5752
922.68	5707
922.789	5665
922.898	5680
923.007	5630
923.116	5623
923.224	5661
923.333	5688
923.442	5554
923.55	5562
923.659	5608
923.767	5627
923.876	5532
923.984	5589
924.092	5516
924.201	5585
924.309	5505
924.417	5512
924.525	5452
924.633	5501
924.741	6243
924.849	5364
924.956	5448
925.064	5368
925.172	5292
925.279	5299
925.387	5364
925.494	5360
925.602	5421
925.709	5353
925.816	5265
925.924	5334
926.031	5357
926.138	5231
926.245	5341
926.352	5181
926.459	5311
926.566	5296
926.673	5155
926.779	5124
926.886	5113
926.993	5010
927.099	5025
927.206	4995
927.312	4968
927.419	5014
927.525	4934
927.631	5014
927.737	4881
927.843	4812
927.95	4797
928.056	4782
928.162	4816
928.267	4866
928.373	5204
928.479	4831
928.585	4637
928.69	4767
928.796	4763
928.901	4691
929.007	4588
929.112	4645
929.218	4630
929.323	4573
929.428	4584
929.533	4653
929.638	4489
929.743	4497
929.848	4493
929.953	4451
930.058	4493
930.163	4356
930.267	4360
930.372	4413
930.477	4253
930.581	4398
930.685	4341
930.79	4227
930.894	4272
930.998	4234
931.103	4333
931.207	4109
931.311	4109
931.415	4040
931.519	3941
931.623	3880
