Data from glass_V78500241_2563.txt Node
Date: Wed Sep 01 19:32:16 CST 2021
User: usil
Spectrometer: V785-0024
Trigger mode: 0
Integration Time (sec): 4.000000E-1
Scans to average: 1
Nonlinearity correction enabled: false
Boxcar width: 0
Storing dark spectrum: false
XAxis mode: Wavelengths
Number of Pixels in Spectrum: 1024
>>>>>Begin Spectral Data<<<<<
801.071	3743
801.214	3740
801.356	3679
801.499	3732
801.641	3694
801.783	3762
801.926	3846
802.068	3808
802.211	3838
802.353	3865
802.496	3819
802.638	3884
802.78	3911
802.923	3918
803.065	3880
803.208	3835
803.35	3831
803.492	3915
803.635	3884
803.777	3808
803.919	3861
804.061	4116
804.204	3922
804.346	3937
804.488	3911
804.63	4013
804.773	3953
804.915	4044
805.057	4116
805.199	4044
805.341	4067
805.483	4097
805.626	4128
805.768	4124
805.91	4223
806.052	4249
806.194	4211
806.336	4348
806.478	4150
806.62	4177
806.762	4185
806.904	4204
807.046	4337
807.188	4215
807.33	4207
807.472	4219
807.614	4215
807.756	4272
807.898	4196
808.04	4196
808.182	4284
808.324	4310
808.465	4367
808.607	4455
808.749	4356
808.891	4497
809.033	4485
809.174	4413
809.316	4246
809.458	4238
809.6	4105
809.741	4112
809.883	4116
810.025	4211
810.166	4249
810.308	4139
810.45	4268
810.591	4215
810.733	4341
810.875	4497
811.016	4790
811.158	5162
811.299	5284
811.441	5307
811.582	5086
811.724	4706
811.865	4386
812.007	4436
812.148	4447
812.29	4428
812.431	4367
812.573	4383
812.714	4386
812.855	4417
812.997	4424
813.138	4493
813.279	4447
813.421	4409
813.562	4337
813.703	4303
813.845	4356
813.986	4238
814.127	4234
814.268	4234
814.41	4276
814.551	4261
814.692	4291
814.833	4261
814.974	4284
815.115	4284
815.256	4192
815.397	4246
815.539	4261
815.68	4162
815.821	4150
815.962	4238
816.103	4295
816.244	4204
816.385	4238
816.526	4280
816.666	4166
816.807	4090
816.948	4188
817.089	4185
817.23	4097
817.371	4025
817.512	4021
817.653	4051
817.793	4044
817.934	4013
818.075	4112
818.216	4051
818.356	4074
818.497	3979
818.638	3922
818.778	3888
818.919	3903
819.06	3861
819.2	3888
819.341	3842
819.481	3842
819.622	3880
819.762	4025
819.903	3934
820.043	3869
820.184	3812
820.324	3808
820.465	3854
820.605	3918
820.746	3865
820.886	3755
821.026	3937
821.167	3899
821.307	3983
821.447	3975
821.588	3926
821.728	3941
821.868	3911
822.008	3865
822.149	3873
822.289	3907
822.429	3781
822.569	3743
822.709	3755
822.849	3694
822.99	3701
823.13	3762
823.27	3766
823.41	3705
823.55	3713
823.69	3747
823.83	3728
823.97	3682
824.11	3618
824.25	3587
824.389	3610
824.529	3656
824.669	3610
824.809	3701
824.949	3705
825.089	3724
825.228	3686
825.368	3595
825.508	3557
825.648	3553
825.787	3576
825.927	3610
826.067	3614
826.206	3610
826.346	3732
826.485	3800
826.625	3876
826.765	3899
826.904	3823
827.044	3580
827.183	3504
827.323	3409
827.462	3523
827.601	3447
827.741	3416
827.88	3420
828.02	3382
828.159	3401
828.298	3450
828.437	3534
828.577	3492
828.716	3580
828.855	3466
828.994	3313
829.134	3336
829.273	3405
829.412	3340
829.551	3302
829.69	3363
829.829	3424
829.968	3511
830.107	3412
830.246	3431
830.385	3363
830.524	3409
830.663	3306
830.802	3249
830.941	3241
831.08	3203
831.219	3253
831.357	3264
831.496	3393
831.635	3233
831.774	3176
831.913	3199
832.051	3116
832.19	3180
832.329	3199
832.467	3150
832.606	3085
832.744	3176
832.883	3176
833.022	3188
833.16	3260
833.299	3306
833.437	3336
833.576	3393
833.714	3401
833.852	3409
833.991	3420
834.129	3469
834.267	3382
834.406	3401
834.544	3405
834.682	3424
834.821	3405
834.959	3580
835.097	3416
835.235	3534
835.373	3492
835.511	3507
835.65	3401
835.788	3477
835.926	3367
836.064	3374
836.202	3386
836.34	3599
836.478	3599
836.615	3534
836.753	3591
836.891	3644
837.029	3603
837.167	3595
837.305	3538
837.443	3534
837.58	3488
837.718	3576
837.856	3549
837.993	3572
838.131	3603
838.269	3549
838.406	3561
838.544	3576
838.681	3435
838.819	3485
838.956	3370
839.094	3348
839.231	3405
839.369	3530
839.506	3736
839.643	3584
839.781	3511
839.918	3431
840.055	3492
840.193	3530
840.33	3466
840.467	3557
840.604	3599
840.742	3819
840.879	3530
841.016	3549
841.153	3603
841.29	3694
841.427	3644
841.564	3709
841.701	3736
841.838	3663
841.975	3660
842.112	3736
842.249	3648
842.385	3637
842.522	3797
842.659	3656
842.796	3671
842.933	3660
843.069	3755
843.206	3663
843.343	3812
843.479	3766
843.616	3793
843.752	3663
843.889	3713
844.025	3804
844.162	3686
844.298	3808
844.435	3770
844.571	3785
844.708	3854
844.844	3956
844.98	4040
845.117	4017
845.253	3949
845.389	3876
845.525	3968
845.661	3949
845.798	3903
845.934	4002
846.07	3937
846.206	4059
846.342	4105
846.478	3998
846.614	3926
846.75	3918
846.886	3926
847.022	4051
847.158	3972
847.294	3987
847.429	4017
847.565	4017
847.701	4204
847.837	3876
847.972	3831
848.108	3987
848.244	3979
848.379	3880
848.515	3835
848.65	3793
848.786	3819
848.921	3869
849.057	3884
849.192	3956
849.328	3880
849.463	3857
849.598	3899
849.734	3861
849.869	3861
850.004	3793
850.14	3823
850.275	3778
850.41	3732
850.545	3732
850.68	3770
850.815	3789
850.95	3812
851.085	3903
851.22	3831
851.355	3846
851.49	3759
851.625	3781
851.76	3778
851.895	3740
852.03	3686
852.165	3747
852.299	3835
852.434	3869
852.569	3892
852.703	3884
852.838	3930
852.973	3983
853.107	3975
853.242	3880
853.376	3850
853.511	3755
853.645	3842
853.78	3968
853.914	3850
854.048	3911
854.183	3915
854.317	3953
854.451	4055
854.585	3937
854.72	3934
854.854	4010
854.988	3934
855.122	3994
855.256	3930
855.39	4040
855.524	4131
855.658	4135
855.792	4048
855.926	4116
856.06	4162
856.194	4192
856.327	4166
856.461	4093
856.595	4169
856.729	4112
856.862	4257
856.996	4257
857.13	4306
857.263	4303
857.397	4329
857.53	4284
857.664	4314
857.797	4390
857.931	4409
858.064	4379
858.197	4421
858.331	4367
858.464	4402
858.597	4337
858.731	4443
858.864	4413
858.997	4424
859.13	4485
859.263	4546
859.396	4630
859.529	4546
859.662	4558
859.795	4504
859.928	4596
860.061	4675
860.194	4694
860.327	4664
860.46	4645
860.592	4702
860.725	4767
860.858	4771
860.99	4683
861.123	4683
861.256	4687
861.388	4812
861.521	5429
861.653	4698
861.786	4706
861.918	4790
862.05	4809
862.183	4809
862.315	4850
862.447	4885
862.58	4915
862.712	4790
862.844	4725
862.976	4824
863.108	4900
863.24	5170
863.372	4801
863.504	4877
863.636	4877
863.768	4991
863.9	4961
864.032	4915
864.164	4976
864.296	4995
864.428	5086
864.559	5090
864.691	5079
864.823	5124
864.954	5098
865.086	5121
865.217	5109
865.349	5124
865.48	5178
865.612	5140
865.743	5280
865.875	5204
866.006	5140
866.137	5254
866.269	5231
866.4	5254
866.531	5250
866.662	5220
866.793	5265
866.924	5231
867.055	5315
867.186	5284
867.317	5337
867.448	5318
867.579	5330
867.71	5417
867.841	5368
867.972	5543
868.103	5482
868.233	5474
868.364	5493
868.495	5547
868.625	5619
868.756	5729
868.886	5653
869.017	5752
869.147	5855
869.278	5794
869.408	5805
869.539	5817
869.669	5889
869.799	5904
869.929	5996
870.06	6003
870.19	6167
870.32	6117
870.45	6239
870.58	6304
870.71	6437
870.84	6437
870.97	6380
871.1	6426
871.23	6627
871.36	6658
871.489	6616
871.619	6688
871.749	6741
871.879	6909
872.008	7076
872.138	6878
872.267	7019
872.397	6981
872.526	7012
872.656	7110
872.785	7190
872.915	7312
873.044	7449
873.173	7518
873.303	7677
873.432	7746
873.561	7849
873.69	7902
873.819	8001
873.948	8153
874.077	8195
874.206	8275
874.335	8431
874.464	8686
874.593	8868
874.722	8971
874.851	9108
874.979	9256
875.108	9428
875.237	9363
875.365	9416
875.494	9576
875.623	9857
875.751	9819
875.88	9979
876.008	10143
876.136	10318
876.265	10538
876.393	10618
876.521	10714
876.65	10786
876.778	10828
876.906	10858
877.034	10976
877.162	11124
877.29	11090
877.418	11280
877.546	11379
877.674	11471
877.802	11398
877.93	11558
878.058	11623
878.185	11505
878.313	11653
878.441	11688
878.568	11748
878.696	11756
878.824	11843
878.951	11916
879.079	12003
879.206	12106
879.333	12011
879.461	11969
879.588	12034
879.715	12030
879.842	12235
879.97	12003
880.097	11973
880.224	11840
880.351	11847
880.478	11863
880.605	11824
880.732	11802
880.859	11969
880.986	11775
881.112	11874
881.239	11718
881.366	11684
881.493	11562
881.619	11524
881.746	11619
881.872	11509
881.999	11562
882.125	11524
882.252	11501
882.378	11452
882.505	11509
882.631	11421
882.757	11288
882.883	11349
883.01	11277
883.136	11128
883.262	11174
883.388	11109
883.514	11162
883.64	11178
883.766	11113
883.892	11029
884.018	10991
884.143	10972
884.269	11083
884.395	10873
884.52	10786
884.646	10809
884.772	10672
884.897	10622
885.023	10698
885.148	10694
885.274	10755
885.399	10664
885.524	10592
885.65	10588
885.775	10622
885.9	10603
886.025	10558
886.15	10535
886.275	10428
886.4	10363
886.525	10329
886.65	10443
886.775	10295
886.9	10504
887.025	10565
887.149	10337
887.274	10169
887.399	10162
887.523	10173
887.648	10086
887.773	10051
887.897	10215
888.021	10238
888.146	10097
888.27	10230
888.395	10185
888.519	10143
888.643	10158
888.767	10223
888.891	10128
889.015	10002
889.139	9975
889.263	10040
889.387	10101
889.511	10120
889.635	9991
889.759	9937
889.883	9934
890.006	9983
890.13	10071
890.254	9937
890.377	9987
890.501	9861
890.624	9899
890.748	9918
890.871	9785
890.995	9755
891.118	9751
891.241	9774
891.364	9713
891.488	9816
891.611	9743
891.734	9705
891.857	9755
891.98	9762
892.103	9747
892.226	9717
892.349	9694
892.471	9454
892.594	9564
892.717	9614
892.839	9606
892.962	9694
893.085	9660
893.207	9523
893.33	9561
893.452	9485
893.575	9553
893.697	9523
893.819	9557
893.941	9599
894.064	9511
894.186	9431
894.308	9401
894.43	9576
894.552	9542
894.674	9492
894.796	9363
894.918	9401
895.04	9272
895.161	9393
895.283	9329
895.405	9294
895.526	9279
895.648	9188
895.769	9249
895.891	9218
896.012	9302
896.134	9127
896.255	9184
896.376	9127
896.498	9100
896.619	9112
896.74	9009
896.861	9055
896.982	9222
897.103	9348
897.224	9218
897.345	9074
897.466	9009
897.587	8979
897.708	9062
897.828	8998
897.949	8902
898.07	8872
898.19	8960
898.311	9055
898.431	8910
898.552	8906
898.672	9039
898.792	8849
898.913	8914
899.033	8800
899.153	8689
899.273	8686
899.393	8682
899.513	8811
899.633	8716
899.753	8720
899.873	8697
899.993	8777
900.113	8678
900.232	8686
900.352	8644
900.472	8587
900.591	8473
900.711	8617
900.83	8473
900.95	8644
901.069	8724
901.189	8571
901.308	8400
901.427	8351
901.546	8336
901.665	8442
901.784	8492
901.904	8355
902.023	8305
902.141	8187
902.26	8183
902.379	8290
902.498	8256
902.617	8138
902.735	8275
902.854	8328
902.973	8301
903.091	8107
903.21	8115
903.328	8088
903.446	8119
903.565	8027
903.683	8058
903.801	8016
903.919	8092
904.038	8107
904.156	8096
904.274	8027
904.392	8062
904.51	7974
904.627	8031
904.745	8103
904.863	8111
904.981	7940
905.098	7909
905.216	7849
905.334	7868
905.451	7879
905.569	7894
905.686	7951
905.803	7944
905.921	7750
906.038	7860
906.155	7765
906.272	7655
906.389	7689
906.506	7609
906.623	7586
906.74	7582
906.857	7510
906.974	7575
907.091	7651
907.208	7753
907.324	7594
907.441	7548
907.557	7434
907.674	7476
907.79	7369
907.907	7441
908.023	7457
908.139	7441
908.256	7320
908.372	7339
908.488	7388
908.604	7263
908.72	7263
908.836	7305
908.952	7187
909.068	7240
909.184	7285
909.3	7285
909.415	7270
909.531	7274
909.647	7133
909.762	7080
909.878	7076
909.993	7129
910.108	7133
910.224	7065
910.339	7042
910.454	7057
910.57	6989
910.685	7008
910.8	7137
910.915	7084
911.03	7031
911.145	6916
911.259	6894
911.374	6844
911.489	6825
911.604	6791
911.718	6696
911.833	6703
911.947	6559
912.062	6566
912.176	6719
912.291	6715
912.405	6681
912.519	6798
912.633	6768
912.748	6688
912.862	6726
912.976	6582
913.09	6502
913.204	6585
913.318	6623
913.431	6681
913.545	6681
913.659	6776
913.772	6696
913.886	6513
914	6601
914.113	6612
914.226	6593
914.34	6620
914.453	6467
914.566	6639
914.68	6517
914.793	6532
914.906	6422
915.019	6380
915.132	6311
915.245	6418
915.358	6437
915.47	6448
915.583	6494
915.696	6486
915.809	6479
915.921	6555
916.034	6410
916.146	6429
916.259	6445
916.371	6448
916.483	6460
916.595	6384
916.708	6418
916.82	6395
916.932	6353
917.044	6388
917.156	6365
917.268	6308
917.38	6292
917.491	6342
917.603	6365
917.715	6407
917.826	6372
917.938	6266
918.049	6251
918.161	6334
918.272	6441
918.384	6418
918.495	6361
918.606	6247
918.717	6178
918.828	6289
918.939	6266
919.05	6220
919.161	6266
919.272	6087
919.383	6163
919.494	6205
919.604	6376
919.715	6331
919.826	6197
919.936	6235
920.047	6311
920.157	6289
920.267	6452
920.378	6292
920.488	6304
920.598	6414
920.708	6532
920.818	6407
920.928	6441
921.038	6631
921.148	6528
921.258	6338
921.368	6289
921.477	6197
921.587	6140
921.697	6095
921.806	6182
921.916	6121
922.025	5980
922.134	5946
922.244	5859
922.353	5923
922.462	5859
922.571	5817
922.68	5688
922.789	5691
922.898	5771
923.007	5627
923.116	5722
923.224	5707
923.333	5615
923.442	5577
923.55	5566
923.659	5600
923.767	5634
923.876	5570
923.984	5592
924.092	5448
924.201	5528
924.309	5581
924.417	5554
924.525	5433
924.633	5532
924.741	6270
924.849	5379
924.956	5444
925.064	5318
925.172	5284
925.279	5364
925.387	5334
925.494	5337
925.602	5436
925.709	5345
925.816	5269
925.924	5345
926.031	5387
926.138	5235
926.245	5284
926.352	5261
926.459	5353
926.566	5299
926.673	5231
926.779	5086
926.886	5166
926.993	4995
927.099	4987
927.206	4965
927.312	4965
927.419	4976
927.525	4972
927.631	5003
927.737	4908
927.843	4816
927.95	4771
928.056	4828
928.162	4835
928.267	4824
928.373	5223
928.479	4866
928.585	4668
928.69	4778
928.796	4733
928.901	4645
929.007	4558
929.112	4694
929.218	4588
929.323	4542
929.428	4531
929.533	4660
929.638	4523
929.743	4489
929.848	4592
929.953	4512
930.058	4432
930.163	4325
930.267	4303
930.372	4432
930.477	4310
930.581	4474
930.685	4371
930.79	4246
930.894	4265
930.998	4230
931.103	4360
931.207	4147
931.311	4082
931.415	4055
931.519	3899
931.623	3956
