Data from glass_V78500241_1752.txt Node
Date: Wed Sep 01 19:26:38 CST 2021
User: usil
Spectrometer: V785-0024
Trigger mode: 0
Integration Time (sec): 4.000000E-1
Scans to average: 1
Nonlinearity correction enabled: false
Boxcar width: 0
Storing dark spectrum: false
XAxis mode: Wavelengths
Number of Pixels in Spectrum: 1024
>>>>>Begin Spectral Data<<<<<
801.071	3705
801.214	3747
801.356	3671
801.499	3717
801.641	3694
801.783	3759
801.926	3869
802.068	3816
802.211	3835
802.353	3888
802.496	3831
802.638	3880
802.78	3857
802.923	3945
803.065	3854
803.208	3816
803.35	3846
803.492	3888
803.635	3949
803.777	3819
803.919	3869
804.061	4196
804.204	3972
804.346	3945
804.488	3922
804.63	4025
804.773	3979
804.915	4036
805.057	4143
805.199	4067
805.341	4040
805.483	4112
805.626	4135
805.768	4097
805.91	4215
806.052	4215
806.194	4162
806.336	4329
806.478	4242
806.62	4154
806.762	4196
806.904	4242
807.046	4352
807.188	4196
807.33	4124
807.472	4246
807.614	4188
807.756	4280
807.898	4227
808.04	4215
808.182	4310
808.324	4318
808.465	4402
808.607	4478
808.749	4436
808.891	4478
809.033	4489
809.174	4424
809.316	4234
809.458	4223
809.6	4116
809.741	4086
809.883	4147
810.025	4181
810.166	4249
810.308	4196
810.45	4223
810.591	4234
810.733	4287
810.875	4535
811.016	4797
811.158	5132
811.299	5216
811.441	5269
811.582	5060
811.724	4710
811.865	4500
812.007	4485
812.148	4459
812.29	4451
812.431	4394
812.573	4405
812.714	4398
812.855	4405
812.997	4421
813.138	4459
813.279	4409
813.421	4379
813.562	4375
813.703	4341
813.845	4375
813.986	4261
814.127	4230
814.268	4234
814.41	4257
814.551	4261
814.692	4318
814.833	4207
814.974	4310
815.115	4333
815.256	4249
815.397	4238
815.539	4257
815.68	4230
815.821	4169
815.962	4341
816.103	4257
816.244	4215
816.385	4219
816.526	4280
816.666	4211
816.807	4071
816.948	4162
817.089	4207
817.23	4169
817.371	4036
817.512	4032
817.653	4055
817.793	4025
817.934	4029
818.075	4086
818.216	4055
818.356	4112
818.497	3964
818.638	3949
818.778	3865
818.919	3880
819.06	3930
819.2	3892
819.341	3854
819.481	3850
819.622	3922
819.762	4017
819.903	3941
820.043	3907
820.184	3816
820.324	3835
820.465	3865
820.605	3892
820.746	3892
820.886	3789
821.026	3880
821.167	3899
821.307	3960
821.447	3987
821.588	3949
821.728	3911
821.868	3915
822.008	3880
822.149	3903
822.289	3918
822.429	3759
822.569	3797
822.709	3816
822.849	3679
822.99	3740
823.13	3732
823.27	3804
823.41	3720
823.55	3736
823.69	3720
823.83	3694
823.97	3736
824.11	3568
824.25	3576
824.389	3652
824.529	3648
824.669	3625
824.809	3747
824.949	3759
825.089	3747
825.228	3701
825.368	3580
825.508	3488
825.648	3553
825.787	3576
825.927	3644
826.067	3633
826.206	3648
826.346	3774
826.485	3827
826.625	3850
826.765	3972
826.904	3816
827.044	3652
827.183	3507
827.323	3431
827.462	3473
827.601	3424
827.741	3450
827.88	3443
828.02	3374
828.159	3462
828.298	3485
828.437	3488
828.577	3462
828.716	3595
828.855	3477
828.994	3386
829.134	3382
829.273	3382
829.412	3344
829.551	3340
829.69	3321
829.829	3443
829.968	3481
830.107	3416
830.246	3420
830.385	3393
830.524	3348
830.663	3294
830.802	3279
830.941	3237
831.08	3176
831.219	3272
831.357	3260
831.496	3416
831.635	3226
831.774	3192
831.913	3203
832.051	3142
832.19	3173
832.329	3214
832.467	3131
832.606	3127
832.744	3195
832.883	3203
833.022	3188
833.16	3275
833.299	3302
833.437	3332
833.576	3389
833.714	3389
833.852	3458
833.991	3439
834.129	3481
834.267	3443
834.406	3397
834.544	3454
834.682	3420
834.821	3431
834.959	3568
835.097	3389
835.235	3549
835.373	3458
835.511	3473
835.65	3466
835.788	3469
835.926	3393
836.064	3405
836.202	3435
836.34	3584
836.478	3606
836.615	3515
836.753	3580
836.891	3644
837.029	3610
837.167	3622
837.305	3606
837.443	3511
837.58	3504
837.718	3591
837.856	3580
837.993	3545
838.131	3561
838.269	3549
838.406	3572
838.544	3553
838.681	3466
838.819	3450
838.956	3344
839.094	3397
839.231	3458
839.369	3526
839.506	3709
839.643	3595
839.781	3458
839.918	3519
840.055	3519
840.193	3519
840.33	3542
840.467	3553
840.604	3572
840.742	3766
840.879	3545
841.016	3576
841.153	3610
841.29	3762
841.427	3709
841.564	3740
841.701	3720
841.838	3736
841.975	3698
842.112	3740
842.249	3663
842.385	3629
842.522	3850
842.659	3720
842.796	3641
842.933	3759
843.069	3724
843.206	3747
843.343	3846
843.479	3812
843.616	3808
843.752	3663
843.889	3682
844.025	3850
844.162	3747
844.298	3842
844.435	3823
844.571	3774
844.708	3911
844.844	4013
844.98	4048
845.117	3941
845.253	3953
845.389	3876
845.525	3937
845.661	3972
845.798	3926
845.934	3968
846.07	3968
846.206	4036
846.342	4120
846.478	4051
846.614	3960
846.75	3960
846.886	3953
847.022	4029
847.158	3953
847.294	3979
847.429	4051
847.565	4013
847.701	4257
847.837	3838
847.972	3865
848.108	3987
848.244	3941
848.379	3873
848.515	3812
848.65	3831
848.786	3800
848.921	3846
849.057	3972
849.192	3979
849.328	3888
849.463	3899
849.598	3892
849.734	3869
849.869	3865
850.004	3781
850.14	3781
850.275	3755
850.41	3720
850.545	3781
850.68	3751
850.815	3762
850.95	3766
851.085	3934
851.22	3861
851.355	3816
851.49	3766
851.625	3770
851.76	3762
851.895	3751
852.03	3682
852.165	3800
852.299	3835
852.434	3918
852.569	3876
852.703	3918
852.838	3873
852.973	4055
853.107	4032
853.242	3884
853.376	3827
853.511	3785
853.645	3804
853.78	3975
853.914	3896
854.048	3880
854.183	3842
854.317	3956
854.451	4051
854.585	3972
854.72	3926
854.854	4032
854.988	3941
855.122	3972
855.256	3918
855.39	4032
855.524	4097
855.658	4044
855.792	4067
855.926	4116
856.06	4227
856.194	4185
856.327	4150
856.461	4101
856.595	4131
856.729	4158
856.862	4272
856.996	4200
857.13	4284
857.263	4322
857.397	4356
857.53	4333
857.664	4333
857.797	4383
857.931	4417
858.064	4371
858.197	4466
858.331	4363
858.464	4371
858.597	4322
858.731	4455
858.864	4459
858.997	4455
859.13	4485
859.263	4531
859.396	4580
859.529	4516
859.662	4565
859.795	4519
859.928	4577
860.061	4698
860.194	4721
860.327	4736
860.46	4653
860.592	4767
860.725	4797
860.858	4752
860.99	4694
861.123	4691
861.256	4710
861.388	4805
861.521	5429
861.653	4740
861.786	4702
861.918	4729
862.05	4759
862.183	4866
862.315	4881
862.447	4900
862.58	4900
862.712	4805
862.844	4759
862.976	4892
863.108	4858
863.24	5239
863.372	4858
863.504	4847
863.636	4881
863.768	4938
863.9	4972
864.032	4896
864.164	4984
864.296	5079
864.428	5105
864.559	5067
864.691	5060
864.823	5117
864.954	5159
865.086	5117
865.217	5140
865.349	5075
865.48	5143
865.612	5162
865.743	5246
865.875	5212
866.006	5159
866.137	5254
866.269	5223
866.4	5261
866.531	5258
866.662	5212
866.793	5296
866.924	5265
867.055	5364
867.186	5341
867.317	5280
867.448	5265
867.579	5353
867.71	5360
867.841	5414
867.972	5486
868.103	5452
868.233	5547
868.364	5459
868.495	5627
868.625	5615
868.756	5824
868.886	5680
869.017	5733
869.147	5809
869.278	5840
869.408	5779
869.539	5809
869.669	5855
869.799	5939
869.929	5977
870.06	5992
870.19	6114
870.32	6209
870.45	6300
870.58	6266
870.71	6460
870.84	6464
870.97	6437
871.1	6418
871.23	6646
871.36	6677
871.489	6673
871.619	6711
871.749	6859
871.879	6856
872.008	7019
872.138	6970
872.267	6996
872.397	6966
872.526	7023
872.656	7091
872.785	7255
872.915	7411
873.044	7529
873.173	7533
873.303	7651
873.432	7788
873.561	7875
873.69	7917
873.819	8027
873.948	8126
874.077	8195
874.206	8301
874.335	8454
874.464	8701
874.593	8872
874.722	8971
874.851	9097
874.979	9211
875.108	9344
875.237	9435
875.365	9447
875.494	9675
875.623	9793
875.751	9857
875.88	9915
876.008	10158
876.136	10276
876.265	10485
876.393	10664
876.521	10675
876.65	10790
876.778	10877
876.906	10877
877.034	10938
877.162	11102
877.29	11273
877.418	11292
877.546	11341
877.674	11383
877.802	11414
877.93	11497
878.058	11615
878.185	11566
878.313	11646
878.441	11836
878.568	11661
878.696	11821
878.824	11824
878.951	11889
879.079	12022
879.206	12068
879.333	12030
879.461	11996
879.588	12022
879.715	12091
879.842	12228
879.97	12068
880.097	11946
880.224	11851
880.351	11885
880.478	11882
880.605	11870
880.732	11866
880.859	11996
880.986	11809
881.112	11771
881.239	11699
881.366	11672
881.493	11638
881.619	11604
881.746	11501
881.872	11474
881.999	11459
882.125	11539
882.252	11611
882.378	11436
882.505	11634
882.631	11425
882.757	11364
882.883	11341
883.01	11258
883.136	11277
883.262	11113
883.388	11086
883.514	11212
883.64	11136
883.766	11083
883.892	10961
884.018	10987
884.143	11128
884.269	11060
884.395	10873
884.52	10797
884.646	10778
884.772	10717
884.897	10714
885.023	10672
885.148	10786
885.274	10759
885.399	10645
885.524	10622
885.65	10508
885.775	10588
885.9	10637
886.025	10554
886.15	10656
886.275	10516
886.4	10348
886.525	10356
886.65	10261
886.775	10371
886.9	10424
887.025	10550
887.149	10375
887.274	10249
887.399	10185
887.523	10234
887.648	10090
887.773	10128
887.897	10253
888.021	10238
888.146	10086
888.27	10192
888.395	10211
888.519	10211
888.643	10223
888.767	10207
888.891	10078
889.015	10055
889.139	10078
889.263	9964
889.387	10086
889.511	10177
889.635	10082
889.759	9934
889.883	9964
890.006	10013
890.13	10135
890.254	9907
890.377	9918
890.501	9850
890.624	9934
890.748	9876
890.871	9762
890.995	9751
891.118	9717
891.241	9774
891.364	9701
891.488	9861
891.611	9724
891.734	9701
891.857	9785
891.98	9694
892.103	9800
892.226	9720
892.349	9625
892.471	9580
892.594	9644
892.717	9606
892.839	9637
892.962	9606
893.085	9622
893.207	9492
893.33	9405
893.452	9553
893.575	9564
893.697	9488
893.819	9633
893.941	9660
894.064	9572
894.186	9382
894.308	9348
894.43	9538
894.552	9603
894.674	9526
894.796	9370
894.918	9401
895.04	9249
895.161	9405
895.283	9313
895.405	9264
895.526	9283
895.648	9264
895.769	9207
895.891	9329
896.012	9264
896.134	9264
896.255	9260
896.376	9093
896.498	9135
896.619	9165
896.74	9058
896.861	9043
896.982	9287
897.103	9302
897.224	9119
897.345	9180
897.466	9017
897.587	9039
897.708	9036
897.828	9013
897.949	8937
898.07	8880
898.19	8979
898.311	8956
898.431	8891
898.552	8887
898.672	9028
898.792	8925
898.913	8952
899.033	8819
899.153	8689
899.273	8686
899.393	8670
899.513	8731
899.633	8762
899.753	8769
899.873	8750
899.993	8712
900.113	8766
900.232	8727
900.352	8693
900.472	8621
900.591	8533
900.711	8575
900.83	8423
900.95	8575
901.069	8651
901.189	8598
901.308	8419
901.427	8454
901.546	8396
901.665	8385
901.784	8552
901.904	8427
902.023	8366
902.141	8233
902.26	8187
902.379	8275
902.498	8210
902.617	8191
902.735	8279
902.854	8195
902.973	8286
903.091	8123
903.21	8142
903.328	8145
903.446	8073
903.565	8043
903.683	8157
903.801	8092
903.919	8111
904.038	8115
904.156	8058
904.274	8062
904.392	8008
904.51	8084
904.627	8073
904.745	8138
904.863	8115
904.981	7902
905.098	7894
905.216	7871
905.334	7906
905.451	7883
905.569	7875
905.686	7879
905.803	7932
905.921	7792
906.038	7887
906.155	7792
906.272	7689
906.389	7776
906.506	7658
906.623	7616
906.74	7544
906.857	7537
906.974	7597
907.091	7681
907.208	7704
907.324	7628
907.441	7620
907.557	7480
907.674	7411
907.79	7407
907.907	7426
908.023	7464
908.139	7441
908.256	7392
908.372	7388
908.488	7346
908.604	7247
908.72	7206
908.836	7274
908.952	7259
909.068	7244
909.184	7350
909.3	7236
909.415	7259
909.531	7297
909.647	7156
909.762	7118
909.878	7114
909.993	7175
910.108	7088
910.224	7095
910.339	7122
910.454	7023
910.57	7004
910.685	6932
910.8	7198
910.915	7095
911.03	7027
911.145	6897
911.259	6901
911.374	6905
911.489	6825
911.604	6821
911.718	6722
911.833	6726
911.947	6688
912.062	6623
912.176	6673
912.291	6658
912.405	6681
912.519	6772
912.633	6795
912.748	6738
912.862	6642
912.976	6642
913.09	6528
913.204	6547
913.318	6540
913.431	6665
913.545	6658
913.659	6707
913.772	6601
913.886	6563
914	6528
914.113	6635
914.226	6650
914.34	6574
914.453	6445
914.566	6612
914.68	6456
914.793	6525
914.906	6372
915.019	6445
915.132	6365
915.245	6437
915.358	6460
915.47	6448
915.583	6483
915.696	6422
915.809	6544
915.921	6483
916.034	6414
916.146	6433
916.259	6422
916.371	6433
916.483	6429
916.595	6380
916.708	6452
916.82	6369
916.932	6399
917.044	6429
917.156	6376
917.268	6311
917.38	6331
917.491	6365
917.603	6319
917.715	6391
917.826	6426
917.938	6315
918.049	6194
918.161	6281
918.272	6418
918.384	6445
918.495	6357
918.606	6243
918.717	6232
918.828	6247
918.939	6254
919.05	6178
919.161	6216
919.272	6144
919.383	6144
919.494	6258
919.604	6380
919.715	6239
919.826	6232
919.936	6266
920.047	6391
920.157	6300
920.267	6426
920.378	6323
920.488	6315
920.598	6407
920.708	6464
920.818	6467
920.928	6445
921.038	6544
921.148	6566
921.258	6266
921.368	6331
921.477	6220
921.587	6117
921.697	6079
921.806	6190
921.916	6064
922.025	5893
922.134	5912
922.244	5923
922.353	5939
922.462	5863
922.571	5790
922.68	5676
922.789	5672
922.898	5775
923.007	5638
923.116	5695
923.224	5634
923.333	5672
923.442	5600
923.55	5554
923.659	5562
923.767	5600
923.876	5551
923.984	5611
924.092	5547
924.201	5471
924.309	5543
924.417	5573
924.525	5433
924.633	5573
924.741	6266
924.849	5387
924.956	5478
925.064	5379
925.172	5326
925.279	5280
925.387	5360
925.494	5284
925.602	5402
925.709	5368
925.816	5242
925.924	5345
926.031	5360
926.138	5322
926.245	5318
926.352	5269
926.459	5273
926.566	5326
926.673	5250
926.779	5124
926.886	5094
926.993	5025
927.099	4980
927.206	4965
927.312	4915
927.419	5052
927.525	4972
927.631	4995
927.737	4908
927.843	4850
927.95	4759
928.056	4778
928.162	4790
928.267	4866
928.373	5330
928.479	4831
928.585	4714
928.69	4736
928.796	4755
928.901	4656
929.007	4584
929.112	4706
929.218	4664
929.323	4577
929.428	4508
929.533	4668
929.638	4516
929.743	4535
929.848	4569
929.953	4500
930.058	4428
930.163	4333
930.267	4310
930.372	4405
930.477	4276
930.581	4481
930.685	4390
930.79	4230
930.894	4261
930.998	4253
931.103	4314
931.207	4097
931.311	4078
931.415	4010
931.519	3911
931.623	3915
