Data from glass_V78500241_2809.txt Node
Date: Wed Sep 01 19:33:58 CST 2021
User: usil
Spectrometer: V785-0024
Trigger mode: 0
Integration Time (sec): 4.000000E-1
Scans to average: 1
Nonlinearity correction enabled: false
Boxcar width: 0
Storing dark spectrum: false
XAxis mode: Wavelengths
Number of Pixels in Spectrum: 1024
>>>>>Begin Spectral Data<<<<<
801.071	3728
801.214	3713
801.356	3720
801.499	3743
801.641	3682
801.783	3743
801.926	3819
802.068	3789
802.211	3857
802.353	3873
802.496	3816
802.638	3915
802.78	3861
802.923	3911
803.065	3854
803.208	3835
803.35	3835
803.492	3873
803.635	3869
803.777	3781
803.919	3884
804.061	4150
804.204	3979
804.346	3960
804.488	3911
804.63	4032
804.773	3926
804.915	4044
805.057	4090
805.199	4025
805.341	4078
805.483	4154
805.626	4207
805.768	4147
805.91	4185
806.052	4192
806.194	4166
806.336	4329
806.478	4173
806.62	4131
806.762	4139
806.904	4253
807.046	4318
807.188	4185
807.33	4154
807.472	4211
807.614	4211
807.756	4185
807.898	4261
808.04	4207
808.182	4242
808.324	4318
808.465	4379
808.607	4440
808.749	4432
808.891	4398
809.033	4531
809.174	4367
809.316	4215
809.458	4246
809.6	4169
809.741	4139
809.883	4150
810.025	4192
810.166	4204
810.308	4147
810.45	4215
810.591	4227
810.733	4265
810.875	4519
811.016	4831
811.158	5098
811.299	5269
811.441	5307
811.582	5094
811.724	4717
811.865	4508
812.007	4455
812.148	4447
812.29	4371
812.431	4409
812.573	4394
812.714	4325
812.855	4409
812.997	4409
813.138	4459
813.279	4356
813.421	4402
813.562	4398
813.703	4276
813.845	4329
813.986	4253
814.127	4223
814.268	4253
814.41	4249
814.551	4249
814.692	4280
814.833	4249
814.974	4280
815.115	4333
815.256	4230
815.397	4246
815.539	4230
815.68	4185
815.821	4204
815.962	4303
816.103	4257
816.244	4227
816.385	4192
816.526	4249
816.666	4200
816.807	4071
816.948	4173
817.089	4192
817.23	4158
817.371	4040
817.512	4036
817.653	4074
817.793	4002
817.934	3994
818.075	4051
818.216	4025
818.356	4105
818.497	4006
818.638	3873
818.778	3892
818.919	3869
819.06	3827
819.2	3899
819.341	3850
819.481	3854
819.622	3918
819.762	4021
819.903	3937
820.043	3873
820.184	3793
820.324	3819
820.465	3827
820.605	3842
820.746	3857
820.886	3732
821.026	3956
821.167	3930
821.307	3934
821.447	3956
821.588	3987
821.728	3964
821.868	3915
822.008	3800
822.149	3880
822.289	3907
822.429	3755
822.569	3675
822.709	3838
822.849	3663
822.99	3709
823.13	3724
823.27	3728
823.41	3709
823.55	3679
823.69	3713
823.83	3759
823.97	3701
824.11	3606
824.25	3576
824.389	3591
824.529	3679
824.669	3591
824.809	3705
824.949	3720
825.089	3629
825.228	3690
825.368	3561
825.508	3538
825.648	3496
825.787	3572
825.927	3595
826.067	3606
826.206	3633
826.346	3785
826.485	3831
826.625	3838
826.765	3903
826.904	3819
827.044	3572
827.183	3519
827.323	3416
827.462	3496
827.601	3397
827.741	3359
827.88	3435
828.02	3389
828.159	3428
828.298	3488
828.437	3576
828.577	3458
828.716	3576
828.855	3450
828.994	3367
829.134	3374
829.273	3397
829.412	3302
829.551	3336
829.69	3310
829.829	3386
829.968	3439
830.107	3424
830.246	3416
830.385	3370
830.524	3332
830.663	3317
830.802	3249
830.941	3211
831.08	3135
831.219	3253
831.357	3226
831.496	3389
831.635	3199
831.774	3150
831.913	3173
832.051	3127
832.19	3116
832.329	3199
832.467	3104
832.606	3066
832.744	3116
832.883	3173
833.022	3184
833.16	3245
833.299	3287
833.437	3302
833.576	3355
833.714	3397
833.852	3386
833.991	3431
834.129	3485
834.267	3435
834.406	3351
834.544	3401
834.682	3420
834.821	3409
834.959	3572
835.097	3389
835.235	3485
835.373	3488
835.511	3481
835.65	3435
835.788	3507
835.926	3359
836.064	3397
836.202	3431
836.34	3549
836.478	3599
836.615	3542
836.753	3603
836.891	3614
837.029	3614
837.167	3572
837.305	3557
837.443	3462
837.58	3511
837.718	3652
837.856	3584
837.993	3488
838.131	3568
838.269	3561
838.406	3549
838.544	3557
838.681	3462
838.819	3447
838.956	3363
839.094	3386
839.231	3405
839.369	3450
839.506	3713
839.643	3603
839.781	3526
839.918	3488
840.055	3519
840.193	3492
840.33	3488
840.467	3549
840.604	3587
840.742	3743
840.879	3538
841.016	3553
841.153	3561
841.29	3682
841.427	3732
841.564	3679
841.701	3732
841.838	3644
841.975	3660
842.112	3698
842.249	3625
842.385	3614
842.522	3808
842.659	3637
842.796	3663
842.933	3660
843.069	3690
843.206	3690
843.343	3762
843.479	3743
843.616	3835
843.752	3633
843.889	3606
844.025	3850
844.162	3705
844.298	3838
844.435	3770
844.571	3793
844.708	3896
844.844	3994
844.98	4013
845.117	3983
845.253	3926
845.389	3884
845.525	3911
845.661	3953
845.798	3873
845.934	3960
846.07	3937
846.206	4040
846.342	4074
846.478	4017
846.614	3953
846.75	3930
846.886	3896
847.022	4002
847.158	3991
847.294	4002
847.429	4029
847.565	3987
847.701	4268
847.837	3876
847.972	3876
848.108	3960
848.244	3975
848.379	3880
848.515	3804
848.65	3755
848.786	3827
848.921	3827
849.057	3899
849.192	3922
849.328	3876
849.463	3861
849.598	3884
849.734	3835
849.869	3823
850.004	3778
850.14	3831
850.275	3751
850.41	3698
850.545	3743
850.68	3770
850.815	3770
850.95	3720
851.085	3922
851.22	3884
851.355	3823
851.49	3770
851.625	3774
851.76	3808
851.895	3724
852.03	3720
852.165	3778
852.299	3800
852.434	3892
852.569	3808
852.703	3808
852.838	3926
852.973	3964
853.107	3979
853.242	3876
853.376	3823
853.511	3743
853.645	3819
853.78	3930
853.914	3903
854.048	3854
854.183	3873
854.317	3930
854.451	4044
854.585	3937
854.72	3968
854.854	4044
854.988	3918
855.122	3979
855.256	3903
855.39	4006
855.524	4097
855.658	4090
855.792	4112
855.926	4173
856.06	4147
856.194	4166
856.327	4112
856.461	4135
856.595	4143
856.729	4150
856.862	4261
856.996	4223
857.13	4265
857.263	4310
857.397	4348
857.53	4219
857.664	4341
857.797	4352
857.931	4386
858.064	4352
858.197	4455
858.331	4360
858.464	4325
858.597	4314
858.731	4394
858.864	4443
858.997	4481
859.13	4443
859.263	4516
859.396	4603
859.529	4542
859.662	4542
859.795	4512
859.928	4592
860.061	4691
860.194	4729
860.327	4622
860.46	4603
860.592	4698
860.725	4752
860.858	4809
860.99	4702
861.123	4637
861.256	4702
861.388	4748
861.521	5246
861.653	4675
861.786	4672
861.918	4691
862.05	4717
862.183	4866
862.315	4866
862.447	4927
862.58	4862
862.712	4793
862.844	4755
862.976	4885
863.108	4850
863.24	5113
863.372	4854
863.504	4866
863.636	4854
863.768	4919
863.9	4953
864.032	4908
864.164	4980
864.296	4987
864.428	5041
864.559	5079
864.691	5075
864.823	5094
864.954	5113
865.086	5143
865.217	5083
865.349	5048
865.48	5216
865.612	5121
865.743	5292
865.875	5223
866.006	5159
866.137	5185
866.269	5208
866.4	5239
866.531	5254
866.662	5239
866.793	5273
866.924	5288
867.055	5360
867.186	5296
867.317	5337
867.448	5303
867.579	5364
867.71	5406
867.841	5383
867.972	5425
868.103	5425
868.233	5516
868.364	5486
868.495	5497
868.625	5642
868.756	5756
868.886	5668
869.017	5737
869.147	5802
869.278	5855
869.408	5805
869.539	5775
869.669	5851
869.799	5942
869.929	6064
870.06	6011
870.19	6140
870.32	6197
870.45	6232
870.58	6289
870.71	6410
870.84	6429
870.97	6418
871.1	6456
871.23	6650
871.36	6650
871.489	6627
871.619	6707
871.749	6791
871.879	6829
872.008	6951
872.138	6924
872.267	6989
872.397	6993
872.526	7004
872.656	7080
872.785	7152
872.915	7377
873.044	7495
873.173	7613
873.303	7636
873.432	7776
873.561	7818
873.69	7818
873.819	7967
873.948	8145
874.077	8263
874.206	8362
874.335	8434
874.464	8625
874.593	8891
874.722	8880
874.851	9070
874.979	9294
875.108	9355
875.237	9401
875.365	9431
875.494	9679
875.623	9724
875.751	9850
875.88	10032
876.008	10093
876.136	10257
876.265	10481
876.393	10691
876.521	10611
876.65	10820
876.778	10847
876.906	10942
877.034	10854
877.162	11052
877.29	11216
877.418	11269
877.546	11307
877.674	11429
877.802	11463
877.93	11558
878.058	11516
878.185	11562
878.313	11630
878.441	11798
878.568	11634
878.696	11794
878.824	11912
878.951	11897
879.079	11965
879.206	12270
879.333	12007
879.461	12030
879.588	12095
879.715	11999
879.842	12292
879.97	12057
880.097	11931
880.224	11798
880.351	11863
880.478	11813
880.605	11748
880.732	11805
880.859	12011
880.986	11832
881.112	11904
881.239	11722
881.366	11611
881.493	11581
881.619	11497
881.746	11619
881.872	11535
881.999	11493
882.125	11455
882.252	11562
882.378	11482
882.505	11535
882.631	11341
882.757	11330
882.883	11341
883.01	11235
883.136	11128
883.262	11155
883.388	11056
883.514	11117
883.64	11132
883.766	11121
883.892	10968
884.018	11022
884.143	11048
884.269	11159
884.395	10911
884.52	10744
884.646	10729
884.772	10698
884.897	10599
885.023	10630
885.148	10702
885.274	10694
885.399	10687
885.524	10679
885.65	10519
885.775	10531
885.9	10527
886.025	10535
886.15	10436
886.275	10424
886.4	10329
886.525	10375
886.65	10409
886.775	10287
886.9	10485
887.025	10577
887.149	10257
887.274	10211
887.399	10131
887.523	10128
887.648	10150
887.773	10082
887.897	10215
888.021	10215
888.146	10055
888.27	10162
888.395	10116
888.519	10215
888.643	10154
888.767	10223
888.891	10048
889.015	10021
889.139	10036
889.263	9899
889.387	10078
889.511	10067
889.635	10006
889.759	9926
889.883	10010
890.006	9941
890.13	10029
890.254	10006
890.377	9979
890.501	9816
890.624	9831
890.748	9975
890.871	9842
890.995	9793
891.118	9663
891.241	9732
891.364	9705
891.488	9819
891.611	9751
891.734	9728
891.857	9675
891.98	9709
892.103	9740
892.226	9663
892.349	9618
892.471	9443
892.594	9587
892.717	9610
892.839	9542
892.962	9641
893.085	9705
893.207	9561
893.33	9454
893.452	9515
893.575	9511
893.697	9435
893.819	9561
893.941	9580
894.064	9580
894.186	9401
894.308	9382
894.43	9492
894.552	9580
894.674	9473
894.796	9363
894.918	9386
895.04	9424
895.161	9416
895.283	9272
895.405	9188
895.526	9287
895.648	9161
895.769	9218
895.891	9233
896.012	9245
896.134	9233
896.255	9222
896.376	9100
896.498	9077
896.619	9039
896.74	9070
896.861	9051
896.982	9298
897.103	9310
897.224	9184
897.345	9055
897.466	9047
897.587	8914
897.708	9081
897.828	8998
897.949	8952
898.07	8868
898.19	8838
898.311	8994
898.431	8823
898.552	8883
898.672	8975
898.792	8982
898.913	8872
899.033	8762
899.153	8705
899.273	8655
899.393	8727
899.513	8766
899.633	8750
899.753	8750
899.873	8667
899.993	8739
900.113	8663
900.232	8731
900.352	8598
900.472	8590
900.591	8480
900.711	8575
900.83	8564
900.95	8644
901.069	8693
901.189	8602
901.308	8427
901.427	8431
901.546	8355
901.665	8415
901.784	8434
901.904	8423
902.023	8374
902.141	8214
902.26	8233
902.379	8218
902.498	8256
902.617	8218
902.735	8244
902.854	8252
902.973	8294
903.091	8145
903.21	8096
903.328	8096
903.446	8096
903.565	8054
903.683	8134
903.801	8043
903.919	8142
904.038	8084
904.156	7982
904.274	8138
904.392	8088
904.51	8062
904.627	8031
904.745	8035
904.863	8077
904.981	7936
905.098	7909
905.216	7864
905.334	7875
905.451	7902
905.569	7856
905.686	7921
905.803	7940
905.921	7792
906.038	7837
906.155	7803
906.272	7772
906.389	7742
906.506	7601
906.623	7578
906.74	7601
906.857	7556
906.974	7601
907.091	7655
907.208	7719
907.324	7620
907.441	7571
907.557	7407
907.674	7392
907.79	7373
907.907	7434
908.023	7392
908.139	7396
908.256	7384
908.372	7369
908.488	7270
908.604	7160
908.72	7285
908.836	7259
908.952	7274
909.068	7274
909.184	7278
909.3	7236
909.415	7278
909.531	7293
909.647	7084
909.762	7065
909.878	7088
909.993	7084
910.108	7076
910.224	7050
910.339	7072
910.454	6958
910.57	6958
910.685	6977
910.8	7122
910.915	7095
911.03	6993
911.145	6916
911.259	6852
911.374	6886
911.489	6810
911.604	6798
911.718	6688
911.833	6673
911.947	6627
912.062	6582
912.176	6662
912.291	6650
912.405	6783
912.519	6753
912.633	6821
912.748	6768
912.862	6639
912.976	6585
913.09	6448
913.204	6582
913.318	6642
913.431	6616
913.545	6623
913.659	6700
913.772	6601
913.886	6601
914	6486
914.113	6601
914.226	6616
914.34	6585
914.453	6502
914.566	6555
914.68	6498
914.793	6513
914.906	6448
915.019	6403
915.132	6327
915.245	6365
915.358	6395
915.47	6422
915.583	6441
915.696	6460
915.809	6509
915.921	6551
916.034	6384
916.146	6445
916.259	6346
916.371	6448
916.483	6407
916.595	6418
916.708	6376
916.82	6426
916.932	6296
917.044	6338
917.156	6342
917.268	6285
917.38	6327
917.491	6331
917.603	6361
917.715	6361
917.826	6388
917.938	6365
918.049	6224
918.161	6308
918.272	6426
918.384	6414
918.495	6304
918.606	6205
918.717	6247
918.828	6258
918.939	6216
919.05	6209
919.161	6235
919.272	6171
919.383	6117
919.494	6201
919.604	6353
919.715	6239
919.826	6159
919.936	6239
920.047	6285
920.157	6254
920.267	6441
920.378	6342
920.488	6266
920.598	6441
920.708	6585
920.818	6372
920.928	6429
921.038	6616
921.148	6521
921.258	6342
921.368	6296
921.477	6175
921.587	6171
921.697	6091
921.806	6144
921.916	6083
922.025	5916
922.134	5889
922.244	5851
922.353	5908
922.462	5840
922.571	5779
922.68	5668
922.789	5661
922.898	5714
923.007	5619
923.116	5703
923.224	5668
923.333	5684
923.442	5619
923.55	5562
923.659	5627
923.767	5638
923.876	5493
923.984	5570
924.092	5486
924.201	5528
924.309	5551
924.417	5570
924.525	5455
924.633	5467
924.741	6235
924.849	5330
924.956	5467
925.064	5254
925.172	5250
925.279	5322
925.387	5334
925.494	5341
925.602	5406
925.709	5383
925.816	5280
925.924	5303
926.031	5364
926.138	5269
926.245	5284
926.352	5216
926.459	5246
926.566	5254
926.673	5197
926.779	5094
926.886	5159
926.993	5071
927.099	4957
927.206	4949
927.312	4896
927.419	5022
927.525	4961
927.631	4927
927.737	4862
927.843	4877
927.95	4748
928.056	4835
928.162	4774
928.267	4820
928.373	5334
928.479	4809
928.585	4672
928.69	4767
928.796	4752
928.901	4683
929.007	4611
929.112	4664
929.218	4637
929.323	4622
929.428	4561
929.533	4664
929.638	4466
929.743	4542
929.848	4546
929.953	4478
930.058	4440
930.163	4333
930.267	4383
930.372	4440
930.477	4257
930.581	4447
930.685	4299
930.79	4192
930.894	4242
930.998	4196
931.103	4348
931.207	4109
931.311	4082
931.415	3994
931.519	3911
931.623	3945
