Data from glass_V78500241_461.txt Node
Date: Wed Sep 01 19:17:41 CST 2021
User: usil
Spectrometer: V785-0024
Trigger mode: 0
Integration Time (sec): 4.000000E-1
Scans to average: 1
Nonlinearity correction enabled: false
Boxcar width: 0
Storing dark spectrum: false
XAxis mode: Wavelengths
Number of Pixels in Spectrum: 1024
>>>>>Begin Spectral Data<<<<<
801.071	3785
801.214	3812
801.356	3679
801.499	3774
801.641	3762
801.783	3778
801.926	3880
802.068	3812
802.211	3854
802.353	3903
802.496	3854
802.638	3899
802.78	3934
802.923	3930
803.065	3911
803.208	3861
803.35	3896
803.492	3907
803.635	3934
803.777	3781
803.919	3922
804.061	4166
804.204	3991
804.346	3975
804.488	3934
804.63	4006
804.773	3960
804.915	4017
805.057	4169
805.199	4082
805.341	4090
805.483	4162
805.626	4154
805.768	4082
805.91	4234
806.052	4257
806.194	4192
806.336	4341
806.478	4230
806.62	4185
806.762	4192
806.904	4242
807.046	4371
807.188	4265
807.33	4173
807.472	4291
807.614	4200
807.756	4238
807.898	4238
808.04	4204
808.182	4295
808.324	4325
808.465	4421
808.607	4462
808.749	4417
808.891	4485
809.033	4485
809.174	4402
809.316	4265
809.458	4261
809.6	4139
809.741	4173
809.883	4139
810.025	4204
810.166	4234
810.308	4207
810.45	4261
810.591	4234
810.733	4299
810.875	4516
811.016	4790
811.158	5178
811.299	5307
811.441	5269
811.582	5048
811.724	4694
811.865	4481
812.007	4523
812.148	4459
812.29	4428
812.431	4443
812.573	4409
812.714	4402
812.855	4447
812.997	4432
813.138	4527
813.279	4428
813.421	4398
813.562	4398
813.703	4325
813.845	4379
813.986	4249
814.127	4162
814.268	4280
814.41	4276
814.551	4284
814.692	4344
814.833	4325
814.974	4303
815.115	4360
815.256	4227
815.397	4261
815.539	4272
815.68	4173
815.821	4215
815.962	4337
816.103	4272
816.244	4261
816.385	4268
816.526	4249
816.666	4234
816.807	4086
816.948	4204
817.089	4169
817.23	4109
817.371	4040
817.512	4063
817.653	4059
817.793	4017
817.934	4029
818.075	4116
818.216	4032
818.356	4097
818.497	4040
818.638	3896
818.778	3945
818.919	3937
819.06	3880
819.2	3907
819.341	3873
819.481	3854
819.622	3918
819.762	3979
819.903	3979
820.043	3896
820.184	3880
820.324	3831
820.465	3880
820.605	3873
820.746	3903
820.886	3819
821.026	3926
821.167	3911
821.307	3949
821.447	4025
821.588	3983
821.728	3972
821.868	3953
822.008	3857
822.149	3979
822.289	3922
822.429	3762
822.569	3793
822.709	3812
822.849	3751
822.99	3701
823.13	3789
823.27	3827
823.41	3736
823.55	3720
823.69	3743
823.83	3785
823.97	3690
824.11	3603
824.25	3629
824.389	3633
824.529	3667
824.669	3652
824.809	3724
824.949	3755
825.089	3732
825.228	3724
825.368	3568
825.508	3561
825.648	3606
825.787	3606
825.927	3618
826.067	3682
826.206	3682
826.346	3789
826.485	3846
826.625	3869
826.765	3934
826.904	3838
827.044	3675
827.183	3526
827.323	3473
827.462	3519
827.601	3447
827.741	3412
827.88	3458
828.02	3355
828.159	3473
828.298	3500
828.437	3553
828.577	3473
828.716	3587
828.855	3534
828.994	3405
829.134	3382
829.273	3412
829.412	3382
829.551	3332
829.69	3351
829.829	3481
829.968	3507
830.107	3458
830.246	3458
830.385	3405
830.524	3412
830.663	3298
830.802	3275
830.941	3237
831.08	3241
831.219	3233
831.357	3283
831.496	3382
831.635	3249
831.774	3188
831.913	3233
832.051	3161
832.19	3146
832.329	3199
832.467	3157
832.606	3100
832.744	3184
832.883	3218
833.022	3211
833.16	3275
833.299	3310
833.437	3340
833.576	3367
833.714	3435
833.852	3447
833.991	3466
834.129	3466
834.267	3477
834.406	3374
834.544	3462
834.682	3416
834.821	3454
834.959	3561
835.097	3450
835.235	3576
835.373	3523
835.511	3500
835.65	3450
835.788	3481
835.926	3397
836.064	3401
836.202	3397
836.34	3545
836.478	3637
836.615	3553
836.753	3610
836.891	3675
837.029	3660
837.167	3595
837.305	3580
837.443	3584
837.58	3519
837.718	3606
837.856	3526
837.993	3557
838.131	3610
838.269	3595
838.406	3584
838.544	3591
838.681	3488
838.819	3450
838.956	3424
839.094	3409
839.231	3447
839.369	3515
839.506	3751
839.643	3625
839.781	3481
839.918	3485
840.055	3534
840.193	3530
840.33	3538
840.467	3629
840.604	3587
840.742	3838
840.879	3584
841.016	3580
841.153	3629
841.29	3755
841.427	3728
841.564	3701
841.701	3751
841.838	3717
841.975	3698
842.112	3743
842.249	3671
842.385	3648
842.522	3838
842.659	3709
842.796	3679
842.933	3709
843.069	3724
843.206	3720
843.343	3804
843.479	3770
843.616	3804
843.752	3701
843.889	3663
844.025	3884
844.162	3759
844.298	3850
844.435	3778
844.571	3789
844.708	3915
844.844	4021
844.98	4021
845.117	4002
845.253	3907
845.389	3854
845.525	3941
845.661	4036
845.798	3926
845.934	4036
846.07	3991
846.206	4074
846.342	4162
846.478	4101
846.614	3987
846.75	3949
846.886	3941
847.022	4051
847.158	3930
847.294	3998
847.429	4032
847.565	3975
847.701	4246
847.837	3926
847.972	3899
848.108	3983
848.244	3960
848.379	3854
848.515	3884
848.65	3835
848.786	3831
848.921	3876
849.057	3888
849.192	3941
849.328	3896
849.463	3892
849.598	3956
849.734	3880
849.869	3873
850.004	3838
850.14	3823
850.275	3785
850.41	3747
850.545	3755
850.68	3789
850.815	3804
850.95	3808
851.085	3960
851.22	3880
851.355	3857
851.49	3861
851.625	3831
851.76	3827
851.895	3724
852.03	3743
852.165	3808
852.299	3838
852.434	3915
852.569	3922
852.703	3888
852.838	3934
852.973	3975
853.107	3975
853.242	3903
853.376	3865
853.511	3781
853.645	3827
853.78	3972
853.914	3956
854.048	3911
854.183	3903
854.317	3987
854.451	4063
854.585	3998
854.72	3960
854.854	4029
854.988	3964
855.122	3983
855.256	3926
855.39	4055
855.524	4124
855.658	4074
855.792	4097
855.926	4158
856.06	4196
856.194	4192
856.327	4150
856.461	4109
856.595	4166
856.729	4249
856.862	4280
856.996	4223
857.13	4310
857.263	4333
857.397	4367
857.53	4272
857.664	4360
857.797	4386
857.931	4428
858.064	4405
858.197	4462
858.331	4428
858.464	4424
858.597	4363
858.731	4421
858.864	4500
858.997	4459
859.13	4531
859.263	4603
859.396	4577
859.529	4538
859.662	4550
859.795	4508
859.928	4607
860.061	4744
860.194	4812
860.327	4687
860.46	4637
860.592	4714
860.725	4752
860.858	4790
860.99	4687
861.123	4679
861.256	4710
861.388	4767
861.521	5353
861.653	4710
861.786	4748
861.918	4771
862.05	4805
862.183	4862
862.315	4870
862.447	4934
862.58	4858
862.712	4782
862.844	4759
862.976	4889
863.108	4835
863.24	5216
863.372	4847
863.504	4892
863.636	4911
863.768	4946
863.9	4930
864.032	4919
864.164	4991
864.296	5003
864.428	5075
864.559	5128
864.691	5162
864.823	5189
864.954	5113
865.086	5132
865.217	5075
865.349	5064
865.48	5159
865.612	5193
865.743	5288
865.875	5197
866.006	5193
866.137	5258
866.269	5239
866.4	5254
866.531	5261
866.662	5239
866.793	5261
866.924	5357
867.055	5345
867.186	5376
867.317	5311
867.448	5353
867.579	5387
867.71	5349
867.841	5410
867.972	5436
868.103	5471
868.233	5417
868.364	5516
868.495	5581
868.625	5680
868.756	5817
868.886	5699
869.017	5703
869.147	5866
869.278	5885
869.408	5840
869.539	5828
869.669	5927
869.799	5954
869.929	6011
870.06	6053
870.19	6243
870.32	6232
870.45	6254
870.58	6380
870.71	6452
870.84	6509
870.97	6475
871.1	6445
871.23	6741
871.36	6749
871.489	6642
871.619	6673
871.749	6844
871.879	6825
872.008	7004
872.138	7004
872.267	7000
872.397	6993
872.526	7000
872.656	7095
872.785	7232
872.915	7396
873.044	7537
873.173	7594
873.303	7696
873.432	7772
873.561	7883
873.69	7909
873.819	8084
873.948	8142
874.077	8244
874.206	8317
874.335	8465
874.464	8682
874.593	8788
874.722	8963
874.851	9150
874.979	9260
875.108	9443
875.237	9420
875.365	9462
875.494	9648
875.623	9819
875.751	9854
875.88	10055
876.008	10192
876.136	10268
876.265	10470
876.393	10698
876.521	10797
876.65	10816
876.778	10885
876.906	10812
877.034	10957
877.162	11128
877.29	11098
877.418	11242
877.546	11368
877.674	11417
877.802	11512
877.93	11543
878.058	11627
878.185	11596
878.313	11619
878.441	11786
878.568	11634
878.696	11790
878.824	11851
878.951	11954
879.079	11942
879.206	12133
879.333	12121
879.461	11988
879.588	12106
879.715	12076
879.842	12262
879.97	12053
880.097	11927
880.224	11942
880.351	11870
880.478	11855
880.605	11920
880.732	11802
880.859	12003
880.986	11760
881.112	11840
881.239	11680
881.366	11661
881.493	11611
881.619	11562
881.746	11570
881.872	11558
881.999	11512
882.125	11421
882.252	11608
882.378	11547
882.505	11634
882.631	11311
882.757	11246
882.883	11303
883.01	11261
883.136	11147
883.262	11170
883.388	11083
883.514	11155
883.64	11227
883.766	11162
883.892	10972
884.018	10942
884.143	11060
884.269	11083
884.395	10862
884.52	10801
884.646	10774
884.772	10774
884.897	10691
885.023	10687
885.148	10664
885.274	10782
885.399	10664
885.524	10584
885.65	10611
885.775	10565
885.9	10569
886.025	10596
886.15	10573
886.275	10417
886.4	10405
886.525	10447
886.65	10398
886.775	10352
886.9	10527
887.025	10622
887.149	10402
887.274	10181
887.399	10257
887.523	10173
887.648	10223
887.773	10147
887.897	10295
888.021	10257
888.146	10192
888.27	10204
888.395	10112
888.519	10116
888.643	10196
888.767	10188
888.891	10135
889.015	10051
889.139	10071
889.263	10010
889.387	10112
889.511	10177
889.635	10120
889.759	9953
889.883	9892
890.006	9983
890.13	10116
890.254	9918
890.377	9972
890.501	9945
890.624	9949
890.748	9869
890.871	9778
890.995	9713
891.118	9751
891.241	9770
891.364	9751
891.488	9838
891.611	9701
891.734	9743
891.857	9736
891.98	9720
892.103	9755
892.226	9755
892.349	9667
892.471	9485
892.594	9610
892.717	9656
892.839	9576
892.962	9629
893.085	9656
893.207	9584
893.33	9584
893.452	9492
893.575	9629
893.697	9481
893.819	9648
893.941	9675
894.064	9618
894.186	9496
894.308	9370
894.43	9568
894.552	9625
894.674	9561
894.796	9424
894.918	9428
895.04	9393
895.161	9405
895.283	9329
895.405	9256
895.526	9298
895.648	9230
895.769	9237
895.891	9287
896.012	9355
896.134	9192
896.255	9207
896.376	9184
896.498	9135
896.619	9112
896.74	9123
896.861	9093
896.982	9264
897.103	9306
897.224	9112
897.345	9123
897.466	9020
897.587	8948
897.708	9135
897.828	9043
897.949	9020
898.07	8815
898.19	8990
898.311	8982
898.431	8895
898.552	8960
898.672	8956
898.792	8971
898.913	8982
899.033	8811
899.153	8731
899.273	8640
899.393	8674
899.513	8819
899.633	8788
899.753	8724
899.873	8743
899.993	8716
900.113	8746
900.232	8686
900.352	8602
900.472	8625
900.591	8518
900.711	8602
900.83	8537
900.95	8693
901.069	8758
901.189	8583
901.308	8499
901.427	8313
901.546	8476
901.665	8495
901.784	8583
901.904	8408
902.023	8355
902.141	8237
902.26	8218
902.379	8290
902.498	8191
902.617	8240
902.735	8275
902.854	8252
902.973	8233
903.091	8176
903.21	8107
903.328	8191
903.446	8168
903.565	8024
903.683	8092
903.801	8027
903.919	8168
904.038	8145
904.156	8069
904.274	8001
904.392	8016
904.51	7986
904.627	8111
904.745	8115
904.863	8123
904.981	7917
905.098	7826
905.216	7921
905.334	7921
905.451	7936
905.569	7902
905.686	7917
905.803	7906
905.921	7841
906.038	7868
906.155	7799
906.272	7693
906.389	7651
906.506	7647
906.623	7639
906.74	7582
906.857	7518
906.974	7628
907.091	7643
907.208	7662
907.324	7613
907.441	7491
907.557	7510
907.674	7438
907.79	7403
907.907	7411
908.023	7460
908.139	7430
908.256	7384
908.372	7331
908.488	7350
908.604	7312
908.72	7240
908.836	7259
908.952	7213
909.068	7274
909.184	7358
909.3	7240
909.415	7343
909.531	7289
909.647	7194
909.762	7069
909.878	7164
909.993	7175
910.108	7065
910.224	7080
910.339	7149
910.454	7050
910.57	6989
910.685	6977
910.8	7149
910.915	7072
911.03	7065
911.145	6901
911.259	6928
911.374	6844
911.489	6856
911.604	6833
911.718	6738
911.833	6768
911.947	6669
912.062	6601
912.176	6696
912.291	6741
912.405	6711
912.519	6787
912.633	6768
912.748	6753
912.862	6658
912.976	6635
913.09	6490
913.204	6620
913.318	6692
913.431	6673
913.545	6654
913.659	6734
913.772	6650
913.886	6589
914	6536
914.113	6642
914.226	6662
914.34	6646
914.453	6498
914.566	6665
914.68	6536
914.793	6540
914.906	6437
915.019	6429
915.132	6372
915.245	6380
915.358	6456
915.47	6475
915.583	6437
915.696	6536
915.809	6582
915.921	6574
916.034	6437
916.146	6350
916.259	6429
916.371	6448
916.483	6414
916.595	6410
916.708	6350
916.82	6331
916.932	6376
917.044	6388
917.156	6391
917.268	6342
917.38	6422
917.491	6281
917.603	6361
917.715	6437
917.826	6407
917.938	6304
918.049	6232
918.161	6361
918.272	6479
918.384	6471
918.495	6315
918.606	6258
918.717	6266
918.828	6315
918.939	6331
919.05	6213
919.161	6247
919.272	6171
919.383	6186
919.494	6292
919.604	6418
919.715	6319
919.826	6251
919.936	6251
920.047	6350
920.157	6331
920.267	6464
920.378	6311
920.488	6361
920.598	6452
920.708	6582
920.818	6464
920.928	6483
921.038	6620
921.148	6563
921.258	6403
921.368	6319
921.477	6243
921.587	6232
921.697	6091
921.806	6171
921.916	6144
922.025	6045
922.134	5946
922.244	5897
922.353	5889
922.462	5840
922.571	5836
922.68	5691
922.789	5710
922.898	5699
923.007	5642
923.116	5684
923.224	5699
923.333	5657
923.442	5600
923.55	5596
923.659	5562
923.767	5672
923.876	5615
923.984	5688
924.092	5539
924.201	5638
924.309	5512
924.417	5585
924.525	5539
924.633	5516
924.741	6296
924.849	5376
924.956	5539
925.064	5330
925.172	5311
925.279	5303
925.387	5353
925.494	5326
925.602	5436
925.709	5372
925.816	5292
925.924	5341
926.031	5402
926.138	5353
926.245	5337
926.352	5235
926.459	5349
926.566	5353
926.673	5178
926.779	5181
926.886	5113
926.993	5067
927.099	5037
927.206	5045
927.312	5010
927.419	4991
927.525	4957
927.631	5014
927.737	4873
927.843	4915
927.95	4793
928.056	4839
928.162	4889
928.267	4873
928.373	5322
928.479	4915
928.585	4698
928.69	4797
928.796	4812
928.901	4637
929.007	4599
929.112	4702
929.218	4603
929.323	4607
929.428	4596
929.533	4637
929.638	4550
929.743	4531
929.848	4561
929.953	4519
930.058	4440
930.163	4310
930.267	4367
930.372	4440
930.477	4344
930.581	4481
930.685	4386
930.79	4272
930.894	4238
930.998	4272
931.103	4390
931.207	4177
931.311	4139
931.415	4044
931.519	3922
931.623	3934
