Data from glass_V78500241_698.txt Node
Date: Wed Sep 01 19:19:20 CST 2021
User: usil
Spectrometer: V785-0024
Trigger mode: 0
Integration Time (sec): 4.000000E-1
Scans to average: 1
Nonlinearity correction enabled: false
Boxcar width: 0
Storing dark spectrum: false
XAxis mode: Wavelengths
Number of Pixels in Spectrum: 1024
>>>>>Begin Spectral Data<<<<<
801.071	3743
801.214	3743
801.356	3679
801.499	3766
801.641	3793
801.783	3759
801.926	3816
802.068	3800
802.211	3884
802.353	3922
802.496	3876
802.638	3922
802.78	3930
802.923	3937
803.065	3953
803.208	3838
803.35	3903
803.492	3911
803.635	3922
803.777	3785
803.919	3941
804.061	4211
804.204	4025
804.346	3964
804.488	3937
804.63	4051
804.773	4006
804.915	4029
805.057	4116
805.199	4090
805.341	4143
805.483	4181
805.626	4139
805.768	4105
805.91	4219
806.052	4219
806.194	4234
806.336	4344
806.478	4200
806.62	4219
806.762	4215
806.904	4268
807.046	4322
807.188	4223
807.33	4181
807.472	4257
807.614	4204
807.756	4276
807.898	4215
808.04	4257
808.182	4268
808.324	4276
808.465	4413
808.607	4474
808.749	4413
808.891	4489
809.033	4535
809.174	4436
809.316	4257
809.458	4234
809.6	4120
809.741	4139
809.883	4169
810.025	4211
810.166	4249
810.308	4211
810.45	4276
810.591	4249
810.733	4329
810.875	4569
811.016	4843
811.158	5174
811.299	5292
811.441	5326
811.582	5045
811.724	4710
811.865	4519
812.007	4459
812.148	4432
812.29	4421
812.431	4413
812.573	4455
812.714	4383
812.855	4421
812.997	4398
813.138	4489
813.279	4440
813.421	4436
813.562	4379
813.703	4329
813.845	4356
813.986	4253
814.127	4181
814.268	4272
814.41	4284
814.551	4291
814.692	4371
814.833	4249
814.974	4356
815.115	4337
815.256	4261
815.397	4188
815.539	4310
815.68	4169
815.821	4253
815.962	4341
816.103	4272
816.244	4261
816.385	4253
816.526	4303
816.666	4200
816.807	4086
816.948	4185
817.089	4215
817.23	4169
817.371	4074
817.512	4074
817.653	4048
817.793	4074
817.934	4078
818.075	4143
818.216	4082
818.356	4090
818.497	3998
818.638	3907
818.778	3918
818.919	3865
819.06	3899
819.2	3979
819.341	3857
819.481	3819
819.622	3915
819.762	4017
819.903	3975
820.043	3846
820.184	3857
820.324	3831
820.465	3911
820.605	3880
820.746	3846
820.886	3838
821.026	3994
821.167	3922
821.307	3983
821.447	3972
821.588	3975
821.728	3960
821.868	3934
822.008	3896
822.149	3918
822.289	3941
822.429	3804
822.569	3770
822.709	3781
822.849	3720
822.99	3717
823.13	3759
823.27	3766
823.41	3740
823.55	3724
823.69	3724
823.83	3701
823.97	3701
824.11	3606
824.25	3610
824.389	3675
824.529	3713
824.669	3625
824.809	3698
824.949	3747
825.089	3728
825.228	3713
825.368	3614
825.508	3572
825.648	3618
825.787	3603
825.927	3610
826.067	3599
826.206	3629
826.346	3838
826.485	3850
826.625	3903
826.765	3926
826.904	3831
827.044	3671
827.183	3538
827.323	3428
827.462	3488
827.601	3405
827.741	3401
827.88	3507
828.02	3374
828.159	3428
828.298	3466
828.437	3534
828.577	3504
828.716	3622
828.855	3507
828.994	3420
829.134	3412
829.273	3424
829.412	3382
829.551	3332
829.69	3359
829.829	3397
829.968	3580
830.107	3469
830.246	3454
830.385	3405
830.524	3386
830.663	3321
830.802	3275
830.941	3192
831.08	3173
831.219	3272
831.357	3287
831.496	3416
831.635	3237
831.774	3214
831.913	3203
832.051	3157
832.19	3146
832.329	3237
832.467	3157
832.606	3116
832.744	3176
832.883	3173
833.022	3211
833.16	3260
833.299	3321
833.437	3374
833.576	3374
833.714	3416
833.852	3466
833.991	3443
834.129	3469
834.267	3416
834.406	3397
834.544	3462
834.682	3431
834.821	3389
834.959	3587
835.097	3397
835.235	3584
835.373	3507
835.511	3488
835.65	3492
835.788	3492
835.926	3412
836.064	3443
836.202	3409
836.34	3584
836.478	3538
836.615	3561
836.753	3595
836.891	3637
837.029	3641
837.167	3618
837.305	3549
837.443	3568
837.58	3511
837.718	3618
837.856	3564
837.993	3561
838.131	3622
838.269	3587
838.406	3595
838.544	3622
838.681	3496
838.819	3458
838.956	3386
839.094	3382
839.231	3454
839.369	3500
839.506	3732
839.643	3679
839.781	3492
839.918	3469
840.055	3557
840.193	3553
840.33	3511
840.467	3561
840.604	3618
840.742	3854
840.879	3584
841.016	3568
841.153	3618
841.29	3732
841.427	3709
841.564	3724
841.701	3797
841.838	3667
841.975	3743
842.112	3747
842.249	3656
842.385	3622
842.522	3827
842.659	3736
842.796	3660
842.933	3720
843.069	3728
843.206	3720
843.343	3823
843.479	3762
843.616	3816
843.752	3701
843.889	3698
844.025	3861
844.162	3740
844.298	3865
844.435	3819
844.571	3808
844.708	3911
844.844	4025
844.98	4055
845.117	4040
845.253	3937
845.389	3945
845.525	3983
845.661	3987
845.798	3949
845.934	4036
846.07	3953
846.206	4078
846.342	4139
846.478	4131
846.614	3968
846.75	3934
846.886	3930
847.022	4067
847.158	4002
847.294	4006
847.429	4029
847.565	3991
847.701	4257
847.837	3911
847.972	3918
848.108	3998
848.244	3975
848.379	3884
848.515	3793
848.65	3857
848.786	3899
848.921	3915
849.057	3907
849.192	3960
849.328	3937
849.463	3937
849.598	3907
849.734	3850
849.869	3827
850.004	3816
850.14	3816
850.275	3751
850.41	3709
850.545	3789
850.68	3800
850.815	3789
850.95	3816
851.085	3941
851.22	3869
851.355	3835
851.49	3778
851.625	3812
851.76	3812
851.895	3724
852.03	3762
852.165	3835
852.299	3842
852.434	3880
852.569	3861
852.703	3857
852.838	3968
852.973	4051
853.107	4002
853.242	3934
853.376	3876
853.511	3781
853.645	3831
853.78	4002
853.914	3911
854.048	3934
854.183	3911
854.317	3975
854.451	4105
854.585	3956
854.72	3934
854.854	4074
854.988	3949
855.122	4013
855.256	3953
855.39	4025
855.524	4124
855.658	4086
855.792	4090
855.926	4154
856.06	4173
856.194	4227
856.327	4150
856.461	4147
856.595	4147
856.729	4158
856.862	4310
856.996	4246
857.13	4284
857.263	4344
857.397	4390
857.53	4291
857.664	4402
857.797	4428
857.931	4409
858.064	4363
858.197	4440
858.331	4405
858.464	4440
858.597	4390
858.731	4470
858.864	4428
858.997	4466
859.13	4531
859.263	4546
859.396	4611
859.529	4561
859.662	4519
859.795	4523
859.928	4634
860.061	4721
860.194	4771
860.327	4645
860.46	4660
860.592	4767
860.725	4733
860.858	4805
860.99	4664
861.123	4702
861.256	4710
861.388	4755
861.521	5265
861.653	4725
861.786	4744
861.918	4744
862.05	4809
862.183	4828
862.315	4877
862.447	4953
862.58	4915
862.712	4839
862.844	4797
862.976	4885
863.108	4873
863.24	5235
863.372	4809
863.504	4885
863.636	4889
863.768	4938
863.9	4957
864.032	4949
864.164	5010
864.296	5018
864.428	5124
864.559	5121
864.691	5060
864.823	5170
864.954	5132
865.086	5162
865.217	5151
865.349	5094
865.48	5227
865.612	5208
865.743	5326
865.875	5220
866.006	5223
866.137	5239
866.269	5231
866.4	5258
866.531	5231
866.662	5227
866.793	5292
866.924	5337
867.055	5307
867.186	5368
867.317	5368
867.448	5391
867.579	5383
867.71	5387
867.841	5360
867.972	5444
868.103	5501
868.233	5467
868.364	5471
868.495	5562
868.625	5615
868.756	5798
868.886	5684
869.017	5714
869.147	5847
869.278	5920
869.408	5863
869.539	5836
869.669	5950
869.799	5874
869.929	5965
870.06	6003
870.19	6182
870.32	6190
870.45	6235
870.58	6334
870.71	6395
870.84	6498
870.97	6418
871.1	6437
871.23	6707
871.36	6753
871.489	6711
871.619	6696
871.749	6810
871.879	6852
872.008	6981
872.138	6966
872.267	7038
872.397	7038
872.526	7069
872.656	7126
872.785	7190
872.915	7369
873.044	7506
873.173	7578
873.303	7655
873.432	7822
873.561	7879
873.69	7917
873.819	8039
873.948	8229
874.077	8309
874.206	8282
874.335	8530
874.464	8651
874.593	8887
874.722	8948
874.851	9146
874.979	9188
875.108	9435
875.237	9389
875.365	9462
875.494	9663
875.623	9888
875.751	9869
875.88	9964
876.008	10135
876.136	10276
876.265	10527
876.393	10702
876.521	10710
876.65	10889
876.778	10904
876.906	10949
877.034	11010
877.162	11102
877.29	11166
877.418	11296
877.546	11360
877.674	11398
877.802	11391
877.93	11547
878.058	11577
878.185	11615
878.313	11642
878.441	11870
878.568	11615
878.696	11714
878.824	11901
878.951	11931
879.079	12015
879.206	12136
879.333	12106
879.461	11984
879.588	12007
879.715	12053
879.842	12273
879.97	12136
880.097	11878
880.224	11893
880.351	11927
880.478	11878
880.605	11874
880.732	11882
880.859	12030
880.986	11878
881.112	11859
881.239	11752
881.366	11630
881.493	11630
881.619	11543
881.746	11592
881.872	11448
881.999	11581
882.125	11539
882.252	11497
882.378	11478
882.505	11611
882.631	11364
882.757	11326
882.883	11398
883.01	11334
883.136	11239
883.262	11109
883.388	11060
883.514	11269
883.64	11128
883.766	11181
883.892	11014
884.018	11113
884.143	11136
884.269	11136
884.395	10854
884.52	10858
884.646	10675
884.772	10725
884.897	10698
885.023	10687
885.148	10850
885.274	10801
885.399	10664
885.524	10596
885.65	10554
885.775	10519
885.9	10481
886.025	10607
886.15	10569
886.275	10447
886.4	10371
886.525	10333
886.65	10360
886.775	10356
886.9	10466
887.025	10573
887.149	10360
887.274	10287
887.399	10280
887.523	10204
887.648	10116
887.773	10169
887.897	10310
888.021	10196
888.146	10166
888.27	10246
888.395	10246
888.519	10162
888.643	10257
888.767	10192
888.891	10116
889.015	10006
889.139	10154
889.263	10002
889.387	10021
889.511	10124
889.635	10040
889.759	9979
889.883	9972
890.006	9945
890.13	10109
890.254	9884
890.377	9945
890.501	9907
890.624	9907
890.748	9857
890.871	9800
890.995	9755
891.118	9728
891.241	9838
891.364	9679
891.488	9816
891.611	9717
891.734	9762
891.857	9854
891.98	9728
892.103	9808
892.226	9774
892.349	9747
892.471	9606
892.594	9633
892.717	9660
892.839	9587
892.962	9679
893.085	9690
893.207	9610
893.33	9553
893.452	9519
893.575	9545
893.697	9595
893.819	9603
893.941	9663
894.064	9660
894.186	9420
894.308	9389
894.43	9485
894.552	9648
894.674	9511
894.796	9370
894.918	9370
895.04	9363
895.161	9344
895.283	9329
895.405	9344
895.526	9294
895.648	9264
895.769	9260
895.891	9264
896.012	9249
896.134	9298
896.255	9256
896.376	9199
896.498	9192
896.619	9047
896.74	9176
896.861	9123
896.982	9237
897.103	9298
897.224	9222
897.345	9104
897.466	9001
897.587	9013
897.708	9165
897.828	9089
897.949	9013
898.07	8864
898.19	8971
898.311	8990
898.431	8933
898.552	8899
898.672	8902
898.792	8982
898.913	8979
899.033	8777
899.153	8693
899.273	8689
899.393	8788
899.513	8769
899.633	8735
899.753	8712
899.873	8674
899.993	8750
900.113	8693
900.232	8724
900.352	8682
900.472	8564
900.591	8541
900.711	8560
900.83	8549
900.95	8686
901.069	8701
901.189	8556
901.308	8454
901.427	8370
901.546	8438
901.665	8473
901.784	8419
901.904	8389
902.023	8404
902.141	8267
902.26	8206
902.379	8313
902.498	8240
902.617	8282
902.735	8355
902.854	8347
902.973	8256
903.091	8107
903.21	8107
903.328	8202
903.446	8134
903.565	8092
903.683	8145
903.801	8077
903.919	8183
904.038	8191
904.156	8039
904.274	8065
904.392	8035
904.51	8100
904.627	8039
904.745	8096
904.863	8081
904.981	7959
905.098	7887
905.216	7959
905.334	7940
905.451	7936
905.569	7841
905.686	7944
905.803	7932
905.921	7757
906.038	7890
906.155	7826
906.272	7731
906.389	7727
906.506	7563
906.623	7647
906.74	7597
906.857	7594
906.974	7651
907.091	7715
907.208	7708
907.324	7658
907.441	7594
907.557	7537
907.674	7430
907.79	7403
907.907	7388
908.023	7441
908.139	7434
908.256	7419
908.372	7377
908.488	7358
908.604	7278
908.72	7266
908.836	7297
908.952	7232
909.068	7293
909.184	7335
909.3	7259
909.415	7331
909.531	7282
909.647	7160
909.762	7042
909.878	7080
909.993	7126
910.108	7103
910.224	7042
910.339	7160
910.454	7091
910.57	6981
910.685	6935
910.8	7152
910.915	7126
911.03	7069
911.145	6901
911.259	6848
911.374	6890
911.489	6859
911.604	6745
911.718	6757
911.833	6772
911.947	6639
912.062	6593
912.176	6730
912.291	6749
912.405	6779
912.519	6818
912.633	6821
912.748	6749
912.862	6650
912.976	6654
913.09	6540
913.204	6631
913.318	6646
913.431	6608
913.545	6707
913.659	6700
913.772	6688
913.886	6646
914	6551
914.113	6608
914.226	6650
914.34	6597
914.453	6502
914.566	6597
914.68	6528
914.793	6528
914.906	6422
915.019	6414
915.132	6407
915.245	6445
915.358	6483
915.47	6471
915.583	6471
915.696	6483
915.809	6547
915.921	6525
916.034	6464
916.146	6475
916.259	6365
916.371	6502
916.483	6448
916.595	6437
916.708	6399
916.82	6399
916.932	6391
917.044	6490
917.156	6448
917.268	6346
917.38	6403
917.491	6334
917.603	6319
917.715	6448
917.826	6403
917.938	6350
918.049	6201
918.161	6391
918.272	6429
918.384	6414
918.495	6338
918.606	6247
918.717	6175
918.828	6258
918.939	6300
919.05	6190
919.161	6285
919.272	6045
919.383	6205
919.494	6304
919.604	6448
919.715	6311
919.826	6213
919.936	6281
920.047	6353
920.157	6304
920.267	6426
920.378	6292
920.488	6308
920.598	6403
920.708	6551
920.818	6456
920.928	6525
921.038	6574
921.148	6532
921.258	6361
921.368	6353
921.477	6235
921.587	6148
921.697	6148
921.806	6232
921.916	6079
922.025	5961
922.134	5847
922.244	5847
922.353	5920
922.462	5889
922.571	5809
922.68	5733
922.789	5699
922.898	5718
923.007	5638
923.116	5726
923.224	5668
923.333	5684
923.442	5600
923.55	5608
923.659	5551
923.767	5634
923.876	5551
923.984	5558
924.092	5543
924.201	5566
924.309	5589
924.417	5551
924.525	5490
924.633	5482
924.741	6133
924.849	5406
924.956	5482
925.064	5395
925.172	5326
925.279	5311
925.387	5345
925.494	5376
925.602	5417
925.709	5402
925.816	5273
925.924	5315
926.031	5376
926.138	5273
926.245	5349
926.352	5250
926.459	5299
926.566	5376
926.673	5250
926.779	5147
926.886	5124
926.993	5029
927.099	5014
927.206	4972
927.312	4987
927.419	5025
927.525	4995
927.631	5018
927.737	4881
927.843	4881
927.95	4786
928.056	4820
928.162	4854
928.267	4892
928.373	5391
928.479	4828
928.585	4675
928.69	4782
928.796	4790
928.901	4725
929.007	4607
929.112	4706
929.218	4672
929.323	4630
929.428	4580
929.533	4668
929.638	4538
929.743	4596
929.848	4592
929.953	4523
930.058	4470
930.163	4348
930.267	4341
930.372	4516
930.477	4360
930.581	4413
930.685	4367
930.79	4234
930.894	4287
930.998	4276
931.103	4398
931.207	4120
931.311	4051
931.415	4097
931.519	3907
931.623	3964
