Data from glass_V78500241_9.txt Node
Date: Wed Sep 01 19:14:33 CST 2021
User: usil
Spectrometer: V785-0024
Trigger mode: 0
Integration Time (sec): 4.000000E-1
Scans to average: 1
Nonlinearity correction enabled: false
Boxcar width: 0
Storing dark spectrum: false
XAxis mode: Wavelengths
Number of Pixels in Spectrum: 1024
>>>>>Begin Spectral Data<<<<<
801.071	3717
801.214	3774
801.356	3751
801.499	3797
801.641	3736
801.783	3827
801.926	3823
802.068	3876
802.211	3873
802.353	3892
802.496	3861
802.638	3880
802.78	3941
802.923	3975
803.065	3922
803.208	3884
803.35	3880
803.492	3892
803.635	3956
803.777	3842
803.919	3945
804.061	4162
804.204	3991
804.346	3926
804.488	3892
804.63	4059
804.773	3994
804.915	3998
805.057	4162
805.199	4040
805.341	4048
805.483	4147
805.626	4166
805.768	4139
805.91	4230
806.052	4261
806.194	4253
806.336	4325
806.478	4207
806.62	4185
806.762	4215
806.904	4268
807.046	4360
807.188	4272
807.33	4154
807.472	4268
807.614	4196
807.756	4261
807.898	4234
808.04	4207
808.182	4306
808.324	4322
808.465	4424
808.607	4447
808.749	4421
808.891	4512
809.033	4558
809.174	4405
809.316	4249
809.458	4276
809.6	4185
809.741	4154
809.883	4166
810.025	4223
810.166	4196
810.308	4227
810.45	4299
810.591	4276
810.733	4329
810.875	4561
811.016	4866
811.158	5117
811.299	5269
811.441	5322
811.582	5048
811.724	4752
811.865	4504
812.007	4489
812.148	4417
812.29	4451
812.431	4371
812.573	4398
812.714	4405
812.855	4367
812.997	4386
813.138	4443
813.279	4417
813.421	4398
813.562	4398
813.703	4344
813.845	4303
813.986	4242
814.127	4227
814.268	4246
814.41	4272
814.551	4295
814.692	4322
814.833	4303
814.974	4287
815.115	4405
815.256	4242
815.397	4268
815.539	4268
815.68	4196
815.821	4188
815.962	4341
816.103	4268
816.244	4261
816.385	4211
816.526	4322
816.666	4200
816.807	4078
816.948	4200
817.089	4162
817.23	4158
817.371	4025
817.512	4086
817.653	4128
817.793	4059
817.934	4025
818.075	4112
818.216	4128
818.356	4101
818.497	4013
818.638	3941
818.778	3941
818.919	3896
819.06	3873
819.2	3922
819.341	3857
819.481	3846
819.622	3880
819.762	4048
819.903	3975
820.043	3884
820.184	3869
820.324	3857
820.465	3861
820.605	3831
820.746	3888
820.886	3869
821.026	3949
821.167	3930
821.307	3998
821.447	4006
821.588	3983
821.728	3975
821.868	3968
822.008	3888
822.149	3934
822.289	3953
822.429	3842
822.569	3812
822.709	3831
822.849	3713
822.99	3724
823.13	3743
823.27	3793
823.41	3736
823.55	3755
823.69	3690
823.83	3808
823.97	3698
824.11	3644
824.25	3622
824.389	3622
824.529	3698
824.669	3671
824.809	3747
824.949	3789
825.089	3800
825.228	3690
825.368	3633
825.508	3561
825.648	3564
825.787	3633
825.927	3663
826.067	3652
826.206	3720
826.346	3831
826.485	3838
826.625	3903
826.765	3979
826.904	3846
827.044	3591
827.183	3545
827.323	3485
827.462	3553
827.601	3469
827.741	3458
827.88	3488
828.02	3397
828.159	3477
828.298	3481
828.437	3500
828.577	3477
828.716	3633
828.855	3500
828.994	3447
829.134	3367
829.273	3405
829.412	3359
829.551	3363
829.69	3397
829.829	3450
829.968	3561
830.107	3439
830.246	3405
830.385	3405
830.524	3336
830.663	3325
830.802	3306
830.941	3214
831.08	3207
831.219	3260
831.357	3264
831.496	3378
831.635	3249
831.774	3184
831.913	3218
832.051	3097
832.19	3127
832.329	3237
832.467	3146
832.606	3123
832.744	3169
832.883	3188
833.022	3226
833.16	3287
833.299	3291
833.437	3359
833.576	3382
833.714	3424
833.852	3450
833.991	3443
834.129	3504
834.267	3488
834.406	3416
834.544	3466
834.682	3416
834.821	3420
834.959	3618
835.097	3439
835.235	3523
835.373	3496
835.511	3500
835.65	3519
835.788	3473
835.926	3412
836.064	3409
836.202	3450
836.34	3564
836.478	3648
836.615	3568
836.753	3564
836.891	3633
837.029	3610
837.167	3614
837.305	3561
837.443	3606
837.58	3549
837.718	3614
837.856	3564
837.993	3545
838.131	3641
838.269	3584
838.406	3595
838.544	3610
838.681	3492
838.819	3420
838.956	3443
839.094	3416
839.231	3435
839.369	3530
839.506	3751
839.643	3656
839.781	3500
839.918	3462
840.055	3568
840.193	3564
840.33	3526
840.467	3614
840.604	3610
840.742	3778
840.879	3542
841.016	3629
841.153	3614
841.29	3770
841.427	3747
841.564	3751
841.701	3743
841.838	3732
841.975	3705
842.112	3751
842.249	3686
842.385	3656
842.522	3846
842.659	3671
842.796	3675
842.933	3720
843.069	3717
843.206	3751
843.343	3819
843.479	3850
843.616	3797
843.752	3686
843.889	3682
844.025	3865
844.162	3762
844.298	3884
844.435	3778
844.571	3789
844.708	3926
844.844	4051
844.98	4036
845.117	4036
845.253	3926
845.389	3941
845.525	3949
845.661	3987
845.798	3949
845.934	4036
846.07	3949
846.206	4097
846.342	4162
846.478	4067
846.614	3979
846.75	3934
846.886	3945
847.022	4032
847.158	3987
847.294	4025
847.429	4036
847.565	4059
847.701	4257
847.837	3884
847.972	3880
848.108	3983
848.244	4006
848.379	3880
848.515	3842
848.65	3827
848.786	3907
848.921	3888
849.057	3937
849.192	3960
849.328	3937
849.463	3960
849.598	3926
849.734	3884
849.869	3850
850.004	3797
850.14	3838
850.275	3751
850.41	3717
850.545	3709
850.68	3778
850.815	3797
850.95	3835
851.085	3975
851.22	3884
851.355	3819
851.49	3808
851.625	3831
851.76	3812
851.895	3759
852.03	3717
852.165	3835
852.299	3865
852.434	3907
852.569	3876
852.703	3930
852.838	3918
852.973	4006
853.107	4017
853.242	3911
853.376	3865
853.511	3740
853.645	3865
853.78	3998
853.914	3926
854.048	3911
854.183	3915
854.317	4021
854.451	4086
854.585	3987
854.72	3968
854.854	4090
854.988	3979
855.122	3975
855.256	3979
855.39	4013
855.524	4128
855.658	4093
855.792	4082
855.926	4169
856.06	4173
856.194	4207
856.327	4177
856.461	4120
856.595	4173
856.729	4211
856.862	4291
856.996	4272
857.13	4337
857.263	4356
857.397	4341
857.53	4303
857.664	4348
857.797	4421
857.931	4440
858.064	4390
858.197	4489
858.331	4421
858.464	4421
858.597	4322
858.731	4459
858.864	4447
858.997	4413
859.13	4489
859.263	4535
859.396	4611
859.529	4542
859.662	4565
859.795	4554
859.928	4596
860.061	4710
860.194	4793
860.327	4679
860.46	4672
860.592	4706
860.725	4752
860.858	4763
860.99	4691
861.123	4725
861.256	4725
861.388	4790
861.521	5387
861.653	4733
861.786	4706
861.918	4748
862.05	4816
862.183	4831
862.315	4896
862.447	4961
862.58	4919
862.712	4824
862.844	4782
862.976	4915
863.108	4866
863.24	5318
863.372	4801
863.504	4911
863.636	4881
863.768	4987
863.9	4991
864.032	4946
864.164	4987
864.296	5056
864.428	5071
864.559	5109
864.691	5155
864.823	5121
864.954	5132
865.086	5140
865.217	5197
865.349	5151
865.48	5185
865.612	5231
865.743	5284
865.875	5201
866.006	5216
866.137	5235
866.269	5250
866.4	5254
866.531	5273
866.662	5250
866.793	5303
866.924	5307
867.055	5376
867.186	5345
867.317	5326
867.448	5330
867.579	5410
867.71	5360
867.841	5395
867.972	5512
868.103	5478
868.233	5490
868.364	5524
868.495	5520
868.625	5688
868.756	5783
868.886	5688
869.017	5729
869.147	5950
869.278	5878
869.408	5828
869.539	5790
869.669	5908
869.799	5969
869.929	6045
870.06	6011
870.19	6209
870.32	6190
870.45	6296
870.58	6304
870.71	6391
870.84	6506
870.97	6361
871.1	6517
871.23	6673
871.36	6700
871.489	6669
871.619	6837
871.749	6802
871.879	6935
872.008	6989
872.138	7050
872.267	7084
872.397	7008
872.526	7061
872.656	7129
872.785	7255
872.915	7365
873.044	7518
873.173	7567
873.303	7674
873.432	7807
873.561	7830
873.69	7913
873.819	7989
873.948	8195
874.077	8298
874.206	8305
874.335	8408
874.464	8674
874.593	8876
874.722	8910
874.851	9104
874.979	9256
875.108	9405
875.237	9504
875.365	9462
875.494	9660
875.623	9789
875.751	9876
875.88	9994
876.008	10105
876.136	10299
876.265	10527
876.393	10641
876.521	10698
876.65	10835
876.778	10885
876.906	10900
877.034	10965
877.162	11105
877.29	11090
877.418	11372
877.546	11360
877.674	11486
877.802	11459
877.93	11516
878.058	11615
878.185	11646
878.313	11668
878.441	11809
878.568	11684
878.696	11882
878.824	11851
878.951	11874
879.079	11999
879.206	12114
879.333	12129
879.461	12003
879.588	12114
879.715	12068
879.842	12308
879.97	12106
880.097	11851
880.224	11866
880.351	11870
880.478	11866
880.605	11824
880.732	11786
880.859	12003
880.986	11832
881.112	11821
881.239	11756
881.366	11615
881.493	11653
881.619	11486
881.746	11566
881.872	11562
881.999	11505
882.125	11455
882.252	11532
882.378	11406
882.505	11554
882.631	11326
882.757	11315
882.883	11448
883.01	11273
883.136	11201
883.262	11113
883.388	11022
883.514	11246
883.64	11178
883.766	11181
883.892	11010
884.018	11006
884.143	11071
884.269	11090
884.395	10831
884.52	10748
884.646	10801
884.772	10668
884.897	10683
885.023	10656
885.148	10717
885.274	10740
885.399	10656
885.524	10717
885.65	10580
885.775	10637
885.9	10580
886.025	10679
886.15	10611
886.275	10542
886.4	10379
886.525	10322
886.65	10409
886.775	10295
886.9	10481
887.025	10527
887.149	10344
887.274	10284
887.399	10242
887.523	10154
887.648	10116
887.773	10109
887.897	10207
888.021	10219
888.146	10188
888.27	10276
888.395	10154
888.519	10185
888.643	10234
888.767	10158
888.891	10101
889.015	10048
889.139	10048
889.263	10010
889.387	10051
889.511	10112
889.635	10135
889.759	9975
889.883	9949
890.006	10082
890.13	10143
890.254	10021
890.377	9964
890.501	9869
890.624	9903
890.748	9892
890.871	9861
890.995	9747
891.118	9766
891.241	9789
891.364	9793
891.488	9823
891.611	9766
891.734	9713
891.857	9781
891.98	9701
892.103	9812
892.226	9789
892.349	9762
892.471	9545
892.594	9614
892.717	9682
892.839	9599
892.962	9660
893.085	9698
893.207	9526
893.33	9606
893.452	9515
893.575	9606
893.697	9561
893.819	9705
893.941	9641
894.064	9591
894.186	9416
894.308	9447
894.43	9447
894.552	9591
894.674	9443
894.796	9351
894.918	9382
895.04	9397
895.161	9435
895.283	9279
895.405	9253
895.526	9275
895.648	9294
895.769	9237
895.891	9279
896.012	9313
896.134	9283
896.255	9146
896.376	9032
896.498	9100
896.619	9104
896.74	9165
896.861	9142
896.982	9256
897.103	9256
897.224	9161
897.345	9074
897.466	9039
897.587	9055
897.708	9222
897.828	9039
897.949	8967
898.07	8845
898.19	8990
898.311	9047
898.431	8883
898.552	8941
898.672	8982
898.792	8967
898.913	8880
899.033	8861
899.153	8823
899.273	8670
899.393	8667
899.513	8754
899.633	8727
899.753	8769
899.873	8735
899.993	8762
900.113	8708
900.232	8781
900.352	8689
900.472	8640
900.591	8575
900.711	8602
900.83	8560
900.95	8659
901.069	8651
901.189	8575
901.308	8427
901.427	8393
901.546	8499
901.665	8488
901.784	8587
901.904	8419
902.023	8351
902.141	8237
902.26	8244
902.379	8282
902.498	8240
902.617	8259
902.735	8324
902.854	8362
902.973	8229
903.091	8145
903.21	8077
903.328	8164
903.446	8145
903.565	8176
903.683	8111
903.801	8081
903.919	8142
904.038	8069
904.156	8062
904.274	8043
904.392	8115
904.51	8005
904.627	8058
904.745	8092
904.863	8084
904.981	7921
905.098	7875
905.216	7868
905.334	7947
905.451	7936
905.569	7894
905.686	7970
905.803	7955
905.921	7799
906.038	7898
906.155	7772
906.272	7719
906.389	7822
906.506	7662
906.623	7655
906.74	7636
906.857	7548
906.974	7533
907.091	7704
907.208	7753
907.324	7594
907.441	7582
907.557	7510
907.674	7449
907.79	7460
907.907	7472
908.023	7472
908.139	7499
908.256	7453
908.372	7400
908.488	7358
908.604	7305
908.72	7251
908.836	7232
908.952	7206
909.068	7244
909.184	7388
909.3	7217
909.415	7320
909.531	7384
909.647	7126
909.762	7183
909.878	7069
909.993	7114
910.108	7095
910.224	7118
910.339	7114
910.454	7084
910.57	7042
910.685	7012
910.8	7145
910.915	7129
911.03	7053
911.145	6943
911.259	6928
911.374	6905
911.489	6833
911.604	6814
911.718	6787
911.833	6783
911.947	6601
912.062	6627
912.176	6768
912.291	6776
912.405	6749
912.519	6840
912.633	6856
912.748	6764
912.862	6711
912.976	6616
913.09	6540
913.204	6585
913.318	6662
913.431	6669
913.545	6700
913.659	6711
913.772	6673
913.886	6597
914	6532
914.113	6555
914.226	6658
914.34	6639
914.453	6506
914.566	6669
914.68	6517
914.793	6525
914.906	6479
915.019	6426
915.132	6391
915.245	6433
915.358	6433
915.47	6486
915.583	6464
915.696	6509
915.809	6559
915.921	6601
916.034	6483
916.146	6380
916.259	6407
916.371	6502
916.483	6502
916.595	6448
916.708	6414
916.82	6418
916.932	6429
917.044	6422
917.156	6395
917.268	6369
917.38	6376
917.491	6304
917.603	6372
917.715	6376
917.826	6410
917.938	6353
918.049	6201
918.161	6304
918.272	6460
918.384	6422
918.495	6361
918.606	6311
918.717	6224
918.828	6216
918.939	6209
919.05	6163
919.161	6243
919.272	6129
919.383	6152
919.494	6315
919.604	6407
919.715	6300
919.826	6167
919.936	6243
920.047	6403
920.157	6254
920.267	6391
920.378	6342
920.488	6338
920.598	6509
920.708	6551
920.818	6467
920.928	6490
921.038	6608
921.148	6563
921.258	6342
921.368	6323
921.477	6243
921.587	6216
921.697	6064
921.806	6171
921.916	6129
922.025	6011
922.134	5916
922.244	5920
922.353	5973
922.462	5847
922.571	5802
922.68	5630
922.789	5707
922.898	5718
923.007	5627
923.116	5703
923.224	5665
923.333	5661
923.442	5604
923.55	5562
923.659	5619
923.767	5577
923.876	5554
923.984	5596
924.092	5528
924.201	5551
924.309	5558
924.417	5589
924.525	5463
924.633	5543
924.741	6338
924.849	5364
924.956	5486
925.064	5357
925.172	5277
925.279	5311
925.387	5372
925.494	5337
925.602	5414
925.709	5379
925.816	5349
925.924	5280
926.031	5410
926.138	5349
926.245	5311
926.352	5258
926.459	5357
926.566	5337
926.673	5242
926.779	5140
926.886	5201
926.993	5029
927.099	5018
927.206	4957
927.312	4938
927.419	5006
927.525	4968
927.631	4976
927.737	4904
927.843	4870
927.95	4786
928.056	4809
928.162	4854
928.267	4820
928.373	5326
928.479	4862
928.585	4691
928.69	4793
928.796	4763
928.901	4736
929.007	4611
929.112	4729
929.218	4645
929.323	4637
929.428	4573
929.533	4691
929.638	4527
929.743	4538
929.848	4538
929.953	4500
930.058	4466
930.163	4363
930.267	4360
930.372	4421
930.477	4337
930.581	4508
930.685	4394
930.79	4280
930.894	4261
930.998	4291
931.103	4421
931.207	4154
931.311	4116
931.415	4086
931.519	3945
931.623	3975
