Data from glass_V78500241_1447.txt Node
Date: Wed Sep 01 19:24:31 CST 2021
User: usil
Spectrometer: V785-0024
Trigger mode: 0
Integration Time (sec): 4.000000E-1
Scans to average: 1
Nonlinearity correction enabled: false
Boxcar width: 0
Storing dark spectrum: false
XAxis mode: Wavelengths
Number of Pixels in Spectrum: 1024
>>>>>Begin Spectral Data<<<<<
801.071	3755
801.214	3717
801.356	3701
801.499	3740
801.641	3762
801.783	3747
801.926	3857
802.068	3873
802.211	3850
802.353	3861
802.496	3876
802.638	3930
802.78	3903
802.923	3975
803.065	3865
803.208	3873
803.35	3876
803.492	3926
803.635	3937
803.777	3800
803.919	3930
804.061	4154
804.204	4013
804.346	3960
804.488	3922
804.63	4029
804.773	3964
804.915	4006
805.057	4120
805.199	4021
805.341	4090
805.483	4177
805.626	4139
805.768	4093
805.91	4246
806.052	4200
806.194	4215
806.336	4341
806.478	4215
806.62	4196
806.762	4177
806.904	4207
807.046	4348
807.188	4211
807.33	4204
807.472	4223
807.614	4188
807.756	4249
807.898	4204
808.04	4207
808.182	4329
808.324	4360
808.465	4383
808.607	4481
808.749	4402
808.891	4432
809.033	4512
809.174	4371
809.316	4257
809.458	4276
809.6	4215
809.741	4135
809.883	4154
810.025	4284
810.166	4234
810.308	4211
810.45	4230
810.591	4265
810.733	4295
810.875	4535
811.016	4850
811.158	5170
811.299	5288
811.441	5284
811.582	5113
811.724	4710
811.865	4500
812.007	4432
812.148	4497
812.29	4402
812.431	4417
812.573	4428
812.714	4424
812.855	4409
812.997	4440
813.138	4481
813.279	4421
813.421	4360
813.562	4379
813.703	4363
813.845	4325
813.986	4287
814.127	4227
814.268	4257
814.41	4280
814.551	4265
814.692	4348
814.833	4257
814.974	4314
815.115	4352
815.256	4253
815.397	4215
815.539	4234
815.68	4192
815.821	4238
815.962	4325
816.103	4276
816.244	4219
816.385	4272
816.526	4306
816.666	4215
816.807	4101
816.948	4204
817.089	4166
817.23	4090
817.371	4017
817.512	4067
817.653	4032
817.793	4010
817.934	4055
818.075	4074
818.216	4086
818.356	4082
818.497	4006
818.638	3934
818.778	3918
818.919	3873
819.06	3857
819.2	3899
819.341	3827
819.481	3869
819.622	3884
819.762	4044
819.903	3979
820.043	3899
820.184	3842
820.324	3827
820.465	3888
820.605	3854
820.746	3888
820.886	3804
821.026	3956
821.167	3945
821.307	3960
821.447	3953
821.588	4021
821.728	3941
821.868	3918
822.008	3865
822.149	3880
822.289	3926
822.429	3819
822.569	3774
822.709	3846
822.849	3736
822.99	3679
823.13	3774
823.27	3755
823.41	3705
823.55	3720
823.69	3709
823.83	3728
823.97	3675
824.11	3603
824.25	3637
824.389	3652
824.529	3667
824.669	3595
824.809	3679
824.949	3766
825.089	3770
825.228	3728
825.368	3587
825.508	3526
825.648	3549
825.787	3622
825.927	3644
826.067	3629
826.206	3648
826.346	3793
826.485	3846
826.625	3842
826.765	3907
826.904	3846
827.044	3606
827.183	3557
827.323	3431
827.462	3488
827.601	3424
827.741	3458
827.88	3443
828.02	3386
828.159	3420
828.298	3492
828.437	3534
828.577	3469
828.716	3629
828.855	3519
828.994	3389
829.134	3370
829.273	3329
829.412	3359
829.551	3336
829.69	3397
829.829	3431
829.968	3534
830.107	3443
830.246	3409
830.385	3386
830.524	3317
830.663	3325
830.802	3264
830.941	3180
831.08	3192
831.219	3264
831.357	3264
831.496	3393
831.635	3237
831.774	3192
831.913	3241
832.051	3142
832.19	3154
832.329	3192
832.467	3131
832.606	3100
832.744	3138
832.883	3188
833.022	3195
833.16	3253
833.299	3264
833.437	3306
833.576	3370
833.714	3397
833.852	3462
833.991	3401
834.129	3458
834.267	3424
834.406	3409
834.544	3405
834.682	3450
834.821	3393
834.959	3591
835.097	3409
835.235	3530
835.373	3530
835.511	3496
835.65	3477
835.788	3496
835.926	3412
836.064	3386
836.202	3428
836.34	3545
836.478	3625
836.615	3549
836.753	3610
836.891	3633
837.029	3618
837.167	3595
837.305	3564
837.443	3542
837.58	3519
837.718	3625
837.856	3557
837.993	3504
838.131	3618
838.269	3564
838.406	3568
838.544	3561
838.681	3500
838.819	3447
838.956	3389
839.094	3409
839.231	3428
839.369	3481
839.506	3736
839.643	3580
839.781	3515
839.918	3431
840.055	3530
840.193	3561
840.33	3504
840.467	3564
840.604	3557
840.742	3812
840.879	3572
841.016	3538
841.153	3618
841.29	3732
841.427	3728
841.564	3713
841.701	3740
841.838	3698
841.975	3660
842.112	3709
842.249	3641
842.385	3663
842.522	3827
842.659	3675
842.796	3694
842.933	3713
843.069	3724
843.206	3720
843.343	3842
843.479	3747
843.616	3804
843.752	3671
843.889	3694
844.025	3842
844.162	3732
844.298	3808
844.435	3789
844.571	3770
844.708	3930
844.844	3941
844.98	4029
845.117	4025
845.253	3960
845.389	3876
845.525	3907
845.661	3934
845.798	3911
845.934	4032
846.07	3941
846.206	4090
846.342	4139
846.478	4017
846.614	3960
846.75	3922
846.886	3903
847.022	4074
847.158	4025
847.294	4002
847.429	3994
847.565	4055
847.701	4188
847.837	3880
847.972	3873
848.108	4002
848.244	3945
848.379	3865
848.515	3755
848.65	3861
848.786	3865
848.921	3857
849.057	3949
849.192	3949
849.328	3930
849.463	3896
849.598	3873
849.734	3854
849.869	3823
850.004	3759
850.14	3816
850.275	3827
850.41	3755
850.545	3728
850.68	3789
850.815	3800
850.95	3785
851.085	3953
851.22	3861
851.355	3842
851.49	3838
851.625	3785
851.76	3766
851.895	3724
852.03	3751
852.165	3781
852.299	3846
852.434	3899
852.569	3842
852.703	3899
852.838	3934
852.973	3994
853.107	3983
853.242	3903
853.376	3804
853.511	3823
853.645	3857
853.78	3972
853.914	3915
854.048	3861
854.183	3899
854.317	3949
854.451	4059
854.585	3937
854.72	3953
854.854	4036
854.988	3907
855.122	3968
855.256	3896
855.39	3960
855.524	4055
855.658	4112
855.792	4131
855.926	4128
856.06	4173
856.194	4185
856.327	4200
856.461	4090
856.595	4120
856.729	4166
856.862	4257
856.996	4219
857.13	4284
857.263	4322
857.397	4371
857.53	4246
857.664	4333
857.797	4356
857.931	4398
858.064	4436
858.197	4462
858.331	4394
858.464	4341
858.597	4329
858.731	4428
858.864	4485
858.997	4474
859.13	4512
859.263	4512
859.396	4554
859.529	4561
859.662	4565
859.795	4512
859.928	4596
860.061	4683
860.194	4759
860.327	4675
860.46	4656
860.592	4687
860.725	4733
860.858	4759
860.99	4668
861.123	4736
861.256	4759
861.388	4744
861.521	5288
861.653	4771
861.786	4672
861.918	4782
862.05	4774
862.183	4820
862.315	4885
862.447	4908
862.58	4904
862.712	4812
862.844	4759
862.976	4873
863.108	4927
863.24	5181
863.372	4809
863.504	4850
863.636	4889
863.768	4984
863.9	4946
864.032	4942
864.164	4999
864.296	5086
864.428	5098
864.559	5056
864.691	5098
864.823	5136
864.954	5094
865.086	5033
865.217	5155
865.349	5143
865.48	5174
865.612	5185
865.743	5258
865.875	5147
866.006	5185
866.137	5246
866.269	5174
866.4	5265
866.531	5258
866.662	5201
866.793	5277
866.924	5269
867.055	5360
867.186	5364
867.317	5341
867.448	5315
867.579	5402
867.71	5376
867.841	5341
867.972	5459
868.103	5459
868.233	5471
868.364	5505
868.495	5619
868.625	5680
868.756	5836
868.886	5665
869.017	5703
869.147	5824
869.278	5866
869.408	5783
869.539	5809
869.669	5954
869.799	5904
869.929	5946
870.06	5988
870.19	6201
870.32	6171
870.45	6254
870.58	6338
870.71	6422
870.84	6414
870.97	6403
871.1	6490
871.23	6589
871.36	6692
871.489	6688
871.619	6677
871.749	6852
871.879	6924
872.008	6985
872.138	6958
872.267	7038
872.397	7046
872.526	7015
872.656	7129
872.785	7232
872.915	7365
873.044	7476
873.173	7537
873.303	7658
873.432	7685
873.561	7932
873.69	7871
873.819	7986
873.948	8248
874.077	8221
874.206	8324
874.335	8446
874.464	8640
874.593	8868
874.722	8933
874.851	9077
874.979	9233
875.108	9367
875.237	9420
875.365	9443
875.494	9557
875.623	9724
875.751	9884
875.88	9964
876.008	10181
876.136	10272
876.265	10516
876.393	10721
876.521	10744
876.65	10828
876.778	10881
876.906	10858
877.034	11018
877.162	11006
877.29	11170
877.418	11223
877.546	11296
877.674	11444
877.802	11429
877.93	11509
878.058	11516
878.185	11543
878.313	11604
878.441	11748
878.568	11657
878.696	11824
878.824	11824
878.951	11935
879.079	12045
879.206	12148
879.333	12045
879.461	11965
879.588	12121
879.715	12125
879.842	12228
879.97	12072
880.097	11931
880.224	11843
880.351	11832
880.478	11935
880.605	11828
880.732	11745
880.859	12015
880.986	11805
881.112	11866
881.239	11688
881.366	11676
881.493	11608
881.619	11520
881.746	11535
881.872	11547
881.999	11524
882.125	11429
882.252	11505
882.378	11471
882.505	11562
882.631	11318
882.757	11326
882.883	11307
883.01	11261
883.136	11197
883.262	11136
883.388	11029
883.514	11185
883.64	11239
883.766	11124
883.892	10961
884.018	11041
884.143	11067
884.269	11132
884.395	10889
884.52	10774
884.646	10805
884.772	10706
884.897	10687
885.023	10672
885.148	10687
885.274	10786
885.399	10687
885.524	10588
885.65	10466
885.775	10607
885.9	10546
886.025	10542
886.15	10554
886.275	10500
886.4	10394
886.525	10451
886.65	10363
886.775	10398
886.9	10489
887.025	10535
887.149	10379
887.274	10150
887.399	10249
887.523	10128
887.648	10154
887.773	10090
887.897	10261
888.021	10185
888.146	10166
888.27	10238
888.395	10192
888.519	10139
888.643	10181
888.767	10207
888.891	10059
889.015	10032
889.139	10025
889.263	9998
889.387	10071
889.511	10109
889.635	10036
889.759	9941
889.883	10029
890.006	10048
890.13	10234
890.254	9937
890.377	9987
890.501	9831
890.624	9846
890.748	9876
890.871	9865
890.995	9740
891.118	9709
891.241	9800
891.364	9781
891.488	9759
891.611	9804
891.734	9717
891.857	9778
891.98	9740
892.103	9819
892.226	9694
892.349	9633
892.471	9504
892.594	9614
892.717	9637
892.839	9580
892.962	9622
893.085	9622
893.207	9591
893.33	9469
893.452	9591
893.575	9656
893.697	9458
893.819	9675
893.941	9599
894.064	9606
894.186	9504
894.308	9424
894.43	9599
894.552	9568
894.674	9564
894.796	9363
894.918	9458
895.04	9340
895.161	9325
895.283	9336
895.405	9275
895.526	9283
895.648	9222
895.769	9283
895.891	9313
896.012	9237
896.134	9214
896.255	9150
896.376	9199
896.498	9169
896.619	9100
896.74	9093
896.861	9116
896.982	9279
897.103	9245
897.224	9112
897.345	9108
897.466	9024
897.587	8982
897.708	9108
897.828	9051
897.949	8933
898.07	8826
898.19	8910
898.311	8998
898.431	8914
898.552	8902
898.672	8998
898.792	8998
898.913	8910
899.033	8883
899.153	8746
899.273	8682
899.393	8758
899.513	8777
899.633	8686
899.753	8731
899.873	8659
899.993	8686
900.113	8689
900.232	8670
900.352	8651
900.472	8613
900.591	8579
900.711	8571
900.83	8541
900.95	8724
901.069	8720
901.189	8568
901.308	8461
901.427	8385
901.546	8454
901.665	8495
901.784	8484
901.904	8404
902.023	8309
902.141	8256
902.26	8157
902.379	8313
902.498	8210
902.617	8263
902.735	8358
902.854	8279
902.973	8229
903.091	8115
903.21	8123
903.328	8153
903.446	8126
903.565	8084
903.683	8172
903.801	8001
903.919	8084
904.038	8103
904.156	8039
904.274	8081
904.392	8035
904.51	8035
904.627	8065
904.745	8069
904.863	8111
904.981	7993
905.098	7913
905.216	7898
905.334	7921
905.451	7879
905.569	7875
905.686	7955
905.803	7921
905.921	7738
906.038	7868
906.155	7769
906.272	7712
906.389	7685
906.506	7582
906.623	7639
906.74	7613
906.857	7556
906.974	7544
907.091	7658
907.208	7769
907.324	7647
907.441	7514
907.557	7460
907.674	7430
907.79	7396
907.907	7365
908.023	7434
908.139	7415
908.256	7369
908.372	7362
908.488	7388
908.604	7225
908.72	7259
908.836	7202
908.952	7278
909.068	7282
909.184	7430
909.3	7251
909.415	7320
909.531	7320
909.647	7107
909.762	7118
909.878	7061
909.993	7129
910.108	7126
910.224	7061
910.339	7133
910.454	7038
910.57	6954
910.685	6973
910.8	7198
910.915	7069
911.03	7023
911.145	6897
911.259	6901
911.374	6856
911.489	6871
911.604	6776
911.718	6795
911.833	6722
911.947	6681
912.062	6574
912.176	6662
912.291	6707
912.405	6711
912.519	6806
912.633	6882
912.748	6757
912.862	6738
912.976	6547
913.09	6483
913.204	6608
913.318	6589
913.431	6650
913.545	6711
913.659	6639
913.772	6642
913.886	6612
914	6509
914.113	6601
914.226	6601
914.34	6616
914.453	6536
914.566	6635
914.68	6570
914.793	6547
914.906	6395
915.019	6376
915.132	6422
915.245	6471
915.358	6464
915.47	6407
915.583	6456
915.696	6437
915.809	6544
915.921	6585
916.034	6448
916.146	6399
916.259	6410
916.371	6483
916.483	6426
916.595	6433
916.708	6407
916.82	6388
916.932	6399
917.044	6346
917.156	6395
917.268	6369
917.38	6369
917.491	6327
917.603	6350
917.715	6445
917.826	6452
917.938	6300
918.049	6213
918.161	6384
918.272	6426
918.384	6467
918.495	6376
918.606	6292
918.717	6178
918.828	6292
918.939	6243
919.05	6186
919.161	6273
919.272	6171
919.383	6110
919.494	6262
919.604	6441
919.715	6304
919.826	6201
919.936	6247
920.047	6407
920.157	6285
920.267	6429
920.378	6338
920.488	6285
920.598	6410
920.708	6566
920.818	6483
920.928	6483
921.038	6593
921.148	6597
921.258	6327
921.368	6224
921.477	6262
921.587	6201
921.697	6106
921.806	6171
921.916	6045
922.025	5973
922.134	5969
922.244	5882
922.353	5980
922.462	5863
922.571	5817
922.68	5726
922.789	5676
922.898	5737
923.007	5611
923.116	5691
923.224	5695
923.333	5680
923.442	5562
923.55	5585
923.659	5608
923.767	5608
923.876	5539
923.984	5615
924.092	5520
924.201	5600
924.309	5585
924.417	5516
924.525	5478
924.633	5512
924.741	6152
924.849	5402
924.956	5509
925.064	5322
925.172	5360
925.279	5368
925.387	5349
925.494	5391
925.602	5383
925.709	5406
925.816	5273
925.924	5341
926.031	5376
926.138	5292
926.245	5284
926.352	5212
926.459	5311
926.566	5303
926.673	5254
926.779	5189
926.886	5098
926.993	5018
927.099	5014
927.206	4942
927.312	4911
927.419	4999
927.525	4972
927.631	4961
927.737	4934
927.843	4908
927.95	4759
928.056	4801
928.162	4870
928.267	4839
928.373	5269
928.479	4839
928.585	4729
928.69	4759
928.796	4786
928.901	4698
929.007	4611
929.112	4691
929.218	4634
929.323	4577
929.428	4573
929.533	4702
929.638	4523
929.743	4569
929.848	4497
929.953	4538
930.058	4462
930.163	4348
930.267	4390
930.372	4421
930.477	4299
930.581	4443
930.685	4394
930.79	4223
930.894	4303
930.998	4223
931.103	4383
931.207	4128
931.311	4063
931.415	4040
931.519	3949
931.623	3949
