Data from glass_V78500241_2552.txt Node
Date: Wed Sep 01 19:32:11 CST 2021
User: usil
Spectrometer: V785-0024
Trigger mode: 0
Integration Time (sec): 4.000000E-1
Scans to average: 1
Nonlinearity correction enabled: false
Boxcar width: 0
Storing dark spectrum: false
XAxis mode: Wavelengths
Number of Pixels in Spectrum: 1024
>>>>>Begin Spectral Data<<<<<
801.071	3778
801.214	3709
801.356	3667
801.499	3747
801.641	3698
801.783	3740
801.926	3823
802.068	3816
802.211	3873
802.353	3857
802.496	3819
802.638	3873
802.78	3865
802.923	3903
803.065	3884
803.208	3827
803.35	3838
803.492	3896
803.635	3888
803.777	3797
803.919	3876
804.061	4135
804.204	3945
804.346	3930
804.488	3918
804.63	4044
804.773	3956
804.915	4021
805.057	4139
805.199	4055
805.341	4097
805.483	4124
805.626	4074
805.768	4086
805.91	4223
806.052	4253
806.194	4204
806.336	4337
806.478	4219
806.62	4128
806.762	4177
806.904	4230
807.046	4344
807.188	4204
807.33	4124
807.472	4242
807.614	4207
807.756	4257
807.898	4188
808.04	4261
808.182	4318
808.324	4314
808.465	4352
808.607	4421
808.749	4440
808.891	4474
809.033	4428
809.174	4383
809.316	4230
809.458	4230
809.6	4120
809.741	4169
809.883	4105
810.025	4249
810.166	4162
810.308	4200
810.45	4265
810.591	4207
810.733	4257
810.875	4493
811.016	4805
811.158	5113
811.299	5288
811.441	5242
811.582	5045
811.724	4714
811.865	4478
812.007	4390
812.148	4394
812.29	4451
812.431	4405
812.573	4371
812.714	4352
812.855	4428
812.997	4424
813.138	4462
813.279	4398
813.421	4375
813.562	4383
813.703	4306
813.845	4360
813.986	4284
814.127	4230
814.268	4242
814.41	4257
814.551	4272
814.692	4310
814.833	4280
814.974	4318
815.115	4360
815.256	4246
815.397	4223
815.539	4261
815.68	4192
815.821	4227
815.962	4276
816.103	4291
816.244	4246
816.385	4280
816.526	4211
816.666	4169
816.807	4074
816.948	4204
817.089	4150
817.23	4090
817.371	4067
817.512	4120
817.653	4029
817.793	4063
817.934	4059
818.075	4082
818.216	4044
818.356	4040
818.497	4002
818.638	3903
818.778	3926
818.919	3873
819.06	3865
819.2	3922
819.341	3838
819.481	3812
819.622	3861
819.762	4006
819.903	3960
820.043	3846
820.184	3793
820.324	3854
820.465	3892
820.605	3850
820.746	3854
820.886	3732
821.026	3918
821.167	3941
821.307	3987
821.447	3968
821.588	3930
821.728	3941
821.868	3896
822.008	3880
822.149	3857
822.289	3922
822.429	3770
822.569	3797
822.709	3770
822.849	3682
822.99	3743
823.13	3747
823.27	3743
823.41	3648
823.55	3724
823.69	3705
823.83	3751
823.97	3679
824.11	3599
824.25	3606
824.389	3633
824.529	3652
824.669	3606
824.809	3675
824.949	3686
825.089	3709
825.228	3690
825.368	3572
825.508	3538
825.648	3580
825.787	3576
825.927	3663
826.067	3622
826.206	3686
826.346	3747
826.485	3835
826.625	3873
826.765	3930
826.904	3816
827.044	3603
827.183	3496
827.323	3424
827.462	3454
827.601	3431
827.741	3435
827.88	3481
828.02	3355
828.159	3389
828.298	3469
828.437	3500
828.577	3485
828.716	3587
828.855	3458
828.994	3397
829.134	3344
829.273	3386
829.412	3348
829.551	3340
829.69	3363
829.829	3389
829.968	3515
830.107	3435
830.246	3439
830.385	3348
830.524	3351
830.663	3291
830.802	3249
830.941	3203
831.08	3192
831.219	3195
831.357	3268
831.496	3393
831.635	3218
831.774	3184
831.913	3211
832.051	3116
832.19	3108
832.329	3195
832.467	3142
832.606	3093
832.744	3165
832.883	3169
833.022	3207
833.16	3268
833.299	3306
833.437	3302
833.576	3378
833.714	3378
833.852	3458
833.991	3428
834.129	3447
834.267	3424
834.406	3397
834.544	3424
834.682	3355
834.821	3435
834.959	3599
835.097	3424
835.235	3519
835.373	3447
835.511	3439
835.65	3454
835.788	3431
835.926	3393
836.064	3393
836.202	3344
836.34	3542
836.478	3606
836.615	3511
836.753	3587
836.891	3614
837.029	3614
837.167	3584
837.305	3561
837.443	3507
837.58	3485
837.718	3568
837.856	3564
837.993	3515
838.131	3564
838.269	3576
838.406	3564
838.544	3538
838.681	3466
838.819	3435
838.956	3359
839.094	3378
839.231	3454
839.369	3507
839.506	3705
839.643	3584
839.781	3511
839.918	3469
840.055	3526
840.193	3473
840.33	3557
840.467	3542
840.604	3633
840.742	3781
840.879	3496
841.016	3568
841.153	3568
841.29	3736
841.427	3682
841.564	3675
841.701	3740
841.838	3682
841.975	3648
842.112	3698
842.249	3618
842.385	3629
842.522	3797
842.659	3675
842.796	3641
842.933	3720
843.069	3694
843.206	3675
843.343	3835
843.479	3762
843.616	3838
843.752	3682
843.889	3690
844.025	3850
844.162	3694
844.298	3846
844.435	3747
844.571	3759
844.708	3937
844.844	3964
844.98	3987
845.117	3994
845.253	3937
845.389	3857
845.525	3979
845.661	3945
845.798	3934
845.934	3968
846.07	3922
846.206	4036
846.342	4090
846.478	4029
846.614	3960
846.75	3964
846.886	3911
847.022	4029
847.158	4006
847.294	3983
847.429	4025
847.565	3975
847.701	4253
847.837	3907
847.972	3857
848.108	3968
848.244	3972
848.379	3838
848.515	3774
848.65	3816
848.786	3823
848.921	3896
849.057	3907
849.192	3960
849.328	3896
849.463	3915
849.598	3896
849.734	3854
849.869	3800
850.004	3823
850.14	3778
850.275	3751
850.41	3686
850.545	3740
850.68	3717
850.815	3800
850.95	3804
851.085	3926
851.22	3850
851.355	3838
851.49	3751
851.625	3827
851.76	3823
851.895	3728
852.03	3755
852.165	3789
852.299	3827
852.434	3926
852.569	3899
852.703	3903
852.838	3903
852.973	4002
853.107	3983
853.242	3857
853.376	3873
853.511	3747
853.645	3861
853.78	3960
853.914	3842
854.048	3884
854.183	3911
854.317	3972
854.451	4025
854.585	3949
854.72	3915
854.854	4029
854.988	3911
855.122	4025
855.256	3922
855.39	3979
855.524	4116
855.658	4109
855.792	4078
855.926	4109
856.06	4181
856.194	4181
856.327	4135
856.461	4101
856.595	4147
856.729	4207
856.862	4246
856.996	4204
857.13	4333
857.263	4253
857.397	4363
857.53	4291
857.664	4363
857.797	4367
857.931	4379
858.064	4329
858.197	4504
858.331	4379
858.464	4375
858.597	4352
858.731	4436
858.864	4440
858.997	4493
859.13	4481
859.263	4508
859.396	4588
859.529	4512
859.662	4485
859.795	4504
859.928	4592
860.061	4694
860.194	4763
860.327	4660
860.46	4622
860.592	4725
860.725	4687
860.858	4744
860.99	4649
861.123	4694
861.256	4714
861.388	4706
861.521	5391
861.653	4729
861.786	4683
861.918	4736
862.05	4797
862.183	4850
862.315	4885
862.447	4877
862.58	4900
862.712	4824
862.844	4744
862.976	4892
863.108	4892
863.24	5166
863.372	4805
863.504	4892
863.636	4858
863.768	4953
863.9	4930
864.032	4946
864.164	4930
864.296	5014
864.428	5121
864.559	5086
864.691	5109
864.823	5102
864.954	5113
865.086	5151
865.217	5124
865.349	5083
865.48	5174
865.612	5204
865.743	5284
865.875	5212
866.006	5216
866.137	5223
866.269	5178
866.4	5181
866.531	5258
866.662	5231
866.793	5288
866.924	5303
867.055	5337
867.186	5311
867.317	5360
867.448	5311
867.579	5330
867.71	5372
867.841	5379
867.972	5425
868.103	5433
868.233	5455
868.364	5493
868.495	5551
868.625	5691
868.756	5760
868.886	5668
869.017	5676
869.147	5847
869.278	5821
869.408	5840
869.539	5832
869.669	5859
869.799	5901
869.929	5973
870.06	6015
870.19	6186
870.32	6167
870.45	6262
870.58	6342
870.71	6369
870.84	6403
870.97	6350
871.1	6422
871.23	6608
871.36	6639
871.489	6582
871.619	6711
871.749	6791
871.879	6833
872.008	6954
872.138	6973
872.267	7027
872.397	7031
872.526	7012
872.656	7065
872.785	7232
872.915	7331
873.044	7540
873.173	7540
873.303	7559
873.432	7750
873.561	7837
873.69	7845
873.819	8012
873.948	8176
874.077	8229
874.206	8294
874.335	8423
874.464	8674
874.593	8899
874.722	8883
874.851	9135
874.979	9192
875.108	9367
875.237	9428
875.365	9485
875.494	9618
875.623	9831
875.751	9865
875.88	10025
876.008	10124
876.136	10291
876.265	10489
876.393	10755
876.521	10687
876.65	10744
876.778	10858
876.906	10934
877.034	11006
877.162	11086
877.29	11124
877.418	11349
877.546	11395
877.674	11440
877.802	11455
877.93	11444
878.058	11585
878.185	11684
878.313	11600
878.441	11798
878.568	11638
878.696	11771
878.824	11882
878.951	11870
879.079	12011
879.206	12114
879.333	12057
879.461	12034
879.588	12049
879.715	12049
879.842	12289
879.97	12034
880.097	11843
880.224	11874
880.351	11942
880.478	11961
880.605	11885
880.732	11843
880.859	12060
880.986	11748
881.112	11828
881.239	11832
881.366	11600
881.493	11630
881.619	11619
881.746	11566
881.872	11532
881.999	11474
882.125	11486
882.252	11551
882.378	11512
882.505	11554
882.631	11360
882.757	11269
882.883	11387
883.01	11265
883.136	11178
883.262	11174
883.388	11105
883.514	11178
883.64	11102
883.766	11109
883.892	10942
884.018	10991
884.143	11079
884.269	10991
884.395	10889
884.52	10805
884.646	10710
884.772	10679
884.897	10706
885.023	10771
885.148	10637
885.274	10801
885.399	10618
885.524	10687
885.65	10607
885.775	10546
885.9	10531
886.025	10508
886.15	10538
886.275	10443
886.4	10432
886.525	10405
886.65	10440
886.775	10318
886.9	10512
887.025	10432
887.149	10318
887.274	10265
887.399	10253
887.523	10230
887.648	10101
887.773	10158
887.897	10287
888.021	10230
888.146	10109
888.27	10219
888.395	10246
888.519	10223
888.643	10234
888.767	10143
888.891	10071
889.015	10006
889.139	10044
889.263	9934
889.387	10101
889.511	10120
889.635	10090
889.759	9953
889.883	10040
890.006	10021
890.13	10105
890.254	9991
890.377	9918
890.501	9876
890.624	9857
890.748	9884
890.871	9781
890.995	9781
891.118	9728
891.241	9698
891.364	9759
891.488	9808
891.611	9701
891.734	9747
891.857	9720
891.98	9720
892.103	9770
892.226	9785
892.349	9660
892.471	9568
892.594	9557
892.717	9663
892.839	9599
892.962	9667
893.085	9641
893.207	9572
893.33	9500
893.452	9553
893.575	9637
893.697	9488
893.819	9625
893.941	9587
894.064	9576
894.186	9416
894.308	9363
894.43	9595
894.552	9580
894.674	9504
894.796	9298
894.918	9401
895.04	9367
895.161	9325
895.283	9363
895.405	9249
895.526	9298
895.648	9237
895.769	9188
895.891	9287
896.012	9249
896.134	9207
896.255	9161
896.376	9127
896.498	9188
896.619	9135
896.74	9032
896.861	9116
896.982	9188
897.103	9287
897.224	9173
897.345	9055
897.466	9009
897.587	9047
897.708	9131
897.828	9032
897.949	8918
898.07	8906
898.19	8876
898.311	9058
898.431	8925
898.552	8956
898.672	8864
898.792	9020
898.913	8952
899.033	8766
899.153	8807
899.273	8724
899.393	8697
899.513	8758
899.633	8731
899.753	8785
899.873	8716
899.993	8686
900.113	8659
900.232	8708
900.352	8655
900.472	8564
900.591	8579
900.711	8545
900.83	8507
900.95	8670
901.069	8686
901.189	8610
901.308	8446
901.427	8393
901.546	8442
901.665	8488
901.784	8526
901.904	8381
902.023	8339
902.141	8252
902.26	8233
902.379	8263
902.498	8199
902.617	8218
902.735	8317
902.854	8305
902.973	8271
903.091	8149
903.21	8103
903.328	8172
903.446	8054
903.565	8111
903.683	8081
903.801	8020
903.919	8107
904.038	8126
904.156	8054
904.274	8069
904.392	8005
904.51	8020
904.627	8027
904.745	8142
904.863	8077
904.981	7917
905.098	7860
905.216	7890
905.334	7887
905.451	7883
905.569	7845
905.686	7875
905.803	7906
905.921	7750
906.038	7890
906.155	7761
906.272	7689
906.389	7693
906.506	7628
906.623	7658
906.74	7597
906.857	7556
906.974	7578
907.091	7666
907.208	7727
907.324	7655
907.441	7571
907.557	7453
907.674	7426
907.79	7343
907.907	7419
908.023	7396
908.139	7419
908.256	7320
908.372	7411
908.488	7365
908.604	7285
908.72	7236
908.836	7255
908.952	7225
909.068	7206
909.184	7289
909.3	7179
909.415	7289
909.531	7285
909.647	7095
909.762	7069
909.878	7076
909.993	7129
910.108	7050
910.224	7027
910.339	7042
910.454	7008
910.57	7031
910.685	6935
910.8	7107
910.915	7069
911.03	6947
911.145	6882
911.259	6806
911.374	6890
911.489	6856
911.604	6844
911.718	6726
911.833	6745
911.947	6665
912.062	6616
912.176	6669
912.291	6700
912.405	6684
912.519	6772
912.633	6795
912.748	6741
912.862	6715
912.976	6589
913.09	6486
913.204	6582
913.318	6597
913.431	6681
913.545	6612
913.659	6688
913.772	6620
913.886	6532
914	6509
914.113	6627
914.226	6635
914.34	6597
914.453	6464
914.566	6555
914.68	6475
914.793	6570
914.906	6426
915.019	6407
915.132	6365
915.245	6429
915.358	6422
915.47	6452
915.583	6452
915.696	6452
915.809	6471
915.921	6525
916.034	6407
916.146	6422
916.259	6376
916.371	6475
916.483	6517
916.595	6388
916.708	6445
916.82	6475
916.932	6369
917.044	6346
917.156	6372
917.268	6277
917.38	6334
917.491	6311
917.603	6334
917.715	6422
917.826	6414
917.938	6323
918.049	6239
918.161	6342
918.272	6437
918.384	6437
918.495	6300
918.606	6296
918.717	6251
918.828	6232
918.939	6292
919.05	6175
919.161	6262
919.272	6163
919.383	6106
919.494	6254
919.604	6395
919.715	6289
919.826	6201
919.936	6224
920.047	6331
920.157	6281
920.267	6464
920.378	6273
920.488	6243
920.598	6502
920.708	6544
920.818	6384
920.928	6464
921.038	6551
921.148	6547
921.258	6304
921.368	6277
921.477	6232
921.587	6167
921.697	6117
921.806	6136
921.916	6125
922.025	5935
922.134	5863
922.244	5912
922.353	5942
922.462	5844
922.571	5786
922.68	5665
922.789	5668
922.898	5729
923.007	5668
923.116	5710
923.224	5638
923.333	5737
923.442	5566
923.55	5573
923.659	5600
923.767	5619
923.876	5512
923.984	5566
924.092	5501
924.201	5554
924.309	5532
924.417	5547
924.525	5516
924.633	5539
924.741	6258
924.849	5383
924.956	5474
925.064	5379
925.172	5311
925.279	5292
925.387	5337
925.494	5326
925.602	5425
925.709	5398
925.816	5315
925.924	5288
926.031	5387
926.138	5334
926.245	5303
926.352	5189
926.459	5334
926.566	5277
926.673	5231
926.779	5124
926.886	5136
926.993	5041
927.099	4972
927.206	4934
927.312	4915
927.419	4980
927.525	4927
927.631	4934
927.737	4923
927.843	4850
927.95	4767
928.056	4824
928.162	4820
928.267	4850
928.373	5223
928.479	4816
928.585	4683
928.69	4748
928.796	4774
928.901	4714
929.007	4615
929.112	4694
929.218	4626
929.323	4584
929.428	4558
929.533	4668
929.638	4504
929.743	4527
929.848	4546
929.953	4459
930.058	4440
930.163	4333
930.267	4341
930.372	4417
930.477	4295
930.581	4451
930.685	4344
930.79	4238
930.894	4284
930.998	4257
931.103	4352
931.207	4135
931.311	4067
931.415	3994
931.519	3953
931.623	3918
