Data from glass_V78500241_1309.txt Node
Date: Wed Sep 01 19:23:34 CST 2021
User: usil
Spectrometer: V785-0024
Trigger mode: 0
Integration Time (sec): 4.000000E-1
Scans to average: 1
Nonlinearity correction enabled: false
Boxcar width: 0
Storing dark spectrum: false
XAxis mode: Wavelengths
Number of Pixels in Spectrum: 1024
>>>>>Begin Spectral Data<<<<<
801.071	3770
801.214	3789
801.356	3663
801.499	3762
801.641	3755
801.783	3781
801.926	3899
802.068	3838
802.211	3896
802.353	3869
802.496	3907
802.638	3865
802.78	3911
802.923	3911
803.065	3899
803.208	3873
803.35	3880
803.492	3911
803.635	3896
803.777	3827
803.919	3911
804.061	4166
804.204	3937
804.346	3991
804.488	3956
804.63	4090
804.773	4006
804.915	4036
805.057	4131
805.199	4074
805.341	4105
805.483	4128
805.626	4169
805.768	4109
805.91	4181
806.052	4272
806.194	4207
806.336	4314
806.478	4211
806.62	4196
806.762	4211
806.904	4238
807.046	4329
807.188	4219
807.33	4196
807.472	4211
807.614	4200
807.756	4287
807.898	4219
808.04	4200
808.182	4253
808.324	4318
808.465	4367
808.607	4462
808.749	4478
808.891	4466
809.033	4470
809.174	4443
809.316	4249
809.458	4287
809.6	4147
809.741	4169
809.883	4139
810.025	4253
810.166	4253
810.308	4211
810.45	4291
810.591	4261
810.733	4272
810.875	4504
811.016	4805
811.158	5181
811.299	5258
811.441	5303
811.582	5064
811.724	4698
811.865	4466
812.007	4493
812.148	4489
812.29	4451
812.431	4421
812.573	4413
812.714	4394
812.855	4394
812.997	4405
813.138	4485
813.279	4447
813.421	4383
813.562	4356
813.703	4363
813.845	4314
813.986	4242
814.127	4227
814.268	4257
814.41	4291
814.551	4249
814.692	4344
814.833	4253
814.974	4344
815.115	4306
815.256	4257
815.397	4196
815.539	4303
815.68	4158
815.821	4246
815.962	4314
816.103	4242
816.244	4234
816.385	4211
816.526	4310
816.666	4238
816.807	4090
816.948	4173
817.089	4188
817.23	4147
817.371	4025
817.512	4059
817.653	4063
817.793	4040
817.934	4029
818.075	4097
818.216	4120
818.356	4055
818.497	3956
818.638	3949
818.778	3941
818.919	3854
819.06	3880
819.2	3918
819.341	3888
819.481	3808
819.622	3888
819.762	3983
819.903	3975
820.043	3880
820.184	3857
820.324	3789
820.465	3876
820.605	3854
820.746	3865
820.886	3793
821.026	3922
821.167	3922
821.307	3979
821.447	3949
821.588	3987
821.728	3937
821.868	3987
822.008	3857
822.149	3941
822.289	3934
822.429	3819
822.569	3759
822.709	3827
822.849	3705
822.99	3675
823.13	3751
823.27	3759
823.41	3740
823.55	3743
823.69	3705
823.83	3766
823.97	3701
824.11	3576
824.25	3633
824.389	3625
824.529	3690
824.669	3625
824.809	3720
824.949	3736
825.089	3743
825.228	3709
825.368	3595
825.508	3576
825.648	3610
825.787	3580
825.927	3633
826.067	3599
826.206	3675
826.346	3762
826.485	3846
826.625	3854
826.765	3915
826.904	3850
827.044	3622
827.183	3553
827.323	3439
827.462	3477
827.601	3443
827.741	3435
827.88	3454
828.02	3386
828.159	3424
828.298	3469
828.437	3534
828.577	3443
828.716	3641
828.855	3477
828.994	3389
829.134	3386
829.273	3412
829.412	3344
829.551	3317
829.69	3389
829.829	3424
829.968	3496
830.107	3447
830.246	3473
830.385	3382
830.524	3348
830.663	3336
830.802	3275
830.941	3222
831.08	3233
831.219	3279
831.357	3294
831.496	3450
831.635	3260
831.774	3230
831.913	3222
832.051	3176
832.19	3161
832.329	3233
832.467	3165
832.606	3127
832.744	3176
832.883	3199
833.022	3173
833.16	3268
833.299	3275
833.437	3363
833.576	3397
833.714	3405
833.852	3431
833.991	3443
834.129	3492
834.267	3439
834.406	3428
834.544	3443
834.682	3401
834.821	3386
834.959	3561
835.097	3428
835.235	3538
835.373	3481
835.511	3488
835.65	3469
835.788	3534
835.926	3409
836.064	3363
836.202	3393
836.34	3534
836.478	3629
836.615	3549
836.753	3610
836.891	3660
837.029	3641
837.167	3595
837.305	3599
837.443	3557
837.58	3538
837.718	3652
837.856	3545
837.993	3568
838.131	3629
838.269	3595
838.406	3549
838.544	3553
838.681	3462
838.819	3447
838.956	3416
839.094	3386
839.231	3469
839.369	3488
839.506	3709
839.643	3618
839.781	3485
839.918	3515
840.055	3519
840.193	3500
840.33	3519
840.467	3564
840.604	3599
840.742	3797
840.879	3549
841.016	3557
841.153	3644
841.29	3762
841.427	3736
841.564	3740
841.701	3705
841.838	3686
841.975	3690
842.112	3713
842.249	3660
842.385	3660
842.522	3804
842.659	3694
842.796	3675
842.933	3728
843.069	3679
843.206	3675
843.343	3823
843.479	3797
843.616	3816
843.752	3629
843.889	3705
844.025	3865
844.162	3724
844.298	3816
844.435	3808
844.571	3819
844.708	3903
844.844	4006
844.98	4025
845.117	4021
845.253	3949
845.389	3922
845.525	3964
845.661	3987
845.798	3915
845.934	4006
846.07	3968
846.206	3994
846.342	4105
846.478	4051
846.614	3998
846.75	3945
846.886	3903
847.022	4063
847.158	3991
847.294	3998
847.429	4010
847.565	4002
847.701	4272
847.837	3964
847.972	3865
848.108	3991
848.244	3968
848.379	3831
848.515	3819
848.65	3823
848.786	3880
848.921	3835
849.057	3926
849.192	3930
849.328	3934
849.463	3915
849.598	3918
849.734	3850
849.869	3804
850.004	3800
850.14	3838
850.275	3800
850.41	3747
850.545	3736
850.68	3755
850.815	3770
850.95	3778
851.085	3949
851.22	3854
851.355	3835
851.49	3797
851.625	3797
851.76	3785
851.895	3781
852.03	3751
852.165	3846
852.299	3899
852.434	3888
852.569	3827
852.703	3865
852.838	3915
852.973	3998
853.107	4029
853.242	3873
853.376	3892
853.511	3789
853.645	3823
853.78	3964
853.914	3911
854.048	3922
854.183	3888
854.317	3964
854.451	4105
854.585	3979
854.72	3983
854.854	4051
854.988	3937
855.122	4002
855.256	3892
855.39	4013
855.524	4147
855.658	4074
855.792	4082
855.926	4169
856.06	4135
856.194	4196
856.327	4200
856.461	4162
856.595	4192
856.729	4188
856.862	4295
856.996	4253
857.13	4272
857.263	4314
857.397	4363
857.53	4284
857.664	4375
857.797	4375
857.931	4413
858.064	4337
858.197	4424
858.331	4409
858.464	4432
858.597	4390
858.731	4413
858.864	4455
858.997	4474
859.13	4527
859.263	4546
859.396	4603
859.529	4531
859.662	4523
859.795	4455
859.928	4599
860.061	4733
860.194	4752
860.327	4641
860.46	4645
860.592	4729
860.725	4786
860.858	4786
860.99	4694
861.123	4687
861.256	4656
861.388	4725
861.521	5467
861.653	4733
861.786	4733
861.918	4778
862.05	4763
862.183	4870
862.315	4870
862.447	4957
862.58	4915
862.712	4809
862.844	4767
862.976	4877
863.108	4835
863.24	5151
863.372	4881
863.504	4858
863.636	4904
863.768	4927
863.9	4980
864.032	4873
864.164	4968
864.296	5029
864.428	5105
864.559	5105
864.691	5121
864.823	5098
864.954	5079
865.086	5155
865.217	5136
865.349	5140
865.48	5143
865.612	5185
865.743	5303
865.875	5159
866.006	5201
866.137	5254
866.269	5197
866.4	5220
866.531	5269
866.662	5265
866.793	5303
866.924	5265
867.055	5315
867.186	5360
867.317	5322
867.448	5345
867.579	5398
867.71	5387
867.841	5387
867.972	5463
868.103	5478
868.233	5493
868.364	5482
868.495	5516
868.625	5703
868.756	5828
868.886	5695
869.017	5737
869.147	5828
869.278	5904
869.408	5878
869.539	5844
869.669	5973
869.799	5874
869.929	5996
870.06	6030
870.19	6254
870.32	6216
870.45	6281
870.58	6365
870.71	6452
870.84	6525
870.97	6448
871.1	6441
871.23	6612
871.36	6700
871.489	6646
871.619	6730
871.749	6833
871.879	6863
872.008	6962
872.138	6958
872.267	7023
872.397	6993
872.526	7095
872.656	7088
872.785	7221
872.915	7396
873.044	7518
873.173	7578
873.303	7616
873.432	7723
873.561	7864
873.69	7936
873.819	7982
873.948	8145
874.077	8271
874.206	8347
874.335	8457
874.464	8655
874.593	8864
874.722	8906
874.851	9085
874.979	9222
875.108	9370
875.237	9420
875.365	9428
875.494	9671
875.623	9827
875.751	9915
875.88	10002
876.008	10139
876.136	10207
876.265	10523
876.393	10664
876.521	10698
876.65	10896
876.778	10828
876.906	10869
877.034	10892
877.162	11117
877.29	11132
877.418	11315
877.546	11326
877.674	11551
877.802	11459
877.93	11524
878.058	11509
878.185	11566
878.313	11691
878.441	11665
878.568	11676
878.696	11794
878.824	11752
878.951	11996
879.079	12015
879.206	12106
879.333	12007
879.461	11977
879.588	12049
879.715	12102
879.842	12140
879.97	12095
880.097	11916
880.224	11923
880.351	11843
880.478	11920
880.605	11855
880.732	11843
880.859	11999
880.986	11798
881.112	11863
881.239	11722
881.366	11710
881.493	11642
881.619	11611
881.746	11623
881.872	11501
881.999	11532
882.125	11436
882.252	11634
882.378	11459
882.505	11467
882.631	11364
882.757	11318
882.883	11318
883.01	11311
883.136	11105
883.262	11117
883.388	11067
883.514	11193
883.64	11212
883.766	11121
883.892	10919
884.018	11018
884.143	11079
884.269	11109
884.395	10900
884.52	10767
884.646	10820
884.772	10793
884.897	10584
885.023	10793
885.148	10752
885.274	10763
885.399	10672
885.524	10607
885.65	10668
885.775	10592
885.9	10523
886.025	10607
886.15	10538
886.275	10588
886.4	10451
886.525	10352
886.65	10375
886.775	10375
886.9	10497
887.025	10546
887.149	10390
887.274	10173
887.399	10109
887.523	10207
887.648	10086
887.773	10143
887.897	10280
888.021	10337
888.146	10181
888.27	10223
888.395	10192
888.519	10169
888.643	10143
888.767	10120
888.891	10131
889.015	9991
889.139	10086
889.263	10002
889.387	10071
889.511	10131
889.635	10082
889.759	9983
889.883	9926
890.006	10006
890.13	10120
890.254	9998
890.377	10025
890.501	9880
890.624	9911
890.748	9911
890.871	9793
890.995	9793
891.118	9762
891.241	9781
891.364	9724
891.488	9808
891.611	9743
891.734	9656
891.857	9781
891.98	9667
892.103	9778
892.226	9743
892.349	9610
892.471	9519
892.594	9584
892.717	9641
892.839	9633
892.962	9595
893.085	9641
893.207	9625
893.33	9500
893.452	9545
893.575	9587
893.697	9428
893.819	9648
893.941	9603
894.064	9660
894.186	9435
894.308	9348
894.43	9519
894.552	9553
894.674	9553
894.796	9351
894.918	9348
895.04	9279
895.161	9386
895.283	9283
895.405	9195
895.526	9256
895.648	9150
895.769	9245
895.891	9321
896.012	9291
896.134	9226
896.255	9192
896.376	9123
896.498	9104
896.619	9157
896.74	9097
896.861	9051
896.982	9226
897.103	9294
897.224	9154
897.345	9058
897.466	9020
897.587	9001
897.708	9116
897.828	9017
897.949	8914
898.07	8853
898.19	8895
898.311	9036
898.431	8948
898.552	8864
898.672	8948
898.792	8883
898.913	8986
899.033	8823
899.153	8785
899.273	8678
899.393	8750
899.513	8727
899.633	8651
899.753	8720
899.873	8648
899.993	8758
900.113	8724
900.232	8708
900.352	8590
900.472	8640
900.591	8571
900.711	8575
900.83	8571
900.95	8667
901.069	8625
901.189	8480
901.308	8396
901.427	8412
901.546	8381
901.665	8499
901.784	8415
901.904	8404
902.023	8313
902.141	8267
902.26	8176
902.379	8290
902.498	8221
902.617	8134
902.735	8244
902.854	8244
902.973	8275
903.091	8157
903.21	8149
903.328	8195
903.446	8149
903.565	8088
903.683	8119
903.801	8027
903.919	8092
904.038	8138
904.156	8039
904.274	8119
904.392	8058
904.51	8024
904.627	8069
904.745	8142
904.863	8187
904.981	7913
905.098	7875
905.216	7856
905.334	8020
905.451	7993
905.569	7898
905.686	7883
905.803	7947
905.921	7788
906.038	7928
906.155	7788
906.272	7719
906.389	7719
906.506	7628
906.623	7639
906.74	7559
906.857	7533
906.974	7632
907.091	7647
907.208	7712
907.324	7620
907.441	7575
907.557	7525
907.674	7483
907.79	7381
907.907	7415
908.023	7445
908.139	7468
908.256	7346
908.372	7411
908.488	7354
908.604	7259
908.72	7263
908.836	7305
908.952	7266
909.068	7247
909.184	7331
909.3	7282
909.415	7247
909.531	7285
909.647	7122
909.762	7126
909.878	7091
909.993	7099
910.108	7065
910.224	7099
910.339	7099
910.454	7038
910.57	7034
910.685	6966
910.8	7145
910.915	7107
911.03	7050
911.145	6844
911.259	6901
911.374	6897
911.489	6837
911.604	6844
911.718	6764
911.833	6738
911.947	6639
912.062	6631
912.176	6684
912.291	6681
912.405	6715
912.519	6844
912.633	6772
912.748	6700
912.862	6711
912.976	6570
913.09	6471
913.204	6612
913.318	6620
913.431	6669
913.545	6669
913.659	6734
913.772	6722
913.886	6623
914	6589
914.113	6585
914.226	6646
914.34	6604
914.453	6490
914.566	6521
914.68	6506
914.793	6517
914.906	6426
915.019	6369
915.132	6388
915.245	6391
915.358	6452
915.47	6429
915.583	6479
915.696	6479
915.809	6551
915.921	6574
916.034	6391
916.146	6471
916.259	6369
916.371	6448
916.483	6445
916.595	6452
916.708	6422
916.82	6448
916.932	6353
917.044	6376
917.156	6403
917.268	6327
917.38	6334
917.491	6350
917.603	6327
917.715	6391
917.826	6426
917.938	6323
918.049	6270
918.161	6346
918.272	6365
918.384	6452
918.495	6380
918.606	6292
918.717	6266
918.828	6251
918.939	6311
919.05	6228
919.161	6254
919.272	6140
919.383	6167
919.494	6289
919.604	6452
919.715	6304
919.826	6243
919.936	6315
920.047	6292
920.157	6311
920.267	6490
920.378	6308
920.488	6270
920.598	6490
920.708	6612
920.818	6494
920.928	6490
921.038	6582
921.148	6597
921.258	6376
921.368	6270
921.477	6178
921.587	6186
921.697	6076
921.806	6171
921.916	6068
922.025	5950
922.134	5912
922.244	5908
922.353	5870
922.462	5851
922.571	5798
922.68	5684
922.789	5748
922.898	5707
923.007	5649
923.116	5691
923.224	5745
923.333	5630
923.442	5592
923.55	5543
923.659	5623
923.767	5642
923.876	5570
923.984	5619
924.092	5497
924.201	5547
924.309	5558
924.417	5520
924.525	5478
924.633	5520
924.741	6304
924.849	5379
924.956	5493
925.064	5357
925.172	5334
925.279	5296
925.387	5368
925.494	5383
925.602	5410
925.709	5433
925.816	5311
925.924	5337
926.031	5368
926.138	5280
926.245	5364
926.352	5208
926.459	5322
926.566	5364
926.673	5178
926.779	5109
926.886	5147
926.993	5037
927.099	5025
927.206	4957
927.312	4995
927.419	5071
927.525	4987
927.631	4980
927.737	4889
927.843	4847
927.95	4805
928.056	4820
928.162	4805
928.267	4843
928.373	5341
928.479	4824
928.585	4706
928.69	4816
928.796	4759
928.901	4706
929.007	4603
929.112	4664
929.218	4615
929.323	4615
929.428	4615
929.533	4664
929.638	4489
929.743	4527
929.848	4527
929.953	4538
930.058	4417
930.163	4360
930.267	4318
930.372	4436
930.477	4314
930.581	4481
930.685	4409
930.79	4242
930.894	4284
930.998	4249
931.103	4405
931.207	4143
931.311	4101
931.415	4063
931.519	3949
931.623	3979
