Data from glass_V78500241_1976.txt Node
Date: Wed Sep 01 19:28:11 CST 2021
User: usil
Spectrometer: V785-0024
Trigger mode: 0
Integration Time (sec): 4.000000E-1
Scans to average: 1
Nonlinearity correction enabled: false
Boxcar width: 0
Storing dark spectrum: false
XAxis mode: Wavelengths
Number of Pixels in Spectrum: 1024
>>>>>Begin Spectral Data<<<<<
801.071	3747
801.214	3762
801.356	3736
801.499	3747
801.641	3701
801.783	3755
801.926	3861
802.068	3842
802.211	3838
802.353	3869
802.496	3873
802.638	3888
802.78	3857
802.923	3926
803.065	3884
803.208	3854
803.35	3876
803.492	3930
803.635	3930
803.777	3800
803.919	3869
804.061	4135
804.204	3987
804.346	3941
804.488	3896
804.63	4051
804.773	3972
804.915	3998
805.057	4097
805.199	4063
805.341	4128
805.483	4143
805.626	4150
805.768	4093
805.91	4192
806.052	4227
806.194	4200
806.336	4333
806.478	4192
806.62	4166
806.762	4150
806.904	4291
807.046	4348
807.188	4158
807.33	4181
807.472	4230
807.614	4200
807.756	4234
807.898	4162
808.04	4188
808.182	4299
808.324	4337
808.465	4375
808.607	4500
808.749	4459
808.891	4440
809.033	4451
809.174	4386
809.316	4261
809.458	4242
809.6	4177
809.741	4154
809.883	4150
810.025	4211
810.166	4207
810.308	4223
810.45	4207
810.591	4249
810.733	4295
810.875	4577
811.016	4793
811.158	5201
811.299	5250
811.441	5254
811.582	5102
811.724	4630
811.865	4424
812.007	4436
812.148	4451
812.29	4436
812.431	4443
812.573	4398
812.714	4409
812.855	4360
812.997	4409
813.138	4402
813.279	4371
813.421	4405
813.562	4383
813.703	4344
813.845	4341
813.986	4303
814.127	4200
814.268	4268
814.41	4276
814.551	4272
814.692	4299
814.833	4276
814.974	4276
815.115	4341
815.256	4230
815.397	4227
815.539	4242
815.68	4211
815.821	4219
815.962	4318
816.103	4287
816.244	4268
816.385	4246
816.526	4253
816.666	4219
816.807	4105
816.948	4150
817.089	4150
817.23	4093
817.371	4078
817.512	4055
817.653	4021
817.793	4048
817.934	4051
818.075	4093
818.216	4105
818.356	4051
818.497	3991
818.638	3918
818.778	3930
818.919	3899
819.06	3838
819.2	3926
819.341	3842
819.481	3812
819.622	3918
819.762	3998
819.903	3911
820.043	3880
820.184	3842
820.324	3842
820.465	3907
820.605	3918
820.746	3880
820.886	3816
821.026	3941
821.167	3937
821.307	3979
821.447	3941
821.588	3922
821.728	3915
821.868	3949
822.008	3831
822.149	3869
822.289	3899
822.429	3778
822.569	3762
822.709	3819
822.849	3641
822.99	3728
823.13	3778
823.27	3751
823.41	3732
823.55	3720
823.69	3728
823.83	3694
823.97	3701
824.11	3610
824.25	3576
824.389	3614
824.529	3633
824.669	3633
824.809	3728
824.949	3732
825.089	3728
825.228	3705
825.368	3572
825.508	3553
825.648	3564
825.787	3549
825.927	3656
826.067	3606
826.206	3652
826.346	3812
826.485	3842
826.625	3850
826.765	3880
826.904	3793
827.044	3606
827.183	3481
827.323	3393
827.462	3504
827.601	3416
827.741	3397
827.88	3454
828.02	3382
828.159	3389
828.298	3447
828.437	3534
828.577	3466
828.716	3625
828.855	3492
828.994	3363
829.134	3355
829.273	3374
829.412	3306
829.551	3317
829.69	3340
829.829	3416
829.968	3519
830.107	3462
830.246	3420
830.385	3344
830.524	3348
830.663	3294
830.802	3245
830.941	3211
831.08	3199
831.219	3275
831.357	3249
831.496	3374
831.635	3245
831.774	3184
831.913	3169
832.051	3154
832.19	3142
832.329	3211
832.467	3176
832.606	3100
832.744	3203
832.883	3218
833.022	3169
833.16	3253
833.299	3294
833.437	3321
833.576	3386
833.714	3370
833.852	3420
833.991	3439
834.129	3462
834.267	3428
834.406	3370
834.544	3458
834.682	3401
834.821	3412
834.959	3576
835.097	3416
835.235	3530
835.373	3447
835.511	3500
835.65	3424
835.788	3466
835.926	3393
836.064	3355
836.202	3424
836.34	3576
836.478	3614
836.615	3545
836.753	3591
836.891	3648
837.029	3599
837.167	3580
837.305	3603
837.443	3492
837.58	3515
837.718	3629
837.856	3557
837.993	3557
838.131	3584
838.269	3572
838.406	3557
838.544	3572
838.681	3466
838.819	3466
838.956	3386
839.094	3386
839.231	3389
839.369	3504
839.506	3717
839.643	3637
839.781	3500
839.918	3481
840.055	3507
840.193	3496
840.33	3492
840.467	3553
840.604	3599
840.742	3804
840.879	3538
841.016	3564
841.153	3587
841.29	3686
841.427	3762
841.564	3682
841.701	3717
841.838	3740
841.975	3663
842.112	3724
842.249	3618
842.385	3641
842.522	3812
842.659	3690
842.796	3641
842.933	3705
843.069	3656
843.206	3713
843.343	3789
843.479	3789
843.616	3785
843.752	3614
843.889	3694
844.025	3835
844.162	3736
844.298	3838
844.435	3762
844.571	3774
844.708	3880
844.844	3937
844.98	3998
845.117	4010
845.253	3937
845.389	3857
845.525	3945
845.661	4006
845.798	3907
845.934	4025
846.07	3972
846.206	4002
846.342	4097
846.478	3987
846.614	3968
846.75	3907
846.886	3873
847.022	3998
847.158	3953
847.294	4010
847.429	3998
847.565	3998
847.701	4249
847.837	3888
847.972	3842
848.108	3983
848.244	3983
848.379	3915
848.515	3789
848.65	3808
848.786	3816
848.921	3857
849.057	3915
849.192	3918
849.328	3915
849.463	3911
849.598	3896
849.734	3880
849.869	3831
850.004	3781
850.14	3781
850.275	3770
850.41	3762
850.545	3778
850.68	3766
850.815	3755
850.95	3785
851.085	3941
851.22	3854
851.355	3797
851.49	3770
851.625	3797
851.76	3789
851.895	3694
852.03	3747
852.165	3816
852.299	3842
852.434	3937
852.569	3857
852.703	3884
852.838	3926
852.973	3979
853.107	3975
853.242	3911
853.376	3838
853.511	3789
853.645	3823
853.78	3964
853.914	3888
854.048	3918
854.183	3842
854.317	3892
854.451	4078
854.585	3945
854.72	3937
854.854	4036
854.988	3941
855.122	3991
855.256	3968
855.39	4032
855.524	4093
855.658	4116
855.792	4078
855.926	4124
856.06	4158
856.194	4192
856.327	4147
856.461	4112
856.595	4131
856.729	4150
856.862	4280
856.996	4261
857.13	4284
857.263	4337
857.397	4390
857.53	4306
857.664	4363
857.797	4424
857.931	4436
858.064	4352
858.197	4459
858.331	4409
858.464	4390
858.597	4318
858.731	4421
858.864	4413
858.997	4424
859.13	4481
859.263	4504
859.396	4561
859.529	4478
859.662	4523
859.795	4519
859.928	4542
860.061	4710
860.194	4729
860.327	4649
860.46	4672
860.592	4759
860.725	4767
860.858	4790
860.99	4660
861.123	4637
861.256	4660
861.388	4816
861.521	5421
861.653	4717
861.786	4736
861.918	4736
862.05	4771
862.183	4805
862.315	4896
862.447	4930
862.58	4892
862.712	4786
862.844	4801
862.976	4862
863.108	4843
863.24	5140
863.372	4824
863.504	4881
863.636	4885
863.768	5037
863.9	4980
864.032	4908
864.164	4999
864.296	5045
864.428	5109
864.559	5094
864.691	5155
864.823	5071
864.954	5140
865.086	5170
865.217	5132
865.349	5113
865.48	5121
865.612	5193
865.743	5296
865.875	5208
866.006	5197
866.137	5227
866.269	5261
866.4	5220
866.531	5235
866.662	5239
866.793	5242
866.924	5288
867.055	5383
867.186	5322
867.317	5334
867.448	5376
867.579	5383
867.71	5387
867.841	5357
867.972	5436
868.103	5467
868.233	5528
868.364	5516
868.495	5490
868.625	5638
868.756	5775
868.886	5619
869.017	5741
869.147	5874
869.278	5805
869.408	5832
869.539	5859
869.669	5935
869.799	5927
869.929	5980
870.06	5969
870.19	6186
870.32	6216
870.45	6296
870.58	6342
870.71	6388
870.84	6433
870.97	6441
871.1	6494
871.23	6597
871.36	6696
871.489	6673
871.619	6734
871.749	6848
871.879	6764
872.008	6973
872.138	6977
872.267	6947
872.397	6993
872.526	7031
872.656	7034
872.785	7149
872.915	7346
873.044	7506
873.173	7563
873.303	7620
873.432	7738
873.561	7769
873.69	7868
873.819	8039
873.948	8164
874.077	8218
874.206	8336
874.335	8469
874.464	8606
874.593	8876
874.722	8891
874.851	9097
874.979	9245
875.108	9370
875.237	9408
875.365	9500
875.494	9641
875.623	9846
875.751	9857
875.88	10036
876.008	10105
876.136	10265
876.265	10466
876.393	10668
876.521	10752
876.65	10873
876.778	10771
876.906	10885
877.034	10957
877.162	11086
877.29	11250
877.418	11326
877.546	11337
877.674	11467
877.802	11391
877.93	11535
878.058	11486
878.185	11573
878.313	11726
878.441	11779
878.568	11688
878.696	11870
878.824	11756
878.951	11908
879.079	12007
879.206	12136
879.333	12087
879.461	12015
879.588	12068
879.715	12030
879.842	12182
879.97	12144
880.097	11851
880.224	11859
880.351	11786
880.478	11874
880.605	11840
880.732	11798
880.859	12011
880.986	11771
881.112	11939
881.239	11733
881.366	11649
881.493	11608
881.619	11551
881.746	11642
881.872	11505
881.999	11566
882.125	11421
882.252	11524
882.378	11493
882.505	11573
882.631	11337
882.757	11296
882.883	11368
883.01	11201
883.136	11178
883.262	11140
883.388	11006
883.514	11185
883.64	11117
883.766	11132
883.892	10946
884.018	11003
884.143	11037
884.269	11086
884.395	10793
884.52	10774
884.646	10752
884.772	10675
884.897	10637
885.023	10683
885.148	10748
885.274	10694
885.399	10660
885.524	10615
885.65	10592
885.775	10588
885.9	10527
886.025	10645
886.15	10542
886.275	10527
886.4	10375
886.525	10379
886.65	10409
886.775	10352
886.9	10489
887.025	10561
887.149	10382
887.274	10207
887.399	10204
887.523	10154
887.648	10067
887.773	10055
887.897	10253
888.021	10219
888.146	10112
888.27	10276
888.395	10169
888.519	10200
888.643	10166
888.767	10219
888.891	10135
889.015	9991
889.139	10032
889.263	9937
889.387	9930
889.511	10101
889.635	10059
889.759	9960
889.883	9998
890.006	9930
890.13	10139
890.254	9998
890.377	9964
890.501	9774
890.624	9880
890.748	9918
890.871	9770
890.995	9751
891.118	9709
891.241	9705
891.364	9724
891.488	9880
891.611	9701
891.734	9751
891.857	9762
891.98	9713
892.103	9770
892.226	9663
892.349	9606
892.471	9504
892.594	9591
892.717	9622
892.839	9557
892.962	9606
893.085	9671
893.207	9644
893.33	9599
893.452	9454
893.575	9629
893.697	9492
893.819	9633
893.941	9595
894.064	9606
894.186	9359
894.308	9439
894.43	9469
894.552	9523
894.674	9469
894.796	9401
894.918	9268
895.04	9386
895.161	9401
895.283	9351
895.405	9161
895.526	9268
895.648	9211
895.769	9272
895.891	9283
896.012	9233
896.134	9241
896.255	9116
896.376	9097
896.498	9127
896.619	9123
896.74	9123
896.861	9127
896.982	9302
897.103	9272
897.224	9203
897.345	9142
897.466	8960
897.587	9036
897.708	9081
897.828	9062
897.949	8937
898.07	8872
898.19	8891
898.311	9017
898.431	8796
898.552	8925
898.672	8910
898.792	8948
898.913	8998
899.033	8766
899.153	8731
899.273	8716
899.393	8697
899.513	8743
899.633	8686
899.753	8792
899.873	8746
899.993	8689
900.113	8621
900.232	8712
900.352	8613
900.472	8632
900.591	8545
900.711	8617
900.83	8465
900.95	8625
901.069	8625
901.189	8556
901.308	8374
901.427	8400
901.546	8404
901.665	8495
901.784	8480
901.904	8396
902.023	8286
902.141	8191
902.26	8180
902.379	8240
902.498	8183
902.617	8168
902.735	8370
902.854	8248
902.973	8233
903.091	8111
903.21	8149
903.328	8202
903.446	8126
903.565	8058
903.683	8062
903.801	8084
903.919	8134
904.038	8096
904.156	8005
904.274	8103
904.392	7955
904.51	8031
904.627	8027
904.745	8050
904.863	8134
904.981	7856
905.098	7860
905.216	7868
905.334	7917
905.451	7902
905.569	7826
905.686	7955
905.803	7978
905.921	7799
906.038	7887
906.155	7784
906.272	7700
906.389	7727
906.506	7601
906.623	7620
906.74	7537
906.857	7540
906.974	7582
907.091	7636
907.208	7715
907.324	7590
907.441	7537
907.557	7445
907.674	7373
907.79	7320
907.907	7388
908.023	7377
908.139	7472
908.256	7384
908.372	7369
908.488	7362
908.604	7270
908.72	7244
908.836	7301
908.952	7228
909.068	7305
909.184	7324
909.3	7278
909.415	7278
909.531	7263
909.647	7118
909.762	7168
909.878	7072
909.993	7129
910.108	7145
910.224	7107
910.339	7080
910.454	7034
910.57	7012
910.685	6958
910.8	7202
910.915	7103
911.03	7038
911.145	6905
911.259	6840
911.374	6859
911.489	6837
911.604	6791
911.718	6764
911.833	6722
911.947	6658
912.062	6601
912.176	6764
912.291	6707
912.405	6726
912.519	6833
912.633	6814
912.748	6738
912.862	6646
912.976	6623
913.09	6486
913.204	6559
913.318	6604
913.431	6681
913.545	6688
913.659	6662
913.772	6662
913.886	6582
914	6555
914.113	6555
914.226	6616
914.34	6646
914.453	6456
914.566	6544
914.68	6494
914.793	6502
914.906	6414
915.019	6403
915.132	6384
915.245	6426
915.358	6395
915.47	6395
915.583	6467
915.696	6456
915.809	6479
915.921	6509
916.034	6437
916.146	6429
916.259	6338
916.371	6464
916.483	6483
916.595	6369
916.708	6361
916.82	6410
916.932	6342
917.044	6403
917.156	6399
917.268	6311
917.38	6338
917.491	6270
917.603	6323
917.715	6376
917.826	6346
917.938	6270
918.049	6281
918.161	6365
918.272	6384
918.384	6445
918.495	6319
918.606	6266
918.717	6232
918.828	6266
918.939	6243
919.05	6220
919.161	6201
919.272	6102
919.383	6117
919.494	6270
919.604	6391
919.715	6251
919.826	6251
919.936	6136
920.047	6399
920.157	6228
920.267	6464
920.378	6296
920.488	6270
920.598	6422
920.708	6650
920.818	6475
920.928	6391
921.038	6589
921.148	6570
921.258	6380
921.368	6258
921.477	6205
921.587	6159
921.697	6121
921.806	6209
921.916	6083
922.025	5942
922.134	5882
922.244	5897
922.353	5984
922.462	5889
922.571	5813
922.68	5707
922.789	5661
922.898	5691
923.007	5653
923.116	5722
923.224	5699
923.333	5653
923.442	5585
923.55	5573
923.659	5577
923.767	5691
923.876	5532
923.984	5604
924.092	5535
924.201	5547
924.309	5551
924.417	5551
924.525	5471
924.633	5448
924.741	6266
924.849	5303
924.956	5478
925.064	5334
925.172	5277
925.279	5261
925.387	5341
925.494	5334
925.602	5436
925.709	5376
925.816	5280
925.924	5357
926.031	5341
926.138	5330
926.245	5326
926.352	5166
926.459	5337
926.566	5296
926.673	5201
926.779	5143
926.886	5121
926.993	5048
927.099	5003
927.206	5014
927.312	4972
927.419	4957
927.525	5018
927.631	4980
927.737	4949
927.843	4877
927.95	4774
928.056	4805
928.162	4828
928.267	4835
928.373	5391
928.479	4824
928.585	4653
928.69	4797
928.796	4793
928.901	4672
929.007	4599
929.112	4672
929.218	4649
929.323	4565
929.428	4573
929.533	4683
929.638	4531
929.743	4504
929.848	4504
929.953	4542
930.058	4363
930.163	4318
930.267	4363
930.372	4436
930.477	4261
930.581	4447
930.685	4383
930.79	4284
930.894	4333
930.998	4219
931.103	4398
931.207	4112
931.311	4074
931.415	3994
931.519	3896
931.623	3911
