Data from glass_V78500241_676.txt Node
Date: Wed Sep 01 19:19:11 CST 2021
User: usil
Spectrometer: V785-0024
Trigger mode: 0
Integration Time (sec): 4.000000E-1
Scans to average: 1
Nonlinearity correction enabled: false
Boxcar width: 0
Storing dark spectrum: false
XAxis mode: Wavelengths
Number of Pixels in Spectrum: 1024
>>>>>Begin Spectral Data<<<<<
801.071	3705
801.214	3728
801.356	3713
801.499	3751
801.641	3736
801.783	3759
801.926	3842
802.068	3888
802.211	3869
802.353	3899
802.496	3876
802.638	3850
802.78	3915
802.923	3911
803.065	3896
803.208	3896
803.35	3869
803.492	3941
803.635	3937
803.777	3755
803.919	3880
804.061	4105
804.204	3998
804.346	3922
804.488	3934
804.63	4006
804.773	3987
804.915	4067
805.057	4143
805.199	4017
805.341	4105
805.483	4181
805.626	4086
805.768	4109
805.91	4223
806.052	4253
806.194	4200
806.336	4314
806.478	4242
806.62	4158
806.762	4192
806.904	4253
807.046	4367
807.188	4188
807.33	4162
807.472	4246
807.614	4192
807.756	4306
807.898	4242
808.04	4219
808.182	4322
808.324	4287
808.465	4409
808.607	4531
808.749	4489
808.891	4493
809.033	4497
809.174	4440
809.316	4322
809.458	4230
809.6	4219
809.741	4166
809.883	4166
810.025	4249
810.166	4249
810.308	4227
810.45	4280
810.591	4310
810.733	4284
810.875	4538
811.016	4870
811.158	5117
811.299	5299
811.441	5334
811.582	5064
811.724	4744
811.865	4523
812.007	4489
812.148	4417
812.29	4409
812.431	4405
812.573	4405
812.714	4360
812.855	4398
812.997	4417
813.138	4451
813.279	4421
813.421	4432
813.562	4348
813.703	4325
813.845	4318
813.986	4227
814.127	4234
814.268	4303
814.41	4291
814.551	4223
814.692	4314
814.833	4284
814.974	4333
815.115	4310
815.256	4242
815.397	4238
815.539	4280
815.68	4207
815.821	4253
815.962	4291
816.103	4306
816.244	4276
816.385	4276
816.526	4322
816.666	4211
816.807	4101
816.948	4207
817.089	4150
817.23	4109
817.371	4048
817.512	4082
817.653	4135
817.793	4074
817.934	4116
818.075	4143
818.216	4112
818.356	4154
818.497	4006
818.638	3956
818.778	3926
818.919	3934
819.06	3857
819.2	3937
819.341	3850
819.481	3861
819.622	3930
819.762	4025
819.903	3964
820.043	3876
820.184	3861
820.324	3857
820.465	3903
820.605	3857
820.746	3873
820.886	3793
821.026	3930
821.167	3983
821.307	4006
821.447	4044
821.588	3987
821.728	3968
821.868	3964
822.008	3861
822.149	3907
822.289	3964
822.429	3812
822.569	3785
822.709	3816
822.849	3694
822.99	3743
823.13	3743
823.27	3800
823.41	3736
823.55	3743
823.69	3686
823.83	3766
823.97	3694
824.11	3614
824.25	3584
824.389	3660
824.529	3686
824.669	3629
824.809	3724
824.949	3755
825.089	3751
825.228	3705
825.368	3580
825.508	3572
825.648	3557
825.787	3641
825.927	3629
826.067	3610
826.206	3690
826.346	3785
826.485	3838
826.625	3915
826.765	3991
826.904	3869
827.044	3614
827.183	3549
827.323	3405
827.462	3530
827.601	3454
827.741	3420
827.88	3466
828.02	3386
828.159	3431
828.298	3515
828.437	3542
828.577	3507
828.716	3603
828.855	3511
828.994	3344
829.134	3374
829.273	3401
829.412	3378
829.551	3393
829.69	3351
829.829	3416
829.968	3530
830.107	3458
830.246	3481
830.385	3363
830.524	3348
830.663	3325
830.802	3260
830.941	3226
831.08	3214
831.219	3310
831.357	3253
831.496	3424
831.635	3298
831.774	3230
831.913	3249
832.051	3138
832.19	3146
832.329	3245
832.467	3142
832.606	3089
832.744	3180
832.883	3207
833.022	3211
833.16	3317
833.299	3317
833.437	3355
833.576	3344
833.714	3397
833.852	3431
833.991	3450
834.129	3477
834.267	3447
834.406	3409
834.544	3477
834.682	3405
834.821	3382
834.959	3618
835.097	3450
835.235	3576
835.373	3523
835.511	3504
835.65	3454
835.788	3477
835.926	3416
836.064	3370
836.202	3405
836.34	3564
836.478	3644
836.615	3530
836.753	3591
836.891	3660
837.029	3606
837.167	3603
837.305	3580
837.443	3576
837.58	3473
837.718	3637
837.856	3545
837.993	3557
838.131	3564
838.269	3584
838.406	3580
838.544	3606
838.681	3485
838.819	3458
838.956	3363
839.094	3386
839.231	3458
839.369	3564
839.506	3724
839.643	3641
839.781	3519
839.918	3485
840.055	3526
840.193	3523
840.33	3568
840.467	3572
840.604	3625
840.742	3835
840.879	3542
841.016	3526
841.153	3648
841.29	3793
841.427	3759
841.564	3762
841.701	3770
841.838	3728
841.975	3732
842.112	3759
842.249	3652
842.385	3637
842.522	3857
842.659	3686
842.796	3679
842.933	3728
843.069	3762
843.206	3743
843.343	3819
843.479	3770
843.616	3823
843.752	3720
843.889	3648
844.025	3854
844.162	3679
844.298	3842
844.435	3785
844.571	3846
844.708	3915
844.844	3998
844.98	4032
845.117	4044
845.253	3975
845.389	3915
845.525	3979
845.661	3991
845.798	3922
845.934	4048
846.07	3968
846.206	4082
846.342	4078
846.478	4048
846.614	3983
846.75	3941
846.886	3953
847.022	4040
847.158	3998
847.294	3983
847.429	4063
847.565	4010
847.701	4242
847.837	3827
847.972	3888
848.108	3972
848.244	4006
848.379	3876
848.515	3808
848.65	3861
848.786	3804
848.921	3876
849.057	3945
849.192	3964
849.328	3903
849.463	3941
849.598	3907
849.734	3884
849.869	3865
850.004	3827
850.14	3861
850.275	3789
850.41	3774
850.545	3812
850.68	3793
850.815	3808
850.95	3842
851.085	3960
851.22	3850
851.355	3846
851.49	3808
851.625	3850
851.76	3800
851.895	3797
852.03	3736
852.165	3789
852.299	3861
852.434	3937
852.569	3876
852.703	3926
852.838	3968
852.973	4002
853.107	3987
853.242	3873
853.376	3865
853.511	3785
853.645	3831
853.78	3941
853.914	3873
854.048	3880
854.183	3911
854.317	3937
854.451	4067
854.585	3964
854.72	3983
854.854	4074
854.988	3968
855.122	4002
855.256	3968
855.39	4082
855.524	4120
855.658	4105
855.792	4074
855.926	4192
856.06	4188
856.194	4200
856.327	4169
856.461	4143
856.595	4162
856.729	4181
856.862	4303
856.996	4227
857.13	4356
857.263	4337
857.397	4352
857.53	4337
857.664	4402
857.797	4375
857.931	4402
858.064	4367
858.197	4500
858.331	4421
858.464	4413
858.597	4341
858.731	4474
858.864	4451
858.997	4466
859.13	4565
859.263	4504
859.396	4611
859.529	4538
859.662	4569
859.795	4516
859.928	4630
860.061	4683
860.194	4748
860.327	4714
860.46	4649
860.592	4759
860.725	4755
860.858	4797
860.99	4717
861.123	4660
861.256	4717
861.388	4786
861.521	5269
861.653	4717
861.786	4714
861.918	4778
862.05	4767
862.183	4812
862.315	4904
862.447	4919
862.58	4923
862.712	4786
862.844	4790
862.976	4885
863.108	4896
863.24	5280
863.372	4812
863.504	4915
863.636	4911
863.768	4991
863.9	4976
864.032	4915
864.164	5022
864.296	5048
864.428	5098
864.559	5109
864.691	5090
864.823	5075
864.954	5159
865.086	5181
865.217	5140
865.349	5117
865.48	5197
865.612	5223
865.743	5318
865.875	5227
866.006	5178
866.137	5208
866.269	5242
866.4	5265
866.531	5208
866.662	5212
866.793	5269
866.924	5277
867.055	5303
867.186	5391
867.317	5315
867.448	5292
867.579	5433
867.71	5433
867.841	5455
867.972	5471
868.103	5444
868.233	5452
868.364	5512
868.495	5551
868.625	5665
868.756	5813
868.886	5672
869.017	5748
869.147	5912
869.278	5870
869.408	5840
869.539	5832
869.669	5942
869.799	5961
869.929	6041
870.06	6022
870.19	6136
870.32	6243
870.45	6270
870.58	6361
870.71	6452
870.84	6433
870.97	6479
871.1	6426
871.23	6658
871.36	6726
871.489	6669
871.619	6734
871.749	6833
871.879	6852
872.008	6973
872.138	6962
872.267	7000
872.397	6981
872.526	7015
872.656	7168
872.785	7190
872.915	7407
873.044	7521
873.173	7457
873.303	7685
873.432	7807
873.561	7917
873.69	7909
873.819	8103
873.948	8153
874.077	8206
874.206	8355
874.335	8438
874.464	8632
874.593	8845
874.722	8990
874.851	9184
874.979	9203
875.108	9393
875.237	9439
875.365	9534
875.494	9698
875.623	9884
875.751	9842
875.88	10040
876.008	10131
876.136	10287
876.265	10497
876.393	10763
876.521	10736
876.65	10847
876.778	10923
876.906	10915
877.034	11048
877.162	11105
877.29	11143
877.418	11311
877.546	11391
877.674	11448
877.802	11383
877.93	11600
878.058	11615
878.185	11570
878.313	11638
878.441	11729
878.568	11695
878.696	11821
878.824	11916
878.951	11935
879.079	12110
879.206	12095
879.333	12106
879.461	12007
879.588	12114
879.715	12083
879.842	12247
879.97	12034
880.097	11889
880.224	11870
880.351	11939
880.478	11942
880.605	11863
880.732	11840
880.859	11965
880.986	11821
881.112	11859
881.239	11775
881.366	11627
881.493	11665
881.619	11642
881.746	11554
881.872	11501
881.999	11528
882.125	11535
882.252	11604
882.378	11493
882.505	11566
882.631	11387
882.757	11284
882.883	11334
883.01	11265
883.136	11170
883.262	11147
883.388	11086
883.514	11181
883.64	11166
883.766	11079
883.892	11121
884.018	11022
884.143	11086
884.269	11083
884.395	10812
884.52	10793
884.646	10812
884.772	10649
884.897	10653
885.023	10740
885.148	10698
885.274	10714
885.399	10793
885.524	10641
885.65	10580
885.775	10523
885.9	10538
886.025	10645
886.15	10546
886.275	10455
886.4	10382
886.525	10428
886.65	10447
886.775	10432
886.9	10478
887.025	10531
887.149	10432
887.274	10287
887.399	10185
887.523	10207
887.648	10173
887.773	10169
887.897	10207
888.021	10295
888.146	10154
888.27	10246
888.395	10215
888.519	10185
888.643	10272
888.767	10177
888.891	10139
889.015	10086
889.139	10109
889.263	10025
889.387	10074
889.511	10116
889.635	10071
889.759	9983
889.883	9960
890.006	10040
890.13	10166
890.254	9972
890.377	10006
890.501	9899
890.624	9892
890.748	9899
890.871	9838
890.995	9759
891.118	9766
891.241	9838
891.364	9713
891.488	9819
891.611	9694
891.734	9720
891.857	9778
891.98	9759
892.103	9759
892.226	9717
892.349	9694
892.471	9557
892.594	9595
892.717	9709
892.839	9679
892.962	9648
893.085	9614
893.207	9572
893.33	9576
893.452	9545
893.575	9629
893.697	9504
893.819	9610
893.941	9648
894.064	9606
894.186	9408
894.308	9435
894.43	9587
894.552	9542
894.674	9564
894.796	9412
894.918	9462
895.04	9374
895.161	9386
895.283	9458
895.405	9195
895.526	9237
895.648	9272
895.769	9237
895.891	9283
896.012	9367
896.134	9260
896.255	9138
896.376	9146
896.498	9188
896.619	9226
896.74	9146
896.861	9085
896.982	9249
897.103	9329
897.224	9264
897.345	9074
897.466	9032
897.587	9047
897.708	9081
897.828	9055
897.949	8895
898.07	8899
898.19	8967
898.311	9051
898.431	8883
898.552	8891
898.672	9032
898.792	8975
898.913	8982
899.033	8773
899.153	8739
899.273	8659
899.393	8746
899.513	8724
899.633	8693
899.753	8735
899.873	8693
899.993	8731
900.113	8701
900.232	8701
900.352	8621
900.472	8568
900.591	8556
900.711	8629
900.83	8606
900.95	8693
901.069	8701
901.189	8514
901.308	8499
901.427	8396
901.546	8476
901.665	8511
901.784	8484
901.904	8400
902.023	8385
902.141	8248
902.26	8252
902.379	8309
902.498	8233
902.617	8237
902.735	8328
902.854	8309
902.973	8298
903.091	8145
903.21	8134
903.328	8183
903.446	8210
903.565	8115
903.683	8084
903.801	8043
903.919	8119
904.038	8130
904.156	8031
904.274	8130
904.392	8081
904.51	8069
904.627	7989
904.745	8069
904.863	8069
904.981	7917
905.098	7902
905.216	7925
905.334	7830
905.451	7917
905.569	7852
905.686	7902
905.803	7921
905.921	7719
906.038	7864
906.155	7753
906.272	7803
906.389	7677
906.506	7662
906.623	7670
906.74	7620
906.857	7578
906.974	7605
907.091	7685
907.208	7753
907.324	7655
907.441	7616
907.557	7495
907.674	7415
907.79	7415
907.907	7453
908.023	7468
908.139	7460
908.256	7392
908.372	7396
908.488	7362
908.604	7236
908.72	7274
908.836	7289
908.952	7247
909.068	7232
909.184	7369
909.3	7217
909.415	7255
909.531	7320
909.647	7145
909.762	7160
909.878	7088
909.993	7149
910.108	7126
910.224	7088
910.339	7088
910.454	7065
910.57	7008
910.685	7000
910.8	7225
910.915	7069
911.03	7046
911.145	6928
911.259	6886
911.374	6886
911.489	6829
911.604	6859
911.718	6741
911.833	6802
911.947	6692
912.062	6696
912.176	6711
912.291	6696
912.405	6669
912.519	6913
912.633	6818
912.748	6715
912.862	6692
912.976	6627
913.09	6528
913.204	6620
913.318	6616
913.431	6707
913.545	6650
913.659	6700
913.772	6768
913.886	6559
914	6536
914.113	6684
914.226	6616
914.34	6639
914.453	6502
914.566	6601
914.68	6536
914.793	6464
914.906	6410
915.019	6395
915.132	6418
915.245	6448
915.358	6483
915.47	6452
915.583	6460
915.696	6448
915.809	6547
915.921	6570
916.034	6479
916.146	6403
916.259	6445
916.371	6517
916.483	6407
916.595	6403
916.708	6399
916.82	6414
916.932	6391
917.044	6452
917.156	6403
917.268	6331
917.38	6372
917.491	6327
917.603	6350
917.715	6369
917.826	6418
917.938	6323
918.049	6281
918.161	6346
918.272	6437
918.384	6494
918.495	6327
918.606	6277
918.717	6262
918.828	6281
918.939	6300
919.05	6239
919.161	6300
919.272	6140
919.383	6163
919.494	6251
919.604	6471
919.715	6308
919.826	6224
919.936	6209
920.047	6388
920.157	6262
920.267	6479
920.378	6380
920.488	6285
920.598	6433
920.708	6536
920.818	6506
920.928	6410
921.038	6597
921.148	6597
921.258	6399
921.368	6353
921.477	6262
921.587	6175
921.697	6079
921.806	6159
921.916	6091
922.025	5958
922.134	5920
922.244	5893
922.353	5961
922.462	5859
922.571	5859
922.68	5726
922.789	5710
922.898	5733
923.007	5611
923.116	5729
923.224	5714
923.333	5661
923.442	5611
923.55	5592
923.659	5577
923.767	5604
923.876	5532
923.984	5688
924.092	5562
924.201	5596
924.309	5581
924.417	5570
924.525	5543
924.633	5505
924.741	6152
924.849	5406
924.956	5535
925.064	5376
925.172	5311
925.279	5311
925.387	5330
925.494	5311
925.602	5459
925.709	5398
925.816	5311
925.924	5318
926.031	5383
926.138	5334
926.245	5345
926.352	5258
926.459	5292
926.566	5376
926.673	5254
926.779	5124
926.886	5124
926.993	5083
927.099	5022
927.206	4938
927.312	4987
927.419	5014
927.525	4987
927.631	5010
927.737	4908
927.843	4850
927.95	4736
928.056	4854
928.162	4866
928.267	4847
928.373	5353
928.479	4862
928.585	4660
928.69	4809
928.796	4778
928.901	4660
929.007	4561
929.112	4660
929.218	4637
929.323	4561
929.428	4618
929.533	4611
929.638	4584
929.743	4546
929.848	4558
929.953	4550
930.058	4462
930.163	4318
930.267	4295
930.372	4440
930.477	4295
930.581	4459
930.685	4394
930.79	4261
930.894	4322
930.998	4299
931.103	4402
931.207	4135
931.311	4048
931.415	4067
931.519	3956
931.623	3934
