Data from glass_V78500241_2346.txt Node
Date: Wed Sep 01 19:30:45 CST 2021
User: usil
Spectrometer: V785-0024
Trigger mode: 0
Integration Time (sec): 4.000000E-1
Scans to average: 1
Nonlinearity correction enabled: false
Boxcar width: 0
Storing dark spectrum: false
XAxis mode: Wavelengths
Number of Pixels in Spectrum: 1024
>>>>>Begin Spectral Data<<<<<
801.071	3724
801.214	3766
801.356	3682
801.499	3743
801.641	3732
801.783	3778
801.926	3827
802.068	3797
802.211	3865
802.353	3835
802.496	3835
802.638	3937
802.78	3888
802.923	3930
803.065	3896
803.208	3827
803.35	3911
803.492	3937
803.635	3888
803.777	3793
803.919	3876
804.061	4147
804.204	3915
804.346	3926
804.488	3884
804.63	4025
804.773	3968
804.915	4025
805.057	4112
805.199	4002
805.341	4082
805.483	4120
805.626	4128
805.768	4128
805.91	4207
806.052	4211
806.194	4234
806.336	4344
806.478	4204
806.62	4143
806.762	4192
806.904	4219
807.046	4306
807.188	4185
807.33	4139
807.472	4238
807.614	4181
807.756	4284
807.898	4185
808.04	4219
808.182	4291
808.324	4261
808.465	4367
808.607	4447
808.749	4440
808.891	4455
809.033	4447
809.174	4462
809.316	4249
809.458	4207
809.6	4135
809.741	4154
809.883	4124
810.025	4150
810.166	4177
810.308	4249
810.45	4185
810.591	4181
810.733	4291
810.875	4504
811.016	4820
811.158	5128
811.299	5299
811.441	5261
811.582	5079
811.724	4740
811.865	4451
812.007	4447
812.148	4402
812.29	4421
812.431	4424
812.573	4379
812.714	4333
812.855	4432
812.997	4386
813.138	4443
813.279	4383
813.421	4379
813.562	4383
813.703	4295
813.845	4284
813.986	4219
814.127	4219
814.268	4169
814.41	4234
814.551	4215
814.692	4314
814.833	4287
814.974	4325
815.115	4322
815.256	4238
815.397	4242
815.539	4299
815.68	4173
815.821	4166
815.962	4360
816.103	4303
816.244	4246
816.385	4211
816.526	4261
816.666	4177
816.807	4082
816.948	4150
817.089	4143
817.23	4044
817.371	3998
817.512	4067
817.653	4086
817.793	4025
817.934	4006
818.075	4055
818.216	4067
818.356	4059
818.497	3968
818.638	3873
818.778	3941
818.919	3892
819.06	3850
819.2	3876
819.341	3842
819.481	3854
819.622	3934
819.762	3991
819.903	3873
820.043	3865
820.184	3816
820.324	3797
820.465	3850
820.605	3854
820.746	3800
820.886	3816
821.026	3945
821.167	3918
821.307	3968
821.447	3979
821.588	3953
821.728	3949
821.868	3956
822.008	3873
822.149	3896
822.289	3899
822.429	3762
822.569	3747
822.709	3759
822.849	3736
822.99	3713
823.13	3747
823.27	3781
823.41	3724
823.55	3701
823.69	3701
823.83	3743
823.97	3660
824.11	3591
824.25	3553
824.389	3629
824.529	3656
824.669	3652
824.809	3698
824.949	3778
825.089	3717
825.228	3694
825.368	3549
825.508	3553
825.648	3557
825.787	3606
825.927	3637
826.067	3633
826.206	3641
826.346	3759
826.485	3781
826.625	3850
826.765	3926
826.904	3823
827.044	3599
827.183	3538
827.323	3458
827.462	3504
827.601	3450
827.741	3424
827.88	3424
828.02	3386
828.159	3447
828.298	3485
828.437	3549
828.577	3504
828.716	3553
828.855	3511
828.994	3416
829.134	3420
829.273	3359
829.412	3332
829.551	3287
829.69	3336
829.829	3412
829.968	3492
830.107	3454
830.246	3431
830.385	3367
830.524	3348
830.663	3321
830.802	3241
830.941	3195
831.08	3203
831.219	3256
831.357	3211
831.496	3389
831.635	3245
831.774	3230
831.913	3176
832.051	3119
832.19	3169
832.329	3222
832.467	3131
832.606	3112
832.744	3169
832.883	3169
833.022	3207
833.16	3249
833.299	3249
833.437	3329
833.576	3374
833.714	3386
833.852	3397
833.991	3428
834.129	3428
834.267	3443
834.406	3401
834.544	3454
834.682	3409
834.821	3409
834.959	3576
835.097	3397
835.235	3526
835.373	3462
835.511	3492
835.65	3450
835.788	3447
835.926	3374
836.064	3405
836.202	3416
836.34	3587
836.478	3599
836.615	3553
836.753	3603
836.891	3648
837.029	3652
837.167	3553
837.305	3553
837.443	3538
837.58	3526
837.718	3572
837.856	3534
837.993	3530
838.131	3576
838.269	3568
838.406	3564
838.544	3538
838.681	3439
838.819	3428
838.956	3348
839.094	3393
839.231	3450
839.369	3530
839.506	3740
839.643	3580
839.781	3405
839.918	3424
840.055	3500
840.193	3466
840.33	3488
840.467	3572
840.604	3595
840.742	3781
840.879	3534
841.016	3576
841.153	3599
841.29	3766
841.427	3701
841.564	3694
841.701	3694
841.838	3660
841.975	3648
842.112	3701
842.249	3614
842.385	3641
842.522	3827
842.659	3675
842.796	3682
842.933	3713
843.069	3671
843.206	3705
843.343	3808
843.479	3778
843.616	3812
843.752	3713
843.889	3694
844.025	3873
844.162	3732
844.298	3854
844.435	3800
844.571	3766
844.708	3930
844.844	3945
844.98	4021
845.117	4040
845.253	3926
845.389	3884
845.525	3960
845.661	3987
845.798	3930
845.934	3983
846.07	3934
846.206	4006
846.342	4063
846.478	4036
846.614	3968
846.75	3930
846.886	3926
847.022	4002
847.158	3994
847.294	3991
847.429	3983
847.565	3972
847.701	4154
847.837	3915
847.972	3876
848.108	3960
848.244	3945
848.379	3869
848.515	3819
848.65	3797
848.786	3854
848.921	3854
849.057	3930
849.192	3983
849.328	3903
849.463	3903
849.598	3899
849.734	3880
849.869	3838
850.004	3778
850.14	3816
850.275	3762
850.41	3755
850.545	3785
850.68	3774
850.815	3793
850.95	3793
851.085	3930
851.22	3869
851.355	3831
851.49	3793
851.625	3785
851.76	3778
851.895	3728
852.03	3724
852.165	3781
852.299	3857
852.434	3884
852.569	3876
852.703	3899
852.838	3907
852.973	4006
853.107	3975
853.242	3854
853.376	3876
853.511	3762
853.645	3842
853.78	3911
853.914	3869
854.048	3861
854.183	3842
854.317	3903
854.451	4071
854.585	3934
854.72	3937
854.854	4074
854.988	3930
855.122	4036
855.256	3972
855.39	4013
855.524	4082
855.658	4059
855.792	4090
855.926	4120
856.06	4154
856.194	4154
856.327	4101
856.461	4147
856.595	4166
856.729	4177
856.862	4234
856.996	4234
857.13	4291
857.263	4318
857.397	4333
857.53	4287
857.664	4325
857.797	4352
857.931	4390
858.064	4394
858.197	4489
858.331	4394
858.464	4394
858.597	4352
858.731	4432
858.864	4455
858.997	4383
859.13	4500
859.263	4535
859.396	4588
859.529	4508
859.662	4542
859.795	4508
859.928	4611
860.061	4679
860.194	4733
860.327	4683
860.46	4698
860.592	4714
860.725	4740
860.858	4721
860.99	4714
861.123	4664
861.256	4717
861.388	4729
861.521	5254
861.653	4733
861.786	4679
861.918	4706
862.05	4755
862.183	4850
862.315	4877
862.447	4919
862.58	4892
862.712	4786
862.844	4725
862.976	4885
863.108	4847
863.24	5223
863.372	4828
863.504	4866
863.636	4904
863.768	4961
863.9	4965
864.032	4908
864.164	4911
864.296	4980
864.428	5052
864.559	5083
864.691	5094
864.823	5178
864.954	5121
865.086	5079
865.217	5075
865.349	5083
865.48	5143
865.612	5178
865.743	5299
865.875	5227
866.006	5166
866.137	5201
866.269	5208
866.4	5227
866.531	5178
866.662	5254
866.793	5280
866.924	5223
867.055	5345
867.186	5318
867.317	5307
867.448	5322
867.579	5398
867.71	5395
867.841	5372
867.972	5478
868.103	5402
868.233	5452
868.364	5471
868.495	5512
868.625	5676
868.756	5790
868.886	5684
869.017	5710
869.147	5844
869.278	5866
869.408	5786
869.539	5824
869.669	5980
869.799	5916
869.929	5973
870.06	5988
870.19	6167
870.32	6175
870.45	6262
870.58	6327
870.71	6426
870.84	6467
870.97	6391
871.1	6369
871.23	6646
871.36	6654
871.489	6623
871.619	6692
871.749	6802
871.879	6821
872.008	6928
872.138	6939
872.267	7023
872.397	6943
872.526	7015
872.656	7012
872.785	7221
872.915	7369
873.044	7514
873.173	7506
873.303	7632
873.432	7784
873.561	7811
873.69	7845
873.819	7997
873.948	8191
874.077	8214
874.206	8358
874.335	8465
874.464	8686
874.593	8838
874.722	8921
874.851	9188
874.979	9214
875.108	9439
875.237	9450
875.365	9488
875.494	9545
875.623	9819
875.751	9835
875.88	10017
876.008	10135
876.136	10257
876.265	10512
876.393	10668
876.521	10812
876.65	10767
876.778	10858
876.906	10915
877.034	11029
877.162	11079
877.29	11162
877.418	11261
877.546	11265
877.674	11379
877.802	11471
877.93	11528
878.058	11608
878.185	11474
878.313	11558
878.441	11783
878.568	11691
878.696	11756
878.824	11843
878.951	11889
879.079	11946
879.206	12133
879.333	12019
879.461	11908
879.588	12102
879.715	12060
879.842	12239
879.97	12011
880.097	11874
880.224	11805
880.351	11935
880.478	11855
880.605	11802
880.732	11817
880.859	11980
880.986	11805
881.112	11824
881.239	11779
881.366	11657
881.493	11646
881.619	11532
881.746	11543
881.872	11436
881.999	11493
882.125	11379
882.252	11554
882.378	11562
882.505	11596
882.631	11387
882.757	11261
882.883	11410
883.01	11280
883.136	11105
883.262	11132
883.388	11159
883.514	11181
883.64	11235
883.766	11094
883.892	10987
884.018	10965
884.143	11041
884.269	10984
884.395	10839
884.52	10774
884.646	10767
884.772	10645
884.897	10641
885.023	10771
885.148	10714
885.274	10725
885.399	10630
885.524	10664
885.65	10531
885.775	10573
885.9	10561
886.025	10546
886.15	10573
886.275	10451
886.4	10466
886.525	10424
886.65	10394
886.775	10360
886.9	10512
887.025	10478
887.149	10424
887.274	10154
887.399	10105
887.523	10188
887.648	10101
887.773	10067
887.897	10185
888.021	10257
888.146	10158
888.27	10272
888.395	10192
888.519	10166
888.643	10230
888.767	10147
888.891	10048
889.015	10029
889.139	10013
889.263	10086
889.387	10067
889.511	10112
889.635	10090
889.759	10025
889.883	9964
890.006	9991
890.13	10051
890.254	10063
890.377	9964
890.501	9888
890.624	9888
890.748	9899
890.871	9778
890.995	9679
891.118	9720
891.241	9720
891.364	9781
891.488	9816
891.611	9713
891.734	9724
891.857	9770
891.98	9682
892.103	9740
892.226	9698
892.349	9717
892.471	9542
892.594	9572
892.717	9591
892.839	9568
892.962	9576
893.085	9682
893.207	9580
893.33	9439
893.452	9580
893.575	9618
893.697	9526
893.819	9660
893.941	9580
894.064	9625
894.186	9389
894.308	9340
894.43	9526
894.552	9534
894.674	9466
894.796	9355
894.918	9329
895.04	9287
895.161	9340
895.283	9298
895.405	9195
895.526	9325
895.648	9230
895.769	9275
895.891	9218
896.012	9332
896.134	9207
896.255	9188
896.376	9100
896.498	9161
896.619	9043
896.74	9062
896.861	9131
896.982	9264
897.103	9306
897.224	9097
897.345	9036
897.466	9032
897.587	9009
897.708	9161
897.828	8979
897.949	8944
898.07	8880
898.19	8880
898.311	8986
898.431	8906
898.552	8944
898.672	8918
898.792	8937
898.913	8918
899.033	8804
899.153	8727
899.273	8629
899.393	8743
899.513	8750
899.633	8731
899.753	8781
899.873	8610
899.993	8716
900.113	8697
900.232	8689
900.352	8655
900.472	8587
900.591	8533
900.711	8556
900.83	8537
900.95	8648
901.069	8682
901.189	8541
901.308	8377
901.427	8423
901.546	8450
901.665	8457
901.784	8545
901.904	8446
902.023	8328
902.141	8286
902.26	8195
902.379	8233
902.498	8229
902.617	8218
902.735	8309
902.854	8282
902.973	8252
903.091	8126
903.21	8168
903.328	8107
903.446	8096
903.565	8027
903.683	8073
903.801	8046
903.919	8096
904.038	8153
904.156	8058
904.274	8126
904.392	7963
904.51	8027
904.627	7974
904.745	8073
904.863	8065
904.981	7928
905.098	7871
905.216	7890
905.334	7871
905.451	7932
905.569	7936
905.686	7902
905.803	7864
905.921	7772
906.038	7822
906.155	7818
906.272	7681
906.389	7616
906.506	7704
906.623	7590
906.74	7533
906.857	7537
906.974	7506
907.091	7670
907.208	7723
907.324	7670
907.441	7544
907.557	7499
907.674	7468
907.79	7369
907.907	7335
908.023	7434
908.139	7403
908.256	7358
908.372	7407
908.488	7263
908.604	7320
908.72	7213
908.836	7301
908.952	7225
909.068	7228
909.184	7293
909.3	7247
909.415	7312
909.531	7297
909.647	7050
909.762	7038
909.878	7118
909.993	7137
910.108	7095
910.224	7038
910.339	7103
910.454	7000
910.57	6989
910.685	6977
910.8	7190
910.915	7061
911.03	7031
911.145	6909
911.259	6882
911.374	6867
911.489	6802
911.604	6859
911.718	6684
911.833	6722
911.947	6616
912.062	6642
912.176	6700
912.291	6669
912.405	6696
912.519	6810
912.633	6833
912.748	6749
912.862	6722
912.976	6589
913.09	6517
913.204	6665
913.318	6547
913.431	6665
913.545	6722
913.659	6669
913.772	6623
913.886	6589
914	6509
914.113	6631
914.226	6631
914.34	6544
914.453	6498
914.566	6627
914.68	6441
914.793	6536
914.906	6452
915.019	6426
915.132	6391
915.245	6494
915.358	6448
915.47	6403
915.583	6494
915.696	6506
915.809	6494
915.921	6528
916.034	6395
916.146	6380
916.259	6410
916.371	6452
916.483	6437
916.595	6342
916.708	6407
916.82	6395
916.932	6437
917.044	6429
917.156	6410
917.268	6319
917.38	6331
917.491	6327
917.603	6277
917.715	6350
917.826	6410
917.938	6346
918.049	6144
918.161	6388
918.272	6464
918.384	6395
918.495	6308
918.606	6251
918.717	6254
918.828	6289
918.939	6315
919.05	6148
919.161	6304
919.272	6121
919.383	6175
919.494	6296
919.604	6395
919.715	6243
919.826	6220
919.936	6346
920.047	6350
920.157	6239
920.267	6502
920.378	6285
920.488	6296
920.598	6471
920.708	6486
920.818	6403
920.928	6475
921.038	6578
921.148	6612
921.258	6380
921.368	6258
921.477	6205
921.587	6159
921.697	6095
921.806	6171
921.916	6102
922.025	5954
922.134	5874
922.244	5893
922.353	5950
922.462	5844
922.571	5794
922.68	5699
922.789	5703
922.898	5691
923.007	5646
923.116	5688
923.224	5619
923.333	5653
923.442	5543
923.55	5566
923.659	5600
923.767	5615
923.876	5600
923.984	5623
924.092	5501
924.201	5558
924.309	5558
924.417	5566
924.525	5505
924.633	5554
924.741	6209
924.849	5364
924.956	5474
925.064	5368
925.172	5269
925.279	5296
925.387	5341
925.494	5349
925.602	5429
925.709	5398
925.816	5239
925.924	5299
926.031	5334
926.138	5315
926.245	5315
926.352	5258
926.459	5337
926.566	5337
926.673	5162
926.779	5121
926.886	5090
926.993	5022
927.099	4972
927.206	4972
927.312	4976
927.419	5010
927.525	4987
927.631	5010
927.737	4885
927.843	4889
927.95	4736
928.056	4816
928.162	4824
928.267	4889
928.373	5334
928.479	4862
928.585	4664
928.69	4748
928.796	4786
928.901	4630
929.007	4558
929.112	4615
929.218	4599
929.323	4554
929.428	4622
929.533	4714
929.638	4481
929.743	4565
929.848	4538
929.953	4538
930.058	4432
930.163	4280
930.267	4386
930.372	4413
930.477	4329
930.581	4440
930.685	4383
930.79	4265
930.894	4257
930.998	4291
931.103	4367
931.207	4093
931.311	4086
931.415	4032
931.519	3968
931.623	3968
