Data from glass_V78500241_120.txt Node
Date: Wed Sep 01 19:15:19 CST 2021
User: usil
Spectrometer: V785-0024
Trigger mode: 0
Integration Time (sec): 4.000000E-1
Scans to average: 1
Nonlinearity correction enabled: false
Boxcar width: 0
Storing dark spectrum: false
XAxis mode: Wavelengths
Number of Pixels in Spectrum: 1024
>>>>>Begin Spectral Data<<<<<
801.071	3720
801.214	3728
801.356	3720
801.499	3759
801.641	3705
801.783	3835
801.926	3869
802.068	3838
802.211	3873
802.353	3884
802.496	3865
802.638	3873
802.78	3930
802.923	3953
803.065	3907
803.208	3850
803.35	3892
803.492	3922
803.635	3964
803.777	3854
803.919	3915
804.061	4143
804.204	3964
804.346	3998
804.488	3922
804.63	4032
804.773	3983
804.915	4086
805.057	4150
805.199	4036
805.341	4048
805.483	4158
805.626	4158
805.768	4169
805.91	4242
806.052	4211
806.194	4204
806.336	4360
806.478	4249
806.62	4162
806.762	4207
806.904	4291
807.046	4363
807.188	4234
807.33	4135
807.472	4284
807.614	4219
807.756	4238
807.898	4211
808.04	4246
808.182	4268
808.324	4375
808.465	4413
808.607	4447
808.749	4478
808.891	4466
809.033	4497
809.174	4432
809.316	4325
809.458	4234
809.6	4188
809.741	4204
809.883	4124
810.025	4295
810.166	4227
810.308	4230
810.45	4276
810.591	4196
810.733	4295
810.875	4508
811.016	4820
811.158	5189
811.299	5296
811.441	5235
811.582	5086
811.724	4736
811.865	4523
812.007	4470
812.148	4447
812.29	4413
812.431	4451
812.573	4451
812.714	4402
812.855	4474
812.997	4367
813.138	4527
813.279	4455
813.421	4371
813.562	4348
813.703	4367
813.845	4363
813.986	4280
814.127	4249
814.268	4287
814.41	4246
814.551	4280
814.692	4333
814.833	4280
814.974	4314
815.115	4295
815.256	4306
815.397	4261
815.539	4287
815.68	4162
815.821	4246
815.962	4322
816.103	4306
816.244	4234
816.385	4242
816.526	4280
816.666	4196
816.807	4147
816.948	4158
817.089	4162
817.23	4150
817.371	4017
817.512	4055
817.653	4093
817.793	4048
817.934	4059
818.075	4090
818.216	4116
818.356	4086
818.497	3998
818.638	3930
818.778	3937
818.919	3888
819.06	3880
819.2	3911
819.341	3911
819.481	3873
819.622	3930
819.762	4029
819.903	3968
820.043	3861
820.184	3831
820.324	3823
820.465	3876
820.605	3876
820.746	3922
820.886	3793
821.026	3998
821.167	3918
821.307	4036
821.447	3979
821.588	3979
821.728	3949
821.868	3930
822.008	3930
822.149	3941
822.289	3903
822.429	3770
822.569	3785
822.709	3854
822.849	3690
822.99	3736
823.13	3793
823.27	3812
823.41	3713
823.55	3762
823.69	3671
823.83	3774
823.97	3740
824.11	3568
824.25	3629
824.389	3660
824.529	3663
824.669	3633
824.809	3736
824.949	3740
825.089	3713
825.228	3709
825.368	3572
825.508	3584
825.648	3542
825.787	3633
825.927	3652
826.067	3679
826.206	3663
826.346	3804
826.485	3850
826.625	3892
826.765	3953
826.904	3850
827.044	3595
827.183	3538
827.323	3443
827.462	3485
827.601	3435
827.741	3443
827.88	3412
828.02	3424
828.159	3458
828.298	3530
828.437	3557
828.577	3473
828.716	3622
828.855	3530
828.994	3412
829.134	3386
829.273	3405
829.412	3355
829.551	3374
829.69	3389
829.829	3443
829.968	3515
830.107	3473
830.246	3443
830.385	3374
830.524	3355
830.663	3306
830.802	3218
830.941	3214
831.08	3256
831.219	3279
831.357	3291
831.496	3420
831.635	3230
831.774	3237
831.913	3211
832.051	3199
832.19	3188
832.329	3237
832.467	3157
832.606	3123
832.744	3207
832.883	3222
833.022	3188
833.16	3294
833.299	3302
833.437	3382
833.576	3393
833.714	3409
833.852	3458
833.991	3462
834.129	3488
834.267	3473
834.406	3370
834.544	3416
834.682	3450
834.821	3439
834.959	3568
835.097	3447
835.235	3523
835.373	3526
835.511	3564
835.65	3473
835.788	3515
835.926	3435
836.064	3389
836.202	3412
836.34	3606
836.478	3625
836.615	3523
836.753	3610
836.891	3663
837.029	3603
837.167	3610
837.305	3568
837.443	3526
837.58	3488
837.718	3603
837.856	3564
837.993	3530
838.131	3629
838.269	3610
838.406	3614
838.544	3614
838.681	3515
838.819	3462
838.956	3355
839.094	3359
839.231	3473
839.369	3545
839.506	3778
839.643	3701
839.781	3526
839.918	3477
840.055	3561
840.193	3561
840.33	3606
840.467	3614
840.604	3641
840.742	3823
840.879	3564
841.016	3561
841.153	3587
841.29	3800
841.427	3740
841.564	3789
841.701	3743
841.838	3686
841.975	3698
842.112	3724
842.249	3671
842.385	3618
842.522	3854
842.659	3698
842.796	3671
842.933	3778
843.069	3720
843.206	3755
843.343	3785
843.479	3804
843.616	3785
843.752	3682
843.889	3694
844.025	3892
844.162	3724
844.298	3835
844.435	3816
844.571	3835
844.708	3907
844.844	3987
844.98	4021
845.117	4013
845.253	3994
845.389	3911
845.525	3953
845.661	3983
845.798	3945
845.934	4051
846.07	3934
846.206	4036
846.342	4139
846.478	4078
846.614	3994
846.75	3926
846.886	3907
847.022	4074
847.158	4032
847.294	3991
847.429	4025
847.565	3987
847.701	4246
847.837	3930
847.972	3873
848.108	3983
848.244	3979
848.379	3861
848.515	3819
848.65	3835
848.786	3888
848.921	3915
849.057	3953
849.192	3945
849.328	3907
849.463	3949
849.598	3926
849.734	3896
849.869	3857
850.004	3789
850.14	3838
850.275	3819
850.41	3781
850.545	3774
850.68	3770
850.815	3838
850.95	3823
851.085	3945
851.22	3876
851.355	3865
851.49	3819
851.625	3804
851.76	3842
851.895	3755
852.03	3740
852.165	3812
852.299	3827
852.434	3945
852.569	3888
852.703	3846
852.838	3991
852.973	4002
853.107	3960
853.242	3857
853.376	3831
853.511	3800
853.645	3831
853.78	3994
853.914	3892
854.048	3926
854.183	3896
854.317	3972
854.451	4090
854.585	3991
854.72	3975
854.854	4063
854.988	3953
855.122	4036
855.256	3949
855.39	4078
855.524	4120
855.658	4135
855.792	4181
855.926	4177
856.06	4185
856.194	4177
856.327	4116
856.461	4147
856.595	4158
856.729	4219
856.862	4306
856.996	4306
857.13	4352
857.263	4367
857.397	4383
857.53	4356
857.664	4386
857.797	4417
857.931	4424
858.064	4386
858.197	4451
858.331	4432
858.464	4375
858.597	4333
858.731	4424
858.864	4485
858.997	4436
859.13	4512
859.263	4550
859.396	4603
859.529	4508
859.662	4550
859.795	4542
859.928	4637
860.061	4717
860.194	4763
860.327	4622
860.46	4668
860.592	4725
860.725	4809
860.858	4786
860.99	4748
861.123	4717
861.256	4740
861.388	4782
861.521	5543
861.653	4790
861.786	4740
861.918	4790
862.05	4797
862.183	4862
862.315	4915
862.447	4968
862.58	4984
862.712	4831
862.844	4812
862.976	4934
863.108	4866
863.24	5284
863.372	4858
863.504	4923
863.636	4885
863.768	4976
863.9	4972
864.032	4949
864.164	4957
864.296	5022
864.428	5124
864.559	5071
864.691	5124
864.823	5136
864.954	5162
865.086	5189
865.217	5117
865.349	5178
865.48	5140
865.612	5239
865.743	5273
865.875	5223
866.006	5197
866.137	5197
866.269	5292
866.4	5242
866.531	5258
866.662	5273
866.793	5311
866.924	5337
867.055	5292
867.186	5360
867.317	5326
867.448	5326
867.579	5398
867.71	5398
867.841	5368
867.972	5467
868.103	5455
868.233	5539
868.364	5562
868.495	5532
868.625	5684
868.756	5783
868.886	5688
869.017	5748
869.147	5851
869.278	5874
869.408	5851
869.539	5805
869.669	5980
869.799	5916
869.929	5977
870.06	6019
870.19	6243
870.32	6243
870.45	6209
870.58	6418
870.71	6479
870.84	6464
870.97	6403
871.1	6452
871.23	6616
871.36	6734
871.489	6703
871.619	6696
871.749	6848
871.879	6886
872.008	7004
872.138	6951
872.267	7038
872.397	7015
872.526	7046
872.656	7072
872.785	7236
872.915	7384
873.044	7556
873.173	7575
873.303	7601
873.432	7845
873.561	7898
873.69	7879
873.819	7986
873.948	8161
874.077	8233
874.206	8320
874.335	8499
874.464	8682
874.593	8948
874.722	8986
874.851	9154
874.979	9241
875.108	9412
875.237	9389
875.365	9561
875.494	9671
875.623	9816
875.751	9827
875.88	10105
876.008	10185
876.136	10310
876.265	10481
876.393	10717
876.521	10721
876.65	10847
876.778	10869
876.906	10949
877.034	10995
877.162	11094
877.29	11212
877.418	11360
877.546	11322
877.674	11391
877.802	11455
877.93	11532
878.058	11520
878.185	11592
878.313	11577
878.441	11729
878.568	11672
878.696	11897
878.824	11832
878.951	11958
879.079	12091
879.206	12155
879.333	12003
879.461	12015
879.588	12087
879.715	12167
879.842	12247
879.97	12068
880.097	11874
880.224	11889
880.351	11882
880.478	11840
880.605	11889
880.732	11847
880.859	12011
880.986	11764
881.112	11863
881.239	11794
881.366	11688
881.493	11611
881.619	11570
881.746	11512
881.872	11566
881.999	11497
882.125	11516
882.252	11532
882.378	11493
882.505	11570
882.631	11315
882.757	11231
882.883	11311
883.01	11250
883.136	11147
883.262	11105
883.388	11105
883.514	11185
883.64	11162
883.766	11162
883.892	11022
884.018	10987
884.143	11079
884.269	11185
884.395	10843
884.52	10816
884.646	10763
884.772	10733
884.897	10649
885.023	10679
885.148	10782
885.274	10778
885.399	10706
885.524	10660
885.65	10603
885.775	10489
885.9	10580
886.025	10611
886.15	10516
886.275	10508
886.4	10363
886.525	10379
886.65	10402
886.775	10314
886.9	10497
887.025	10538
887.149	10382
887.274	10291
887.399	10150
887.523	10166
887.648	10128
887.773	10131
887.897	10284
888.021	10291
888.146	10162
888.27	10211
888.395	10299
888.519	10249
888.643	10253
888.767	10204
888.891	10093
889.015	10021
889.139	10082
889.263	10010
889.387	10105
889.511	10166
889.635	10032
889.759	10021
889.883	10067
890.006	10040
890.13	10067
890.254	10021
890.377	9911
890.501	9808
890.624	9861
890.748	9895
890.871	9865
890.995	9857
891.118	9759
891.241	9778
891.364	9648
891.488	9899
891.611	9774
891.734	9720
891.857	9831
891.98	9759
892.103	9770
892.226	9629
892.349	9705
892.471	9473
892.594	9568
892.717	9549
892.839	9694
892.962	9637
893.085	9713
893.207	9553
893.33	9469
893.452	9473
893.575	9587
893.697	9500
893.819	9660
893.941	9595
894.064	9618
894.186	9439
894.308	9363
894.43	9526
894.552	9561
894.674	9625
894.796	9389
894.918	9439
895.04	9329
895.161	9355
895.283	9336
895.405	9272
895.526	9230
895.648	9256
895.769	9279
895.891	9283
896.012	9287
896.134	9237
896.255	9176
896.376	9142
896.498	9157
896.619	9150
896.74	9085
896.861	9100
896.982	9279
897.103	9317
897.224	9165
897.345	9093
897.466	9039
897.587	9043
897.708	9089
897.828	9047
897.949	8967
898.07	8876
898.19	8902
898.311	9001
898.431	8914
898.552	8941
898.672	8948
898.792	8845
898.913	8937
899.033	8845
899.153	8792
899.273	8708
899.393	8724
899.513	8724
899.633	8724
899.753	8777
899.873	8697
899.993	8838
900.113	8731
900.232	8659
900.352	8648
900.472	8632
900.591	8606
900.711	8663
900.83	8533
900.95	8644
901.069	8739
901.189	8629
901.308	8473
901.427	8434
901.546	8461
901.665	8495
901.784	8495
901.904	8473
902.023	8396
902.141	8210
902.26	8252
902.379	8298
902.498	8248
902.617	8248
902.735	8267
902.854	8237
902.973	8248
903.091	8145
903.21	8202
903.328	8172
903.446	8153
903.565	8073
903.683	8176
903.801	8008
903.919	8123
904.038	8172
904.156	8005
904.274	8119
904.392	8100
904.51	8039
904.627	8031
904.745	8065
904.863	8084
904.981	7936
905.098	7909
905.216	7875
905.334	7913
905.451	7940
905.569	7830
905.686	7959
905.803	7925
905.921	7757
906.038	7864
906.155	7845
906.272	7715
906.389	7696
906.506	7693
906.623	7647
906.74	7594
906.857	7556
906.974	7613
907.091	7704
907.208	7738
907.324	7643
907.441	7616
907.557	7502
907.674	7510
907.79	7430
907.907	7384
908.023	7415
908.139	7407
908.256	7358
908.372	7407
908.488	7373
908.604	7308
908.72	7259
908.836	7327
908.952	7255
909.068	7244
909.184	7331
909.3	7236
909.415	7312
909.531	7350
909.647	7110
909.762	7141
909.878	7091
909.993	7122
910.108	7088
910.224	7149
910.339	7095
910.454	7046
910.57	7042
910.685	6996
910.8	7190
910.915	7183
911.03	7091
911.145	6913
911.259	6886
911.374	6901
911.489	6798
911.604	6814
911.718	6768
911.833	6753
911.947	6696
912.062	6582
912.176	6703
912.291	6646
912.405	6730
912.519	6871
912.633	6840
912.748	6734
912.862	6757
912.976	6627
913.09	6509
913.204	6593
913.318	6631
913.431	6669
913.545	6734
913.659	6726
913.772	6662
913.886	6589
914	6597
914.113	6620
914.226	6658
914.34	6620
914.453	6494
914.566	6601
914.68	6597
914.793	6551
914.906	6437
915.019	6445
915.132	6376
915.245	6422
915.358	6483
915.47	6460
915.583	6433
915.696	6506
915.809	6521
915.921	6536
916.034	6437
916.146	6384
916.259	6319
916.371	6521
916.483	6441
916.595	6467
916.708	6414
916.82	6410
916.932	6384
917.044	6437
917.156	6418
917.268	6361
917.38	6376
917.491	6353
917.603	6388
917.715	6433
917.826	6506
917.938	6350
918.049	6315
918.161	6338
918.272	6399
918.384	6391
918.495	6311
918.606	6247
918.717	6194
918.828	6296
918.939	6258
919.05	6251
919.161	6277
919.272	6117
919.383	6213
919.494	6292
919.604	6437
919.715	6331
919.826	6213
919.936	6289
920.047	6308
920.157	6346
920.267	6456
920.378	6323
920.488	6365
920.598	6471
920.708	6582
920.818	6479
920.928	6441
921.038	6623
921.148	6585
921.258	6403
921.368	6331
921.477	6182
921.587	6232
921.697	6114
921.806	6235
921.916	6060
922.025	5954
922.134	5927
922.244	5920
922.353	5931
922.462	5840
922.571	5783
922.68	5741
922.789	5695
922.898	5718
923.007	5627
923.116	5714
923.224	5668
923.333	5638
923.442	5634
923.55	5611
923.659	5604
923.767	5688
923.876	5512
923.984	5646
924.092	5501
924.201	5497
924.309	5543
924.417	5592
924.525	5490
924.633	5486
924.741	6155
924.849	5341
924.956	5474
925.064	5379
925.172	5292
925.279	5357
925.387	5372
925.494	5334
925.602	5379
925.709	5402
925.816	5273
925.924	5334
926.031	5357
926.138	5349
926.245	5357
926.352	5277
926.459	5330
926.566	5341
926.673	5242
926.779	5117
926.886	5159
926.993	5048
927.099	4972
927.206	4961
927.312	4965
927.419	5010
927.525	4995
927.631	4999
927.737	4949
927.843	4862
927.95	4812
928.056	4793
928.162	4839
928.267	4911
928.373	5330
928.479	4824
928.585	4660
928.69	4793
928.796	4782
928.901	4767
929.007	4588
929.112	4660
929.218	4672
929.323	4607
929.428	4611
929.533	4679
929.638	4546
929.743	4573
929.848	4508
929.953	4542
930.058	4447
930.163	4375
930.267	4375
930.372	4485
930.477	4318
930.581	4443
930.685	4417
930.79	4268
930.894	4329
930.998	4295
931.103	4421
931.207	4105
931.311	4128
931.415	4032
931.519	3941
931.623	4017
