Data from glass_V78500241_613.txt Node
Date: Wed Sep 01 19:18:44 CST 2021
User: usil
Spectrometer: V785-0024
Trigger mode: 0
Integration Time (sec): 4.000000E-1
Scans to average: 1
Nonlinearity correction enabled: false
Boxcar width: 0
Storing dark spectrum: false
XAxis mode: Wavelengths
Number of Pixels in Spectrum: 1024
>>>>>Begin Spectral Data<<<<<
801.071	3751
801.214	3759
801.356	3736
801.499	3732
801.641	3728
801.783	3743
801.926	3854
802.068	3865
802.211	3869
802.353	3876
802.496	3850
802.638	3876
802.78	3949
802.923	3960
803.065	3911
803.208	3857
803.35	3926
803.492	3926
803.635	3903
803.777	3819
803.919	3892
804.061	4188
804.204	3972
804.346	3930
804.488	3972
804.63	4040
804.773	3964
804.915	4036
805.057	4181
805.199	4044
805.341	4055
805.483	4143
805.626	4147
805.768	4120
805.91	4169
806.052	4295
806.194	4196
806.336	4375
806.478	4204
806.62	4158
806.762	4215
806.904	4280
807.046	4363
807.188	4185
807.33	4200
807.472	4268
807.614	4207
807.756	4299
807.898	4227
808.04	4246
808.182	4325
808.324	4322
808.465	4344
808.607	4462
808.749	4436
808.891	4516
809.033	4523
809.174	4417
809.316	4265
809.458	4215
809.6	4162
809.741	4196
809.883	4154
810.025	4185
810.166	4246
810.308	4223
810.45	4261
810.591	4227
810.733	4272
810.875	4527
811.016	4850
811.158	5174
811.299	5258
811.441	5296
811.582	5098
811.724	4721
811.865	4508
812.007	4485
812.148	4447
812.29	4443
812.431	4402
812.573	4367
812.714	4386
812.855	4398
812.997	4436
813.138	4485
813.279	4421
813.421	4394
813.562	4390
813.703	4360
813.845	4402
813.986	4295
814.127	4227
814.268	4261
814.41	4337
814.551	4268
814.692	4367
814.833	4287
814.974	4337
815.115	4367
815.256	4268
815.397	4261
815.539	4265
815.68	4215
815.821	4215
815.962	4360
816.103	4303
816.244	4246
816.385	4253
816.526	4284
816.666	4261
816.807	4067
816.948	4181
817.089	4185
817.23	4131
817.371	4055
817.512	4071
817.653	4090
817.793	4048
817.934	4048
818.075	4055
818.216	4074
818.356	4135
818.497	4025
818.638	3903
818.778	3930
818.919	3892
819.06	3869
819.2	3888
819.341	3888
819.481	3857
819.622	3899
819.762	4071
819.903	3964
820.043	3899
820.184	3835
820.324	3846
820.465	3869
820.605	3896
820.746	3899
820.886	3823
821.026	3918
821.167	3975
821.307	3930
821.447	4017
821.588	3949
821.728	3975
821.868	3953
822.008	3926
822.149	3949
822.289	3922
822.429	3800
822.569	3800
822.709	3827
822.849	3743
822.99	3732
823.13	3778
823.27	3797
823.41	3736
823.55	3793
823.69	3713
823.83	3728
823.97	3717
824.11	3584
824.25	3584
824.389	3667
824.529	3667
824.669	3682
824.809	3690
824.949	3793
825.089	3724
825.228	3736
825.368	3587
825.508	3561
825.648	3584
825.787	3633
825.927	3660
826.067	3629
826.206	3663
826.346	3823
826.485	3854
826.625	3903
826.765	3937
826.904	3903
827.044	3629
827.183	3545
827.323	3397
827.462	3500
827.601	3515
827.741	3447
827.88	3435
828.02	3382
828.159	3458
828.298	3515
828.437	3553
828.577	3500
828.716	3614
828.855	3500
828.994	3363
829.134	3389
829.273	3409
829.412	3363
829.551	3355
829.69	3393
829.829	3431
829.968	3511
830.107	3500
830.246	3431
830.385	3393
830.524	3367
830.663	3321
830.802	3291
830.941	3241
831.08	3211
831.219	3272
831.357	3298
831.496	3462
831.635	3264
831.774	3199
831.913	3195
832.051	3108
832.19	3165
832.329	3203
832.467	3176
832.606	3127
832.744	3180
832.883	3157
833.022	3226
833.16	3268
833.299	3306
833.437	3348
833.576	3355
833.714	3378
833.852	3431
833.991	3389
834.129	3496
834.267	3447
834.406	3401
834.544	3412
834.682	3416
834.821	3412
834.959	3542
835.097	3424
835.235	3553
835.373	3485
835.511	3507
835.65	3435
835.788	3500
835.926	3367
836.064	3431
836.202	3409
836.34	3553
836.478	3614
836.615	3523
836.753	3606
836.891	3629
837.029	3622
837.167	3599
837.305	3572
837.443	3557
837.58	3542
837.718	3610
837.856	3557
837.993	3534
838.131	3606
838.269	3576
838.406	3576
838.544	3591
838.681	3507
838.819	3473
838.956	3397
839.094	3382
839.231	3458
839.369	3485
839.506	3743
839.643	3618
839.781	3485
839.918	3462
840.055	3530
840.193	3530
840.33	3587
840.467	3549
840.604	3557
840.742	3850
840.879	3595
841.016	3580
841.153	3587
841.29	3736
841.427	3747
841.564	3724
841.701	3724
841.838	3709
841.975	3736
842.112	3740
842.249	3641
842.385	3652
842.522	3846
842.659	3717
842.796	3720
842.933	3701
843.069	3694
843.206	3713
843.343	3819
843.479	3800
843.616	3838
843.752	3701
843.889	3698
844.025	3854
844.162	3751
844.298	3888
844.435	3766
844.571	3808
844.708	3915
844.844	4006
844.98	4040
845.117	4071
845.253	3907
845.389	3915
845.525	3960
845.661	3979
845.798	3911
845.934	3972
846.07	4002
846.206	4044
846.342	4131
846.478	4101
846.614	3979
846.75	3968
846.886	3964
847.022	4040
847.158	4013
847.294	4040
847.429	4086
847.565	4013
847.701	4223
847.837	3907
847.972	3892
848.108	3983
848.244	3994
848.379	3873
848.515	3816
848.65	3823
848.786	3850
848.921	3896
849.057	3949
849.192	3964
849.328	3937
849.463	3915
849.598	3945
849.734	3899
849.869	3812
850.004	3785
850.14	3857
850.275	3793
850.41	3770
850.545	3743
850.68	3808
850.815	3827
850.95	3838
851.085	3915
851.22	3842
851.355	3865
851.49	3808
851.625	3819
851.76	3789
851.895	3724
852.03	3728
852.165	3819
852.299	3865
852.434	3896
852.569	3865
852.703	3907
852.838	3968
852.973	4006
853.107	4029
853.242	3884
853.376	3850
853.511	3789
853.645	3842
853.78	3983
853.914	3892
854.048	3934
854.183	3918
854.317	3941
854.451	4044
854.585	3987
854.72	3987
854.854	4036
854.988	3964
855.122	4044
855.256	3949
855.39	4059
855.524	4124
855.658	4090
855.792	4093
855.926	4128
856.06	4207
856.194	4234
856.327	4143
856.461	4135
856.595	4177
856.729	4196
856.862	4234
856.996	4261
857.13	4360
857.263	4371
857.397	4329
857.53	4291
857.664	4314
857.797	4440
857.931	4436
858.064	4413
858.197	4500
858.331	4379
858.464	4390
858.597	4344
858.731	4436
858.864	4470
858.997	4497
859.13	4546
859.263	4550
859.396	4611
859.529	4565
859.662	4535
859.795	4550
859.928	4607
860.061	4725
860.194	4782
860.327	4672
860.46	4664
860.592	4763
860.725	4767
860.858	4755
860.99	4740
861.123	4641
861.256	4721
861.388	4755
861.521	5357
861.653	4744
861.786	4733
861.918	4797
862.05	4801
862.183	4911
862.315	4896
862.447	4965
862.58	4908
862.712	4835
862.844	4778
862.976	4889
863.108	4889
863.24	5220
863.372	4824
863.504	4915
863.636	4873
863.768	5033
863.9	4999
864.032	4908
864.164	4934
864.296	5083
864.428	5083
864.559	5117
864.691	5193
864.823	5140
864.954	5159
865.086	5151
865.217	5113
865.349	5147
865.48	5193
865.612	5204
865.743	5277
865.875	5242
866.006	5155
866.137	5223
866.269	5265
866.4	5265
866.531	5242
866.662	5277
866.793	5341
866.924	5318
867.055	5337
867.186	5311
867.317	5337
867.448	5273
867.579	5345
867.71	5383
867.841	5425
867.972	5429
868.103	5429
868.233	5490
868.364	5505
868.495	5539
868.625	5710
868.756	5775
868.886	5657
869.017	5737
869.147	5863
869.278	5851
869.408	5836
869.539	5889
869.669	5950
869.799	5939
869.929	5977
870.06	6053
870.19	6190
870.32	6190
870.45	6311
870.58	6353
870.71	6422
870.84	6448
870.97	6422
871.1	6441
871.23	6669
871.36	6707
871.489	6684
871.619	6749
871.749	6856
871.879	6871
872.008	6951
872.138	6981
872.267	7015
872.397	6932
872.526	7031
872.656	7114
872.785	7266
872.915	7354
873.044	7476
873.173	7533
873.303	7719
873.432	7712
873.561	7909
873.69	7928
873.819	8050
873.948	8180
874.077	8252
874.206	8355
874.335	8495
874.464	8693
874.593	8876
874.722	8937
874.851	9157
874.979	9237
875.108	9351
875.237	9435
875.365	9530
875.494	9629
875.623	9842
875.751	9808
875.88	9941
876.008	10093
876.136	10284
876.265	10611
876.393	10710
876.521	10637
876.65	10835
876.778	10930
876.906	10866
877.034	11067
877.162	11117
877.29	11132
877.418	11250
877.546	11360
877.674	11528
877.802	11440
877.93	11608
878.058	11543
878.185	11589
878.313	11657
878.441	11764
878.568	11680
878.696	11836
878.824	11942
878.951	11927
879.079	12007
879.206	12117
879.333	12019
879.461	11988
879.588	12064
879.715	12148
879.842	12194
879.97	12060
880.097	11874
880.224	11935
880.351	11878
880.478	11927
880.605	11901
880.732	11836
880.859	11980
880.986	11790
881.112	11851
881.239	11764
881.366	11764
881.493	11649
881.619	11524
881.746	11596
881.872	11543
881.999	11543
882.125	11444
882.252	11547
882.378	11516
882.505	11558
882.631	11349
882.757	11258
882.883	11337
883.01	11242
883.136	11231
883.262	11090
883.388	11006
883.514	11201
883.64	11151
883.766	11204
883.892	11018
884.018	10953
884.143	11010
884.269	11147
884.395	10862
884.52	10698
884.646	10740
884.772	10771
884.897	10603
885.023	10698
885.148	10797
885.274	10778
885.399	10767
885.524	10668
885.65	10615
885.775	10634
885.9	10584
886.025	10599
886.15	10550
886.275	10527
886.4	10390
886.525	10318
886.65	10341
886.775	10318
886.9	10504
887.025	10584
887.149	10367
887.274	10276
887.399	10268
887.523	10173
887.648	10147
887.773	10177
887.897	10303
888.021	10249
888.146	10200
888.27	10257
888.395	10204
888.519	10207
888.643	10219
888.767	10230
888.891	10078
889.015	10059
889.139	10051
889.263	9998
889.387	10055
889.511	10109
889.635	10010
889.759	9937
889.883	10074
890.006	9964
890.13	10116
890.254	10021
890.377	10013
890.501	9827
890.624	9835
890.748	9876
890.871	9797
890.995	9770
891.118	9724
891.241	9770
891.364	9701
891.488	9892
891.611	9762
891.734	9759
891.857	9675
891.98	9759
892.103	9793
892.226	9797
892.349	9663
892.471	9507
892.594	9553
892.717	9637
892.839	9553
892.962	9698
893.085	9641
893.207	9587
893.33	9553
893.452	9549
893.575	9606
893.697	9439
893.819	9587
893.941	9587
894.064	9663
894.186	9431
894.308	9378
894.43	9545
894.552	9599
894.674	9507
894.796	9351
894.918	9450
895.04	9370
895.161	9355
895.283	9340
895.405	9211
895.526	9313
895.648	9222
895.769	9256
895.891	9291
896.012	9306
896.134	9264
896.255	9157
896.376	9169
896.498	9112
896.619	9180
896.74	9032
896.861	9222
896.982	9226
897.103	9287
897.224	9195
897.345	8971
897.466	9009
897.587	8937
897.708	9074
897.828	8994
897.949	8933
898.07	8899
898.19	8910
898.311	9001
898.431	8883
898.552	8952
898.672	9036
898.792	8971
898.913	8906
899.033	8853
899.153	8716
899.273	8693
899.393	8727
899.513	8826
899.633	8697
899.753	8769
899.873	8686
899.993	8766
900.113	8743
900.232	8693
900.352	8735
900.472	8579
900.591	8636
900.711	8583
900.83	8560
900.95	8674
901.069	8712
901.189	8594
901.308	8362
901.427	8473
901.546	8427
901.665	8480
901.784	8461
901.904	8385
902.023	8320
902.141	8267
902.26	8180
902.379	8248
902.498	8206
902.617	8294
902.735	8336
902.854	8313
902.973	8336
903.091	8081
903.21	8145
903.328	8164
903.446	8130
903.565	8084
903.683	8088
903.801	8134
903.919	8081
904.038	8187
904.156	8058
904.274	8084
904.392	8062
904.51	8054
904.627	8050
904.745	8077
904.863	8100
904.981	7963
905.098	7883
905.216	7917
905.334	7902
905.451	7913
905.569	7890
905.686	7909
905.803	7928
905.921	7746
906.038	7871
906.155	7780
906.272	7723
906.389	7734
906.506	7620
906.623	7662
906.74	7628
906.857	7643
906.974	7597
907.091	7738
907.208	7788
907.324	7616
907.441	7597
907.557	7472
907.674	7468
907.79	7331
907.907	7472
908.023	7419
908.139	7472
908.256	7384
908.372	7396
908.488	7365
908.604	7255
908.72	7270
908.836	7362
908.952	7285
909.068	7274
909.184	7335
909.3	7263
909.415	7354
909.531	7339
909.647	7133
909.762	7126
909.878	7126
909.993	7171
910.108	7110
910.224	7065
910.339	7122
910.454	7031
910.57	7004
910.685	6943
910.8	7198
910.915	7050
911.03	7046
911.145	6993
911.259	6897
911.374	6894
911.489	6825
911.604	6779
911.718	6734
911.833	6768
911.947	6764
912.062	6654
912.176	6707
912.291	6745
912.405	6696
912.519	6852
912.633	6871
912.748	6745
912.862	6684
912.976	6612
913.09	6521
913.204	6559
913.318	6620
913.431	6684
913.545	6722
913.659	6760
913.772	6669
913.886	6593
914	6589
914.113	6601
914.226	6612
914.34	6623
914.453	6448
914.566	6616
914.68	6604
914.793	6547
914.906	6403
915.019	6426
915.132	6399
915.245	6426
915.358	6479
915.47	6441
915.583	6513
915.696	6441
915.809	6513
915.921	6585
916.034	6414
916.146	6418
916.259	6399
916.371	6456
916.483	6441
916.595	6365
916.708	6456
916.82	6342
916.932	6361
917.044	6391
917.156	6388
917.268	6361
917.38	6331
917.491	6338
917.603	6334
917.715	6372
917.826	6395
917.938	6365
918.049	6262
918.161	6334
918.272	6441
918.384	6471
918.495	6369
918.606	6300
918.717	6251
918.828	6262
918.939	6235
919.05	6254
919.161	6289
919.272	6079
919.383	6201
919.494	6289
919.604	6418
919.715	6251
919.826	6270
919.936	6266
920.047	6346
920.157	6311
920.267	6467
920.378	6353
920.488	6281
920.598	6464
920.708	6627
920.818	6486
920.928	6570
921.038	6601
921.148	6635
921.258	6372
921.368	6327
921.477	6235
921.587	6182
921.697	6167
921.806	6140
921.916	6125
922.025	5931
922.134	5958
922.244	5908
922.353	5946
922.462	5794
922.571	5764
922.68	5707
922.789	5665
922.898	5665
923.007	5691
923.116	5703
923.224	5707
923.333	5672
923.442	5615
923.55	5539
923.659	5577
923.767	5691
923.876	5554
923.984	5608
924.092	5562
924.201	5535
924.309	5562
924.417	5627
924.525	5516
924.633	5444
924.741	6270
924.849	5368
924.956	5471
925.064	5387
925.172	5383
925.279	5387
925.387	5376
925.494	5326
925.602	5467
925.709	5383
925.816	5280
925.924	5292
926.031	5318
926.138	5322
926.245	5406
926.352	5201
926.459	5288
926.566	5322
926.673	5223
926.779	5162
926.886	5170
926.993	5014
927.099	5060
927.206	4984
927.312	4987
927.419	4995
927.525	5014
927.631	5041
927.737	4953
927.843	4881
927.95	4816
928.056	4809
928.162	4866
928.267	4850
928.373	5235
928.479	4858
928.585	4736
928.69	4828
928.796	4793
928.901	4736
929.007	4611
929.112	4733
929.218	4641
929.323	4622
929.428	4622
929.533	4668
929.638	4519
929.743	4516
929.848	4618
929.953	4508
930.058	4455
930.163	4306
930.267	4344
930.372	4432
930.477	4344
930.581	4470
930.685	4390
930.79	4207
930.894	4325
930.998	4295
931.103	4367
931.207	4093
931.311	4093
931.415	4010
931.519	3953
931.623	3968
