Data from glass_V78500241_1251.txt Node
Date: Wed Sep 01 19:23:10 CST 2021
User: usil
Spectrometer: V785-0024
Trigger mode: 0
Integration Time (sec): 4.000000E-1
Scans to average: 1
Nonlinearity correction enabled: false
Boxcar width: 0
Storing dark spectrum: false
XAxis mode: Wavelengths
Number of Pixels in Spectrum: 1024
>>>>>Begin Spectral Data<<<<<
801.071	3740
801.214	3743
801.356	3671
801.499	3743
801.641	3774
801.783	3747
801.926	3850
802.068	3854
802.211	3842
802.353	3903
802.496	3842
802.638	3865
802.78	3896
802.923	3937
803.065	3907
803.208	3865
803.35	3842
803.492	3960
803.635	3945
803.777	3835
803.919	3915
804.061	4154
804.204	4002
804.346	3945
804.488	3956
804.63	4071
804.773	3949
804.915	4059
805.057	4105
805.199	4006
805.341	4093
805.483	4154
805.626	4143
805.768	4150
805.91	4223
806.052	4207
806.194	4200
806.336	4386
806.478	4215
806.62	4154
806.762	4173
806.904	4253
807.046	4371
807.188	4207
807.33	4196
807.472	4234
807.614	4135
807.756	4268
807.898	4230
808.04	4257
808.182	4314
808.324	4314
808.465	4386
808.607	4470
808.749	4470
808.891	4455
809.033	4535
809.174	4386
809.316	4211
809.458	4246
809.6	4147
809.741	4143
809.883	4162
810.025	4215
810.166	4268
810.308	4204
810.45	4196
810.591	4234
810.733	4287
810.875	4504
811.016	4847
811.158	5140
811.299	5223
811.441	5284
811.582	5003
811.724	4698
811.865	4489
812.007	4478
812.148	4402
812.29	4405
812.431	4398
812.573	4443
812.714	4356
812.855	4451
812.997	4363
813.138	4527
813.279	4462
813.421	4409
813.562	4383
813.703	4386
813.845	4322
813.986	4242
814.127	4242
814.268	4276
814.41	4303
814.551	4261
814.692	4329
814.833	4276
814.974	4333
815.115	4337
815.256	4287
815.397	4215
815.539	4246
815.68	4181
815.821	4162
815.962	4318
816.103	4299
816.244	4257
816.385	4230
816.526	4284
816.666	4223
816.807	4112
816.948	4200
817.089	4204
817.23	4135
817.371	4078
817.512	4086
817.653	4059
817.793	4029
817.934	4055
818.075	4109
818.216	4067
818.356	4109
818.497	3991
818.638	3953
818.778	3873
818.919	3884
819.06	3907
819.2	3953
819.341	3816
819.481	3835
819.622	3918
819.762	4036
819.903	3987
820.043	3850
820.184	3888
820.324	3831
820.465	3918
820.605	3850
820.746	3869
820.886	3819
821.026	3918
821.167	3949
821.307	4032
821.447	3975
821.588	3934
821.728	3934
821.868	3937
822.008	3880
822.149	3930
822.289	3926
822.429	3808
822.569	3755
822.709	3789
822.849	3728
822.99	3743
823.13	3781
823.27	3793
823.41	3720
823.55	3747
823.69	3728
823.83	3770
823.97	3682
824.11	3580
824.25	3591
824.389	3644
824.529	3694
824.669	3629
824.809	3720
824.949	3705
825.089	3736
825.228	3682
825.368	3591
825.508	3561
825.648	3587
825.787	3606
825.927	3637
826.067	3633
826.206	3625
826.346	3778
826.485	3846
826.625	3869
826.765	3975
826.904	3854
827.044	3595
827.183	3515
827.323	3405
827.462	3511
827.601	3469
827.741	3431
827.88	3447
828.02	3416
828.159	3397
828.298	3500
828.437	3519
828.577	3488
828.716	3606
828.855	3469
828.994	3378
829.134	3386
829.273	3412
829.412	3336
829.551	3359
829.69	3355
829.829	3428
829.968	3500
830.107	3416
830.246	3454
830.385	3401
830.524	3382
830.663	3306
830.802	3283
830.941	3211
831.08	3226
831.219	3264
831.357	3321
831.496	3431
831.635	3260
831.774	3180
831.913	3188
832.051	3119
832.19	3146
832.329	3245
832.467	3150
832.606	3135
832.744	3180
832.883	3230
833.022	3203
833.16	3253
833.299	3329
833.437	3298
833.576	3374
833.714	3447
833.852	3458
833.991	3447
834.129	3485
834.267	3454
834.406	3424
834.544	3443
834.682	3424
834.821	3416
834.959	3561
835.097	3424
835.235	3526
835.373	3462
835.511	3538
835.65	3500
835.788	3500
835.926	3424
836.064	3370
836.202	3443
836.34	3591
836.478	3629
836.615	3595
836.753	3603
836.891	3652
837.029	3633
837.167	3599
837.305	3542
837.443	3549
837.58	3557
837.718	3614
837.856	3557
837.993	3584
838.131	3595
838.269	3614
838.406	3564
838.544	3564
838.681	3496
838.819	3450
838.956	3401
839.094	3393
839.231	3462
839.369	3504
839.506	3778
839.643	3652
839.781	3523
839.918	3496
840.055	3545
840.193	3557
840.33	3526
840.467	3568
840.604	3644
840.742	3823
840.879	3538
841.016	3568
841.153	3584
841.29	3747
841.427	3713
841.564	3732
841.701	3778
841.838	3705
841.975	3713
842.112	3701
842.249	3599
842.385	3652
842.522	3835
842.659	3724
842.796	3690
842.933	3705
843.069	3679
843.206	3705
843.343	3831
843.479	3778
843.616	3793
843.752	3690
843.889	3694
844.025	3842
844.162	3717
844.298	3865
844.435	3789
844.571	3789
844.708	3880
844.844	3991
844.98	4029
845.117	4017
845.253	3960
845.389	3876
845.525	4021
845.661	3949
845.798	3911
845.934	4036
846.07	3975
846.206	4078
846.342	4112
846.478	4032
846.614	3972
846.75	3972
846.886	3918
847.022	4071
847.158	3945
847.294	3998
847.429	4055
847.565	4040
847.701	4215
847.837	3892
847.972	3850
848.108	3949
848.244	3987
848.379	3850
848.515	3823
848.65	3816
848.786	3850
848.921	3861
849.057	3915
849.192	3960
849.328	3918
849.463	3918
849.598	3918
849.734	3873
849.869	3819
850.004	3755
850.14	3857
850.275	3804
850.41	3728
850.545	3747
850.68	3804
850.815	3785
850.95	3842
851.085	3949
851.22	3892
851.355	3831
851.49	3785
851.625	3831
851.76	3785
851.895	3720
852.03	3766
852.165	3793
852.299	3835
852.434	3918
852.569	3873
852.703	3930
852.838	3930
852.973	3968
853.107	3979
853.242	3865
853.376	3884
853.511	3793
853.645	3854
853.78	3972
853.914	3876
854.048	3899
854.183	3930
854.317	3975
854.451	4071
854.585	3953
854.72	3937
854.854	4074
854.988	3953
855.122	4029
855.256	3941
855.39	4013
855.524	4112
855.658	4112
855.792	4097
855.926	4150
856.06	4188
856.194	4265
856.327	4101
856.461	4135
856.595	4143
856.729	4150
856.862	4261
856.996	4276
857.13	4341
857.263	4295
857.397	4352
857.53	4276
857.664	4348
857.797	4390
857.931	4413
858.064	4398
858.197	4428
858.331	4386
858.464	4352
858.597	4375
858.731	4440
858.864	4470
858.997	4443
859.13	4558
859.263	4554
859.396	4569
859.529	4561
859.662	4546
859.795	4478
859.928	4599
860.061	4679
860.194	4771
860.327	4664
860.46	4634
860.592	4736
860.725	4740
860.858	4763
860.99	4622
861.123	4710
861.256	4714
861.388	4767
861.521	5364
861.653	4672
861.786	4691
861.918	4748
862.05	4835
862.183	4854
862.315	4862
862.447	4934
862.58	4904
862.712	4763
862.844	4801
862.976	4900
863.108	4850
863.24	5178
863.372	4919
863.504	4953
863.636	4919
863.768	4980
863.9	4953
864.032	4927
864.164	4961
864.296	5003
864.428	5079
864.559	5102
864.691	5117
864.823	5086
864.954	5124
865.086	5109
865.217	5136
865.349	5056
865.48	5189
865.612	5181
865.743	5277
865.875	5258
866.006	5147
866.137	5239
866.269	5273
866.4	5235
866.531	5242
866.662	5246
866.793	5277
866.924	5307
867.055	5368
867.186	5421
867.317	5341
867.448	5265
867.579	5376
867.71	5376
867.841	5414
867.972	5444
868.103	5512
868.233	5547
868.364	5486
868.495	5566
868.625	5665
868.756	5779
868.886	5642
869.017	5718
869.147	5851
869.278	5904
869.408	5809
869.539	5832
869.669	5923
869.799	5901
869.929	6011
870.06	6068
870.19	6205
870.32	6175
870.45	6331
870.58	6376
870.71	6525
870.84	6555
870.97	6490
871.1	6445
871.23	6669
871.36	6665
871.489	6665
871.619	6749
871.749	6814
871.879	6878
872.008	6932
872.138	6970
872.267	7038
872.397	6981
872.526	7012
872.656	7057
872.785	7213
872.915	7400
873.044	7510
873.173	7586
873.303	7750
873.432	7765
873.561	7875
873.69	7947
873.819	7963
873.948	8183
874.077	8183
874.206	8381
874.335	8442
874.464	8674
874.593	8902
874.722	8880
874.851	9154
874.979	9241
875.108	9405
875.237	9397
875.365	9526
875.494	9667
875.623	9751
875.751	9861
875.88	9972
876.008	10162
876.136	10322
876.265	10500
876.393	10679
876.521	10725
876.65	10812
876.778	10862
876.906	10892
877.034	11022
877.162	11147
877.29	11086
877.418	11284
877.546	11372
877.674	11444
877.802	11467
877.93	11585
878.058	11532
878.185	11539
878.313	11649
878.441	11703
878.568	11699
878.696	11866
878.824	11897
878.951	11897
879.079	12102
879.206	12152
879.333	12057
879.461	12091
879.588	12167
879.715	12068
879.842	12323
879.97	12068
880.097	11843
880.224	11920
880.351	11954
880.478	11836
880.605	11832
880.732	11786
880.859	11999
880.986	11828
881.112	11805
881.239	11691
881.366	11699
881.493	11619
881.619	11585
881.746	11619
881.872	11532
881.999	11551
882.125	11501
882.252	11570
882.378	11421
882.505	11585
882.631	11410
882.757	11299
882.883	11383
883.01	11246
883.136	11261
883.262	11128
883.388	11045
883.514	11162
883.64	11132
883.766	11151
883.892	10987
884.018	11029
884.143	11060
884.269	11121
884.395	10774
884.52	10729
884.646	10805
884.772	10683
884.897	10664
885.023	10683
885.148	10740
885.274	10793
885.399	10736
885.524	10649
885.65	10573
885.775	10622
885.9	10462
886.025	10630
886.15	10565
886.275	10512
886.4	10386
886.525	10497
886.65	10432
886.775	10413
886.9	10470
887.025	10569
887.149	10455
887.274	10284
887.399	10147
887.523	10166
887.648	10265
887.773	10158
887.897	10303
888.021	10299
888.146	10131
888.27	10329
888.395	10234
888.519	10215
888.643	10169
888.767	10204
888.891	10105
889.015	10048
889.139	10067
889.263	10013
889.387	10017
889.511	10078
889.635	10131
889.759	9926
889.883	9975
890.006	10029
890.13	10109
890.254	9960
890.377	10029
890.501	9880
890.624	9880
890.748	9842
890.871	9819
890.995	9854
891.118	9720
891.241	9846
891.364	9789
891.488	9850
891.611	9652
891.734	9781
891.857	9675
891.98	9690
892.103	9781
892.226	9720
892.349	9641
892.471	9515
892.594	9591
892.717	9663
892.839	9614
892.962	9622
893.085	9671
893.207	9568
893.33	9561
893.452	9511
893.575	9656
893.697	9511
893.819	9625
893.941	9576
894.064	9622
894.186	9473
894.308	9412
894.43	9587
894.552	9576
894.674	9538
894.796	9389
894.918	9332
895.04	9325
895.161	9382
895.283	9370
895.405	9306
895.526	9253
895.648	9237
895.769	9279
895.891	9294
896.012	9317
896.134	9195
896.255	9169
896.376	9116
896.498	9199
896.619	9116
896.74	9032
896.861	9119
896.982	9233
897.103	9363
897.224	9180
897.345	9157
897.466	9032
897.587	8986
897.708	9081
897.828	9081
897.949	8967
898.07	8887
898.19	8941
898.311	9013
898.431	8857
898.552	8918
898.672	8906
898.792	8975
898.913	8933
899.033	8800
899.153	8716
899.273	8644
899.393	8727
899.513	8701
899.633	8720
899.753	8781
899.873	8663
899.993	8758
900.113	8701
900.232	8670
900.352	8724
900.472	8651
900.591	8533
900.711	8625
900.83	8571
900.95	8712
901.069	8705
901.189	8575
901.308	8469
901.427	8396
901.546	8434
901.665	8476
901.784	8488
901.904	8419
902.023	8347
902.141	8237
902.26	8172
902.379	8309
902.498	8248
902.617	8183
902.735	8263
902.854	8358
902.973	8271
903.091	8130
903.21	8180
903.328	8157
903.446	8084
903.565	8077
903.683	8103
903.801	8062
903.919	8138
904.038	8111
904.156	8043
904.274	8024
904.392	8054
904.51	8065
904.627	8084
904.745	8039
904.863	8088
904.981	7936
905.098	7837
905.216	7871
905.334	7887
905.451	7921
905.569	7906
905.686	7936
905.803	7909
905.921	7833
906.038	7913
906.155	7830
906.272	7738
906.389	7757
906.506	7674
906.623	7601
906.74	7601
906.857	7636
906.974	7616
907.091	7689
907.208	7715
907.324	7586
907.441	7590
907.557	7445
907.674	7400
907.79	7403
907.907	7407
908.023	7457
908.139	7449
908.256	7373
908.372	7362
908.488	7388
908.604	7251
908.72	7244
908.836	7236
908.952	7312
909.068	7209
909.184	7343
909.3	7263
909.415	7316
909.531	7289
909.647	7156
909.762	7118
909.878	7122
909.993	7126
910.108	7179
910.224	7084
910.339	7095
910.454	7031
910.57	7027
910.685	6962
910.8	7175
910.915	7129
911.03	7034
911.145	6875
911.259	6818
911.374	6844
911.489	6791
911.604	6829
911.718	6730
911.833	6726
911.947	6620
912.062	6639
912.176	6662
912.291	6730
912.405	6665
912.519	6856
912.633	6875
912.748	6757
912.862	6753
912.976	6639
913.09	6551
913.204	6578
913.318	6631
913.431	6711
913.545	6738
913.659	6730
913.772	6627
913.886	6582
914	6601
914.113	6646
914.226	6684
914.34	6620
914.453	6490
914.566	6589
914.68	6517
914.793	6563
914.906	6414
915.019	6372
915.132	6403
915.245	6460
915.358	6528
915.47	6494
915.583	6418
915.696	6475
915.809	6574
915.921	6578
916.034	6460
916.146	6464
916.259	6308
916.371	6490
916.483	6471
916.595	6399
916.708	6429
916.82	6384
916.932	6353
917.044	6338
917.156	6391
917.268	6346
917.38	6365
917.491	6331
917.603	6338
917.715	6426
917.826	6391
917.938	6285
918.049	6266
918.161	6331
918.272	6407
918.384	6410
918.495	6334
918.606	6292
918.717	6239
918.828	6232
918.939	6285
919.05	6186
919.161	6270
919.272	6049
919.383	6121
919.494	6308
919.604	6441
919.715	6292
919.826	6247
919.936	6235
920.047	6331
920.157	6315
920.267	6540
920.378	6422
920.488	6327
920.598	6426
920.708	6597
920.818	6494
920.928	6467
921.038	6627
921.148	6570
921.258	6372
921.368	6342
921.477	6235
921.587	6121
921.697	6129
921.806	6178
921.916	6057
922.025	5946
922.134	5901
922.244	5844
922.353	5923
922.462	5908
922.571	5832
922.68	5718
922.789	5638
922.898	5691
923.007	5657
923.116	5722
923.224	5710
923.333	5684
923.442	5589
923.55	5554
923.659	5646
923.767	5646
923.876	5570
923.984	5596
924.092	5482
924.201	5608
924.309	5516
924.417	5608
924.525	5505
924.633	5516
924.741	6277
924.849	5398
924.956	5512
925.064	5376
925.172	5296
925.279	5326
925.387	5398
925.494	5322
925.602	5421
925.709	5311
925.816	5254
925.924	5341
926.031	5414
926.138	5277
926.245	5337
926.352	5235
926.459	5303
926.566	5353
926.673	5220
926.779	5143
926.886	5113
926.993	5018
927.099	4961
927.206	4999
927.312	4957
927.419	5006
927.525	4957
927.631	5033
927.737	4881
927.843	4801
927.95	4778
928.056	4858
928.162	4843
928.267	4881
928.373	5391
928.479	4850
928.585	4668
928.69	4771
928.796	4786
928.901	4683
929.007	4588
929.112	4702
929.218	4660
929.323	4637
929.428	4565
929.533	4691
929.638	4493
929.743	4554
929.848	4573
929.953	4546
930.058	4481
930.163	4386
930.267	4352
930.372	4413
930.477	4295
930.581	4504
930.685	4367
930.79	4295
930.894	4295
930.998	4234
931.103	4424
931.207	4128
931.311	4105
931.415	4048
931.519	3941
931.623	3953
