Data from glass_V78500241_2795.txt Node
Date: Wed Sep 01 19:33:52 CST 2021
User: usil
Spectrometer: V785-0024
Trigger mode: 0
Integration Time (sec): 4.000000E-1
Scans to average: 1
Nonlinearity correction enabled: false
Boxcar width: 0
Storing dark spectrum: false
XAxis mode: Wavelengths
Number of Pixels in Spectrum: 1024
>>>>>Begin Spectral Data<<<<<
801.071	3747
801.214	3724
801.356	3728
801.499	3755
801.641	3740
801.783	3709
801.926	3880
802.068	3793
802.211	3838
802.353	3873
802.496	3838
802.638	3892
802.78	3896
802.923	3899
803.065	3876
803.208	3812
803.35	3838
803.492	3884
803.635	3884
803.777	3770
803.919	3880
804.061	4128
804.204	3907
804.346	3930
804.488	3896
804.63	3987
804.773	3998
804.915	3998
805.057	4093
805.199	4067
805.341	4032
805.483	4154
805.626	4169
805.768	4086
805.91	4188
806.052	4196
806.194	4181
806.336	4337
806.478	4249
806.62	4158
806.762	4147
806.904	4265
807.046	4341
807.188	4204
807.33	4192
807.472	4211
807.614	4181
807.756	4207
807.898	4192
808.04	4188
808.182	4261
808.324	4295
808.465	4348
808.607	4417
808.749	4432
808.891	4443
809.033	4462
809.174	4394
809.316	4276
809.458	4234
809.6	4131
809.741	4143
809.883	4128
810.025	4200
810.166	4196
810.308	4215
810.45	4257
810.591	4207
810.733	4261
810.875	4462
811.016	4854
811.158	5147
811.299	5212
811.441	5212
811.582	5037
811.724	4687
811.865	4451
812.007	4432
812.148	4402
812.29	4421
812.431	4443
812.573	4375
812.714	4352
812.855	4432
812.997	4371
813.138	4478
813.279	4409
813.421	4341
813.562	4390
813.703	4360
813.845	4318
813.986	4204
814.127	4185
814.268	4238
814.41	4287
814.551	4253
814.692	4325
814.833	4253
814.974	4276
815.115	4303
815.256	4230
815.397	4204
815.539	4215
815.68	4185
815.821	4181
815.962	4318
816.103	4242
816.244	4246
816.385	4188
816.526	4272
816.666	4177
816.807	4120
816.948	4154
817.089	4173
817.23	4105
817.371	4048
817.512	4036
817.653	4055
817.793	3968
817.934	4021
818.075	4067
818.216	4097
818.356	4040
818.497	3983
818.638	3869
818.778	3907
818.919	3911
819.06	3850
819.2	3896
819.341	3816
819.481	3823
819.622	3888
819.762	3991
819.903	3930
820.043	3816
820.184	3812
820.324	3854
820.465	3907
820.605	3823
820.746	3865
820.886	3751
821.026	3949
821.167	3907
821.307	3949
821.447	3968
821.588	3953
821.728	3903
821.868	3930
822.008	3861
822.149	3899
822.289	3880
822.429	3762
822.569	3740
822.709	3816
822.849	3679
822.99	3671
823.13	3724
823.27	3751
823.41	3660
823.55	3709
823.69	3717
823.83	3728
823.97	3656
824.11	3610
824.25	3576
824.389	3599
824.529	3652
824.669	3641
824.809	3675
824.949	3724
825.089	3736
825.228	3717
825.368	3606
825.508	3530
825.648	3545
825.787	3622
825.927	3591
826.067	3595
826.206	3694
826.346	3751
826.485	3808
826.625	3892
826.765	3941
826.904	3835
827.044	3587
827.183	3564
827.323	3389
827.462	3496
827.601	3393
827.741	3405
827.88	3477
828.02	3386
828.159	3439
828.298	3458
828.437	3515
828.577	3481
828.716	3618
828.855	3450
828.994	3378
829.134	3332
829.273	3363
829.412	3344
829.551	3310
829.69	3336
829.829	3447
829.968	3443
830.107	3439
830.246	3401
830.385	3351
830.524	3344
830.663	3313
830.802	3249
830.941	3188
831.08	3161
831.219	3233
831.357	3218
831.496	3431
831.635	3169
831.774	3169
831.913	3180
832.051	3150
832.19	3135
832.329	3203
832.467	3104
832.606	3097
832.744	3150
832.883	3188
833.022	3199
833.16	3264
833.299	3291
833.437	3313
833.576	3313
833.714	3405
833.852	3351
833.991	3435
834.129	3443
834.267	3412
834.406	3412
834.544	3389
834.682	3416
834.821	3367
834.959	3557
835.097	3397
835.235	3542
835.373	3469
835.511	3500
835.65	3450
835.788	3477
835.926	3355
836.064	3344
836.202	3378
836.34	3568
836.478	3564
836.615	3519
836.753	3584
836.891	3618
837.029	3599
837.167	3561
837.305	3538
837.443	3576
837.58	3481
837.718	3595
837.856	3530
837.993	3526
838.131	3549
838.269	3606
838.406	3519
838.544	3584
838.681	3439
838.819	3469
838.956	3428
839.094	3344
839.231	3428
839.369	3488
839.506	3709
839.643	3648
839.781	3431
839.918	3424
840.055	3542
840.193	3481
840.33	3549
840.467	3553
840.604	3587
840.742	3800
840.879	3530
841.016	3557
841.153	3584
841.29	3720
841.427	3701
841.564	3694
841.701	3709
841.838	3713
841.975	3698
842.112	3679
842.249	3641
842.385	3625
842.522	3743
842.659	3656
842.796	3686
842.933	3724
843.069	3682
843.206	3663
843.343	3789
843.479	3751
843.616	3808
843.752	3625
843.889	3713
844.025	3819
844.162	3694
844.298	3842
844.435	3755
844.571	3740
844.708	3899
844.844	3956
844.98	4013
845.117	3975
845.253	3899
845.389	3850
845.525	3960
845.661	3937
845.798	3899
845.934	4006
846.07	3956
846.206	4063
846.342	4112
846.478	4036
846.614	3930
846.75	3873
846.886	3899
847.022	4017
847.158	3918
847.294	4002
847.429	3972
847.565	3945
847.701	4211
847.837	3835
847.972	3869
848.108	3972
848.244	3953
848.379	3827
848.515	3831
848.65	3827
848.786	3865
848.921	3838
849.057	3953
849.192	3945
849.328	3876
849.463	3926
849.598	3869
849.734	3846
849.869	3804
850.004	3789
850.14	3812
850.275	3762
850.41	3713
850.545	3720
850.68	3755
850.815	3778
850.95	3808
851.085	3896
851.22	3865
851.355	3816
851.49	3785
851.625	3781
851.76	3778
851.895	3762
852.03	3713
852.165	3770
852.299	3846
852.434	3865
852.569	3842
852.703	3797
852.838	3907
852.973	3968
853.107	3964
853.242	3850
853.376	3835
853.511	3759
853.645	3838
853.78	3983
853.914	3888
854.048	3861
854.183	3876
854.317	3903
854.451	4029
854.585	3922
854.72	3896
854.854	4021
854.988	3896
855.122	4017
855.256	3911
855.39	3979
855.524	4139
855.658	4067
855.792	4051
855.926	4154
856.06	4185
856.194	4154
856.327	4147
856.461	4067
856.595	4131
856.729	4158
856.862	4310
856.996	4207
857.13	4276
857.263	4299
857.397	4344
857.53	4284
857.664	4306
857.797	4402
857.931	4383
858.064	4337
858.197	4455
858.331	4360
858.464	4360
858.597	4341
858.731	4402
858.864	4421
858.997	4478
859.13	4451
859.263	4485
859.396	4523
859.529	4497
859.662	4516
859.795	4535
859.928	4573
860.061	4641
860.194	4740
860.327	4679
860.46	4584
860.592	4698
860.725	4660
860.858	4774
860.99	4679
861.123	4683
861.256	4668
861.388	4786
861.521	5261
861.653	4736
861.786	4687
861.918	4733
862.05	4733
862.183	4843
862.315	4839
862.447	4927
862.58	4873
862.712	4778
862.844	4767
862.976	4854
863.108	4873
863.24	5132
863.372	4809
863.504	4881
863.636	4885
863.768	4946
863.9	4946
864.032	4911
864.164	4908
864.296	4968
864.428	5098
864.559	5079
864.691	5117
864.823	5094
864.954	5128
865.086	5128
865.217	5128
865.349	5083
865.48	5128
865.612	5193
865.743	5277
865.875	5181
866.006	5162
866.137	5242
866.269	5181
866.4	5204
866.531	5220
866.662	5212
866.793	5277
866.924	5277
867.055	5349
867.186	5387
867.317	5307
867.448	5303
867.579	5372
867.71	5372
867.841	5357
867.972	5448
868.103	5387
868.233	5516
868.364	5467
868.495	5509
868.625	5611
868.756	5802
868.886	5638
869.017	5676
869.147	5836
869.278	5863
869.408	5828
869.539	5851
869.669	5866
869.799	5866
869.929	5980
870.06	5984
870.19	6125
870.32	6136
870.45	6251
870.58	6323
870.71	6414
870.84	6464
870.97	6323
871.1	6388
871.23	6620
871.36	6681
871.489	6589
871.619	6673
871.749	6753
871.879	6840
872.008	6951
872.138	6901
872.267	6993
872.397	7019
872.526	7065
872.656	7050
872.785	7228
872.915	7270
873.044	7441
873.173	7529
873.303	7632
873.432	7742
873.561	7868
873.69	7864
873.819	8016
873.948	8126
874.077	8199
874.206	8252
874.335	8488
874.464	8625
874.593	8845
874.722	8895
874.851	9138
874.979	9199
875.108	9367
875.237	9386
875.365	9428
875.494	9584
875.623	9873
875.751	9850
875.88	10090
876.008	10093
876.136	10246
876.265	10485
876.393	10702
876.521	10687
876.65	10755
876.778	10869
876.906	10904
877.034	10968
877.162	11041
877.29	11041
877.418	11220
877.546	11334
877.674	11425
877.802	11501
877.93	11417
878.058	11520
878.185	11505
878.313	11547
878.441	11767
878.568	11634
878.696	11748
878.824	11920
878.951	11973
879.079	11946
879.206	12102
879.333	11988
879.461	11912
879.588	12019
879.715	12098
879.842	12258
879.97	12060
880.097	11752
880.224	11828
880.351	11851
880.478	11939
880.605	11843
880.732	11802
880.859	12022
880.986	11798
881.112	11977
881.239	11813
881.366	11596
881.493	11627
881.619	11554
881.746	11505
881.872	11493
881.999	11528
882.125	11486
882.252	11558
882.378	11509
882.505	11547
882.631	11410
882.757	11288
882.883	11417
883.01	11395
883.136	11079
883.262	11109
883.388	11140
883.514	11235
883.64	11067
883.766	11079
883.892	10991
884.018	10946
884.143	11052
884.269	11006
884.395	10847
884.52	10683
884.646	10733
884.772	10649
884.897	10664
885.023	10637
885.148	10679
885.274	10763
885.399	10717
885.524	10573
885.65	10577
885.775	10580
885.9	10455
886.025	10558
886.15	10546
886.275	10417
886.4	10329
886.525	10382
886.65	10394
886.775	10341
886.9	10451
887.025	10451
887.149	10352
887.274	10219
887.399	10253
887.523	10196
887.648	10105
887.773	10124
887.897	10261
888.021	10265
888.146	10166
888.27	10207
888.395	10166
888.519	10067
888.643	10227
888.767	10238
888.891	10063
889.015	9991
889.139	10063
889.263	10010
889.387	10021
889.511	10078
889.635	10048
889.759	9941
889.883	10013
890.006	9998
890.13	10074
890.254	9907
890.377	9903
890.501	9846
890.624	9873
890.748	9846
890.871	9766
890.995	9728
891.118	9724
891.241	9766
891.364	9705
891.488	9835
891.611	9827
891.734	9720
891.857	9755
891.98	9705
892.103	9720
892.226	9682
892.349	9667
892.471	9534
892.594	9584
892.717	9660
892.839	9572
892.962	9614
893.085	9618
893.207	9492
893.33	9420
893.452	9469
893.575	9519
893.697	9549
893.819	9591
893.941	9549
894.064	9587
894.186	9420
894.308	9443
894.43	9519
894.552	9545
894.674	9519
894.796	9382
894.918	9355
895.04	9348
895.161	9382
895.283	9218
895.405	9283
895.526	9222
895.648	9253
895.769	9214
895.891	9275
896.012	9233
896.134	9169
896.255	9176
896.376	9123
896.498	9104
896.619	9157
896.74	9051
896.861	9055
896.982	9260
897.103	9283
897.224	9081
897.345	9062
897.466	8948
897.587	8994
897.708	9058
897.828	8990
897.949	8914
898.07	8849
898.19	8937
898.311	8975
898.431	8910
898.552	8941
898.672	8921
898.792	8910
898.913	8872
899.033	8766
899.153	8777
899.273	8651
899.393	8743
899.513	8735
899.633	8720
899.753	8743
899.873	8670
899.993	8750
900.113	8678
900.232	8746
900.352	8636
900.472	8564
900.591	8617
900.711	8560
900.83	8552
900.95	8625
901.069	8724
901.189	8522
901.308	8446
901.427	8389
901.546	8393
901.665	8476
901.784	8461
901.904	8320
902.023	8305
902.141	8202
902.26	8218
902.379	8294
902.498	8145
902.617	8195
902.735	8309
902.854	8259
902.973	8244
903.091	8126
903.21	8115
903.328	8172
903.446	8138
903.565	7940
903.683	8084
903.801	8001
903.919	8084
904.038	8130
904.156	8005
904.274	8069
904.392	7970
904.51	8081
904.627	7997
904.745	8100
904.863	8058
904.981	7852
905.098	7841
905.216	7818
905.334	7864
905.451	7917
905.569	7898
905.686	7906
905.803	7875
905.921	7696
906.038	7868
906.155	7704
906.272	7662
906.389	7738
906.506	7647
906.623	7651
906.74	7552
906.857	7529
906.974	7586
907.091	7620
907.208	7658
907.324	7651
907.441	7609
907.557	7388
907.674	7438
907.79	7407
907.907	7346
908.023	7388
908.139	7381
908.256	7411
908.372	7324
908.488	7400
908.604	7297
908.72	7202
908.836	7228
908.952	7270
909.068	7266
909.184	7324
909.3	7225
909.415	7270
909.531	7274
909.647	7129
909.762	7065
909.878	7069
909.993	7129
910.108	7099
910.224	7084
910.339	7076
910.454	7004
910.57	6962
910.685	6981
910.8	7114
910.915	7072
911.03	7027
911.145	6867
911.259	6840
911.374	6856
911.489	6795
911.604	6818
911.718	6681
911.833	6757
911.947	6662
912.062	6521
912.176	6700
912.291	6749
912.405	6722
912.519	6795
912.633	6703
912.748	6646
912.862	6662
912.976	6585
913.09	6513
913.204	6563
913.318	6654
913.431	6696
913.545	6650
913.659	6669
913.772	6646
913.886	6582
914	6509
914.113	6646
914.226	6582
914.34	6585
914.453	6475
914.566	6616
914.68	6456
914.793	6486
914.906	6433
915.019	6433
915.132	6353
915.245	6380
915.358	6414
915.47	6483
915.583	6494
915.696	6399
915.809	6502
915.921	6555
916.034	6357
916.146	6414
916.259	6376
916.371	6441
916.483	6369
916.595	6399
916.708	6376
916.82	6429
916.932	6315
917.044	6380
917.156	6372
917.268	6323
917.38	6319
917.491	6327
917.603	6323
917.715	6380
917.826	6384
917.938	6235
918.049	6289
918.161	6273
918.272	6353
918.384	6433
918.495	6273
918.606	6266
918.717	6163
918.828	6266
918.939	6186
919.05	6285
919.161	6258
919.272	6098
919.383	6114
919.494	6273
919.604	6391
919.715	6254
919.826	6239
919.936	6228
920.047	6289
920.157	6235
920.267	6437
920.378	6292
920.488	6224
920.598	6391
920.708	6528
920.818	6471
920.928	6460
921.038	6585
921.148	6536
921.258	6315
921.368	6315
921.477	6216
921.587	6159
921.697	6049
921.806	6106
921.916	6026
922.025	5946
922.134	5866
922.244	5889
922.353	5969
922.462	5779
922.571	5771
922.68	5707
922.789	5665
922.898	5752
923.007	5638
923.116	5779
923.224	5638
923.333	5653
923.442	5608
923.55	5554
923.659	5577
923.767	5566
923.876	5516
923.984	5562
924.092	5528
924.201	5501
924.309	5543
924.417	5501
924.525	5493
924.633	5493
924.741	6281
924.849	5349
924.956	5433
925.064	5337
925.172	5307
925.279	5265
925.387	5334
925.494	5288
925.602	5326
925.709	5326
925.816	5292
925.924	5337
926.031	5326
926.138	5326
926.245	5322
926.352	5189
926.459	5330
926.566	5299
926.673	5208
926.779	5090
926.886	5105
926.993	4965
927.099	4991
927.206	4968
927.312	4930
927.419	4999
927.525	4942
927.631	4953
927.737	4854
927.843	4892
927.95	4771
928.056	4812
928.162	4809
928.267	4873
928.373	5322
928.479	4839
928.585	4729
928.69	4759
928.796	4782
928.901	4694
929.007	4596
929.112	4691
929.218	4672
929.323	4569
929.428	4561
929.533	4622
929.638	4466
929.743	4527
929.848	4512
929.953	4474
930.058	4417
930.163	4310
930.267	4333
930.372	4417
930.477	4287
930.581	4470
930.685	4344
930.79	4249
930.894	4261
930.998	4234
931.103	4363
931.207	4074
931.311	4067
931.415	3987
931.519	3945
931.623	3896
