Data from glass_V78500241_398.txt Node
Date: Wed Sep 01 19:17:15 CST 2021
User: usil
Spectrometer: V785-0024
Trigger mode: 0
Integration Time (sec): 4.000000E-1
Scans to average: 1
Nonlinearity correction enabled: false
Boxcar width: 0
Storing dark spectrum: false
XAxis mode: Wavelengths
Number of Pixels in Spectrum: 1024
>>>>>Begin Spectral Data<<<<<
801.071	3766
801.214	3789
801.356	3747
801.499	3743
801.641	3720
801.783	3770
801.926	3861
802.068	3831
802.211	3884
802.353	3896
802.496	3888
802.638	3880
802.78	3880
802.923	3964
803.065	3880
803.208	3869
803.35	3880
803.492	3880
803.635	3930
803.777	3831
803.919	3930
804.061	4188
804.204	3968
804.346	3979
804.488	3918
804.63	4051
804.773	3983
804.915	4067
805.057	4192
805.199	4063
805.341	4139
805.483	4196
805.626	4097
805.768	4128
805.91	4227
806.052	4287
806.194	4215
806.336	4356
806.478	4253
806.62	4215
806.762	4188
806.904	4253
807.046	4352
807.188	4192
807.33	4230
807.472	4276
807.614	4211
807.756	4230
807.898	4181
808.04	4181
808.182	4287
808.324	4356
808.465	4390
808.607	4523
808.749	4497
808.891	4508
809.033	4451
809.174	4386
809.316	4280
809.458	4265
809.6	4131
809.741	4162
809.883	4128
810.025	4234
810.166	4181
810.308	4192
810.45	4284
810.591	4299
810.733	4246
810.875	4561
811.016	4809
811.158	5109
811.299	5318
811.441	5284
811.582	5056
811.724	4736
811.865	4451
812.007	4424
812.148	4478
812.29	4417
812.431	4405
812.573	4409
812.714	4405
812.855	4409
812.997	4451
813.138	4535
813.279	4440
813.421	4394
813.562	4409
813.703	4303
813.845	4402
813.986	4246
814.127	4230
814.268	4272
814.41	4344
814.551	4257
814.692	4363
814.833	4276
814.974	4325
815.115	4337
815.256	4257
815.397	4280
815.539	4234
815.68	4215
815.821	4192
815.962	4341
816.103	4276
816.244	4295
816.385	4249
816.526	4253
816.666	4200
816.807	4120
816.948	4181
817.089	4204
817.23	4158
817.371	4055
817.512	4097
817.653	4048
817.793	4063
817.934	4086
818.075	4135
818.216	4116
818.356	4105
818.497	4017
818.638	3930
818.778	3896
818.919	3896
819.06	3892
819.2	3949
819.341	3861
819.481	3865
819.622	3918
819.762	4032
819.903	3998
820.043	3926
820.184	3827
820.324	3876
820.465	3884
820.605	3854
820.746	3876
820.886	3808
821.026	3953
821.167	3915
821.307	3994
821.447	3964
821.588	3991
821.728	4010
821.868	3922
822.008	3907
822.149	3960
822.289	3930
822.429	3804
822.569	3778
822.709	3774
822.849	3713
822.99	3717
823.13	3774
823.27	3819
823.41	3720
823.55	3736
823.69	3736
823.83	3717
823.97	3713
824.11	3610
824.25	3618
824.389	3614
824.529	3709
824.669	3667
824.809	3720
824.949	3762
825.089	3713
825.228	3698
825.368	3584
825.508	3584
825.648	3618
825.787	3606
825.927	3663
826.067	3656
826.206	3671
826.346	3789
826.485	3846
826.625	3911
826.765	4002
826.904	3835
827.044	3599
827.183	3561
827.323	3439
827.462	3492
827.601	3462
827.741	3454
827.88	3481
828.02	3359
828.159	3443
828.298	3492
828.437	3530
828.577	3507
828.716	3614
828.855	3534
828.994	3405
829.134	3374
829.273	3393
829.412	3329
829.551	3367
829.69	3370
829.829	3458
829.968	3515
830.107	3477
830.246	3458
830.385	3431
830.524	3393
830.663	3291
830.802	3298
830.941	3230
831.08	3264
831.219	3249
831.357	3268
831.496	3412
831.635	3260
831.774	3207
831.913	3195
832.051	3188
832.19	3150
832.329	3253
832.467	3131
832.606	3108
832.744	3150
832.883	3184
833.022	3245
833.16	3245
833.299	3340
833.437	3374
833.576	3382
833.714	3412
833.852	3450
833.991	3466
834.129	3439
834.267	3447
834.406	3389
834.544	3412
834.682	3435
834.821	3412
834.959	3580
835.097	3435
835.235	3534
835.373	3519
835.511	3530
835.65	3450
835.788	3469
835.926	3439
836.064	3367
836.202	3409
836.34	3599
836.478	3603
836.615	3564
836.753	3599
836.891	3614
837.029	3660
837.167	3580
837.305	3599
837.443	3580
837.58	3488
837.718	3603
837.856	3584
837.993	3564
838.131	3599
838.269	3584
838.406	3587
838.544	3568
838.681	3473
838.819	3466
838.956	3397
839.094	3447
839.231	3488
839.369	3545
839.506	3751
839.643	3648
839.781	3481
839.918	3466
840.055	3511
840.193	3538
840.33	3545
840.467	3545
840.604	3580
840.742	3850
840.879	3576
841.016	3580
841.153	3610
841.29	3747
841.427	3770
841.564	3679
841.701	3736
841.838	3762
841.975	3724
842.112	3732
842.249	3686
842.385	3618
842.522	3808
842.659	3679
842.796	3713
842.933	3709
843.069	3679
843.206	3717
843.343	3785
843.479	3785
843.616	3869
843.752	3698
843.889	3686
844.025	3854
844.162	3732
844.298	3876
844.435	3812
844.571	3808
844.708	3880
844.844	4013
844.98	4055
845.117	4010
845.253	3949
845.389	3930
845.525	3964
845.661	3964
845.798	3926
845.934	4063
846.07	3930
846.206	4048
846.342	4109
846.478	4051
846.614	3979
846.75	3907
846.886	3941
847.022	4051
847.158	3994
847.294	4006
847.429	4025
847.565	4029
847.701	4280
847.837	3922
847.972	3846
848.108	3964
848.244	3968
848.379	3873
848.515	3789
848.65	3808
848.786	3842
848.921	3854
849.057	3953
849.192	3941
849.328	3899
849.463	3956
849.598	3896
849.734	3865
849.869	3842
850.004	3785
850.14	3812
850.275	3800
850.41	3709
850.545	3774
850.68	3797
850.815	3816
850.95	3808
851.085	3968
851.22	3907
851.355	3850
851.49	3838
851.625	3838
851.76	3797
851.895	3709
852.03	3797
852.165	3816
852.299	3865
852.434	3926
852.569	3865
852.703	3892
852.838	3934
852.973	3998
853.107	3991
853.242	3907
853.376	3903
853.511	3770
853.645	3808
853.78	3945
853.914	3953
854.048	3926
854.183	3892
854.317	3945
854.451	4086
854.585	3983
854.72	3953
854.854	4093
854.988	3945
855.122	4002
855.256	3926
855.39	4044
855.524	4135
855.658	4109
855.792	4051
855.926	4173
856.06	4177
856.194	4207
856.327	4139
856.461	4162
856.595	4128
856.729	4181
856.862	4280
856.996	4303
857.13	4322
857.263	4344
857.397	4409
857.53	4348
857.664	4341
857.797	4356
857.931	4459
858.064	4413
858.197	4440
858.331	4413
858.464	4417
858.597	4394
858.731	4508
858.864	4489
858.997	4478
859.13	4542
859.263	4577
859.396	4622
859.529	4584
859.662	4558
859.795	4584
859.928	4622
860.061	4706
860.194	4744
860.327	4683
860.46	4615
860.592	4729
860.725	4774
860.858	4812
860.99	4668
861.123	4691
861.256	4717
861.388	4729
861.521	5429
861.653	4687
861.786	4698
861.918	4763
862.05	4831
862.183	4828
862.315	4896
862.447	4965
862.58	4900
862.712	4759
862.844	4763
862.976	4881
863.108	4892
863.24	5261
863.372	4812
863.504	4927
863.636	4835
863.768	5029
863.9	4946
864.032	4923
864.164	4991
864.296	5041
864.428	5025
864.559	5109
864.691	5132
864.823	5117
864.954	5159
865.086	5151
865.217	5147
865.349	5109
865.48	5102
865.612	5212
865.743	5315
865.875	5185
866.006	5204
866.137	5246
866.269	5250
866.4	5318
866.531	5170
866.662	5220
866.793	5292
866.924	5261
867.055	5368
867.186	5349
867.317	5318
867.448	5318
867.579	5379
867.71	5406
867.841	5429
867.972	5440
868.103	5516
868.233	5490
868.364	5558
868.495	5566
868.625	5642
868.756	5752
868.886	5653
869.017	5733
869.147	5901
869.278	5844
869.408	5817
869.539	5908
869.669	5965
869.799	5946
869.929	5965
870.06	6022
870.19	6152
870.32	6182
870.45	6292
870.58	6346
870.71	6460
870.84	6426
870.97	6334
871.1	6460
871.23	6585
871.36	6719
871.489	6673
871.619	6768
871.749	6753
871.879	6863
872.008	6951
872.138	7012
872.267	7004
872.397	7069
872.526	7019
872.656	7129
872.785	7194
872.915	7392
873.044	7544
873.173	7575
873.303	7670
873.432	7708
873.561	7902
873.69	7928
873.819	7986
873.948	8157
874.077	8244
874.206	8347
874.335	8499
874.464	8621
874.593	8826
874.722	8948
874.851	9184
874.979	9241
875.108	9405
875.237	9359
875.365	9485
875.494	9667
875.623	9884
875.751	9823
875.88	10021
876.008	10131
876.136	10223
876.265	10550
876.393	10786
876.521	10736
876.65	10812
876.778	10869
876.906	10869
877.034	11075
877.162	11086
877.29	11113
877.418	11341
877.546	11376
877.674	11486
877.802	11467
877.93	11551
878.058	11604
878.185	11524
878.313	11638
878.441	11733
878.568	11668
878.696	11745
878.824	11847
878.951	11935
879.079	12015
879.206	12148
879.333	12053
879.461	11939
879.588	12163
879.715	12072
879.842	12178
879.97	12022
880.097	11927
880.224	11878
880.351	11859
880.478	11958
880.605	11893
880.732	11843
880.859	12095
880.986	11840
881.112	11855
881.239	11737
881.366	11615
881.493	11638
881.619	11501
881.746	11649
881.872	11596
881.999	11512
882.125	11482
882.252	11471
882.378	11493
882.505	11615
882.631	11455
882.757	11250
882.883	11277
883.01	11273
883.136	11220
883.262	11109
883.388	11117
883.514	11269
883.64	11189
883.766	11124
883.892	11067
884.018	10942
884.143	11056
884.269	11128
884.395	10805
884.52	10767
884.646	10706
884.772	10679
884.897	10641
885.023	10687
885.148	10767
885.274	10854
885.399	10702
885.524	10683
885.65	10596
885.775	10626
885.9	10535
886.025	10618
886.15	10592
886.275	10478
886.4	10421
886.525	10402
886.65	10470
886.775	10352
886.9	10508
887.025	10531
887.149	10402
887.274	10200
887.399	10169
887.523	10181
887.648	10223
887.773	10162
887.897	10249
888.021	10242
888.146	10166
888.27	10238
888.395	10291
888.519	10147
888.643	10196
888.767	10200
888.891	10078
889.015	9994
889.139	10169
889.263	10006
889.387	10154
889.511	10116
889.635	10090
889.759	9941
889.883	10006
890.006	9983
890.13	10143
890.254	9964
890.377	9991
890.501	9937
890.624	9915
890.748	9857
890.871	9762
890.995	9762
891.118	9759
891.241	9743
891.364	9736
891.488	9819
891.611	9698
891.734	9778
891.857	9800
891.98	9698
892.103	9793
892.226	9679
892.349	9656
892.471	9519
892.594	9576
892.717	9561
892.839	9637
892.962	9747
893.085	9698
893.207	9622
893.33	9408
893.452	9629
893.575	9614
893.697	9519
893.819	9606
893.941	9637
894.064	9656
894.186	9428
894.308	9382
894.43	9496
894.552	9591
894.674	9416
894.796	9401
894.918	9462
895.04	9302
895.161	9374
895.283	9367
895.405	9287
895.526	9294
895.648	9253
895.769	9211
895.891	9203
896.012	9302
896.134	9268
896.255	9180
896.376	9043
896.498	9104
896.619	9127
896.74	9062
896.861	9184
896.982	9211
897.103	9348
897.224	9169
897.345	9089
897.466	9028
897.587	9001
897.708	9150
897.828	9024
897.949	8982
898.07	8872
898.19	8956
898.311	9036
898.431	8933
898.552	8906
898.672	8956
898.792	9005
898.913	8944
899.033	8868
899.153	8750
899.273	8701
899.393	8697
899.513	8788
899.633	8800
899.753	8735
899.873	8750
899.993	8743
900.113	8693
900.232	8678
900.352	8705
900.472	8651
900.591	8640
900.711	8583
900.83	8613
900.95	8667
901.069	8674
901.189	8602
901.308	8480
901.427	8393
901.546	8442
901.665	8461
901.784	8469
901.904	8320
902.023	8286
902.141	8279
902.26	8145
902.379	8286
902.498	8187
902.617	8252
902.735	8286
902.854	8377
902.973	8286
903.091	8161
903.21	8191
903.328	8214
903.446	8126
903.565	8073
903.683	8012
903.801	8062
903.919	8145
904.038	8134
904.156	8111
904.274	8054
904.392	7967
904.51	8046
904.627	8107
904.745	7974
904.863	8081
904.981	7944
905.098	7883
905.216	7898
905.334	7860
905.451	7849
905.569	7913
905.686	7940
905.803	7902
905.921	7833
906.038	7875
906.155	7761
906.272	7727
906.389	7712
906.506	7696
906.623	7613
906.74	7597
906.857	7594
906.974	7605
907.091	7685
907.208	7715
907.324	7643
907.441	7571
907.557	7514
907.674	7464
907.79	7415
907.907	7476
908.023	7476
908.139	7495
908.256	7369
908.372	7411
908.488	7400
908.604	7244
908.72	7289
908.836	7247
908.952	7221
909.068	7240
909.184	7320
909.3	7247
909.415	7297
909.531	7327
909.647	7190
909.762	7179
909.878	7171
909.993	7171
910.108	7118
910.224	7057
910.339	7103
910.454	7061
910.57	6996
910.685	6954
910.8	7206
910.915	7126
911.03	7015
911.145	6890
911.259	6890
911.374	6894
911.489	6890
911.604	6863
911.718	6760
911.833	6787
911.947	6650
912.062	6627
912.176	6715
912.291	6745
912.405	6692
912.519	6806
912.633	6856
912.748	6722
912.862	6688
912.976	6658
913.09	6559
913.204	6646
913.318	6593
913.431	6719
913.545	6707
913.659	6719
913.772	6692
913.886	6582
914	6589
914.113	6665
914.226	6688
914.34	6627
914.453	6471
914.566	6612
914.68	6563
914.793	6532
914.906	6448
915.019	6426
915.132	6399
915.245	6418
915.358	6433
915.47	6467
915.583	6475
915.696	6441
915.809	6509
915.921	6582
916.034	6448
916.146	6479
916.259	6410
916.371	6525
916.483	6509
916.595	6410
916.708	6388
916.82	6433
916.932	6376
917.044	6319
917.156	6372
917.268	6350
917.38	6350
917.491	6308
917.603	6327
917.715	6429
917.826	6403
917.938	6365
918.049	6270
918.161	6376
918.272	6498
918.384	6426
918.495	6327
918.606	6266
918.717	6239
918.828	6292
918.939	6247
919.05	6239
919.161	6243
919.272	6155
919.383	6110
919.494	6334
919.604	6452
919.715	6323
919.826	6239
919.936	6228
920.047	6319
920.157	6292
920.267	6441
920.378	6346
920.488	6285
920.598	6448
920.708	6570
920.818	6456
920.928	6544
921.038	6601
921.148	6623
921.258	6346
921.368	6304
921.477	6262
921.587	6155
921.697	6079
921.806	6186
921.916	6098
922.025	5950
922.134	5927
922.244	5870
922.353	5931
922.462	5836
922.571	5752
922.68	5737
922.789	5699
922.898	5767
923.007	5699
923.116	5729
923.224	5672
923.333	5657
923.442	5615
923.55	5562
923.659	5653
923.767	5642
923.876	5516
923.984	5627
924.092	5573
924.201	5585
924.309	5516
924.417	5570
924.525	5417
924.633	5501
924.741	6277
924.849	5345
924.956	5463
925.064	5341
925.172	5326
925.279	5368
925.387	5326
925.494	5318
925.602	5414
925.709	5406
925.816	5269
925.924	5334
926.031	5322
926.138	5341
926.245	5322
926.352	5235
926.459	5395
926.566	5353
926.673	5254
926.779	5143
926.886	5136
926.993	5060
927.099	5003
927.206	5006
927.312	4900
927.419	4980
927.525	4957
927.631	5060
927.737	4900
927.843	4877
927.95	4820
928.056	4881
928.162	4839
928.267	4850
928.373	5258
928.479	4831
928.585	4748
928.69	4774
928.796	4820
928.901	4683
929.007	4622
929.112	4740
929.218	4626
929.323	4653
929.428	4569
929.533	4683
929.638	4531
929.743	4538
929.848	4531
929.953	4592
930.058	4424
930.163	4390
930.267	4325
930.372	4466
930.477	4295
930.581	4485
930.685	4375
930.79	4234
930.894	4272
930.998	4242
931.103	4402
931.207	4131
931.311	4105
931.415	4078
931.519	3918
931.623	3987
