Data from glass_V78500241_1028.txt Node
Date: Wed Sep 01 19:21:37 CST 2021
User: usil
Spectrometer: V785-0024
Trigger mode: 0
Integration Time (sec): 4.000000E-1
Scans to average: 1
Nonlinearity correction enabled: false
Boxcar width: 0
Storing dark spectrum: false
XAxis mode: Wavelengths
Number of Pixels in Spectrum: 1024
>>>>>Begin Spectral Data<<<<<
801.071	3736
801.214	3774
801.356	3675
801.499	3713
801.641	3759
801.783	3785
801.926	3854
802.068	3880
802.211	3846
802.353	3850
802.496	3823
802.638	3922
802.78	3918
802.923	3949
803.065	3934
803.208	3865
803.35	3838
803.492	3884
803.635	3907
803.777	3835
803.919	3896
804.061	4112
804.204	3991
804.346	3960
804.488	3960
804.63	4029
804.773	3998
804.915	3975
805.057	4143
805.199	4021
805.341	4048
805.483	4131
805.626	4150
805.768	4124
805.91	4211
806.052	4246
806.194	4200
806.336	4379
806.478	4207
806.62	4173
806.762	4162
806.904	4337
807.046	4383
807.188	4188
807.33	4219
807.472	4246
807.614	4219
807.756	4276
807.898	4257
808.04	4268
808.182	4325
808.324	4303
808.465	4386
808.607	4497
808.749	4398
808.891	4459
809.033	4558
809.174	4436
809.316	4287
809.458	4253
809.6	4158
809.741	4116
809.883	4181
810.025	4284
810.166	4230
810.308	4196
810.45	4242
810.591	4261
810.733	4253
810.875	4497
811.016	4862
811.158	5143
811.299	5330
811.441	5265
811.582	5083
811.724	4687
811.865	4466
812.007	4485
812.148	4440
812.29	4424
812.431	4432
812.573	4421
812.714	4310
812.855	4428
812.997	4405
813.138	4500
813.279	4413
813.421	4440
813.562	4405
813.703	4367
813.845	4371
813.986	4227
814.127	4223
814.268	4291
814.41	4291
814.551	4280
814.692	4310
814.833	4284
814.974	4303
815.115	4348
815.256	4284
815.397	4261
815.539	4223
815.68	4249
815.821	4200
815.962	4356
816.103	4249
816.244	4249
816.385	4211
816.526	4280
816.666	4242
816.807	4124
816.948	4185
817.089	4188
817.23	4074
817.371	4059
817.512	4055
817.653	4116
817.793	4036
817.934	4032
818.075	4154
818.216	4109
818.356	4112
818.497	4017
818.638	3884
818.778	3930
818.919	3842
819.06	3869
819.2	3968
819.341	3869
819.481	3861
819.622	3915
819.762	4051
819.903	3934
820.043	3899
820.184	3808
820.324	3819
820.465	3880
820.605	3888
820.746	3865
820.886	3823
821.026	3937
821.167	3934
821.307	3987
821.447	3991
821.588	3979
821.728	3956
821.868	3937
822.008	3861
822.149	3896
822.289	3892
822.429	3835
822.569	3740
822.709	3846
822.849	3709
822.99	3747
823.13	3797
823.27	3740
823.41	3709
823.55	3755
823.69	3728
823.83	3770
823.97	3671
824.11	3591
824.25	3610
824.389	3682
824.529	3698
824.669	3644
824.809	3690
824.949	3762
825.089	3747
825.228	3743
825.368	3629
825.508	3549
825.648	3587
825.787	3599
825.927	3656
826.067	3637
826.206	3671
826.346	3789
826.485	3823
826.625	3876
826.765	3945
826.904	3827
827.044	3618
827.183	3500
827.323	3424
827.462	3481
827.601	3439
827.741	3473
827.88	3481
828.02	3386
828.159	3431
828.298	3481
828.437	3564
828.577	3462
828.716	3622
828.855	3488
828.994	3374
829.134	3363
829.273	3405
829.412	3378
829.551	3348
829.69	3386
829.829	3420
829.968	3545
830.107	3431
830.246	3500
830.385	3412
830.524	3367
830.663	3348
830.802	3264
830.941	3222
831.08	3233
831.219	3287
831.357	3287
831.496	3412
831.635	3245
831.774	3199
831.913	3184
832.051	3146
832.19	3203
832.329	3218
832.467	3116
832.606	3135
832.744	3157
832.883	3169
833.022	3230
833.16	3249
833.299	3275
833.437	3359
833.576	3420
833.714	3439
833.852	3439
833.991	3401
834.129	3496
834.267	3443
834.406	3405
834.544	3443
834.682	3409
834.821	3454
834.959	3557
835.097	3431
835.235	3549
835.373	3523
835.511	3542
835.65	3481
835.788	3496
835.926	3389
836.064	3389
836.202	3405
836.34	3591
836.478	3633
836.615	3530
836.753	3629
836.891	3663
837.029	3641
837.167	3591
837.305	3572
837.443	3523
837.58	3511
837.718	3587
837.856	3523
837.993	3595
838.131	3641
838.269	3595
838.406	3576
838.544	3561
838.681	3492
838.819	3462
838.956	3405
839.094	3378
839.231	3477
839.369	3545
839.506	3720
839.643	3622
839.781	3500
839.918	3477
840.055	3538
840.193	3545
840.33	3549
840.467	3599
840.604	3595
840.742	3800
840.879	3545
841.016	3564
841.153	3580
841.29	3762
841.427	3686
841.564	3755
841.701	3774
841.838	3675
841.975	3686
842.112	3709
842.249	3679
842.385	3629
842.522	3789
842.659	3709
842.796	3679
842.933	3740
843.069	3698
843.206	3705
843.343	3854
843.479	3816
843.616	3831
843.752	3694
843.889	3690
844.025	3884
844.162	3732
844.298	3846
844.435	3770
844.571	3785
844.708	3945
844.844	3994
844.98	4040
845.117	4040
845.253	3911
845.389	3907
845.525	3926
845.661	3983
845.798	3926
845.934	4013
846.07	3956
846.206	4021
846.342	4086
846.478	4086
846.614	3975
846.75	3945
846.886	3907
847.022	4036
847.158	3964
847.294	4044
847.429	4036
847.565	3922
847.701	4223
847.837	3926
847.972	3892
848.108	3968
848.244	4002
848.379	3842
848.515	3797
848.65	3831
848.786	3819
848.921	3876
849.057	3937
849.192	3918
849.328	3903
849.463	3892
849.598	3884
849.734	3816
849.869	3835
850.004	3785
850.14	3793
850.275	3789
850.41	3736
850.545	3785
850.68	3766
850.815	3778
850.95	3774
851.085	3956
851.22	3842
851.355	3838
851.49	3762
851.625	3800
851.76	3797
851.895	3781
852.03	3740
852.165	3819
852.299	3876
852.434	3884
852.569	3854
852.703	3899
852.838	3949
852.973	4006
853.107	3945
853.242	3884
853.376	3930
853.511	3720
853.645	3880
853.78	4006
853.914	3915
854.048	3861
854.183	3842
854.317	3968
854.451	4055
854.585	3994
854.72	3964
854.854	4029
854.988	3956
855.122	4059
855.256	3945
855.39	4017
855.524	4147
855.658	4109
855.792	4093
855.926	4131
856.06	4158
856.194	4219
856.327	4166
856.461	4150
856.595	4112
856.729	4227
856.862	4295
856.996	4272
857.13	4306
857.263	4352
857.397	4386
857.53	4284
857.664	4371
857.797	4405
857.931	4409
858.064	4409
858.197	4485
858.331	4371
858.464	4375
858.597	4375
858.731	4470
858.864	4466
858.997	4462
859.13	4527
859.263	4588
859.396	4577
859.529	4550
859.662	4542
859.795	4546
859.928	4599
860.061	4660
860.194	4717
860.327	4672
860.46	4664
860.592	4740
860.725	4755
860.858	4748
860.99	4744
861.123	4672
861.256	4752
861.388	4755
861.521	5459
861.653	4759
861.786	4733
861.918	4733
862.05	4790
862.183	4824
862.315	4892
862.447	4957
862.58	4881
862.712	4790
862.844	4782
862.976	4843
863.108	4889
863.24	5273
863.372	4835
863.504	4900
863.636	4911
863.768	4946
863.9	5014
864.032	4949
864.164	4965
864.296	4999
864.428	5083
864.559	5079
864.691	5151
864.823	5128
864.954	5132
865.086	5155
865.217	5159
865.349	5102
865.48	5223
865.612	5216
865.743	5242
865.875	5174
866.006	5204
866.137	5254
866.269	5254
866.4	5220
866.531	5273
866.662	5246
866.793	5261
866.924	5307
867.055	5322
867.186	5349
867.317	5349
867.448	5341
867.579	5337
867.71	5410
867.841	5387
867.972	5433
868.103	5478
868.233	5581
868.364	5547
868.495	5589
868.625	5691
868.756	5840
868.886	5634
869.017	5733
869.147	5878
869.278	5859
869.408	5821
869.539	5847
869.669	5923
869.799	6007
869.929	5999
870.06	5946
870.19	6220
870.32	6182
870.45	6281
870.58	6369
870.71	6494
870.84	6433
870.97	6369
871.1	6376
871.23	6642
871.36	6703
871.489	6662
871.619	6764
871.749	6901
871.879	6871
872.008	7050
872.138	6993
872.267	7012
872.397	7008
872.526	6973
872.656	7164
872.785	7232
872.915	7449
873.044	7499
873.173	7499
873.303	7571
873.432	7723
873.561	7856
873.69	7963
873.819	7986
873.948	8225
874.077	8248
874.206	8328
874.335	8476
874.464	8682
874.593	8834
874.722	8895
874.851	9104
874.979	9279
875.108	9382
875.237	9435
875.365	9389
875.494	9652
875.623	9857
875.751	9846
875.88	9991
876.008	10143
876.136	10375
876.265	10512
876.393	10786
876.521	10668
876.65	10885
876.778	10908
876.906	10881
877.034	10980
877.162	11079
877.29	11162
877.418	11296
877.546	11341
877.674	11478
877.802	11467
877.93	11661
878.058	11554
878.185	11535
878.313	11623
878.441	11676
878.568	11684
878.696	11794
878.824	11927
878.951	11980
879.079	12083
879.206	12175
879.333	12057
879.461	11980
879.588	12068
879.715	12144
879.842	12254
879.97	12091
880.097	11904
880.224	11878
880.351	11847
880.478	11923
880.605	11809
880.732	11878
880.859	12034
880.986	11840
881.112	11866
881.239	11756
881.366	11741
881.493	11619
881.619	11600
881.746	11532
881.872	11570
881.999	11524
882.125	11463
882.252	11600
882.378	11493
882.505	11577
882.631	11398
882.757	11326
882.883	11368
883.01	11280
883.136	11212
883.262	11185
883.388	11178
883.514	11193
883.64	11185
883.766	11067
883.892	11029
884.018	10984
884.143	11048
884.269	11124
884.395	10873
884.52	10755
884.646	10820
884.772	10649
884.897	10649
885.023	10752
885.148	10691
885.274	10782
885.399	10649
885.524	10656
885.65	10691
885.775	10656
885.9	10630
886.025	10558
886.15	10622
886.275	10474
886.4	10379
886.525	10436
886.65	10405
886.775	10329
886.9	10443
887.025	10535
887.149	10337
887.274	10196
887.399	10227
887.523	10185
887.648	10196
887.773	10112
887.897	10265
888.021	10257
888.146	10143
888.27	10177
888.395	10207
888.519	10238
888.643	10154
888.767	10207
888.891	10154
889.015	10036
889.139	10090
889.263	9972
889.387	10036
889.511	10204
889.635	10055
889.759	9979
889.883	10013
890.006	10017
890.13	10063
890.254	9960
890.377	9987
890.501	9793
890.624	9941
890.748	9873
890.871	9819
890.995	9812
891.118	9690
891.241	9850
891.364	9759
891.488	9857
891.611	9648
891.734	9720
891.857	9781
891.98	9728
892.103	9755
892.226	9740
892.349	9675
892.471	9530
892.594	9644
892.717	9709
892.839	9557
892.962	9656
893.085	9690
893.207	9591
893.33	9462
893.452	9534
893.575	9542
893.697	9523
893.819	9652
893.941	9625
894.064	9663
894.186	9523
894.308	9401
894.43	9435
894.552	9622
894.674	9584
894.796	9412
894.918	9496
895.04	9428
895.161	9397
895.283	9412
895.405	9230
895.526	9325
895.648	9207
895.769	9283
895.891	9230
896.012	9306
896.134	9264
896.255	9180
896.376	9142
896.498	9180
896.619	9131
896.74	9138
896.861	9108
896.982	9256
897.103	9310
897.224	9199
897.345	9108
897.466	9043
897.587	8941
897.708	9108
897.828	9055
897.949	8925
898.07	8861
898.19	8929
898.311	9070
898.431	8902
898.552	8975
898.672	8948
898.792	8933
898.913	8880
899.033	8815
899.153	8731
899.273	8670
899.393	8693
899.513	8762
899.633	8724
899.753	8731
899.873	8731
899.993	8792
900.113	8648
900.232	8750
900.352	8678
900.472	8549
900.591	8568
900.711	8636
900.83	8541
900.95	8625
901.069	8659
901.189	8526
901.308	8423
901.427	8385
901.546	8480
901.665	8480
901.784	8518
901.904	8358
902.023	8328
902.141	8317
902.26	8294
902.379	8256
902.498	8168
902.617	8199
902.735	8313
902.854	8244
902.973	8290
903.091	8187
903.21	8145
903.328	8130
903.446	8180
903.565	8058
903.683	8100
903.801	8016
903.919	8073
904.038	8123
904.156	8031
904.274	8039
904.392	7963
904.51	8062
904.627	8088
904.745	8069
904.863	8088
904.981	7936
905.098	7856
905.216	7902
905.334	7913
905.451	7906
905.569	7906
905.686	7970
905.803	7940
905.921	7814
906.038	7780
906.155	7788
906.272	7738
906.389	7738
906.506	7651
906.623	7693
906.74	7597
906.857	7563
906.974	7601
907.091	7658
907.208	7715
907.324	7567
907.441	7620
907.557	7502
907.674	7422
907.79	7422
907.907	7419
908.023	7502
908.139	7453
908.256	7346
908.372	7441
908.488	7316
908.604	7320
908.72	7324
908.836	7213
908.952	7278
909.068	7255
909.184	7289
909.3	7263
909.415	7282
909.531	7324
909.647	7080
909.762	7141
909.878	7114
909.993	7099
910.108	7168
910.224	7080
910.339	7133
910.454	7019
910.57	6996
910.685	7004
910.8	7133
910.915	7168
911.03	6958
911.145	7015
911.259	6897
911.374	6878
911.489	6920
911.604	6821
911.718	6738
911.833	6692
911.947	6635
912.062	6658
912.176	6688
912.291	6719
912.405	6696
912.519	6818
912.633	6806
912.748	6715
912.862	6715
912.976	6616
913.09	6578
913.204	6593
913.318	6612
913.431	6688
913.545	6665
913.659	6700
913.772	6601
913.886	6559
914	6551
914.113	6642
914.226	6635
914.34	6623
914.453	6517
914.566	6585
914.68	6513
914.793	6563
914.906	6422
915.019	6418
915.132	6372
915.245	6414
915.358	6486
915.47	6506
915.583	6460
915.696	6479
915.809	6513
915.921	6506
916.034	6460
916.146	6448
916.259	6380
916.371	6483
916.483	6452
916.595	6376
916.708	6384
916.82	6448
916.932	6391
917.044	6426
917.156	6433
917.268	6365
917.38	6407
917.491	6296
917.603	6369
917.715	6391
917.826	6445
917.938	6308
918.049	6182
918.161	6350
918.272	6418
918.384	6422
918.495	6331
918.606	6315
918.717	6235
918.828	6247
918.939	6361
919.05	6220
919.161	6266
919.272	6175
919.383	6201
919.494	6296
919.604	6372
919.715	6247
919.826	6262
919.936	6266
920.047	6361
920.157	6300
920.267	6445
920.378	6353
920.488	6308
920.598	6479
920.708	6540
920.818	6426
920.928	6460
921.038	6601
921.148	6578
921.258	6338
921.368	6315
921.477	6194
921.587	6171
921.697	6133
921.806	6182
921.916	6106
922.025	5920
922.134	5923
922.244	5942
922.353	5954
922.462	5882
922.571	5813
922.68	5665
922.789	5668
922.898	5710
923.007	5691
923.116	5733
923.224	5680
923.333	5684
923.442	5661
923.55	5535
923.659	5547
923.767	5714
923.876	5532
923.984	5585
924.092	5532
924.201	5577
924.309	5589
924.417	5539
924.525	5512
924.633	5501
924.741	6285
924.849	5398
924.956	5535
925.064	5357
925.172	5284
925.279	5315
925.387	5372
925.494	5326
925.602	5452
925.709	5433
925.816	5303
925.924	5334
926.031	5376
926.138	5307
926.245	5395
926.352	5261
926.459	5341
926.566	5334
926.673	5258
926.779	5151
926.886	5105
926.993	5060
927.099	5006
927.206	4980
927.312	4984
927.419	5033
927.525	4968
927.631	4976
927.737	4862
927.843	4858
927.95	4786
928.056	4828
928.162	4809
928.267	4854
928.373	5429
928.479	4850
928.585	4664
928.69	4763
928.796	4866
928.901	4698
929.007	4645
929.112	4656
929.218	4653
929.323	4611
929.428	4584
929.533	4668
929.638	4485
929.743	4538
929.848	4554
929.953	4485
930.058	4470
930.163	4348
930.267	4360
930.372	4478
930.477	4299
930.581	4462
930.685	4379
930.79	4299
930.894	4276
930.998	4276
931.103	4386
931.207	4154
931.311	4074
931.415	4002
931.519	3953
931.623	3964
