Data from glass_V78500241_2750.txt Node
Date: Wed Sep 01 19:33:33 CST 2021
User: usil
Spectrometer: V785-0024
Trigger mode: 0
Integration Time (sec): 4.000000E-1
Scans to average: 1
Nonlinearity correction enabled: false
Boxcar width: 0
Storing dark spectrum: false
XAxis mode: Wavelengths
Number of Pixels in Spectrum: 1024
>>>>>Begin Spectral Data<<<<<
801.071	3701
801.214	3701
801.356	3732
801.499	3736
801.641	3679
801.783	3751
801.926	3835
802.068	3797
802.211	3827
802.353	3880
802.496	3831
802.638	3876
802.78	3880
802.923	3956
803.065	3846
803.208	3865
803.35	3880
803.492	3869
803.635	3892
803.777	3800
803.919	3876
804.061	4086
804.204	3975
804.346	3911
804.488	3888
804.63	4017
804.773	3960
804.915	4013
805.057	4097
805.199	3991
805.341	4097
805.483	4131
805.626	4093
805.768	4124
805.91	4192
806.052	4196
806.194	4181
806.336	4287
806.478	4207
806.62	4147
806.762	4173
806.904	4249
807.046	4299
807.188	4196
807.33	4185
807.472	4246
807.614	4200
807.756	4188
807.898	4204
808.04	4196
808.182	4261
808.324	4295
808.465	4329
808.607	4413
808.749	4409
808.891	4462
809.033	4489
809.174	4341
809.316	4177
809.458	4223
809.6	4120
809.741	4086
809.883	4139
810.025	4211
810.166	4215
810.308	4207
810.45	4219
810.591	4227
810.733	4272
810.875	4474
811.016	4778
811.158	5128
811.299	5284
811.441	5288
811.582	5098
811.724	4687
811.865	4462
812.007	4516
812.148	4409
812.29	4421
812.431	4421
812.573	4390
812.714	4367
812.855	4383
812.997	4428
813.138	4447
813.279	4394
813.421	4367
813.562	4367
813.703	4325
813.845	4306
813.986	4211
814.127	4223
814.268	4238
814.41	4261
814.551	4280
814.692	4303
814.833	4234
814.974	4261
815.115	4280
815.256	4242
815.397	4230
815.539	4257
815.68	4181
815.821	4246
815.962	4322
816.103	4238
816.244	4230
816.385	4219
816.526	4242
816.666	4223
816.807	4093
816.948	4124
817.089	4147
817.23	4067
817.371	4032
817.512	4051
817.653	4067
817.793	4021
817.934	4036
818.075	4063
818.216	4048
818.356	4082
818.497	4013
818.638	3922
818.778	3907
818.919	3884
819.06	3880
819.2	3918
819.341	3823
819.481	3793
819.622	3880
819.762	3991
819.903	3975
820.043	3835
820.184	3797
820.324	3770
820.465	3888
820.605	3869
820.746	3850
820.886	3778
821.026	3915
821.167	3884
821.307	3937
821.447	3975
821.588	3953
821.728	3934
821.868	3941
822.008	3812
822.149	3865
822.289	3915
822.429	3804
822.569	3797
822.709	3736
822.849	3622
822.99	3705
823.13	3732
823.27	3766
823.41	3682
823.55	3743
823.69	3690
823.83	3743
823.97	3652
824.11	3557
824.25	3561
824.389	3610
824.529	3652
824.669	3622
824.809	3709
824.949	3698
825.089	3762
825.228	3679
825.368	3545
825.508	3542
825.648	3519
825.787	3603
825.927	3633
826.067	3622
826.206	3667
826.346	3816
826.485	3819
826.625	3861
826.765	3884
826.904	3800
827.044	3618
827.183	3488
827.323	3405
827.462	3488
827.601	3416
827.741	3401
827.88	3454
828.02	3355
828.159	3439
828.298	3443
828.437	3511
828.577	3462
828.716	3584
828.855	3523
828.994	3344
829.134	3306
829.273	3348
829.412	3355
829.551	3310
829.69	3355
829.829	3389
829.968	3481
830.107	3416
830.246	3412
830.385	3332
830.524	3344
830.663	3283
830.802	3256
830.941	3165
831.08	3199
831.219	3253
831.357	3230
831.496	3397
831.635	3192
831.774	3161
831.913	3180
832.051	3066
832.19	3116
832.329	3188
832.467	3108
832.606	3112
832.744	3135
832.883	3150
833.022	3154
833.16	3256
833.299	3253
833.437	3310
833.576	3317
833.714	3412
833.852	3397
833.991	3428
834.129	3492
834.267	3416
834.406	3374
834.544	3412
834.682	3386
834.821	3370
834.959	3572
835.097	3389
835.235	3523
835.373	3488
835.511	3473
835.65	3439
835.788	3466
835.926	3389
836.064	3367
836.202	3439
836.34	3564
836.478	3584
836.615	3504
836.753	3561
836.891	3622
837.029	3618
837.167	3553
837.305	3507
837.443	3545
837.58	3466
837.718	3599
837.856	3549
837.993	3481
838.131	3625
838.269	3564
838.406	3599
838.544	3568
838.681	3420
838.819	3409
838.956	3382
839.094	3374
839.231	3424
839.369	3500
839.506	3713
839.643	3637
839.781	3538
839.918	3435
840.055	3481
840.193	3466
840.33	3511
840.467	3553
840.604	3591
840.742	3793
840.879	3542
841.016	3572
841.153	3561
841.29	3701
841.427	3701
841.564	3675
841.701	3720
841.838	3686
841.975	3679
842.112	3720
842.249	3641
842.385	3595
842.522	3789
842.659	3652
842.796	3637
842.933	3667
843.069	3694
843.206	3667
843.343	3755
843.479	3781
843.616	3819
843.752	3686
843.889	3656
844.025	3835
844.162	3679
844.298	3793
844.435	3759
844.571	3778
844.708	3888
844.844	3915
844.98	3998
845.117	3987
845.253	3896
845.389	3861
845.525	3941
845.661	3926
845.798	3903
845.934	4010
846.07	3937
846.206	4055
846.342	4101
846.478	4059
846.614	3991
846.75	3903
846.886	3903
847.022	4029
847.158	3960
847.294	3991
847.429	4002
847.565	3926
847.701	4234
847.837	3876
847.972	3869
848.108	3926
848.244	3979
848.379	3861
848.515	3797
848.65	3747
848.786	3842
848.921	3846
849.057	3926
849.192	3922
849.328	3896
849.463	3915
849.598	3857
849.734	3884
849.869	3804
850.004	3789
850.14	3766
850.275	3770
850.41	3713
850.545	3740
850.68	3751
850.815	3759
850.95	3770
851.085	3922
851.22	3846
851.355	3846
851.49	3789
851.625	3778
851.76	3759
851.895	3705
852.03	3667
852.165	3793
852.299	3846
852.434	3903
852.569	3857
852.703	3880
852.838	3911
852.973	3975
853.107	3979
853.242	3876
853.376	3823
853.511	3766
853.645	3827
853.78	3964
853.914	3907
854.048	3842
854.183	3857
854.317	3926
854.451	4013
854.585	3998
854.72	3926
854.854	4040
854.988	3907
855.122	4021
855.256	3880
855.39	3964
855.524	4044
855.658	4063
855.792	4143
855.926	4090
856.06	4173
856.194	4223
856.327	4150
856.461	4150
856.595	4124
856.729	4128
856.862	4265
856.996	4242
857.13	4265
857.263	4356
857.397	4348
857.53	4303
857.664	4344
857.797	4325
857.931	4424
858.064	4371
858.197	4424
858.331	4348
858.464	4386
858.597	4329
858.731	4379
858.864	4428
858.997	4417
859.13	4550
859.263	4565
859.396	4554
859.529	4538
859.662	4519
859.795	4493
859.928	4599
860.061	4675
860.194	4706
860.327	4649
860.46	4630
860.592	4714
860.725	4698
860.858	4752
860.99	4683
861.123	4626
861.256	4592
861.388	4771
861.521	5296
861.653	4736
861.786	4729
861.918	4725
862.05	4748
862.183	4820
862.315	4915
862.447	4915
862.58	4866
862.712	4698
862.844	4748
862.976	4812
863.108	4892
863.24	5208
863.372	4850
863.504	4896
863.636	4904
863.768	4953
863.9	4896
864.032	4881
864.164	4911
864.296	4995
864.428	5060
864.559	5090
864.691	5102
864.823	5159
864.954	5075
865.086	5128
865.217	5102
865.349	5067
865.48	5140
865.612	5147
865.743	5318
865.875	5212
866.006	5162
866.137	5185
866.269	5223
866.4	5231
866.531	5239
866.662	5235
866.793	5246
866.924	5280
867.055	5379
867.186	5299
867.317	5303
867.448	5334
867.579	5391
867.71	5341
867.841	5360
867.972	5459
868.103	5429
868.233	5535
868.364	5528
868.495	5558
868.625	5646
868.756	5764
868.886	5668
869.017	5718
869.147	5844
869.278	5851
869.408	5760
869.539	5885
869.669	5851
869.799	5897
869.929	6003
870.06	5984
870.19	6186
870.32	6144
870.45	6243
870.58	6384
870.71	6437
870.84	6460
870.97	6380
871.1	6376
871.23	6639
871.36	6703
871.489	6627
871.619	6734
871.749	6787
871.879	6875
872.008	6935
872.138	6932
872.267	6924
872.397	6966
872.526	7046
872.656	7065
872.785	7160
872.915	7369
873.044	7491
873.173	7540
873.303	7601
873.432	7784
873.561	7879
873.69	7845
873.819	7978
873.948	8134
874.077	8263
874.206	8347
874.335	8431
874.464	8621
874.593	8845
874.722	8963
874.851	9089
874.979	9135
875.108	9363
875.237	9408
875.365	9389
875.494	9637
875.623	9823
875.751	9793
875.88	10021
876.008	10036
876.136	10257
876.265	10523
876.393	10687
876.521	10755
876.65	10774
876.778	10885
876.906	10892
877.034	10961
877.162	11064
877.29	11166
877.418	11395
877.546	11368
877.674	11410
877.802	11444
877.93	11467
878.058	11543
878.185	11577
878.313	11600
878.441	11737
878.568	11615
878.696	11836
878.824	11786
878.951	11912
879.079	11984
879.206	12190
879.333	12110
879.461	11904
879.588	12095
879.715	12076
879.842	12167
879.97	12026
880.097	11912
880.224	11878
880.351	11893
880.478	11863
880.605	11843
880.732	11874
880.859	11984
880.986	11794
881.112	11912
881.239	11752
881.366	11570
881.493	11592
881.619	11547
881.746	11528
881.872	11520
881.999	11391
882.125	11467
882.252	11520
882.378	11490
882.505	11604
882.631	11322
882.757	11296
882.883	11231
883.01	11220
883.136	11220
883.262	11151
883.388	11056
883.514	11151
883.64	11109
883.766	11105
883.892	11006
884.018	10965
884.143	11025
884.269	11094
884.395	10774
884.52	10759
884.646	10729
884.772	10725
884.897	10565
885.023	10721
885.148	10774
885.274	10668
885.399	10710
885.524	10580
885.65	10573
885.775	10656
885.9	10569
886.025	10558
886.15	10508
886.275	10504
886.4	10310
886.525	10299
886.65	10303
886.775	10360
886.9	10417
887.025	10527
887.149	10360
887.274	10249
887.399	10147
887.523	10192
887.648	10086
887.773	10139
887.897	10219
888.021	10192
888.146	10105
888.27	10265
888.395	10173
888.519	10169
888.643	10154
888.767	10215
888.891	10112
889.015	10002
889.139	10078
889.263	9949
889.387	10055
889.511	10200
889.635	10074
889.759	9907
889.883	9991
890.006	9911
890.13	10128
890.254	9892
890.377	9922
890.501	9876
890.624	9861
890.748	9835
890.871	9789
890.995	9709
891.118	9641
891.241	9732
891.364	9736
891.488	9869
891.611	9648
891.734	9713
891.857	9694
891.98	9656
892.103	9698
892.226	9698
892.349	9629
892.471	9553
892.594	9606
892.717	9530
892.839	9591
892.962	9561
893.085	9637
893.207	9564
893.33	9458
893.452	9519
893.575	9618
893.697	9393
893.819	9606
893.941	9633
894.064	9572
894.186	9363
894.308	9378
894.43	9553
894.552	9564
894.674	9473
894.796	9310
894.918	9389
895.04	9359
895.161	9329
895.283	9344
895.405	9192
895.526	9192
895.648	9211
895.769	9249
895.891	9283
896.012	9325
896.134	9249
896.255	9268
896.376	9097
896.498	9097
896.619	9077
896.74	9089
896.861	9074
896.982	9264
897.103	9272
897.224	9157
897.345	9058
897.466	8948
897.587	9058
897.708	9032
897.828	9036
897.949	8891
898.07	8842
898.19	8921
898.311	8952
898.431	8845
898.552	8891
898.672	8937
898.792	8929
898.913	8868
899.033	8800
899.153	8693
899.273	8617
899.393	8819
899.513	8781
899.633	8701
899.753	8697
899.873	8640
899.993	8697
900.113	8674
900.232	8678
900.352	8659
900.472	8648
900.591	8533
900.711	8564
900.83	8514
900.95	8621
901.069	8716
901.189	8579
901.308	8396
901.427	8374
901.546	8423
901.665	8454
901.784	8522
901.904	8385
902.023	8355
902.141	8206
902.26	8199
902.379	8282
902.498	8157
902.617	8206
902.735	8305
902.854	8309
902.973	8347
903.091	8096
903.21	8149
903.328	8119
903.446	8092
903.565	8058
903.683	8088
903.801	8039
903.919	8039
904.038	8115
904.156	8031
904.274	8058
904.392	8081
904.51	8039
904.627	8065
904.745	8050
904.863	8050
904.981	7898
905.098	7887
905.216	7883
905.334	7875
905.451	7879
905.569	7811
905.686	7932
905.803	7925
905.921	7704
906.038	7890
906.155	7799
906.272	7696
906.389	7719
906.506	7556
906.623	7605
906.74	7563
906.857	7514
906.974	7571
907.091	7677
907.208	7685
907.324	7601
907.441	7563
907.557	7457
907.674	7422
907.79	7331
907.907	7381
908.023	7384
908.139	7369
908.256	7350
908.372	7305
908.488	7335
908.604	7320
908.72	7255
908.836	7247
908.952	7240
909.068	7244
909.184	7343
909.3	7213
909.415	7278
909.531	7270
909.647	7095
909.762	7076
909.878	7046
909.993	7141
910.108	7031
910.224	7053
910.339	6996
910.454	6996
910.57	6996
910.685	6962
910.8	7171
910.915	7050
911.03	7004
911.145	6875
911.259	6829
911.374	6886
911.489	6818
911.604	6798
911.718	6669
911.833	6768
911.947	6692
912.062	6635
912.176	6707
912.291	6700
912.405	6620
912.519	6768
912.633	6745
912.748	6703
912.862	6703
912.976	6623
913.09	6536
913.204	6635
913.318	6601
913.431	6703
913.545	6620
913.659	6654
913.772	6673
913.886	6597
914	6479
914.113	6559
914.226	6578
914.34	6650
914.453	6452
914.566	6563
914.68	6506
914.793	6528
914.906	6376
915.019	6380
915.132	6407
915.245	6418
915.358	6422
915.47	6448
915.583	6456
915.696	6441
915.809	6517
915.921	6486
916.034	6418
916.146	6433
916.259	6376
916.371	6460
916.483	6486
916.595	6357
916.708	6353
916.82	6376
916.932	6346
917.044	6353
917.156	6380
917.268	6292
917.38	6285
917.491	6300
917.603	6376
917.715	6395
917.826	6414
917.938	6289
918.049	6266
918.161	6304
918.272	6388
918.384	6445
918.495	6213
918.606	6197
918.717	6190
918.828	6281
918.939	6346
919.05	6167
919.161	6220
919.272	6114
919.383	6144
919.494	6228
919.604	6426
919.715	6239
919.826	6167
919.936	6239
920.047	6353
920.157	6281
920.267	6429
920.378	6323
920.488	6235
920.598	6422
920.708	6525
920.818	6502
920.928	6471
921.038	6574
921.148	6551
921.258	6334
921.368	6270
921.477	6197
921.587	6194
921.697	6049
921.806	6175
921.916	6030
922.025	5931
922.134	5927
922.244	5889
922.353	5969
922.462	5832
922.571	5824
922.68	5718
922.789	5680
922.898	5745
923.007	5646
923.116	5630
923.224	5649
923.333	5566
923.442	5630
923.55	5596
923.659	5509
923.767	5566
923.876	5573
923.984	5562
924.092	5493
924.201	5520
924.309	5497
924.417	5512
924.525	5497
924.633	5493
924.741	6285
924.849	5345
924.956	5474
925.064	5311
925.172	5246
925.279	5303
925.387	5311
925.494	5303
925.602	5421
925.709	5322
925.816	5307
925.924	5303
926.031	5353
926.138	5284
926.245	5345
926.352	5220
926.459	5315
926.566	5349
926.673	5242
926.779	5162
926.886	5090
926.993	5045
927.099	4976
927.206	4965
927.312	4976
927.419	4934
927.525	4919
927.631	4984
927.737	4885
927.843	4812
927.95	4771
928.056	4778
928.162	4797
928.267	4824
928.373	5353
928.479	4843
928.585	4645
928.69	4759
928.796	4790
928.901	4653
929.007	4580
929.112	4668
929.218	4607
929.323	4592
929.428	4542
929.533	4687
929.638	4489
929.743	4546
929.848	4550
929.953	4531
930.058	4398
930.163	4322
930.267	4341
930.372	4409
930.477	4276
930.581	4447
930.685	4333
930.79	4211
930.894	4295
930.998	4242
931.103	4398
931.207	4071
931.311	4086
931.415	4025
931.519	3915
931.623	3945
