Data from glass_V78500241_2735.txt Node
Date: Wed Sep 01 19:33:27 CST 2021
User: usil
Spectrometer: V785-0024
Trigger mode: 0
Integration Time (sec): 4.000000E-1
Scans to average: 1
Nonlinearity correction enabled: false
Boxcar width: 0
Storing dark spectrum: false
XAxis mode: Wavelengths
Number of Pixels in Spectrum: 1024
>>>>>Begin Spectral Data<<<<<
801.071	3717
801.214	3755
801.356	3701
801.499	3740
801.641	3713
801.783	3781
801.926	3808
802.068	3800
802.211	3854
802.353	3854
802.496	3808
802.638	3899
802.78	3926
802.923	3907
803.065	3888
803.208	3846
803.35	3907
803.492	3892
803.635	3934
803.777	3808
803.919	3899
804.061	4109
804.204	3922
804.346	3934
804.488	3926
804.63	4017
804.773	3968
804.915	4010
805.057	4147
805.199	3979
805.341	4101
805.483	4067
805.626	4078
805.768	4086
805.91	4185
806.052	4192
806.194	4204
806.336	4367
806.478	4181
806.62	4147
806.762	4177
806.904	4204
807.046	4344
807.188	4185
807.33	4131
807.472	4230
807.614	4166
807.756	4249
807.898	4200
808.04	4188
808.182	4287
808.324	4295
808.465	4344
808.607	4413
808.749	4390
808.891	4417
809.033	4500
809.174	4367
809.316	4272
809.458	4200
809.6	4124
809.741	4116
809.883	4124
810.025	4162
810.166	4246
810.308	4234
810.45	4280
810.591	4253
810.733	4249
810.875	4538
811.016	4847
811.158	5132
811.299	5242
811.441	5277
811.582	5067
811.724	4645
811.865	4455
812.007	4451
812.148	4428
812.29	4398
812.431	4390
812.573	4375
812.714	4348
812.855	4375
812.997	4443
813.138	4474
813.279	4398
813.421	4348
813.562	4386
813.703	4287
813.845	4246
813.986	4265
814.127	4242
814.268	4234
814.41	4246
814.551	4265
814.692	4322
814.833	4253
814.974	4284
815.115	4325
815.256	4227
815.397	4200
815.539	4246
815.68	4128
815.821	4204
815.962	4303
816.103	4272
816.244	4238
816.385	4204
816.526	4337
816.666	4207
816.807	4071
816.948	4196
817.089	4177
817.23	4139
817.371	4090
817.512	4044
817.653	4074
817.793	4036
817.934	4013
818.075	4074
818.216	4055
818.356	4074
818.497	3930
818.638	3869
818.778	3892
818.919	3846
819.06	3842
819.2	3865
819.341	3816
819.481	3831
819.622	3854
819.762	4032
819.903	3915
820.043	3831
820.184	3778
820.324	3808
820.465	3861
820.605	3842
820.746	3846
820.886	3789
821.026	3896
821.167	3873
821.307	3991
821.447	3983
821.588	3941
821.728	3964
821.868	3911
822.008	3850
822.149	3899
822.289	3918
822.429	3728
822.569	3751
822.709	3800
822.849	3690
822.99	3667
823.13	3766
823.27	3781
823.41	3682
823.55	3732
823.69	3720
823.83	3728
823.97	3690
824.11	3576
824.25	3549
824.389	3641
824.529	3641
824.669	3584
824.809	3709
824.949	3743
825.089	3709
825.228	3705
825.368	3553
825.508	3500
825.648	3564
825.787	3599
825.927	3591
826.067	3622
826.206	3633
826.346	3789
826.485	3846
826.625	3838
826.765	3949
826.904	3842
827.044	3614
827.183	3526
827.323	3412
827.462	3447
827.601	3439
827.741	3389
827.88	3420
828.02	3336
828.159	3428
828.298	3473
828.437	3500
828.577	3488
828.716	3580
828.855	3469
828.994	3359
829.134	3367
829.273	3389
829.412	3313
829.551	3329
829.69	3355
829.829	3435
829.968	3488
830.107	3443
830.246	3382
830.385	3370
830.524	3374
830.663	3291
830.802	3253
830.941	3176
831.08	3188
831.219	3264
831.357	3279
831.496	3393
831.635	3203
831.774	3195
831.913	3176
832.051	3119
832.19	3150
832.329	3222
832.467	3150
832.606	3112
832.744	3116
832.883	3150
833.022	3165
833.16	3214
833.299	3306
833.437	3351
833.576	3370
833.714	3401
833.852	3420
833.991	3420
834.129	3477
834.267	3409
834.406	3329
834.544	3431
834.682	3397
834.821	3382
834.959	3595
835.097	3378
835.235	3481
835.373	3435
835.511	3485
835.65	3435
835.788	3477
835.926	3340
836.064	3355
836.202	3397
836.34	3549
836.478	3580
836.615	3549
836.753	3538
836.891	3595
837.029	3580
837.167	3584
837.305	3553
837.443	3534
837.58	3496
837.718	3595
837.856	3530
837.993	3485
838.131	3629
838.269	3591
838.406	3545
838.544	3530
838.681	3439
838.819	3435
838.956	3355
839.094	3420
839.231	3439
839.369	3481
839.506	3728
839.643	3629
839.781	3485
839.918	3450
840.055	3466
840.193	3496
840.33	3504
840.467	3526
840.604	3584
840.742	3785
840.879	3538
841.016	3511
841.153	3587
841.29	3732
841.427	3694
841.564	3717
841.701	3656
841.838	3667
841.975	3667
842.112	3747
842.249	3622
842.385	3618
842.522	3781
842.659	3663
842.796	3663
842.933	3713
843.069	3671
843.206	3652
843.343	3774
843.479	3740
843.616	3800
843.752	3656
843.889	3652
844.025	3873
844.162	3717
844.298	3838
844.435	3755
844.571	3785
844.708	3880
844.844	3975
844.98	4021
845.117	3994
845.253	3896
845.389	3892
845.525	3968
845.661	3949
845.798	3911
845.934	3972
846.07	3911
846.206	4074
846.342	4055
846.478	4013
846.614	3941
846.75	3937
846.886	3880
847.022	4029
847.158	4021
847.294	3934
847.429	4048
847.565	3998
847.701	4196
847.837	3854
847.972	3838
848.108	3972
848.244	3934
848.379	3812
848.515	3816
848.65	3808
848.786	3819
848.921	3831
849.057	3899
849.192	3949
849.328	3827
849.463	3926
849.598	3873
849.734	3869
849.869	3816
850.004	3781
850.14	3789
850.275	3774
850.41	3705
850.545	3736
850.68	3743
850.815	3736
850.95	3808
851.085	3911
851.22	3823
851.355	3812
851.49	3740
851.625	3778
851.76	3797
851.895	3709
852.03	3682
852.165	3793
852.299	3850
852.434	3884
852.569	3888
852.703	3819
852.838	3896
852.973	3941
853.107	3994
853.242	3888
853.376	3865
853.511	3755
853.645	3808
853.78	3979
853.914	3896
854.048	3930
854.183	3850
854.317	3915
854.451	4044
854.585	3979
854.72	3918
854.854	4044
854.988	3960
855.122	3994
855.256	3899
855.39	3975
855.524	4055
855.658	4067
855.792	4074
855.926	4120
856.06	4150
856.194	4242
856.327	4181
856.461	4147
856.595	4112
856.729	4154
856.862	4204
856.996	4219
857.13	4284
857.263	4295
857.397	4314
857.53	4287
857.664	4344
857.797	4383
857.931	4394
858.064	4383
858.197	4417
858.331	4371
858.464	4398
858.597	4337
858.731	4375
858.864	4447
858.997	4421
859.13	4470
859.263	4573
859.396	4577
859.529	4527
859.662	4554
859.795	4485
859.928	4569
860.061	4752
860.194	4733
860.327	4611
860.46	4637
860.592	4656
860.725	4736
860.858	4771
860.99	4702
861.123	4649
861.256	4649
861.388	4755
861.521	5277
861.653	4744
861.786	4611
861.918	4736
862.05	4801
862.183	4782
862.315	4892
862.447	4927
862.58	4843
862.712	4812
862.844	4759
862.976	4866
863.108	4847
863.24	5250
863.372	4786
863.504	4889
863.636	4873
863.768	4968
863.9	4946
864.032	4934
864.164	4965
864.296	5022
864.428	5025
864.559	5052
864.691	5086
864.823	5124
864.954	5071
865.086	5128
865.217	5075
865.349	5048
865.48	5124
865.612	5159
865.743	5261
865.875	5193
866.006	5094
866.137	5227
866.269	5231
866.4	5227
866.531	5174
866.662	5193
866.793	5212
866.924	5227
867.055	5318
867.186	5315
867.317	5303
867.448	5296
867.579	5345
867.71	5372
867.841	5368
867.972	5402
868.103	5433
868.233	5490
868.364	5421
868.495	5539
868.625	5653
868.756	5741
868.886	5646
869.017	5756
869.147	5824
869.278	5805
869.408	5760
869.539	5802
869.669	5912
869.799	5832
869.929	5965
870.06	5969
870.19	6155
870.32	6133
870.45	6266
870.58	6376
870.71	6448
870.84	6429
870.97	6426
871.1	6426
871.23	6658
871.36	6677
871.489	6658
871.619	6726
871.749	6791
871.879	6867
872.008	6924
872.138	6951
872.267	7008
872.397	6947
872.526	7034
872.656	7091
872.785	7202
872.915	7346
873.044	7472
873.173	7499
873.303	7601
873.432	7700
873.561	7811
873.69	7890
873.819	7970
873.948	8149
874.077	8233
874.206	8336
874.335	8370
874.464	8636
874.593	8754
874.722	8918
874.851	9119
874.979	9233
875.108	9329
875.237	9462
875.365	9469
875.494	9580
875.623	9835
875.751	9838
875.88	9960
876.008	10169
876.136	10253
876.265	10535
876.393	10698
876.521	10714
876.65	10790
876.778	10923
876.906	10839
877.034	10930
877.162	11067
877.29	11170
877.418	11292
877.546	11311
877.674	11417
877.802	11478
877.93	11547
878.058	11573
878.185	11566
878.313	11741
878.441	11718
878.568	11691
878.696	11767
878.824	11847
878.951	11866
879.079	11961
879.206	12041
879.333	12064
879.461	11935
879.588	12083
879.715	11999
879.842	12190
879.97	11965
880.097	11908
880.224	11931
880.351	11859
880.478	11901
880.605	11832
880.732	11805
880.859	12098
880.986	11832
881.112	11847
881.239	11737
881.366	11695
881.493	11573
881.619	11516
881.746	11490
881.872	11547
881.999	11512
882.125	11547
882.252	11551
882.378	11440
882.505	11585
882.631	11391
882.757	11318
882.883	11269
883.01	11235
883.136	11185
883.262	11102
883.388	11041
883.514	11223
883.64	11170
883.766	11064
883.892	10949
884.018	10980
884.143	11098
884.269	11041
884.395	10835
884.52	10733
884.646	10755
884.772	10706
884.897	10694
885.023	10641
885.148	10698
885.274	10755
885.399	10649
885.524	10599
885.65	10546
885.775	10523
885.9	10508
886.025	10561
886.15	10527
886.275	10436
886.4	10398
886.525	10394
886.65	10356
886.775	10310
886.9	10432
887.025	10481
887.149	10367
887.274	10185
887.399	10238
887.523	10177
887.648	10131
887.773	10135
887.897	10150
888.021	10181
888.146	10067
888.27	10200
888.395	10253
888.519	10139
888.643	10147
888.767	10173
888.891	10051
889.015	9975
889.139	10055
889.263	9991
889.387	10090
889.511	10150
889.635	9979
889.759	9918
889.883	9998
890.006	9964
890.13	10071
890.254	9964
890.377	9972
890.501	9842
890.624	9888
890.748	9922
890.871	9800
890.995	9694
891.118	9679
891.241	9720
891.364	9759
891.488	9740
891.611	9705
891.734	9656
891.857	9770
891.98	9743
892.103	9766
892.226	9660
892.349	9614
892.471	9511
892.594	9591
892.717	9580
892.839	9587
892.962	9622
893.085	9671
893.207	9538
893.33	9549
893.452	9511
893.575	9534
893.697	9485
893.819	9667
893.941	9599
894.064	9660
894.186	9443
894.308	9359
894.43	9561
894.552	9500
894.674	9549
894.796	9294
894.918	9405
895.04	9351
895.161	9294
895.283	9386
895.405	9230
895.526	9218
895.648	9230
895.769	9218
895.891	9237
896.012	9226
896.134	9226
896.255	9161
896.376	9081
896.498	9032
896.619	9093
896.74	9070
896.861	9081
896.982	9218
897.103	9313
897.224	9131
897.345	9074
897.466	8956
897.587	9024
897.708	9028
897.828	9032
897.949	8910
898.07	8887
898.19	8853
898.311	9009
898.431	8902
898.552	8925
898.672	8872
898.792	8902
898.913	8872
899.033	8697
899.153	8701
899.273	8583
899.393	8689
899.513	8735
899.633	8746
899.753	8773
899.873	8625
899.993	8708
900.113	8648
900.232	8724
900.352	8625
900.472	8568
900.591	8533
900.711	8518
900.83	8514
900.95	8644
901.069	8746
901.189	8594
901.308	8438
901.427	8446
901.546	8423
901.665	8431
901.784	8476
901.904	8377
902.023	8366
902.141	8248
902.26	8172
902.379	8252
902.498	8210
902.617	8259
902.735	8301
902.854	8187
902.973	8233
903.091	8084
903.21	8149
903.328	8077
903.446	8210
903.565	8073
903.683	7997
903.801	8035
903.919	8172
904.038	8145
904.156	8065
904.274	8077
904.392	8031
904.51	8103
904.627	8008
904.745	8081
904.863	8092
904.981	7868
905.098	7833
905.216	7898
905.334	7932
905.451	7845
905.569	7818
905.686	7913
905.803	7849
905.921	7795
906.038	7830
906.155	7731
906.272	7609
906.389	7712
906.506	7662
906.623	7552
906.74	7658
906.857	7544
906.974	7518
907.091	7689
907.208	7700
907.324	7639
907.441	7552
907.557	7434
907.674	7407
907.79	7384
907.907	7381
908.023	7422
908.139	7396
908.256	7327
908.372	7324
908.488	7377
908.604	7297
908.72	7179
908.836	7282
908.952	7278
909.068	7213
909.184	7305
909.3	7179
909.415	7270
909.531	7259
909.647	7099
909.762	7053
909.878	7057
909.993	7145
910.108	7076
910.224	7065
910.339	7095
910.454	7042
910.57	6954
910.685	6951
910.8	7088
910.915	7061
911.03	6989
911.145	6935
911.259	6844
911.374	6856
911.489	6848
911.604	6818
911.718	6696
911.833	6703
911.947	6654
912.062	6574
912.176	6681
912.291	6692
912.405	6658
912.519	6764
912.633	6768
912.748	6703
912.862	6642
912.976	6601
913.09	6574
913.204	6601
913.318	6616
913.431	6707
913.545	6669
913.659	6738
913.772	6650
913.886	6551
914	6570
914.113	6631
914.226	6578
914.34	6601
914.453	6521
914.566	6593
914.68	6502
914.793	6528
914.906	6418
915.019	6384
915.132	6365
915.245	6433
915.358	6433
915.47	6467
915.583	6486
915.696	6498
915.809	6528
915.921	6490
916.034	6369
916.146	6418
916.259	6334
916.371	6433
916.483	6464
916.595	6372
916.708	6372
916.82	6384
916.932	6353
917.044	6304
917.156	6433
917.268	6254
917.38	6342
917.491	6232
917.603	6327
917.715	6346
917.826	6410
917.938	6342
918.049	6228
918.161	6277
918.272	6403
918.384	6422
918.495	6300
918.606	6224
918.717	6228
918.828	6213
918.939	6258
919.05	6175
919.161	6254
919.272	6133
919.383	6110
919.494	6304
919.604	6407
919.715	6232
919.826	6152
919.936	6262
920.047	6353
920.157	6277
920.267	6395
920.378	6281
920.488	6292
920.598	6494
920.708	6490
920.818	6445
920.928	6426
921.038	6623
921.148	6582
921.258	6281
921.368	6281
921.477	6178
921.587	6197
921.697	6060
921.806	6163
921.916	6026
922.025	5889
922.134	5878
922.244	5882
922.353	5939
922.462	5813
922.571	5844
922.68	5627
922.789	5676
922.898	5684
923.007	5604
923.116	5653
923.224	5657
923.333	5657
923.442	5558
923.55	5566
923.659	5532
923.767	5623
923.876	5501
923.984	5611
924.092	5463
924.201	5532
924.309	5539
924.417	5585
924.525	5452
924.633	5478
924.741	6262
924.849	5364
924.956	5455
925.064	5334
925.172	5292
925.279	5277
925.387	5318
925.494	5326
925.602	5436
925.709	5398
925.816	5216
925.924	5307
926.031	5318
926.138	5280
926.245	5326
926.352	5174
926.459	5277
926.566	5326
926.673	5201
926.779	5132
926.886	5075
926.993	5029
927.099	4961
927.206	4930
927.312	4957
927.419	4965
927.525	4938
927.631	5006
927.737	4831
927.843	4866
927.95	4744
928.056	4820
928.162	4839
928.267	4797
928.373	5303
928.479	4843
928.585	4687
928.69	4793
928.796	4782
928.901	4645
929.007	4611
929.112	4622
929.218	4618
929.323	4596
929.428	4512
929.533	4664
929.638	4485
929.743	4542
929.848	4561
929.953	4516
930.058	4443
930.163	4352
930.267	4333
930.372	4398
930.477	4272
930.581	4402
930.685	4363
930.79	4234
930.894	4219
930.998	4223
931.103	4383
931.207	4071
931.311	4101
931.415	4029
931.519	3918
931.623	3926
