Data from glass_V78500241_424.txt Node
Date: Wed Sep 01 19:17:26 CST 2021
User: usil
Spectrometer: V785-0024
Trigger mode: 0
Integration Time (sec): 4.000000E-1
Scans to average: 1
Nonlinearity correction enabled: false
Boxcar width: 0
Storing dark spectrum: false
XAxis mode: Wavelengths
Number of Pixels in Spectrum: 1024
>>>>>Begin Spectral Data<<<<<
801.071	3747
801.214	3785
801.356	3728
801.499	3751
801.641	3743
801.783	3793
801.926	3937
802.068	3812
802.211	3888
802.353	3907
802.496	3896
802.638	3884
802.78	3911
802.923	3941
803.065	3964
803.208	3918
803.35	3869
803.492	3953
803.635	3911
803.777	3857
803.919	3903
804.061	4173
804.204	3968
804.346	3941
804.488	3911
804.63	4048
804.773	3972
804.915	4067
805.057	4162
805.199	4082
805.341	4109
805.483	4143
805.626	4150
805.768	4131
805.91	4234
806.052	4299
806.194	4185
806.336	4348
806.478	4261
806.62	4200
806.762	4200
806.904	4272
807.046	4306
807.188	4215
807.33	4150
807.472	4253
807.614	4219
807.756	4306
807.898	4207
808.04	4238
808.182	4322
808.324	4356
808.465	4363
808.607	4493
808.749	4440
808.891	4485
809.033	4474
809.174	4428
809.316	4284
809.458	4287
809.6	4158
809.741	4154
809.883	4143
810.025	4173
810.166	4257
810.308	4257
810.45	4314
810.591	4272
810.733	4329
810.875	4493
811.016	4797
811.158	5121
811.299	5299
811.441	5292
811.582	5079
811.724	4744
811.865	4440
812.007	4421
812.148	4383
812.29	4436
812.431	4394
812.573	4447
812.714	4386
812.855	4428
812.997	4383
813.138	4512
813.279	4428
813.421	4417
813.562	4402
813.703	4322
813.845	4329
813.986	4204
814.127	4219
814.268	4295
814.41	4280
814.551	4238
814.692	4310
814.833	4249
814.974	4352
815.115	4356
815.256	4261
815.397	4261
815.539	4329
815.68	4200
815.821	4249
815.962	4341
816.103	4276
816.244	4234
816.385	4242
816.526	4306
816.666	4211
816.807	4135
816.948	4169
817.089	4200
817.23	4131
817.371	4051
817.512	4071
817.653	4097
817.793	4067
817.934	4032
818.075	4093
818.216	4124
818.356	4101
818.497	4006
818.638	3907
818.778	3915
818.919	3934
819.06	3888
819.2	3915
819.341	3842
819.481	3846
819.622	3911
819.762	4044
819.903	3960
820.043	3884
820.184	3884
820.324	3831
820.465	3857
820.605	3880
820.746	3892
820.886	3838
821.026	3930
821.167	3934
821.307	3975
821.447	3972
821.588	3949
821.728	3953
821.868	3968
822.008	3930
822.149	3945
822.289	3975
822.429	3781
822.569	3781
822.709	3816
822.849	3690
822.99	3747
823.13	3778
823.27	3766
823.41	3751
823.55	3740
823.69	3766
823.83	3819
823.97	3698
824.11	3595
824.25	3648
824.389	3648
824.529	3701
824.669	3625
824.809	3701
824.949	3751
825.089	3747
825.228	3698
825.368	3564
825.508	3545
825.648	3549
825.787	3652
825.927	3663
826.067	3671
826.206	3686
826.346	3800
826.485	3857
826.625	3896
826.765	3975
826.904	3850
827.044	3644
827.183	3568
827.323	3462
827.462	3481
827.601	3405
827.741	3439
827.88	3443
828.02	3389
828.159	3462
828.298	3507
828.437	3568
828.577	3477
828.716	3629
828.855	3454
828.994	3389
829.134	3374
829.273	3409
829.412	3348
829.551	3363
829.69	3351
829.829	3504
829.968	3523
830.107	3450
830.246	3466
830.385	3405
830.524	3386
830.663	3325
830.802	3245
830.941	3218
831.08	3203
831.219	3283
831.357	3249
831.496	3450
831.635	3272
831.774	3218
831.913	3180
832.051	3097
832.19	3161
832.329	3192
832.467	3108
832.606	3116
832.744	3169
832.883	3207
833.022	3214
833.16	3264
833.299	3359
833.437	3363
833.576	3382
833.714	3389
833.852	3412
833.991	3481
834.129	3477
834.267	3462
834.406	3367
834.544	3439
834.682	3378
834.821	3428
834.959	3545
835.097	3431
835.235	3568
835.373	3500
835.511	3534
835.65	3466
835.788	3523
835.926	3439
836.064	3416
836.202	3412
836.34	3526
836.478	3652
836.615	3572
836.753	3553
836.891	3622
837.029	3667
837.167	3625
837.305	3618
837.443	3530
837.58	3523
837.718	3618
837.856	3576
837.993	3530
838.131	3618
838.269	3603
838.406	3576
838.544	3587
838.681	3481
838.819	3500
838.956	3401
839.094	3386
839.231	3439
839.369	3496
839.506	3743
839.643	3641
839.781	3485
839.918	3496
840.055	3568
840.193	3576
840.33	3564
840.467	3584
840.604	3614
840.742	3800
840.879	3526
841.016	3580
841.153	3591
841.29	3766
841.427	3732
841.564	3740
841.701	3774
841.838	3720
841.975	3709
842.112	3720
842.249	3644
842.385	3648
842.522	3827
842.659	3720
842.796	3709
842.933	3701
843.069	3759
843.206	3694
843.343	3819
843.479	3854
843.616	3861
843.752	3698
843.889	3724
844.025	3819
844.162	3736
844.298	3861
844.435	3793
844.571	3812
844.708	3907
844.844	4063
844.98	4059
845.117	4067
845.253	3953
845.389	3915
845.525	4013
845.661	3956
845.798	3930
845.934	4029
846.07	3934
846.206	4067
846.342	4147
846.478	4063
846.614	3983
846.75	3956
846.886	3934
847.022	4071
847.158	3987
847.294	4021
847.429	4063
847.565	4013
847.701	4211
847.837	3911
847.972	3892
848.108	4044
848.244	4021
848.379	3896
848.515	3846
848.65	3827
848.786	3827
848.921	3915
849.057	3968
849.192	3998
849.328	3899
849.463	3937
849.598	3865
849.734	3842
849.869	3854
850.004	3785
850.14	3857
850.275	3785
850.41	3755
850.545	3713
850.68	3743
850.815	3816
850.95	3812
851.085	3911
851.22	3907
851.355	3816
851.49	3789
851.625	3816
851.76	3789
851.895	3747
852.03	3717
852.165	3850
852.299	3835
852.434	3926
852.569	3842
852.703	3880
852.838	3941
852.973	3979
853.107	4002
853.242	3918
853.376	3884
853.511	3789
853.645	3857
853.78	3991
853.914	3918
854.048	3903
854.183	3857
854.317	3953
854.451	4048
854.585	4006
854.72	3983
854.854	4101
854.988	3956
855.122	3983
855.256	3934
855.39	4002
855.524	4120
855.658	4071
855.792	4101
855.926	4139
856.06	4150
856.194	4219
856.327	4196
856.461	4143
856.595	4135
856.729	4200
856.862	4291
856.996	4238
857.13	4291
857.263	4360
857.397	4371
857.53	4261
857.664	4379
857.797	4375
857.931	4443
858.064	4455
858.197	4459
858.331	4402
858.464	4394
858.597	4398
858.731	4405
858.864	4481
858.997	4489
859.13	4535
859.263	4603
859.396	4615
859.529	4558
859.662	4554
859.795	4497
859.928	4630
860.061	4702
860.194	4763
860.327	4683
860.46	4683
860.592	4778
860.725	4812
860.858	4778
860.99	4710
861.123	4710
861.256	4698
861.388	4744
861.521	5425
861.653	4744
861.786	4774
861.918	4755
862.05	4778
862.183	4927
862.315	4900
862.447	4942
862.58	4911
862.712	4816
862.844	4774
862.976	4923
863.108	4900
863.24	5227
863.372	4858
863.504	4938
863.636	4885
863.768	5041
863.9	4953
864.032	4915
864.164	4980
864.296	5067
864.428	5090
864.559	5098
864.691	5124
864.823	5086
864.954	5041
865.086	5193
865.217	5124
865.349	5174
865.48	5178
865.612	5254
865.743	5315
865.875	5254
866.006	5220
866.137	5292
866.269	5220
866.4	5220
866.531	5235
866.662	5220
866.793	5261
866.924	5307
867.055	5383
867.186	5334
867.317	5311
867.448	5299
867.579	5421
867.71	5421
867.841	5429
867.972	5520
868.103	5532
868.233	5520
868.364	5596
868.495	5512
868.625	5653
868.756	5729
868.886	5680
869.017	5783
869.147	5889
869.278	5840
869.408	5790
869.539	5847
869.669	5931
869.799	5923
869.929	6015
870.06	6049
870.19	6163
870.32	6182
870.45	6232
870.58	6338
870.71	6388
870.84	6513
870.97	6441
871.1	6452
871.23	6665
871.36	6719
871.489	6722
871.619	6738
871.749	6776
871.879	6863
872.008	7038
872.138	6977
872.267	6966
872.397	7000
872.526	6973
872.656	7114
872.785	7194
872.915	7369
873.044	7571
873.173	7563
873.303	7658
873.432	7757
873.561	7898
873.69	7894
873.819	8043
873.948	8168
874.077	8271
874.206	8358
874.335	8446
874.464	8651
874.593	8906
874.722	8941
874.851	9112
874.979	9230
875.108	9355
875.237	9370
875.365	9485
875.494	9667
875.623	9895
875.751	9907
875.88	10021
876.008	10158
876.136	10299
876.265	10497
876.393	10714
876.521	10736
876.65	10782
876.778	10911
876.906	10949
877.034	11041
877.162	11197
877.29	11155
877.418	11345
877.546	11391
877.674	11471
877.802	11463
877.93	11524
878.058	11604
878.185	11520
878.313	11695
878.441	11733
878.568	11619
878.696	11805
878.824	11912
878.951	11897
879.079	11950
879.206	12171
879.333	12007
879.461	12053
879.588	12136
879.715	12136
879.842	12258
879.97	12060
880.097	11828
880.224	11874
880.351	11824
880.478	11904
880.605	11927
880.732	11710
880.859	12102
880.986	11802
881.112	11836
881.239	11710
881.366	11668
881.493	11680
881.619	11524
881.746	11581
881.872	11528
881.999	11490
882.125	11448
882.252	11509
882.378	11501
882.505	11562
882.631	11414
882.757	11288
882.883	11330
883.01	11280
883.136	11143
883.262	11147
883.388	11132
883.514	11208
883.64	11121
883.766	11174
883.892	10965
884.018	10984
884.143	11022
884.269	11121
884.395	10786
884.52	10774
884.646	10839
884.772	10767
884.897	10683
885.023	10664
885.148	10778
885.274	10729
885.399	10736
885.524	10558
885.65	10615
885.775	10618
885.9	10588
886.025	10550
886.15	10538
886.275	10519
886.4	10363
886.525	10447
886.65	10379
886.775	10360
886.9	10447
887.025	10596
887.149	10428
887.274	10306
887.399	10169
887.523	10112
887.648	10120
887.773	10177
887.897	10200
888.021	10249
888.146	10185
888.27	10200
888.395	10200
888.519	10173
888.643	10188
888.767	10246
888.891	10086
889.015	10059
889.139	10112
889.263	9998
889.387	10017
889.511	10135
889.635	10059
889.759	9983
889.883	9956
890.006	10040
890.13	10147
890.254	9945
890.377	9964
890.501	9888
890.624	9915
890.748	9930
890.871	9804
890.995	9728
891.118	9724
891.241	9827
891.364	9797
891.488	9793
891.611	9736
891.734	9740
891.857	9823
891.98	9679
892.103	9838
892.226	9675
892.349	9660
892.471	9545
892.594	9641
892.717	9633
892.839	9679
892.962	9637
893.085	9709
893.207	9580
893.33	9492
893.452	9504
893.575	9629
893.697	9553
893.819	9682
893.941	9667
894.064	9652
894.186	9401
894.308	9393
894.43	9606
894.552	9584
894.674	9542
894.796	9367
894.918	9458
895.04	9329
895.161	9382
895.283	9355
895.405	9332
895.526	9310
895.648	9272
895.769	9268
895.891	9230
896.012	9233
896.134	9211
896.255	9188
896.376	9161
896.498	9154
896.619	9184
896.74	9024
896.861	9070
896.982	9268
897.103	9367
897.224	9195
897.345	9039
897.466	8979
897.587	9047
897.708	9108
897.828	8918
897.949	8941
898.07	8842
898.19	8979
898.311	9062
898.431	8906
898.552	9024
898.672	8967
898.792	8937
898.913	8910
899.033	8746
899.153	8769
899.273	8701
899.393	8754
899.513	8746
899.633	8773
899.753	8724
899.873	8697
899.993	8788
900.113	8746
900.232	8720
900.352	8636
900.472	8655
900.591	8602
900.711	8606
900.83	8530
900.95	8716
901.069	8758
901.189	8541
901.308	8423
901.427	8339
901.546	8484
901.665	8427
901.784	8537
901.904	8412
902.023	8358
902.141	8199
902.26	8221
902.379	8351
902.498	8244
902.617	8244
902.735	8339
902.854	8370
902.973	8286
903.091	8081
903.21	8164
903.328	8225
903.446	8092
903.565	8107
903.683	8103
903.801	8084
903.919	8138
904.038	8107
904.156	8031
904.274	8043
904.392	8001
904.51	8039
904.627	8069
904.745	8050
904.863	8123
904.981	7902
905.098	7879
905.216	7890
905.334	7902
905.451	7902
905.569	7860
905.686	7913
905.803	7970
905.921	7864
906.038	7936
906.155	7784
906.272	7765
906.389	7746
906.506	7628
906.623	7636
906.74	7605
906.857	7578
906.974	7578
907.091	7658
907.208	7734
907.324	7685
907.441	7590
907.557	7556
907.674	7487
907.79	7365
907.907	7312
908.023	7419
908.139	7419
908.256	7373
908.372	7411
908.488	7430
908.604	7274
908.72	7251
908.836	7244
908.952	7247
909.068	7247
909.184	7350
909.3	7251
909.415	7285
909.531	7289
909.647	7126
909.762	7164
909.878	7099
909.993	7149
910.108	7126
910.224	7095
910.339	7095
910.454	7038
910.57	7015
910.685	6958
910.8	7213
910.915	7122
911.03	7080
911.145	6920
911.259	6878
911.374	6932
911.489	6886
911.604	6833
911.718	6650
911.833	6764
911.947	6654
912.062	6616
912.176	6715
912.291	6662
912.405	6688
912.519	6848
912.633	6859
912.748	6745
912.862	6673
912.976	6597
913.09	6559
913.204	6639
913.318	6574
913.431	6665
913.545	6639
913.659	6692
913.772	6642
913.886	6658
914	6589
914.113	6631
914.226	6623
914.34	6650
914.453	6517
914.566	6608
914.68	6490
914.793	6517
914.906	6426
915.019	6452
915.132	6376
915.245	6448
915.358	6437
915.47	6407
915.583	6479
915.696	6467
915.809	6517
915.921	6528
916.034	6448
916.146	6410
916.259	6399
916.371	6490
916.483	6418
916.595	6448
916.708	6403
916.82	6433
916.932	6384
917.044	6388
917.156	6418
917.268	6350
917.38	6365
917.491	6346
917.603	6331
917.715	6407
917.826	6471
917.938	6281
918.049	6311
918.161	6376
918.272	6407
918.384	6471
918.495	6353
918.606	6331
918.717	6232
918.828	6315
918.939	6262
919.05	6201
919.161	6308
919.272	6140
919.383	6186
919.494	6338
919.604	6445
919.715	6300
919.826	6232
919.936	6235
920.047	6346
920.157	6258
920.267	6471
920.378	6277
920.488	6304
920.598	6467
920.708	6547
920.818	6448
920.928	6475
921.038	6631
921.148	6612
921.258	6403
921.368	6308
921.477	6258
921.587	6186
921.697	6114
921.806	6136
921.916	6102
922.025	5935
922.134	5904
922.244	5863
922.353	5954
922.462	5832
922.571	5844
922.68	5707
922.789	5672
922.898	5741
923.007	5577
923.116	5684
923.224	5672
923.333	5707
923.442	5543
923.55	5589
923.659	5638
923.767	5634
923.876	5543
923.984	5653
924.092	5486
924.201	5547
924.309	5509
924.417	5539
924.525	5471
924.633	5459
924.741	6292
924.849	5387
924.956	5501
925.064	5398
925.172	5307
925.279	5288
925.387	5379
925.494	5357
925.602	5433
925.709	5410
925.816	5326
925.924	5360
926.031	5387
926.138	5334
926.245	5326
926.352	5239
926.459	5337
926.566	5357
926.673	5231
926.779	5121
926.886	5132
926.993	5075
927.099	4999
927.206	5022
927.312	4934
927.419	5048
927.525	4961
927.631	4987
927.737	4911
927.843	4870
927.95	4782
928.056	4805
928.162	4786
928.267	4854
928.373	5231
928.479	4889
928.585	4691
928.69	4748
928.796	4828
928.901	4744
929.007	4565
929.112	4714
929.218	4668
929.323	4603
929.428	4531
929.533	4637
929.638	4523
929.743	4550
929.848	4584
929.953	4516
930.058	4462
930.163	4310
930.267	4360
930.372	4421
930.477	4314
930.581	4455
930.685	4379
930.79	4238
930.894	4291
930.998	4238
931.103	4398
931.207	4185
931.311	4063
931.415	4013
931.519	3956
931.623	3949
