Data from glass_V78500241_2697.txt Node
Date: Wed Sep 01 19:33:11 CST 2021
User: usil
Spectrometer: V785-0024
Trigger mode: 0
Integration Time (sec): 4.000000E-1
Scans to average: 1
Nonlinearity correction enabled: false
Boxcar width: 0
Storing dark spectrum: false
XAxis mode: Wavelengths
Number of Pixels in Spectrum: 1024
>>>>>Begin Spectral Data<<<<<
801.071	3698
801.214	3778
801.356	3701
801.499	3740
801.641	3701
801.783	3709
801.926	3854
802.068	3793
802.211	3854
802.353	3880
802.496	3835
802.638	3835
802.78	3899
802.923	3922
803.065	3857
803.208	3850
803.35	3846
803.492	3896
803.635	3865
803.777	3747
803.919	3896
804.061	4143
804.204	3945
804.346	3964
804.488	3953
804.63	3998
804.773	3991
804.915	4025
805.057	4150
805.199	4036
805.341	4055
805.483	4135
805.626	4147
805.768	4101
805.91	4173
806.052	4234
806.194	4188
806.336	4363
806.478	4200
806.62	4150
806.762	4200
806.904	4215
807.046	4287
807.188	4215
807.33	4169
807.472	4196
807.614	4188
807.756	4227
807.898	4181
808.04	4177
808.182	4272
808.324	4329
808.465	4337
808.607	4451
808.749	4447
808.891	4462
809.033	4459
809.174	4348
809.316	4253
809.458	4253
809.6	4124
809.741	4162
809.883	4109
810.025	4238
810.166	4230
810.308	4223
810.45	4261
810.591	4204
810.733	4272
810.875	4538
811.016	4831
811.158	5094
811.299	5265
811.441	5315
811.582	5018
811.724	4710
811.865	4455
812.007	4447
812.148	4424
812.29	4424
812.431	4402
812.573	4379
812.714	4375
812.855	4375
812.997	4386
813.138	4462
813.279	4386
813.421	4367
813.562	4386
813.703	4348
813.845	4253
813.986	4249
814.127	4181
814.268	4230
814.41	4238
814.551	4249
814.692	4314
814.833	4246
814.974	4272
815.115	4333
815.256	4234
815.397	4249
815.539	4227
815.68	4154
815.821	4173
815.962	4318
816.103	4272
816.244	4219
816.385	4173
816.526	4265
816.666	4242
816.807	4082
816.948	4192
817.089	4143
817.23	4116
817.371	4059
817.512	4010
817.653	4055
817.793	4025
817.934	3979
818.075	4086
818.216	4063
818.356	4040
818.497	3934
818.638	3922
818.778	3907
818.919	3888
819.06	3835
819.2	3945
819.341	3892
819.481	3823
819.622	3869
819.762	3964
819.903	3911
820.043	3861
820.184	3812
820.324	3781
820.465	3850
820.605	3854
820.746	3892
820.886	3755
821.026	3937
821.167	3865
821.307	3998
821.447	3979
821.588	3907
821.728	3926
821.868	3975
822.008	3831
822.149	3930
822.289	3888
822.429	3774
822.569	3747
822.709	3819
822.849	3713
822.99	3705
823.13	3740
823.27	3789
823.41	3690
823.55	3682
823.69	3724
823.83	3747
823.97	3663
824.11	3622
824.25	3564
824.389	3633
824.529	3599
824.669	3622
824.809	3724
824.949	3751
825.089	3747
825.228	3690
825.368	3580
825.508	3580
825.648	3564
825.787	3576
825.927	3599
826.067	3606
826.206	3641
826.346	3785
826.485	3819
826.625	3850
826.765	3937
826.904	3854
827.044	3625
827.183	3511
827.323	3428
827.462	3431
827.601	3420
827.741	3409
827.88	3431
828.02	3336
828.159	3443
828.298	3428
828.437	3564
828.577	3435
828.716	3599
828.855	3450
828.994	3378
829.134	3359
829.273	3344
829.412	3355
829.551	3325
829.69	3359
829.829	3389
829.968	3553
830.107	3420
830.246	3424
830.385	3382
830.524	3344
830.663	3325
830.802	3226
830.941	3173
831.08	3199
831.219	3253
831.357	3245
831.496	3424
831.635	3260
831.774	3207
831.913	3184
832.051	3146
832.19	3169
832.329	3176
832.467	3119
832.606	3142
832.744	3184
832.883	3176
833.022	3192
833.16	3222
833.299	3344
833.437	3310
833.576	3355
833.714	3397
833.852	3401
833.991	3420
834.129	3454
834.267	3424
834.406	3374
834.544	3424
834.682	3382
834.821	3412
834.959	3549
835.097	3382
835.235	3519
835.373	3477
835.511	3462
835.65	3443
835.788	3473
835.926	3393
836.064	3329
836.202	3389
836.34	3515
836.478	3534
836.615	3534
836.753	3584
836.891	3641
837.029	3625
837.167	3534
837.305	3538
837.443	3500
837.58	3458
837.718	3557
837.856	3564
837.993	3504
838.131	3595
838.269	3545
838.406	3530
838.544	3549
838.681	3428
838.819	3424
838.956	3363
839.094	3367
839.231	3416
839.369	3485
839.506	3698
839.643	3663
839.781	3515
839.918	3485
840.055	3526
840.193	3519
840.33	3473
840.467	3564
840.604	3538
840.742	3804
840.879	3553
841.016	3538
841.153	3591
841.29	3789
841.427	3732
841.564	3690
841.701	3709
841.838	3717
841.975	3648
842.112	3717
842.249	3603
842.385	3641
842.522	3819
842.659	3663
842.796	3656
842.933	3679
843.069	3701
843.206	3717
843.343	3793
843.479	3759
843.616	3808
843.752	3690
843.889	3675
844.025	3857
844.162	3724
844.298	3846
844.435	3793
844.571	3766
844.708	3873
844.844	3979
844.98	4021
845.117	3998
845.253	3937
845.389	3876
845.525	3964
845.661	3903
845.798	3861
845.934	4002
846.07	3907
846.206	4059
846.342	4105
846.478	4055
846.614	3960
846.75	3934
846.886	3896
847.022	4044
847.158	3964
847.294	3998
847.429	4010
847.565	3994
847.701	4204
847.837	3865
847.972	3850
848.108	3953
848.244	3998
848.379	3781
848.515	3816
848.65	3774
848.786	3873
848.921	3850
849.057	3899
849.192	3899
849.328	3846
849.463	3915
849.598	3896
849.734	3846
849.869	3842
850.004	3781
850.14	3838
850.275	3774
850.41	3717
850.545	3778
850.68	3759
850.815	3869
850.95	3774
851.085	3896
851.22	3903
851.355	3789
851.49	3789
851.625	3770
851.76	3781
851.895	3740
852.03	3686
852.165	3770
852.299	3842
852.434	3880
852.569	3823
852.703	3880
852.838	3930
852.973	3979
853.107	3968
853.242	3857
853.376	3854
853.511	3751
853.645	3823
853.78	3937
853.914	3888
854.048	3869
854.183	3880
854.317	3918
854.451	4071
854.585	3918
854.72	3949
854.854	4036
854.988	3930
855.122	4002
855.256	3865
855.39	3987
855.524	4093
855.658	4059
855.792	4090
855.926	4120
856.06	4154
856.194	4169
856.327	4147
856.461	4131
856.595	4139
856.729	4150
856.862	4265
856.996	4196
857.13	4318
857.263	4299
857.397	4337
857.53	4265
857.664	4337
857.797	4375
857.931	4405
858.064	4383
858.197	4405
858.331	4417
858.464	4360
858.597	4379
858.731	4405
858.864	4481
858.997	4428
859.13	4474
859.263	4497
859.396	4588
859.529	4531
859.662	4504
859.795	4516
859.928	4592
860.061	4694
860.194	4744
860.327	4622
860.46	4691
860.592	4714
860.725	4778
860.858	4733
860.99	4656
861.123	4714
861.256	4668
861.388	4687
861.521	5261
861.653	4672
861.786	4740
861.918	4721
862.05	4790
862.183	4801
862.315	4873
862.447	4934
862.58	4881
862.712	4797
862.844	4710
862.976	4877
863.108	4843
863.24	5258
863.372	4850
863.504	4885
863.636	4908
863.768	4946
863.9	4965
864.032	4896
864.164	4919
864.296	5006
864.428	5052
864.559	5048
864.691	5098
864.823	5090
864.954	5090
865.086	5105
865.217	5098
865.349	5105
865.48	5117
865.612	5159
865.743	5284
865.875	5223
866.006	5155
866.137	5223
866.269	5235
866.4	5216
866.531	5212
866.662	5201
866.793	5242
866.924	5280
867.055	5341
867.186	5292
867.317	5383
867.448	5311
867.579	5376
867.71	5322
867.841	5421
867.972	5471
868.103	5497
868.233	5425
868.364	5486
868.495	5547
868.625	5672
868.756	5798
868.886	5684
869.017	5733
869.147	5874
869.278	5840
869.408	5779
869.539	5802
869.669	5882
869.799	5878
869.929	6015
870.06	6053
870.19	6220
870.32	6224
870.45	6228
870.58	6300
870.71	6391
870.84	6433
870.97	6376
871.1	6403
871.23	6646
871.36	6646
871.489	6642
871.619	6779
871.749	6768
871.879	6829
872.008	6924
872.138	6996
872.267	6966
872.397	6943
872.526	6996
872.656	7080
872.785	7145
872.915	7381
873.044	7552
873.173	7502
873.303	7624
873.432	7719
873.561	7837
873.69	7871
873.819	7989
873.948	8164
874.077	8286
874.206	8351
874.335	8374
874.464	8667
874.593	8891
874.722	8998
874.851	9116
874.979	9173
875.108	9389
875.237	9378
875.365	9447
875.494	9656
875.623	9812
875.751	9831
875.88	9994
876.008	10086
876.136	10238
876.265	10588
876.393	10744
876.521	10740
876.65	10786
876.778	10828
876.906	10927
877.034	10957
877.162	11094
877.29	11143
877.418	11315
877.546	11280
877.674	11539
877.802	11505
877.93	11501
878.058	11589
878.185	11596
878.313	11630
878.441	11699
878.568	11668
878.696	11779
878.824	11809
878.951	11950
879.079	12015
879.206	12121
879.333	12068
879.461	12030
879.588	12060
879.715	12019
879.842	12262
879.97	12091
880.097	11874
880.224	11863
880.351	11836
880.478	11901
880.605	11786
880.732	11843
880.859	11992
880.986	11714
881.112	11802
881.239	11714
881.366	11623
881.493	11570
881.619	11543
881.746	11661
881.872	11551
881.999	11490
882.125	11421
882.252	11452
882.378	11596
882.505	11528
882.631	11425
882.757	11341
882.883	11288
883.01	11201
883.136	11181
883.262	11083
883.388	10991
883.514	11143
883.64	11151
883.766	11162
883.892	11006
884.018	10942
884.143	10991
884.269	11113
884.395	10919
884.52	10759
884.646	10835
884.772	10706
884.897	10664
885.023	10641
885.148	10767
885.274	10778
885.399	10656
885.524	10637
885.65	10607
885.775	10580
885.9	10531
886.025	10550
886.15	10504
886.275	10500
886.4	10379
886.525	10421
886.65	10394
886.775	10325
886.9	10447
887.025	10497
887.149	10394
887.274	10185
887.399	10227
887.523	10177
887.648	10124
887.773	10044
887.897	10135
888.021	10196
888.146	10097
888.27	10261
888.395	10192
888.519	10227
888.643	10154
888.767	10196
888.891	10002
889.015	9987
889.139	9964
889.263	9994
889.387	10017
889.511	10055
889.635	10120
889.759	9983
889.883	9987
890.006	9991
890.13	10021
890.254	9918
890.377	9975
890.501	9888
890.624	9869
890.748	9819
890.871	9804
890.995	9755
891.118	9759
891.241	9747
891.364	9789
891.488	9800
891.611	9701
891.734	9728
891.857	9717
891.98	9762
892.103	9759
892.226	9747
892.349	9644
892.471	9458
892.594	9572
892.717	9614
892.839	9526
892.962	9633
893.085	9610
893.207	9690
893.33	9511
893.452	9492
893.575	9595
893.697	9458
893.819	9599
893.941	9671
894.064	9553
894.186	9462
894.308	9401
894.43	9466
894.552	9614
894.674	9462
894.796	9370
894.918	9351
895.04	9340
895.161	9378
895.283	9317
895.405	9226
895.526	9253
895.648	9294
895.769	9249
895.891	9245
896.012	9253
896.134	9226
896.255	9211
896.376	9150
896.498	9131
896.619	9154
896.74	9051
896.861	9154
896.982	9283
897.103	9249
897.224	9138
897.345	9077
897.466	8963
897.587	9032
897.708	9036
897.828	9051
897.949	8887
898.07	8830
898.19	8880
898.311	8971
898.431	8857
898.552	8826
898.672	8998
898.792	9009
898.913	8891
899.033	8861
899.153	8727
899.273	8632
899.393	8731
899.513	8773
899.633	8670
899.753	8773
899.873	8716
899.993	8712
900.113	8731
900.232	8678
900.352	8632
900.472	8556
900.591	8454
900.711	8522
900.83	8556
900.95	8724
901.069	8712
901.189	8556
901.308	8438
901.427	8400
901.546	8396
901.665	8530
901.784	8499
901.904	8374
902.023	8351
902.141	8195
902.26	8233
902.379	8294
902.498	8199
902.617	8214
902.735	8267
902.854	8294
902.973	8282
903.091	8164
903.21	8073
903.328	8172
903.446	8073
903.565	8088
903.683	8073
903.801	8050
903.919	8073
904.038	8172
904.156	8077
904.274	8050
904.392	7951
904.51	8020
904.627	8039
904.745	8050
904.863	8039
904.981	7898
905.098	7788
905.216	7864
905.334	7875
905.451	7928
905.569	7852
905.686	7955
905.803	7913
905.921	7776
906.038	7826
906.155	7780
906.272	7769
906.389	7708
906.506	7632
906.623	7601
906.74	7594
906.857	7548
906.974	7613
907.091	7628
907.208	7723
907.324	7655
907.441	7609
907.557	7468
907.674	7407
907.79	7434
907.907	7411
908.023	7480
908.139	7415
908.256	7392
908.372	7426
908.488	7293
908.604	7244
908.72	7232
908.836	7324
908.952	7270
909.068	7213
909.184	7285
909.3	7244
909.415	7225
909.531	7263
909.647	7091
909.762	7141
909.878	7046
909.993	7118
910.108	7118
910.224	7015
910.339	7046
910.454	7038
910.57	7034
910.685	6909
910.8	7149
910.915	7080
911.03	7012
911.145	6871
911.259	6909
911.374	6909
911.489	6779
911.604	6791
911.718	6703
911.833	6749
911.947	6692
912.062	6616
912.176	6707
912.291	6734
912.405	6707
912.519	6821
912.633	6825
912.748	6707
912.862	6673
912.976	6604
913.09	6566
913.204	6585
913.318	6620
913.431	6631
913.545	6741
913.659	6749
913.772	6566
913.886	6612
914	6513
914.113	6604
914.226	6654
914.34	6620
914.453	6418
914.566	6612
914.68	6547
914.793	6563
914.906	6410
915.019	6433
915.132	6422
915.245	6380
915.358	6429
915.47	6429
915.583	6448
915.696	6422
915.809	6509
915.921	6536
916.034	6395
916.146	6384
916.259	6342
916.371	6494
916.483	6456
916.595	6407
916.708	6399
916.82	6369
916.932	6334
917.044	6391
917.156	6353
917.268	6311
917.38	6308
917.491	6266
917.603	6334
917.715	6388
917.826	6342
917.938	6289
918.049	6232
918.161	6273
918.272	6448
918.384	6429
918.495	6308
918.606	6228
918.717	6205
918.828	6277
918.939	6338
919.05	6190
919.161	6213
919.272	6102
919.383	6098
919.494	6235
919.604	6391
919.715	6319
919.826	6197
919.936	6228
920.047	6289
920.157	6289
920.267	6429
920.378	6338
920.488	6300
920.598	6441
920.708	6494
920.818	6456
920.928	6471
921.038	6635
921.148	6479
921.258	6327
921.368	6334
921.477	6178
921.587	6167
921.697	6049
921.806	6175
921.916	6064
922.025	5912
922.134	5878
922.244	5847
922.353	5939
922.462	5844
922.571	5802
922.68	5699
922.789	5665
922.898	5737
923.007	5638
923.116	5695
923.224	5680
923.333	5668
923.442	5600
923.55	5592
923.659	5600
923.767	5585
923.876	5520
923.984	5611
924.092	5467
924.201	5524
924.309	5558
924.417	5551
924.525	5452
924.633	5512
924.741	6254
924.849	5345
924.956	5471
925.064	5372
925.172	5334
925.279	5299
925.387	5258
925.494	5303
925.602	5440
925.709	5372
925.816	5265
925.924	5269
926.031	5353
926.138	5292
926.245	5334
926.352	5254
926.459	5337
926.566	5345
926.673	5185
926.779	5140
926.886	5132
926.993	5056
927.099	4953
927.206	5018
927.312	4927
927.419	4984
927.525	4984
927.631	4972
927.737	4885
927.843	4870
927.95	4797
928.056	4828
928.162	4797
928.267	4900
928.373	5216
928.479	4850
928.585	4702
928.69	4771
928.796	4771
928.901	4668
929.007	4588
929.112	4668
929.218	4611
929.323	4630
929.428	4538
929.533	4683
929.638	4542
929.743	4538
929.848	4558
929.953	4455
930.058	4443
930.163	4303
930.267	4306
930.372	4440
930.477	4299
930.581	4417
930.685	4333
930.79	4265
930.894	4291
930.998	4238
931.103	4413
931.207	4090
931.311	4093
931.415	4032
931.519	3941
931.623	3949
