Data from glass_V78500241_1116.txt Node
Date: Wed Sep 01 19:22:14 CST 2021
User: usil
Spectrometer: V785-0024
Trigger mode: 0
Integration Time (sec): 4.000000E-1
Scans to average: 1
Nonlinearity correction enabled: false
Boxcar width: 0
Storing dark spectrum: false
XAxis mode: Wavelengths
Number of Pixels in Spectrum: 1024
>>>>>Begin Spectral Data<<<<<
801.071	3732
801.214	3759
801.356	3747
801.499	3740
801.641	3736
801.783	3812
801.926	3800
802.068	3827
802.211	3888
802.353	3869
802.496	3854
802.638	3896
802.78	3880
802.923	3934
803.065	3896
803.208	3857
803.35	3861
803.492	3903
803.635	3918
803.777	3850
803.919	3911
804.061	4166
804.204	3994
804.346	3983
804.488	3964
804.63	4021
804.773	3987
804.915	4032
805.057	4147
805.199	4074
805.341	4124
805.483	4173
805.626	4124
805.768	4124
805.91	4219
806.052	4242
806.194	4177
806.336	4344
806.478	4242
806.62	4196
806.762	4200
806.904	4310
807.046	4341
807.188	4249
807.33	4166
807.472	4272
807.614	4204
807.756	4295
807.898	4230
808.04	4227
808.182	4299
808.324	4329
808.465	4329
808.607	4478
808.749	4424
808.891	4470
809.033	4546
809.174	4405
809.316	4318
809.458	4291
809.6	4169
809.741	4181
809.883	4109
810.025	4227
810.166	4211
810.308	4249
810.45	4268
810.591	4223
810.733	4253
810.875	4580
811.016	4805
811.158	5124
811.299	5258
811.441	5284
811.582	5064
811.724	4725
811.865	4470
812.007	4466
812.148	4424
812.29	4413
812.431	4394
812.573	4348
812.714	4360
812.855	4489
812.997	4348
813.138	4466
813.279	4443
813.421	4363
813.562	4367
813.703	4329
813.845	4356
813.986	4284
814.127	4196
814.268	4295
814.41	4325
814.551	4246
814.692	4348
814.833	4257
814.974	4287
815.115	4325
815.256	4272
815.397	4204
815.539	4280
815.68	4158
815.821	4211
815.962	4276
816.103	4314
816.244	4265
816.385	4253
816.526	4284
816.666	4177
816.807	4101
816.948	4242
817.089	4211
817.23	4120
817.371	4048
817.512	4036
817.653	4048
817.793	4071
817.934	4040
818.075	4086
818.216	4105
818.356	4082
818.497	3972
818.638	3896
818.778	3903
818.919	3915
819.06	3869
819.2	3949
819.341	3865
819.481	3842
819.622	3930
819.762	4013
819.903	4002
820.043	3854
820.184	3835
820.324	3831
820.465	3865
820.605	3873
820.746	3857
820.886	3823
821.026	3922
821.167	3964
821.307	3953
821.447	4055
821.588	4006
821.728	3975
821.868	3918
822.008	3880
822.149	3922
822.289	3926
822.429	3774
822.569	3816
822.709	3831
822.849	3606
822.99	3709
823.13	3724
823.27	3808
823.41	3686
823.55	3747
823.69	3698
823.83	3770
823.97	3660
824.11	3599
824.25	3591
824.389	3614
824.529	3686
824.669	3641
824.809	3701
824.949	3785
825.089	3770
825.228	3675
825.368	3599
825.508	3564
825.648	3530
825.787	3622
825.927	3644
826.067	3656
826.206	3675
826.346	3774
826.485	3854
826.625	3888
826.765	3953
826.904	3838
827.044	3606
827.183	3549
827.323	3416
827.462	3515
827.601	3409
827.741	3439
827.88	3469
828.02	3397
828.159	3447
828.298	3462
828.437	3587
828.577	3469
828.716	3644
828.855	3545
828.994	3397
829.134	3351
829.273	3409
829.412	3355
829.551	3370
829.69	3393
829.829	3439
829.968	3485
830.107	3458
830.246	3454
830.385	3378
830.524	3344
830.663	3283
830.802	3291
830.941	3176
831.08	3233
831.219	3279
831.357	3291
831.496	3405
831.635	3241
831.774	3176
831.913	3226
832.051	3157
832.19	3154
832.329	3218
832.467	3142
832.606	3154
832.744	3146
832.883	3165
833.022	3222
833.16	3279
833.299	3298
833.437	3329
833.576	3401
833.714	3435
833.852	3450
833.991	3443
834.129	3469
834.267	3443
834.406	3431
834.544	3416
834.682	3428
834.821	3401
834.959	3599
835.097	3458
835.235	3557
835.373	3481
835.511	3511
835.65	3450
835.788	3462
835.926	3393
836.064	3409
836.202	3424
836.34	3587
836.478	3606
836.615	3549
836.753	3606
836.891	3690
837.029	3584
837.167	3610
837.305	3561
837.443	3542
837.58	3504
837.718	3618
837.856	3599
837.993	3561
838.131	3610
838.269	3591
838.406	3587
838.544	3587
838.681	3462
838.819	3473
838.956	3382
839.094	3420
839.231	3481
839.369	3564
839.506	3766
839.643	3656
839.781	3473
839.918	3496
840.055	3545
840.193	3564
840.33	3538
840.467	3587
840.604	3599
840.742	3842
840.879	3561
841.016	3572
841.153	3633
841.29	3694
841.427	3724
841.564	3709
841.701	3766
841.838	3698
841.975	3667
842.112	3762
842.249	3663
842.385	3625
842.522	3823
842.659	3686
842.796	3671
842.933	3743
843.069	3709
843.206	3705
843.343	3835
843.479	3797
843.616	3808
843.752	3694
843.889	3720
844.025	3865
844.162	3671
844.298	3831
844.435	3846
844.571	3762
844.708	3911
844.844	3979
844.98	4067
845.117	3998
845.253	3979
845.389	3907
845.525	3987
845.661	3964
845.798	3987
845.934	4021
846.07	3991
846.206	4090
846.342	4120
846.478	4086
846.614	3998
846.75	3960
846.886	3899
847.022	4036
847.158	4048
847.294	3998
847.429	4048
847.565	4021
847.701	4261
847.837	3930
847.972	3846
848.108	3998
848.244	3979
848.379	3861
848.515	3808
848.65	3835
848.786	3838
848.921	3857
849.057	3926
849.192	3926
849.328	3918
849.463	3953
849.598	3922
849.734	3876
849.869	3854
850.004	3774
850.14	3816
850.275	3804
850.41	3770
850.545	3785
850.68	3816
850.815	3800
850.95	3819
851.085	3964
851.22	3873
851.355	3800
851.49	3812
851.625	3781
851.76	3812
851.895	3743
852.03	3770
852.165	3812
852.299	3899
852.434	3888
852.569	3850
852.703	3846
852.838	3930
852.973	3983
853.107	3987
853.242	3934
853.376	3888
853.511	3766
853.645	3854
853.78	3972
853.914	3941
854.048	3922
854.183	3865
854.317	3930
854.451	4059
854.585	3968
854.72	3896
854.854	4093
854.988	3930
855.122	4029
855.256	3903
855.39	4040
855.524	4124
855.658	4109
855.792	4120
855.926	4158
856.06	4128
856.194	4173
856.327	4177
856.461	4143
856.595	4177
856.729	4204
856.862	4284
856.996	4268
857.13	4314
857.263	4356
857.397	4356
857.53	4295
857.664	4310
857.797	4432
857.931	4417
858.064	4390
858.197	4478
858.331	4390
858.464	4352
858.597	4265
858.731	4462
858.864	4485
858.997	4500
859.13	4546
859.263	4550
859.396	4577
859.529	4504
859.662	4546
859.795	4538
859.928	4649
860.061	4733
860.194	4710
860.327	4691
860.46	4645
860.592	4759
860.725	4774
860.858	4763
860.99	4721
861.123	4710
861.256	4691
861.388	4820
861.521	5425
861.653	4767
861.786	4687
861.918	4763
862.05	4774
862.183	4847
862.315	4900
862.447	4938
862.58	4900
862.712	4820
862.844	4801
862.976	4892
863.108	4885
863.24	5121
863.372	4805
863.504	4892
863.636	4866
863.768	4961
863.9	4949
864.032	4938
864.164	4991
864.296	5067
864.428	5094
864.559	5109
864.691	5185
864.823	5162
864.954	5102
865.086	5136
865.217	5098
865.349	5117
865.48	5181
865.612	5208
865.743	5227
865.875	5174
866.006	5151
866.137	5277
866.269	5273
866.4	5284
866.531	5303
866.662	5239
866.793	5288
866.924	5303
867.055	5307
867.186	5360
867.317	5353
867.448	5322
867.579	5436
867.71	5395
867.841	5398
867.972	5444
868.103	5478
868.233	5490
868.364	5509
868.495	5512
868.625	5649
868.756	5729
868.886	5653
869.017	5737
869.147	5851
869.278	5847
869.408	5847
869.539	5855
869.669	5946
869.799	5912
869.929	5984
870.06	6034
870.19	6239
870.32	6178
870.45	6266
870.58	6342
870.71	6422
870.84	6437
870.97	6464
871.1	6422
871.23	6677
871.36	6711
871.489	6692
871.619	6722
871.749	6852
871.879	6867
872.008	6951
872.138	7015
872.267	7050
872.397	6970
872.526	7019
872.656	7065
872.785	7213
872.915	7384
873.044	7556
873.173	7548
873.303	7655
873.432	7769
873.561	7814
873.69	7909
873.819	7989
873.948	8149
874.077	8259
874.206	8393
874.335	8469
874.464	8739
874.593	8861
874.722	8914
874.851	9169
874.979	9237
875.108	9416
875.237	9424
875.365	9462
875.494	9690
875.623	9804
875.751	9793
875.88	9975
876.008	10051
876.136	10337
876.265	10485
876.393	10717
876.521	10706
876.65	10862
876.778	10919
876.906	10828
877.034	11041
877.162	11117
877.29	11231
877.418	11292
877.546	11448
877.674	11444
877.802	11459
877.93	11512
878.058	11535
878.185	11547
878.313	11699
878.441	11855
878.568	11646
878.696	11809
878.824	11828
878.951	11908
879.079	12019
879.206	12178
879.333	12045
879.461	12007
879.588	12098
879.715	12155
879.842	12254
879.97	12129
880.097	11870
880.224	11828
880.351	11942
880.478	11821
880.605	11802
880.732	11836
880.859	11988
880.986	11741
881.112	11824
881.239	11699
881.366	11615
881.493	11630
881.619	11562
881.746	11646
881.872	11589
881.999	11562
882.125	11398
882.252	11554
882.378	11467
882.505	11505
882.631	11360
882.757	11307
882.883	11296
883.01	11326
883.136	11231
883.262	11147
883.388	11151
883.514	11102
883.64	11109
883.766	11109
883.892	11014
884.018	11090
884.143	11060
884.269	11052
884.395	10850
884.52	10885
884.646	10748
884.772	10645
884.897	10740
885.023	10653
885.148	10729
885.274	10771
885.399	10675
885.524	10592
885.65	10607
885.775	10615
885.9	10558
886.025	10546
886.15	10588
886.275	10466
886.4	10447
886.525	10390
886.65	10318
886.775	10337
886.9	10500
887.025	10550
887.149	10322
887.274	10238
887.399	10177
887.523	10135
887.648	10147
887.773	10200
887.897	10242
888.021	10303
888.146	10150
888.27	10257
888.395	10173
888.519	10257
888.643	10215
888.767	10143
888.891	10067
889.015	9975
889.139	9994
889.263	9949
889.387	10082
889.511	10063
889.635	10082
889.759	9953
889.883	9953
890.006	10040
890.13	10063
890.254	10048
890.377	9846
890.501	9922
890.624	9884
890.748	9895
890.871	9819
890.995	9831
891.118	9724
891.241	9736
891.364	9660
891.488	9850
891.611	9732
891.734	9797
891.857	9732
891.98	9686
892.103	9762
892.226	9709
892.349	9713
892.471	9481
892.594	9667
892.717	9595
892.839	9599
892.962	9595
893.085	9614
893.207	9576
893.33	9504
893.452	9519
893.575	9610
893.697	9511
893.819	9599
893.941	9675
894.064	9656
894.186	9435
894.308	9393
894.43	9481
894.552	9606
894.674	9572
894.796	9401
894.918	9382
895.04	9317
895.161	9389
895.283	9321
895.405	9272
895.526	9302
895.648	9275
895.769	9268
895.891	9253
896.012	9374
896.134	9272
896.255	9188
896.376	9173
896.498	9188
896.619	9112
896.74	9123
896.861	9089
896.982	9332
897.103	9268
897.224	9180
897.345	9077
897.466	9085
897.587	8998
897.708	9157
897.828	9020
897.949	8963
898.07	8845
898.19	8891
898.311	8979
898.431	8982
898.552	8979
898.672	8971
898.792	9013
898.913	8899
899.033	8792
899.153	8750
899.273	8648
899.393	8762
899.513	8788
899.633	8712
899.753	8720
899.873	8750
899.993	8807
900.113	8667
900.232	8705
900.352	8632
900.472	8568
900.591	8549
900.711	8629
900.83	8575
900.95	8617
901.069	8773
901.189	8686
901.308	8461
901.427	8434
901.546	8450
901.665	8434
901.784	8541
901.904	8400
902.023	8305
902.141	8229
902.26	8164
902.379	8279
902.498	8294
902.617	8252
902.735	8324
902.854	8366
902.973	8294
903.091	8107
903.21	8229
903.328	8206
903.446	8069
903.565	8058
903.683	8103
903.801	8054
903.919	8073
904.038	8164
904.156	8027
904.274	8046
904.392	8020
904.51	8016
904.627	8043
904.745	8107
904.863	8096
904.981	7890
905.098	7921
905.216	7898
905.334	7898
905.451	7883
905.569	7879
905.686	7955
905.803	7921
905.921	7803
906.038	7856
906.155	7799
906.272	7712
906.389	7822
906.506	7609
906.623	7670
906.74	7594
906.857	7567
906.974	7628
907.091	7715
907.208	7750
907.324	7620
907.441	7590
907.557	7464
907.674	7483
907.79	7369
907.907	7400
908.023	7430
908.139	7430
908.256	7308
908.372	7434
908.488	7343
908.604	7331
908.72	7236
908.836	7293
908.952	7236
909.068	7282
909.184	7346
909.3	7259
909.415	7301
909.531	7251
909.647	7046
909.762	7187
909.878	7110
909.993	7194
910.108	7190
910.224	7053
910.339	7187
910.454	7015
910.57	7004
910.685	6966
910.8	7209
910.915	7118
911.03	7061
911.145	6928
911.259	6920
911.374	6867
911.489	6848
911.604	6798
911.718	6692
911.833	6692
911.947	6658
912.062	6635
912.176	6673
912.291	6753
912.405	6684
912.519	6818
912.633	6814
912.748	6806
912.862	6703
912.976	6608
913.09	6532
913.204	6597
913.318	6631
913.431	6665
913.545	6665
913.659	6711
913.772	6684
913.886	6623
914	6570
914.113	6608
914.226	6635
914.34	6646
914.453	6502
914.566	6616
914.68	6506
914.793	6559
914.906	6467
915.019	6403
915.132	6388
915.245	6429
915.358	6426
915.47	6391
915.583	6452
915.696	6445
915.809	6506
915.921	6578
916.034	6429
916.146	6433
916.259	6403
916.371	6460
916.483	6448
916.595	6391
916.708	6391
916.82	6399
916.932	6365
917.044	6422
917.156	6399
917.268	6273
917.38	6365
917.491	6292
917.603	6311
917.715	6445
917.826	6437
917.938	6391
918.049	6213
918.161	6350
918.272	6452
918.384	6441
918.495	6376
918.606	6201
918.717	6190
918.828	6243
918.939	6323
919.05	6190
919.161	6224
919.272	6121
919.383	6152
919.494	6266
919.604	6391
919.715	6266
919.826	6251
919.936	6213
920.047	6350
920.157	6270
920.267	6475
920.378	6353
920.488	6296
920.598	6467
920.708	6555
920.818	6521
920.928	6536
921.038	6623
921.148	6540
921.258	6388
921.368	6285
921.477	6209
921.587	6186
921.697	6117
921.806	6201
921.916	6117
922.025	5935
922.134	5897
922.244	5897
922.353	5946
922.462	5817
922.571	5817
922.68	5729
922.789	5695
922.898	5729
923.007	5646
923.116	5729
923.224	5642
923.333	5646
923.442	5661
923.55	5589
923.659	5558
923.767	5672
923.876	5600
923.984	5604
924.092	5535
924.201	5566
924.309	5615
924.417	5581
924.525	5471
924.633	5509
924.741	6270
924.849	5376
924.956	5444
925.064	5379
925.172	5299
925.279	5330
925.387	5368
925.494	5349
925.602	5417
925.709	5417
925.816	5326
925.924	5341
926.031	5360
926.138	5284
926.245	5334
926.352	5220
926.459	5315
926.566	5379
926.673	5212
926.779	5166
926.886	5151
926.993	5064
927.099	4991
927.206	5014
927.312	4961
927.419	5071
927.525	4987
927.631	4987
927.737	4927
927.843	4873
927.95	4782
928.056	4850
928.162	4809
928.267	4820
928.373	5364
928.479	4835
928.585	4702
928.69	4790
928.796	4793
928.901	4721
929.007	4622
929.112	4717
929.218	4634
929.323	4622
929.428	4592
929.533	4687
929.638	4535
929.743	4603
929.848	4603
929.953	4523
930.058	4451
930.163	4314
930.267	4348
930.372	4432
930.477	4295
930.581	4474
930.685	4310
930.79	4246
930.894	4299
930.998	4272
931.103	4386
931.207	4169
931.311	4105
931.415	4025
931.519	3953
931.623	3937
