Data from glass_V78500241_1908.txt Node
Date: Wed Sep 01 19:27:43 CST 2021
User: usil
Spectrometer: V785-0024
Trigger mode: 0
Integration Time (sec): 4.000000E-1
Scans to average: 1
Nonlinearity correction enabled: false
Boxcar width: 0
Storing dark spectrum: false
XAxis mode: Wavelengths
Number of Pixels in Spectrum: 1024
>>>>>Begin Spectral Data<<<<<
801.071	3774
801.214	3736
801.356	3675
801.499	3728
801.641	3705
801.783	3766
801.926	3892
802.068	3823
802.211	3876
802.353	3876
802.496	3842
802.638	3896
802.78	3869
802.923	3953
803.065	3918
803.208	3812
803.35	3846
803.492	3903
803.635	3880
803.777	3797
803.919	3915
804.061	4135
804.204	3949
804.346	3991
804.488	3911
804.63	4044
804.773	4032
804.915	3972
805.057	4169
805.199	4036
805.341	4074
805.483	4162
805.626	4166
805.768	4131
805.91	4253
806.052	4257
806.194	4162
806.336	4306
806.478	4249
806.62	4188
806.762	4185
806.904	4249
807.046	4329
807.188	4207
807.33	4207
807.472	4238
807.614	4204
807.756	4234
807.898	4242
808.04	4200
808.182	4261
808.324	4325
808.465	4322
808.607	4443
808.749	4432
808.891	4428
809.033	4478
809.174	4383
809.316	4238
809.458	4211
809.6	4154
809.741	4181
809.883	4135
810.025	4169
810.166	4219
810.308	4253
810.45	4246
810.591	4219
810.733	4303
810.875	4474
811.016	4881
811.158	5102
811.299	5265
811.441	5315
811.582	5045
811.724	4656
811.865	4478
812.007	4481
812.148	4474
812.29	4394
812.431	4421
812.573	4402
812.714	4329
812.855	4394
812.997	4413
813.138	4424
813.279	4443
813.421	4436
813.562	4348
813.703	4303
813.845	4352
813.986	4261
814.127	4238
814.268	4268
814.41	4295
814.551	4284
814.692	4299
814.833	4276
814.974	4314
815.115	4348
815.256	4280
815.397	4249
815.539	4257
815.68	4204
815.821	4211
815.962	4333
816.103	4287
816.244	4265
816.385	4227
816.526	4295
816.666	4211
816.807	4059
816.948	4169
817.089	4158
817.23	4112
817.371	4078
817.512	4067
817.653	4055
817.793	4040
817.934	4029
818.075	4059
818.216	4090
818.356	4071
818.497	4010
818.638	3884
818.778	3888
818.919	3915
819.06	3842
819.2	3915
819.341	3846
819.481	3838
819.622	3918
819.762	4090
819.903	3922
820.043	3869
820.184	3873
820.324	3808
820.465	3880
820.605	3861
820.746	3865
820.886	3789
821.026	3907
821.167	3899
821.307	3983
821.447	3983
821.588	3941
821.728	3918
821.868	3915
822.008	3869
822.149	3888
822.289	3937
822.429	3778
822.569	3762
822.709	3793
822.849	3709
822.99	3713
823.13	3736
823.27	3785
823.41	3698
823.55	3720
823.69	3682
823.83	3698
823.97	3656
824.11	3587
824.25	3568
824.389	3618
824.529	3671
824.669	3637
824.809	3732
824.949	3728
825.089	3705
825.228	3717
825.368	3591
825.508	3564
825.648	3599
825.787	3587
825.927	3625
826.067	3660
826.206	3679
826.346	3770
826.485	3835
826.625	3838
826.765	3930
826.904	3823
827.044	3625
827.183	3504
827.323	3393
827.462	3485
827.601	3428
827.741	3431
827.88	3454
828.02	3412
828.159	3462
828.298	3469
828.437	3545
828.577	3481
828.716	3595
828.855	3481
828.994	3382
829.134	3340
829.273	3401
829.412	3317
829.551	3283
829.69	3363
829.829	3428
829.968	3511
830.107	3439
830.246	3450
830.385	3367
830.524	3325
830.663	3287
830.802	3256
830.941	3203
831.08	3180
831.219	3302
831.357	3233
831.496	3428
831.635	3249
831.774	3203
831.913	3199
832.051	3142
832.19	3142
832.329	3253
832.467	3123
832.606	3108
832.744	3195
832.883	3192
833.022	3192
833.16	3241
833.299	3313
833.437	3359
833.576	3386
833.714	3348
833.852	3424
833.991	3450
834.129	3507
834.267	3401
834.406	3412
834.544	3401
834.682	3409
834.821	3389
834.959	3542
835.097	3439
835.235	3542
835.373	3450
835.511	3530
835.65	3462
835.788	3485
835.926	3420
836.064	3370
836.202	3374
836.34	3568
836.478	3595
836.615	3549
836.753	3595
836.891	3610
837.029	3599
837.167	3561
837.305	3580
837.443	3507
837.58	3496
837.718	3625
837.856	3545
837.993	3511
838.131	3584
838.269	3584
838.406	3587
838.544	3568
838.681	3469
838.819	3469
838.956	3363
839.094	3420
839.231	3420
839.369	3568
839.506	3732
839.643	3652
839.781	3466
839.918	3473
840.055	3511
840.193	3515
840.33	3534
840.467	3557
840.604	3587
840.742	3827
840.879	3584
841.016	3542
841.153	3625
841.29	3751
841.427	3709
841.564	3743
841.701	3751
841.838	3717
841.975	3694
842.112	3751
842.249	3656
842.385	3625
842.522	3785
842.659	3679
842.796	3652
842.933	3709
843.069	3675
843.206	3625
843.343	3838
843.479	3819
843.616	3800
843.752	3682
843.889	3663
844.025	3869
844.162	3694
844.298	3857
844.435	3785
844.571	3774
844.708	3854
844.844	3960
844.98	3987
845.117	3991
845.253	3941
845.389	3903
845.525	3968
845.661	3949
845.798	3941
845.934	3991
846.07	3915
846.206	4021
846.342	4120
846.478	4074
846.614	3941
846.75	3949
846.886	3892
847.022	4044
847.158	3953
847.294	3991
847.429	4021
847.565	4021
847.701	4253
847.837	3876
847.972	3892
848.108	3953
848.244	3941
848.379	3823
848.515	3812
848.65	3781
848.786	3846
848.921	3861
849.057	3972
849.192	3972
849.328	3930
849.463	3899
849.598	3899
849.734	3922
849.869	3785
850.004	3770
850.14	3823
850.275	3774
850.41	3724
850.545	3743
850.68	3747
850.815	3789
850.95	3789
851.085	3945
851.22	3827
851.355	3819
851.49	3774
851.625	3800
851.76	3778
851.895	3743
852.03	3736
852.165	3850
852.299	3819
852.434	3869
852.569	3854
852.703	3884
852.838	3956
852.973	3972
853.107	4002
853.242	3903
853.376	3850
853.511	3800
853.645	3785
853.78	3968
853.914	3911
854.048	3876
854.183	3880
854.317	3953
854.451	4093
854.585	3937
854.72	3949
854.854	4040
854.988	3941
855.122	4025
855.256	3918
855.39	3991
855.524	4051
855.658	4040
855.792	4131
855.926	4128
856.06	4177
856.194	4147
856.327	4128
856.461	4143
856.595	4147
856.729	4204
856.862	4223
856.996	4234
857.13	4284
857.263	4352
857.397	4360
857.53	4291
857.664	4386
857.797	4383
857.931	4424
858.064	4390
858.197	4440
858.331	4386
858.464	4383
858.597	4325
858.731	4390
858.864	4409
858.997	4428
859.13	4504
859.263	4527
859.396	4599
859.529	4519
859.662	4561
859.795	4554
859.928	4580
860.061	4717
860.194	4771
860.327	4691
860.46	4653
860.592	4736
860.725	4763
860.858	4748
860.99	4717
861.123	4706
861.256	4683
861.388	4767
861.521	5345
861.653	4725
861.786	4736
861.918	4698
862.05	4790
862.183	4877
862.315	4908
862.447	4968
862.58	4877
862.712	4786
862.844	4793
862.976	4835
863.108	4816
863.24	5208
863.372	4797
863.504	4877
863.636	4805
863.768	4999
863.9	4995
864.032	4919
864.164	4976
864.296	5014
864.428	5079
864.559	5090
864.691	5140
864.823	5166
864.954	5113
865.086	5124
865.217	5094
865.349	5090
865.48	5151
865.612	5197
865.743	5269
865.875	5201
866.006	5193
866.137	5178
866.269	5250
866.4	5235
866.531	5185
866.662	5239
866.793	5235
866.924	5288
867.055	5345
867.186	5334
867.317	5307
867.448	5315
867.579	5357
867.71	5364
867.841	5360
867.972	5429
868.103	5463
868.233	5402
868.364	5497
868.495	5532
868.625	5608
868.756	5695
868.886	5691
869.017	5722
869.147	5836
869.278	5893
869.408	5828
869.539	5828
869.669	5958
869.799	5885
869.929	5999
870.06	5977
870.19	6190
870.32	6178
870.45	6285
870.58	6296
870.71	6426
870.84	6429
870.97	6388
871.1	6426
871.23	6608
871.36	6707
871.489	6635
871.619	6768
871.749	6764
871.879	6859
872.008	7015
872.138	6985
872.267	6981
872.397	6996
872.526	7076
872.656	7088
872.785	7308
872.915	7422
873.044	7571
873.173	7540
873.303	7628
873.432	7784
873.561	7906
873.69	7894
873.819	7982
873.948	8084
874.077	8240
874.206	8347
874.335	8374
874.464	8644
874.593	8876
874.722	8941
874.851	9066
874.979	9272
875.108	9340
875.237	9370
875.365	9481
875.494	9568
875.623	9831
875.751	9747
875.88	9975
876.008	10131
876.136	10268
876.265	10508
876.393	10733
876.521	10668
876.65	10710
876.778	10847
876.906	10885
877.034	10991
877.162	11155
877.29	11067
877.418	11235
877.546	11345
877.674	11455
877.802	11478
877.93	11474
878.058	11524
878.185	11589
878.313	11570
878.441	11786
878.568	11710
878.696	11756
878.824	11866
878.951	11882
879.079	12015
879.206	12171
879.333	11999
879.461	11965
879.588	12022
879.715	12095
879.842	12239
879.97	12159
880.097	11798
880.224	11874
880.351	11813
880.478	11874
880.605	11885
880.732	11817
880.859	11958
880.986	11870
881.112	11828
881.239	11672
881.366	11562
881.493	11653
881.619	11463
881.746	11554
881.872	11486
881.999	11501
882.125	11497
882.252	11463
882.378	11570
882.505	11524
882.631	11391
882.757	11280
882.883	11307
883.01	11303
883.136	11098
883.262	11075
883.388	11056
883.514	11254
883.64	11185
883.766	11102
883.892	11025
884.018	10923
884.143	10968
884.269	11060
884.395	10812
884.52	10805
884.646	10694
884.772	10717
884.897	10618
885.023	10653
885.148	10721
885.274	10797
885.399	10714
885.524	10615
885.65	10565
885.775	10584
885.9	10561
886.025	10634
886.15	10561
886.275	10478
886.4	10394
886.525	10447
886.65	10390
886.775	10253
886.9	10542
887.025	10535
887.149	10371
887.274	10257
887.399	10158
887.523	10139
887.648	10131
887.773	10154
887.897	10128
888.021	10188
888.146	10143
888.27	10162
888.395	10257
888.519	10185
888.643	10139
888.767	10242
888.891	10086
889.015	10010
889.139	10105
889.263	9934
889.387	10086
889.511	10139
889.635	10048
889.759	9975
889.883	9998
890.006	10048
890.13	10063
890.254	9975
890.377	9934
890.501	9956
890.624	9736
890.748	9865
890.871	9778
890.995	9751
891.118	9679
891.241	9800
891.364	9800
891.488	9831
891.611	9728
891.734	9679
891.857	9831
891.98	9732
892.103	9705
892.226	9675
892.349	9698
892.471	9534
892.594	9507
892.717	9584
892.839	9644
892.962	9568
893.085	9595
893.207	9587
893.33	9523
893.452	9515
893.575	9660
893.697	9462
893.819	9595
893.941	9542
894.064	9568
894.186	9405
894.308	9340
894.43	9523
894.552	9542
894.674	9545
894.796	9389
894.918	9412
895.04	9359
895.161	9389
895.283	9401
895.405	9226
895.526	9253
895.648	9237
895.769	9203
895.891	9310
896.012	9302
896.134	9237
896.255	9192
896.376	9131
896.498	9085
896.619	9157
896.74	9062
896.861	9097
896.982	9199
897.103	9306
897.224	9154
897.345	9112
897.466	8887
897.587	9039
897.708	9116
897.828	9020
897.949	8948
898.07	8876
898.19	8944
898.311	8952
898.431	8880
898.552	8914
898.672	8982
898.792	8971
898.913	8921
899.033	8811
899.153	8716
899.273	8689
899.393	8773
899.513	8724
899.633	8739
899.753	8754
899.873	8678
899.993	8731
900.113	8792
900.232	8750
900.352	8621
900.472	8674
900.591	8522
900.711	8598
900.83	8514
900.95	8617
901.069	8686
901.189	8564
901.308	8476
901.427	8389
901.546	8389
901.665	8400
901.784	8457
901.904	8393
902.023	8240
902.141	8202
902.26	8206
902.379	8279
902.498	8240
902.617	8183
902.735	8259
902.854	8286
902.973	8237
903.091	8138
903.21	8126
903.328	8130
903.446	8100
903.565	8115
903.683	8134
903.801	8012
903.919	8111
904.038	8123
904.156	8001
904.274	8088
904.392	8065
904.51	7967
904.627	8005
904.745	8062
904.863	8103
904.981	7936
905.098	7826
905.216	7856
905.334	7879
905.451	7879
905.569	7887
905.686	7921
905.803	7906
905.921	7757
906.038	7849
906.155	7841
906.272	7780
906.389	7712
906.506	7708
906.623	7590
906.74	7594
906.857	7537
906.974	7559
907.091	7727
907.208	7636
907.324	7689
907.441	7556
907.557	7438
907.674	7483
907.79	7365
907.907	7392
908.023	7472
908.139	7460
908.256	7301
908.372	7430
908.488	7350
908.604	7285
908.72	7179
908.836	7251
908.952	7213
909.068	7244
909.184	7308
909.3	7225
909.415	7225
909.531	7259
909.647	7088
909.762	7099
909.878	7168
909.993	7171
910.108	7122
910.224	7057
910.339	7129
910.454	7065
910.57	7023
910.685	6951
910.8	7187
910.915	7072
911.03	7034
911.145	6890
911.259	6882
911.374	6890
911.489	6859
911.604	6779
911.718	6764
911.833	6798
911.947	6574
912.062	6547
912.176	6715
912.291	6703
912.405	6681
912.519	6833
912.633	6787
912.748	6715
912.862	6627
912.976	6608
913.09	6551
913.204	6589
913.318	6673
913.431	6642
913.545	6631
913.659	6791
913.772	6688
913.886	6555
914	6555
914.113	6616
914.226	6646
914.34	6563
914.453	6513
914.566	6620
914.68	6536
914.793	6517
914.906	6429
915.019	6410
915.132	6380
915.245	6384
915.358	6429
915.47	6441
915.583	6433
915.696	6490
915.809	6498
915.921	6547
916.034	6407
916.146	6403
916.259	6388
916.371	6407
916.483	6471
916.595	6414
916.708	6452
916.82	6388
916.932	6376
917.044	6399
917.156	6391
917.268	6296
917.38	6357
917.491	6346
917.603	6323
917.715	6422
917.826	6369
917.938	6327
918.049	6254
918.161	6372
918.272	6395
918.384	6391
918.495	6361
918.606	6190
918.717	6190
918.828	6304
918.939	6224
919.05	6216
919.161	6266
919.272	6129
919.383	6102
919.494	6232
919.604	6319
919.715	6323
919.826	6194
919.936	6228
920.047	6311
920.157	6258
920.267	6426
920.378	6319
920.488	6308
920.598	6506
920.708	6525
920.818	6483
920.928	6414
921.038	6604
921.148	6555
921.258	6251
921.368	6300
921.477	6201
921.587	6129
921.697	6083
921.806	6133
921.916	6133
922.025	5965
922.134	5920
922.244	5897
922.353	6030
922.462	5851
922.571	5802
922.68	5707
922.789	5615
922.898	5748
923.007	5649
923.116	5672
923.224	5653
923.333	5627
923.442	5600
923.55	5623
923.659	5520
923.767	5630
923.876	5471
923.984	5585
924.092	5528
924.201	5535
924.309	5505
924.417	5558
924.525	5497
924.633	5505
924.741	6296
924.849	5357
924.956	5532
925.064	5318
925.172	5318
925.279	5288
925.387	5376
925.494	5334
925.602	5395
925.709	5341
925.816	5254
925.924	5292
926.031	5357
926.138	5280
926.245	5357
926.352	5220
926.459	5311
926.566	5315
926.673	5239
926.779	5147
926.886	5151
926.993	5014
927.099	5014
927.206	4984
927.312	4972
927.419	5018
927.525	4976
927.631	4968
927.737	4915
927.843	4892
927.95	4790
928.056	4854
928.162	4786
928.267	4816
928.373	5235
928.479	4793
928.585	4744
928.69	4714
928.796	4748
928.901	4672
929.007	4565
929.112	4683
929.218	4683
929.323	4584
929.428	4554
929.533	4645
929.638	4470
929.743	4535
929.848	4542
929.953	4500
930.058	4405
930.163	4310
930.267	4333
930.372	4417
930.477	4329
930.581	4466
930.685	4352
930.79	4238
930.894	4253
930.998	4314
931.103	4394
931.207	4131
931.311	4124
931.415	4021
931.519	3915
931.623	3934
