Data from glass_V78500241_2842.txt Node
Date: Wed Sep 01 19:34:12 CST 2021
User: usil
Spectrometer: V785-0024
Trigger mode: 0
Integration Time (sec): 4.000000E-1
Scans to average: 1
Nonlinearity correction enabled: false
Boxcar width: 0
Storing dark spectrum: false
XAxis mode: Wavelengths
Number of Pixels in Spectrum: 1024
>>>>>Begin Spectral Data<<<<<
801.071	3679
801.214	3732
801.356	3694
801.499	3717
801.641	3709
801.783	3709
801.926	3857
802.068	3785
802.211	3816
802.353	3838
802.496	3804
802.638	3850
802.78	3880
802.923	3922
803.065	3880
803.208	3854
803.35	3876
803.492	3888
803.635	3896
803.777	3770
803.919	3884
804.061	4147
804.204	3934
804.346	3972
804.488	3899
804.63	4040
804.773	3949
804.915	4013
805.057	4078
805.199	4017
805.341	4036
805.483	4109
805.626	4116
805.768	4112
805.91	4166
806.052	4215
806.194	4219
806.336	4314
806.478	4223
806.62	4169
806.762	4097
806.904	4268
807.046	4291
807.188	4166
807.33	4150
807.472	4219
807.614	4177
807.756	4253
807.898	4230
808.04	4207
808.182	4242
808.324	4303
808.465	4371
808.607	4421
808.749	4459
808.891	4428
809.033	4489
809.174	4375
809.316	4219
809.458	4265
809.6	4173
809.741	4143
809.883	4139
810.025	4147
810.166	4188
810.308	4128
810.45	4207
810.591	4230
810.733	4238
810.875	4493
811.016	4729
811.158	5128
811.299	5235
811.441	5220
811.582	5014
811.724	4740
811.865	4451
812.007	4459
812.148	4402
812.29	4405
812.431	4394
812.573	4409
812.714	4322
812.855	4344
812.997	4409
813.138	4470
813.279	4398
813.421	4329
813.562	4363
813.703	4325
813.845	4367
813.986	4265
814.127	4185
814.268	4261
814.41	4272
814.551	4253
814.692	4348
814.833	4204
814.974	4295
815.115	4303
815.256	4169
815.397	4204
815.539	4257
815.68	4162
815.821	4162
815.962	4303
816.103	4299
816.244	4185
816.385	4223
816.526	4268
816.666	4200
816.807	4071
816.948	4162
817.089	4173
817.23	4135
817.371	4051
817.512	4078
817.653	4036
817.793	4017
817.934	4029
818.075	4112
818.216	4093
818.356	4090
818.497	3915
818.638	3907
818.778	3899
818.919	3884
819.06	3838
819.2	3892
819.341	3842
819.481	3800
819.622	3869
819.762	4029
819.903	3911
820.043	3876
820.184	3789
820.324	3774
820.465	3865
820.605	3854
820.746	3831
820.886	3827
821.026	3911
821.167	3888
821.307	3918
821.447	3953
821.588	3892
821.728	3922
821.868	3918
822.008	3823
822.149	3915
822.289	3861
822.429	3778
822.569	3732
822.709	3774
822.849	3694
822.99	3698
823.13	3740
823.27	3747
823.41	3701
823.55	3698
823.69	3740
823.83	3709
823.97	3694
824.11	3561
824.25	3549
824.389	3629
824.529	3625
824.669	3603
824.809	3667
824.949	3663
825.089	3709
825.228	3686
825.368	3564
825.508	3545
825.648	3504
825.787	3618
825.927	3629
826.067	3584
826.206	3622
826.346	3770
826.485	3819
826.625	3857
826.765	3926
826.904	3827
827.044	3637
827.183	3545
827.323	3420
827.462	3447
827.601	3382
827.741	3424
827.88	3401
828.02	3302
828.159	3462
828.298	3462
828.437	3477
828.577	3435
828.716	3564
828.855	3481
828.994	3351
829.134	3332
829.273	3355
829.412	3348
829.551	3313
829.69	3332
829.829	3397
829.968	3462
830.107	3389
830.246	3405
830.385	3306
830.524	3348
830.663	3302
830.802	3253
830.941	3173
831.08	3180
831.219	3253
831.357	3268
831.496	3363
831.635	3230
831.774	3180
831.913	3218
832.051	3119
832.19	3097
832.329	3207
832.467	3127
832.606	3097
832.744	3157
832.883	3157
833.022	3127
833.16	3241
833.299	3279
833.437	3325
833.576	3389
833.714	3374
833.852	3416
833.991	3405
834.129	3435
834.267	3409
834.406	3409
834.544	3382
834.682	3397
834.821	3409
834.959	3538
835.097	3401
835.235	3519
835.373	3435
835.511	3443
835.65	3469
835.788	3462
835.926	3382
836.064	3389
836.202	3363
836.34	3538
836.478	3580
836.615	3500
836.753	3572
836.891	3667
837.029	3523
837.167	3595
837.305	3576
837.443	3530
837.58	3481
837.718	3587
837.856	3504
837.993	3553
838.131	3557
838.269	3564
838.406	3591
838.544	3549
838.681	3431
838.819	3397
838.956	3386
839.094	3370
839.231	3450
839.369	3519
839.506	3720
839.643	3610
839.781	3447
839.918	3420
840.055	3504
840.193	3488
840.33	3458
840.467	3534
840.604	3587
840.742	3720
840.879	3534
841.016	3515
841.153	3549
841.29	3728
841.427	3709
841.564	3717
841.701	3736
841.838	3694
841.975	3690
842.112	3637
842.249	3610
842.385	3603
842.522	3808
842.659	3671
842.796	3652
842.933	3675
843.069	3713
843.206	3694
843.343	3759
843.479	3747
843.616	3793
843.752	3656
843.889	3644
844.025	3838
844.162	3701
844.298	3838
844.435	3766
844.571	3770
844.708	3880
844.844	3994
844.98	3972
845.117	4013
845.253	3915
845.389	3869
845.525	3960
845.661	3956
845.798	3915
845.934	3949
846.07	3922
846.206	4002
846.342	4093
846.478	4044
846.614	3930
846.75	3972
846.886	3873
847.022	3975
847.158	3949
847.294	3964
847.429	4025
847.565	3945
847.701	4223
847.837	3873
847.972	3804
848.108	3953
848.244	3949
848.379	3812
848.515	3835
848.65	3789
848.786	3800
848.921	3827
849.057	3869
849.192	3896
849.328	3896
849.463	3857
849.598	3880
849.734	3838
849.869	3827
850.004	3732
850.14	3804
850.275	3743
850.41	3713
850.545	3736
850.68	3781
850.815	3785
850.95	3751
851.085	3964
851.22	3846
851.355	3816
851.49	3774
851.625	3781
851.76	3793
851.895	3740
852.03	3717
852.165	3770
852.299	3842
852.434	3880
852.569	3861
852.703	3808
852.838	3884
852.973	3945
853.107	3968
853.242	3850
853.376	3793
853.511	3766
853.645	3838
853.78	3941
853.914	3899
854.048	3869
854.183	3823
854.317	3975
854.451	4086
854.585	3907
854.72	3915
854.854	4006
854.988	3956
855.122	3972
855.256	3884
855.39	4044
855.524	4032
855.658	4082
855.792	4082
855.926	4135
856.06	4147
856.194	4192
856.327	4147
856.461	4158
856.595	4162
856.729	4181
856.862	4257
856.996	4242
857.13	4268
857.263	4280
857.397	4303
857.53	4265
857.664	4310
857.797	4356
857.931	4398
858.064	4363
858.197	4440
858.331	4432
858.464	4394
858.597	4325
858.731	4436
858.864	4428
858.997	4424
859.13	4500
859.263	4474
859.396	4569
859.529	4504
859.662	4459
859.795	4497
859.928	4569
860.061	4675
860.194	4744
860.327	4630
860.46	4637
860.592	4679
860.725	4725
860.858	4740
860.99	4706
861.123	4664
861.256	4660
861.388	4725
861.521	5288
861.653	4679
861.786	4679
861.918	4672
862.05	4786
862.183	4820
862.315	4847
862.447	4858
862.58	4866
862.712	4778
862.844	4786
862.976	4847
863.108	4786
863.24	5299
863.372	4850
863.504	4824
863.636	4866
863.768	4953
863.9	4919
864.032	4896
864.164	4927
864.296	5037
864.428	5098
864.559	5052
864.691	5102
864.823	5117
864.954	5124
865.086	5159
865.217	5083
865.349	5052
865.48	5132
865.612	5155
865.743	5315
865.875	5174
866.006	5136
866.137	5239
866.269	5227
866.4	5231
866.531	5204
866.662	5223
866.793	5261
866.924	5265
867.055	5311
867.186	5372
867.317	5315
867.448	5277
867.579	5360
867.71	5315
867.841	5318
867.972	5482
868.103	5482
868.233	5455
868.364	5467
868.495	5505
868.625	5627
868.756	5764
868.886	5665
869.017	5695
869.147	5783
869.278	5794
869.408	5809
869.539	5790
869.669	5878
869.799	5908
869.929	5939
870.06	5935
870.19	6182
870.32	6167
870.45	6235
870.58	6281
870.71	6403
870.84	6502
870.97	6433
871.1	6437
871.23	6589
871.36	6620
871.489	6623
871.619	6715
871.749	6798
871.879	6798
872.008	6958
872.138	7008
872.267	7023
872.397	6970
872.526	7000
872.656	7080
872.785	7202
872.915	7392
873.044	7521
873.173	7525
873.303	7647
873.432	7753
873.561	7784
873.69	7932
873.819	7940
873.948	8103
874.077	8145
874.206	8301
874.335	8431
874.464	8587
874.593	8811
874.722	8925
874.851	9081
874.979	9241
875.108	9348
875.237	9401
875.365	9466
875.494	9595
875.623	9793
875.751	9831
875.88	10017
876.008	10124
876.136	10280
876.265	10409
876.393	10641
876.521	10733
876.65	10759
876.778	10858
876.906	10908
877.034	10904
877.162	11090
877.29	11079
877.418	11277
877.546	11337
877.674	11360
877.802	11463
877.93	11493
878.058	11524
878.185	11467
878.313	11661
878.441	11695
878.568	11665
878.696	11779
878.824	11783
878.951	11939
879.079	11980
879.206	12129
879.333	11984
879.461	11920
879.588	12060
879.715	12015
879.842	12197
879.97	12038
880.097	11828
880.224	11866
880.351	11893
880.478	11904
880.605	11832
880.732	11786
880.859	11901
880.986	11771
881.112	11885
881.239	11668
881.366	11577
881.493	11646
881.619	11562
881.746	11585
881.872	11463
881.999	11516
882.125	11493
882.252	11512
882.378	11425
882.505	11589
882.631	11356
882.757	11280
882.883	11299
883.01	11242
883.136	11204
883.262	11083
883.388	10953
883.514	11223
883.64	11181
883.766	11075
883.892	10991
884.018	11010
884.143	11003
884.269	11048
884.395	10805
884.52	10717
884.646	10752
884.772	10622
884.897	10660
885.023	10645
885.148	10653
885.274	10778
885.399	10691
885.524	10607
885.65	10569
885.775	10596
885.9	10607
886.025	10546
886.15	10519
886.275	10485
886.4	10538
886.525	10466
886.65	10306
886.775	10280
886.9	10436
887.025	10504
887.149	10306
887.274	10192
887.399	10204
887.523	10200
887.648	10112
887.773	10124
887.897	10207
888.021	10162
888.146	10109
888.27	10223
888.395	10234
888.519	10109
888.643	10177
888.767	10196
888.891	10040
889.015	10078
889.139	9979
889.263	10017
889.387	10036
889.511	10078
889.635	9956
889.759	9998
889.883	9968
890.006	9922
890.13	9991
890.254	9937
890.377	9994
890.501	9827
890.624	9911
890.748	9945
890.871	9747
890.995	9762
891.118	9660
891.241	9804
891.364	9701
891.488	9819
891.611	9660
891.734	9789
891.857	9740
891.98	9667
892.103	9785
892.226	9713
892.349	9682
892.471	9595
892.594	9599
892.717	9576
892.839	9526
892.962	9584
893.085	9568
893.207	9568
893.33	9496
893.452	9496
893.575	9599
893.697	9469
893.819	9557
893.941	9576
894.064	9504
894.186	9431
894.308	9363
894.43	9431
894.552	9500
894.674	9500
894.796	9291
894.918	9325
895.04	9344
895.161	9370
895.283	9310
895.405	9272
895.526	9302
895.648	9272
895.769	9195
895.891	9256
896.012	9272
896.134	9192
896.255	9127
896.376	9081
896.498	9173
896.619	8998
896.74	9036
896.861	9070
896.982	9226
897.103	9306
897.224	9154
897.345	9055
897.466	8952
897.587	8948
897.708	9043
897.828	9020
897.949	8944
898.07	8796
898.19	8948
898.311	8986
898.431	8872
898.552	8910
898.672	8952
898.792	8944
898.913	8849
899.033	8845
899.153	8701
899.273	8606
899.393	8773
899.513	8701
899.633	8705
899.753	8781
899.873	8590
899.993	8697
900.113	8727
900.232	8743
900.352	8621
900.472	8610
900.591	8537
900.711	8556
900.83	8492
900.95	8735
901.069	8655
901.189	8556
901.308	8381
901.427	8408
901.546	8389
901.665	8374
901.784	8507
901.904	8332
902.023	8294
902.141	8275
902.26	8153
902.379	8263
902.498	8199
902.617	8210
902.735	8252
902.854	8294
902.973	8252
903.091	8123
903.21	8077
903.328	8145
903.446	8115
903.565	8088
903.683	8081
903.801	7970
903.919	8046
904.038	8111
904.156	8008
904.274	8134
904.392	8020
904.51	8008
904.627	8024
904.745	8024
904.863	7989
904.981	7944
905.098	7890
905.216	7864
905.334	7967
905.451	7921
905.569	7849
905.686	7902
905.803	7856
905.921	7658
906.038	7792
906.155	7757
906.272	7704
906.389	7742
906.506	7666
906.623	7643
906.74	7632
906.857	7571
906.974	7499
907.091	7594
907.208	7681
907.324	7590
907.441	7616
907.557	7487
907.674	7419
907.79	7350
907.907	7377
908.023	7350
908.139	7343
908.256	7392
908.372	7327
908.488	7259
908.604	7190
908.72	7206
908.836	7187
908.952	7198
909.068	7202
909.184	7316
909.3	7213
909.415	7259
909.531	7206
909.647	7171
909.762	7076
909.878	7118
909.993	7114
910.108	7095
910.224	7057
910.339	7095
910.454	7027
910.57	7004
910.685	6939
910.8	7198
910.915	7038
911.03	7012
911.145	6886
911.259	6844
911.374	6890
911.489	6833
911.604	6738
911.718	6696
911.833	6715
911.947	6612
912.062	6525
912.176	6631
912.291	6673
912.405	6757
912.519	6776
912.633	6844
912.748	6700
912.862	6707
912.976	6601
913.09	6460
913.204	6540
913.318	6551
913.431	6616
913.545	6673
913.659	6673
913.772	6620
913.886	6566
914	6521
914.113	6604
914.226	6612
914.34	6635
914.453	6544
914.566	6532
914.68	6483
914.793	6483
914.906	6407
915.019	6395
915.132	6399
915.245	6410
915.358	6460
915.47	6357
915.583	6448
915.696	6456
915.809	6528
915.921	6506
916.034	6445
916.146	6407
916.259	6361
916.371	6399
916.483	6388
916.595	6342
916.708	6422
916.82	6407
916.932	6327
917.044	6350
917.156	6369
917.268	6296
917.38	6300
917.491	6350
917.603	6304
917.715	6429
917.826	6437
917.938	6296
918.049	6216
918.161	6323
918.272	6407
918.384	6422
918.495	6273
918.606	6277
918.717	6186
918.828	6296
918.939	6224
919.05	6209
919.161	6220
919.272	6110
919.383	6087
919.494	6292
919.604	6350
919.715	6319
919.826	6190
919.936	6251
920.047	6319
920.157	6224
920.267	6429
920.378	6300
920.488	6247
920.598	6433
920.708	6528
920.818	6486
920.928	6494
921.038	6563
921.148	6563
921.258	6357
921.368	6289
921.477	6186
921.587	6148
921.697	6034
921.806	6163
921.916	6041
922.025	5920
922.134	5912
922.244	5893
922.353	5984
922.462	5786
922.571	5729
922.68	5729
922.789	5627
922.898	5699
923.007	5638
923.116	5676
923.224	5627
923.333	5638
923.442	5627
923.55	5512
923.659	5554
923.767	5634
923.876	5471
923.984	5528
924.092	5501
924.201	5528
924.309	5509
924.417	5596
924.525	5436
924.633	5490
924.741	6136
924.849	5376
924.956	5440
925.064	5334
925.172	5288
925.279	5303
925.387	5341
925.494	5288
925.602	5414
925.709	5330
925.816	5265
925.924	5296
926.031	5364
926.138	5299
926.245	5299
926.352	5174
926.459	5269
926.566	5311
926.673	5193
926.779	5155
926.886	5136
926.993	4976
927.099	5003
927.206	4995
927.312	4911
927.419	5045
927.525	4957
927.631	4965
927.737	4881
927.843	4801
927.95	4740
928.056	4820
928.162	4809
928.267	4843
928.373	5296
928.479	4805
928.585	4664
928.69	4771
928.796	4759
928.901	4702
929.007	4558
929.112	4668
929.218	4596
929.323	4561
929.428	4546
929.533	4656
929.638	4542
929.743	4523
929.848	4561
929.953	4455
930.058	4417
930.163	4333
930.267	4314
930.372	4405
930.477	4306
930.581	4462
930.685	4303
930.79	4261
930.894	4280
930.998	4192
931.103	4405
931.207	4109
931.311	4074
931.415	4029
931.519	3896
931.623	3899
