Data from glass_V78500241_2062.txt Node
Date: Wed Sep 01 19:28:47 CST 2021
User: usil
Spectrometer: V785-0024
Trigger mode: 0
Integration Time (sec): 4.000000E-1
Scans to average: 1
Nonlinearity correction enabled: false
Boxcar width: 0
Storing dark spectrum: false
XAxis mode: Wavelengths
Number of Pixels in Spectrum: 1024
>>>>>Begin Spectral Data<<<<<
801.071	3755
801.214	3759
801.356	3660
801.499	3770
801.641	3690
801.783	3804
801.926	3835
802.068	3854
802.211	3804
802.353	3884
802.496	3808
802.638	3835
802.78	3915
802.923	3907
803.065	3865
803.208	3865
803.35	3888
803.492	3888
803.635	3953
803.777	3812
803.919	3888
804.061	4147
804.204	3934
804.346	3960
804.488	3911
804.63	4059
804.773	3975
804.915	4017
805.057	4135
805.199	4013
805.341	4086
805.483	4082
805.626	4101
805.768	4120
805.91	4192
806.052	4204
806.194	4166
806.336	4325
806.478	4215
806.62	4139
806.762	4173
806.904	4207
807.046	4333
807.188	4276
807.33	4169
807.472	4211
807.614	4242
807.756	4257
807.898	4188
808.04	4223
808.182	4261
808.324	4322
808.465	4348
808.607	4485
808.749	4474
808.891	4421
809.033	4538
809.174	4402
809.316	4242
809.458	4234
809.6	4158
809.741	4116
809.883	4128
810.025	4196
810.166	4188
810.308	4200
810.45	4227
810.591	4253
810.733	4291
810.875	4538
811.016	4843
811.158	5121
811.299	5261
811.441	5303
811.582	5090
811.724	4740
811.865	4440
812.007	4466
812.148	4443
812.29	4367
812.431	4390
812.573	4379
812.714	4383
812.855	4402
812.997	4432
813.138	4493
813.279	4421
813.421	4356
813.562	4310
813.703	4284
813.845	4329
813.986	4238
814.127	4207
814.268	4268
814.41	4272
814.551	4257
814.692	4337
814.833	4257
814.974	4276
815.115	4329
815.256	4265
815.397	4227
815.539	4242
815.68	4181
815.821	4207
815.962	4318
816.103	4291
816.244	4234
816.385	4253
816.526	4295
816.666	4200
816.807	4116
816.948	4162
817.089	4124
817.23	4067
817.371	4059
817.512	4086
817.653	4097
817.793	4025
817.934	4040
818.075	4086
818.216	4067
818.356	4093
818.497	3937
818.638	3888
818.778	3941
818.919	3873
819.06	3835
819.2	3911
819.341	3888
819.481	3808
819.622	3892
819.762	3972
819.903	3937
820.043	3869
820.184	3850
820.324	3800
820.465	3888
820.605	3846
820.746	3850
820.886	3831
821.026	3892
821.167	3949
821.307	3911
821.447	4006
821.588	3899
821.728	3968
821.868	3899
822.008	3873
822.149	3896
822.289	3941
822.429	3774
822.569	3740
822.709	3816
822.849	3743
822.99	3743
823.13	3732
823.27	3774
823.41	3724
823.55	3675
823.69	3682
823.83	3698
823.97	3679
824.11	3610
824.25	3599
824.389	3614
824.529	3751
824.669	3675
824.809	3705
824.949	3747
825.089	3720
825.228	3690
825.368	3564
825.508	3530
825.648	3572
825.787	3584
825.927	3652
826.067	3618
826.206	3637
826.346	3793
826.485	3816
826.625	3846
826.765	3922
826.904	3823
827.044	3595
827.183	3511
827.323	3431
827.462	3488
827.601	3450
827.741	3378
827.88	3466
828.02	3340
828.159	3416
828.298	3477
828.437	3504
828.577	3477
828.716	3580
828.855	3504
828.994	3435
829.134	3317
829.273	3397
829.412	3393
829.551	3348
829.69	3348
829.829	3389
829.968	3473
830.107	3428
830.246	3466
830.385	3351
830.524	3382
830.663	3302
830.802	3272
830.941	3211
831.08	3173
831.219	3249
831.357	3233
831.496	3397
831.635	3241
831.774	3161
831.913	3192
832.051	3142
832.19	3146
832.329	3226
832.467	3112
832.606	3104
832.744	3146
832.883	3150
833.022	3203
833.16	3230
833.299	3260
833.437	3374
833.576	3332
833.714	3378
833.852	3424
833.991	3462
834.129	3496
834.267	3405
834.406	3431
834.544	3435
834.682	3443
834.821	3378
834.959	3545
835.097	3462
835.235	3542
835.373	3466
835.511	3515
835.65	3428
835.788	3507
835.926	3386
836.064	3359
836.202	3351
836.34	3545
836.478	3614
836.615	3530
836.753	3587
836.891	3652
837.029	3580
837.167	3599
837.305	3526
837.443	3564
837.58	3519
837.718	3606
837.856	3511
837.993	3545
838.131	3584
838.269	3549
838.406	3580
838.544	3599
838.681	3477
838.819	3454
838.956	3329
839.094	3424
839.231	3424
839.369	3504
839.506	3701
839.643	3633
839.781	3462
839.918	3447
840.055	3534
840.193	3530
840.33	3534
840.467	3553
840.604	3603
840.742	3789
840.879	3534
841.016	3568
841.153	3633
841.29	3755
841.427	3732
841.564	3694
841.701	3781
841.838	3694
841.975	3694
842.112	3740
842.249	3603
842.385	3648
842.522	3827
842.659	3656
842.796	3633
842.933	3663
843.069	3644
843.206	3736
843.343	3819
843.479	3774
843.616	3823
843.752	3694
843.889	3663
844.025	3865
844.162	3682
844.298	3884
844.435	3751
844.571	3778
844.708	3934
844.844	3983
844.98	4002
845.117	3949
845.253	3907
845.389	3892
845.525	3960
845.661	3960
845.798	3896
845.934	3991
846.07	3930
846.206	4090
846.342	4116
846.478	4051
846.614	3953
846.75	3972
846.886	3941
847.022	4017
847.158	3968
847.294	3949
847.429	4017
847.565	3945
847.701	4287
847.837	3869
847.972	3857
848.108	4025
848.244	3979
848.379	3865
848.515	3766
848.65	3804
848.786	3827
848.921	3861
849.057	3918
849.192	3941
849.328	3960
849.463	3903
849.598	3854
849.734	3899
849.869	3823
850.004	3797
850.14	3797
850.275	3740
850.41	3701
850.545	3755
850.68	3781
850.815	3812
850.95	3778
851.085	3903
851.22	3869
851.355	3819
851.49	3755
851.625	3838
851.76	3812
851.895	3732
852.03	3720
852.165	3812
852.299	3838
852.434	3911
852.569	3903
852.703	3892
852.838	3915
852.973	4006
853.107	4025
853.242	3907
853.376	3869
853.511	3770
853.645	3842
853.78	3964
853.914	3873
854.048	3934
854.183	3876
854.317	3953
854.451	4078
854.585	3953
854.72	3896
854.854	4071
854.988	3888
855.122	4021
855.256	3899
855.39	4040
855.524	4078
855.658	4093
855.792	4112
855.926	4093
856.06	4169
856.194	4234
856.327	4105
856.461	4166
856.595	4101
856.729	4135
856.862	4246
856.996	4276
857.13	4295
857.263	4265
857.397	4356
857.53	4272
857.664	4333
857.797	4398
857.931	4440
858.064	4363
858.197	4424
858.331	4402
858.464	4390
858.597	4333
858.731	4402
858.864	4485
858.997	4481
859.13	4516
859.263	4481
859.396	4634
859.529	4508
859.662	4535
859.795	4550
859.928	4645
860.061	4714
860.194	4706
860.327	4603
860.46	4653
860.592	4725
860.725	4771
860.858	4771
860.99	4721
861.123	4656
861.256	4706
861.388	4744
861.521	5376
861.653	4721
861.786	4725
861.918	4748
862.05	4763
862.183	4812
862.315	4892
862.447	4904
862.58	4923
862.712	4809
862.844	4752
862.976	4889
863.108	4850
863.24	5178
863.372	4885
863.504	4873
863.636	4889
863.768	4980
863.9	4938
864.032	4923
864.164	4987
864.296	5060
864.428	5098
864.559	5109
864.691	5159
864.823	5094
864.954	5117
865.086	5105
865.217	5136
865.349	5109
865.48	5128
865.612	5189
865.743	5273
865.875	5208
866.006	5159
866.137	5227
866.269	5178
866.4	5201
866.531	5227
866.662	5235
866.793	5322
866.924	5341
867.055	5326
867.186	5258
867.317	5337
867.448	5288
867.579	5299
867.71	5376
867.841	5360
867.972	5455
868.103	5459
868.233	5482
868.364	5463
868.495	5573
868.625	5649
868.756	5748
868.886	5646
869.017	5802
869.147	5901
869.278	5893
869.408	5821
869.539	5832
869.669	5904
869.799	5901
869.929	6026
870.06	6022
870.19	6243
870.32	6197
870.45	6277
870.58	6346
870.71	6388
870.84	6467
870.97	6422
871.1	6380
871.23	6635
871.36	6703
871.489	6658
871.619	6795
871.749	6795
871.879	6848
872.008	6973
872.138	7000
872.267	7000
872.397	6947
872.526	6985
872.656	7053
872.785	7221
872.915	7343
873.044	7510
873.173	7544
873.303	7597
873.432	7734
873.561	7868
873.69	7883
873.819	8031
873.948	8157
874.077	8180
874.206	8259
874.335	8431
874.464	8693
874.593	8899
874.722	8963
874.851	9150
874.979	9245
875.108	9336
875.237	9412
875.365	9496
875.494	9610
875.623	9823
875.751	9819
875.88	10051
876.008	10097
876.136	10295
876.265	10561
876.393	10683
876.521	10755
876.65	10797
876.778	10896
876.906	10850
877.034	10995
877.162	11132
877.29	11098
877.418	11242
877.546	11315
877.674	11433
877.802	11452
877.93	11436
878.058	11539
878.185	11600
878.313	11615
878.441	11748
878.568	11577
878.696	11779
878.824	11870
878.951	11904
879.079	11954
879.206	12136
879.333	11984
879.461	11935
879.588	11996
879.715	12095
879.842	12163
879.97	11980
880.097	11878
880.224	11946
880.351	11916
880.478	12045
880.605	11843
880.732	11786
880.859	11935
880.986	11824
881.112	11885
881.239	11657
881.366	11627
881.493	11600
881.619	11509
881.746	11638
881.872	11505
881.999	11436
882.125	11425
882.252	11505
882.378	11486
882.505	11551
882.631	11387
882.757	11280
882.883	11368
883.01	11159
883.136	11105
883.262	11121
883.388	11010
883.514	11193
883.64	11170
883.766	11147
883.892	10968
884.018	10965
884.143	11022
884.269	11090
884.395	10862
884.52	10721
884.646	10797
884.772	10698
884.897	10641
885.023	10694
885.148	10679
885.274	10710
885.399	10691
885.524	10668
885.65	10603
885.775	10637
885.9	10615
886.025	10641
886.15	10569
886.275	10470
886.4	10344
886.525	10432
886.65	10379
886.775	10367
886.9	10481
887.025	10504
887.149	10337
887.274	10238
887.399	10188
887.523	10249
887.648	10112
887.773	10131
887.897	10238
888.021	10227
888.146	10097
888.27	10181
888.395	10325
888.519	10131
888.643	10211
888.767	10223
888.891	10059
889.015	10025
889.139	10032
889.263	9998
889.387	10078
889.511	10128
889.635	10017
889.759	9865
889.883	9873
890.006	9960
890.13	10109
890.254	9975
890.377	9937
890.501	9835
890.624	9861
890.748	9899
890.871	9819
890.995	9831
891.118	9747
891.241	9755
891.364	9781
891.488	9857
891.611	9667
891.734	9781
891.857	9827
891.98	9652
892.103	9831
892.226	9720
892.349	9660
892.471	9599
892.594	9576
892.717	9576
892.839	9682
892.962	9530
893.085	9610
893.207	9584
893.33	9504
893.452	9545
893.575	9576
893.697	9469
893.819	9675
893.941	9545
894.064	9553
894.186	9492
894.308	9473
894.43	9549
894.552	9519
894.674	9534
894.796	9382
894.918	9462
895.04	9374
895.161	9298
895.283	9393
895.405	9287
895.526	9214
895.648	9291
895.769	9165
895.891	9207
896.012	9298
896.134	9245
896.255	9161
896.376	9131
896.498	9127
896.619	9146
896.74	9077
896.861	9074
896.982	9260
897.103	9325
897.224	9199
897.345	9089
897.466	8998
897.587	9036
897.708	9108
897.828	9009
897.949	8906
898.07	8838
898.19	8937
898.311	8979
898.431	8834
898.552	8921
898.672	8960
898.792	8941
898.913	8880
899.033	8739
899.153	8769
899.273	8621
899.393	8701
899.513	8735
899.633	8731
899.753	8773
899.873	8708
899.993	8727
900.113	8667
900.232	8708
900.352	8602
900.472	8617
900.591	8545
900.711	8602
900.83	8568
900.95	8701
901.069	8640
901.189	8560
901.308	8438
901.427	8427
901.546	8450
901.665	8484
901.784	8511
901.904	8393
902.023	8317
902.141	8240
902.26	8161
902.379	8301
902.498	8263
902.617	8157
902.735	8309
902.854	8259
902.973	8221
903.091	8126
903.21	8130
903.328	8172
903.446	8103
903.565	8069
903.683	8134
903.801	8039
903.919	8092
904.038	8134
904.156	8054
904.274	8107
904.392	8008
904.51	7989
904.627	8073
904.745	8020
904.863	8050
904.981	7928
905.098	7830
905.216	7811
905.334	7845
905.451	7894
905.569	7947
905.686	7947
905.803	7898
905.921	7803
906.038	7879
906.155	7826
906.272	7700
906.389	7696
906.506	7582
906.623	7597
906.74	7628
906.857	7571
906.974	7628
907.091	7651
907.208	7700
907.324	7597
907.441	7571
907.557	7445
907.674	7483
907.79	7422
907.907	7403
908.023	7453
908.139	7438
908.256	7373
908.372	7343
908.488	7316
908.604	7274
908.72	7217
908.836	7263
908.952	7206
909.068	7278
909.184	7346
909.3	7255
909.415	7244
909.531	7270
909.647	7118
909.762	7099
909.878	7065
909.993	7122
910.108	7137
910.224	7069
910.339	7088
910.454	7023
910.57	7000
910.685	7012
910.8	7183
910.915	7072
911.03	7027
911.145	6852
911.259	6863
911.374	6935
911.489	6837
911.604	6768
911.718	6707
911.833	6783
911.947	6620
912.062	6642
912.176	6684
912.291	6715
912.405	6673
912.519	6776
912.633	6833
912.748	6715
912.862	6684
912.976	6566
913.09	6525
913.204	6540
913.318	6582
913.431	6623
913.545	6601
913.659	6681
913.772	6662
913.886	6521
914	6563
914.113	6601
914.226	6658
914.34	6612
914.453	6551
914.566	6540
914.68	6456
914.793	6517
914.906	6407
915.019	6410
915.132	6372
915.245	6418
915.358	6429
915.47	6369
915.583	6384
915.696	6460
915.809	6517
915.921	6479
916.034	6429
916.146	6361
916.259	6376
916.371	6445
916.483	6460
916.595	6437
916.708	6441
916.82	6399
916.932	6437
917.044	6395
917.156	6407
917.268	6308
917.38	6334
917.491	6292
917.603	6388
917.715	6410
917.826	6407
917.938	6292
918.049	6266
918.161	6334
918.272	6380
918.384	6445
918.495	6369
918.606	6266
918.717	6209
918.828	6201
918.939	6346
919.05	6163
919.161	6254
919.272	6155
919.383	6129
919.494	6270
919.604	6448
919.715	6239
919.826	6159
919.936	6285
920.047	6384
920.157	6197
920.267	6502
920.378	6281
920.488	6270
920.598	6395
920.708	6563
920.818	6429
920.928	6464
921.038	6585
921.148	6593
921.258	6304
921.368	6296
921.477	6251
921.587	6213
921.697	6087
921.806	6182
921.916	6060
922.025	5882
922.134	5904
922.244	5885
922.353	5870
922.462	5821
922.571	5790
922.68	5695
922.789	5676
922.898	5680
923.007	5642
923.116	5703
923.224	5657
923.333	5646
923.442	5596
923.55	5551
923.659	5604
923.767	5611
923.876	5547
923.984	5600
924.092	5505
924.201	5562
924.309	5535
924.417	5524
924.525	5505
924.633	5497
924.741	6273
924.849	5391
924.956	5467
925.064	5322
925.172	5326
925.279	5322
925.387	5372
925.494	5303
925.602	5414
925.709	5414
925.816	5307
925.924	5318
926.031	5372
926.138	5277
926.245	5284
926.352	5201
926.459	5334
926.566	5311
926.673	5143
926.779	5121
926.886	5094
926.993	5025
927.099	4980
927.206	4938
927.312	4896
927.419	5025
927.525	4957
927.631	4949
927.737	4839
927.843	4854
927.95	4748
928.056	4824
928.162	4843
928.267	4820
928.373	5220
928.479	4866
928.585	4668
928.69	4740
928.796	4805
928.901	4694
929.007	4580
929.112	4653
929.218	4618
929.323	4603
929.428	4519
929.533	4626
929.638	4504
929.743	4565
929.848	4554
929.953	4485
930.058	4424
930.163	4344
930.267	4318
930.372	4466
930.477	4295
930.581	4424
930.685	4344
930.79	4219
930.894	4329
930.998	4276
931.103	4360
931.207	4093
931.311	4036
931.415	4048
931.519	3899
931.623	3953
