Data from glass_V78500241_1557.txt Node
Date: Wed Sep 01 19:25:17 CST 2021
User: usil
Spectrometer: V785-0024
Trigger mode: 0
Integration Time (sec): 4.000000E-1
Scans to average: 1
Nonlinearity correction enabled: false
Boxcar width: 0
Storing dark spectrum: false
XAxis mode: Wavelengths
Number of Pixels in Spectrum: 1024
>>>>>Begin Spectral Data<<<<<
801.071	3774
801.214	3759
801.356	3682
801.499	3720
801.641	3740
801.783	3774
801.926	3903
802.068	3876
802.211	3854
802.353	3873
802.496	3857
802.638	3884
802.78	3915
802.923	3956
803.065	3907
803.208	3865
803.35	3884
803.492	3907
803.635	3911
803.777	3778
803.919	3922
804.061	4177
804.204	3949
804.346	3949
804.488	3945
804.63	4055
804.773	3968
804.915	4040
805.057	4177
805.199	4101
805.341	4086
805.483	4109
805.626	4139
805.768	4116
805.91	4211
806.052	4223
806.194	4196
806.336	4306
806.478	4215
806.62	4154
806.762	4177
806.904	4268
807.046	4325
807.188	4234
807.33	4204
807.472	4284
807.614	4192
807.756	4223
807.898	4223
808.04	4204
808.182	4287
808.324	4310
808.465	4363
808.607	4474
808.749	4443
808.891	4470
809.033	4519
809.174	4421
809.316	4234
809.458	4242
809.6	4124
809.741	4158
809.883	4162
810.025	4249
810.166	4234
810.308	4230
810.45	4280
810.591	4257
810.733	4287
810.875	4481
811.016	4862
811.158	5124
811.299	5315
811.441	5307
811.582	5071
811.724	4729
811.865	4470
812.007	4436
812.148	4428
812.29	4390
812.431	4405
812.573	4462
812.714	4398
812.855	4451
812.997	4432
813.138	4489
813.279	4398
813.421	4402
813.562	4363
813.703	4379
813.845	4371
813.986	4276
814.127	4219
814.268	4306
814.41	4287
814.551	4284
814.692	4333
814.833	4284
814.974	4284
815.115	4325
815.256	4268
815.397	4215
815.539	4299
815.68	4173
815.821	4196
815.962	4333
816.103	4295
816.244	4257
816.385	4181
816.526	4314
816.666	4261
816.807	4048
816.948	4150
817.089	4185
817.23	4082
817.371	4025
817.512	4025
817.653	4101
817.793	4017
817.934	4048
818.075	4128
818.216	4101
818.356	4086
818.497	3991
818.638	3945
818.778	3907
818.919	3880
819.06	3873
819.2	3956
819.341	3857
819.481	3835
819.622	3903
819.762	3994
819.903	3956
820.043	3838
820.184	3846
820.324	3816
820.465	3876
820.605	3842
820.746	3884
820.886	3808
821.026	3896
821.167	3907
821.307	3945
821.447	3979
821.588	3934
821.728	3998
821.868	3926
822.008	3869
822.149	3907
822.289	3892
822.429	3797
822.569	3759
822.709	3808
822.849	3675
822.99	3732
823.13	3747
823.27	3778
823.41	3736
823.55	3732
823.69	3679
823.83	3755
823.97	3701
824.11	3652
824.25	3637
824.389	3637
824.529	3641
824.669	3644
824.809	3736
824.949	3755
825.089	3705
825.228	3720
825.368	3599
825.508	3587
825.648	3618
825.787	3614
825.927	3614
826.067	3625
826.206	3675
826.346	3800
826.485	3831
826.625	3850
826.765	3945
826.904	3838
827.044	3595
827.183	3488
827.323	3500
827.462	3496
827.601	3431
827.741	3409
827.88	3447
828.02	3382
828.159	3454
828.298	3534
828.437	3515
828.577	3488
828.716	3625
828.855	3515
828.994	3370
829.134	3370
829.273	3389
829.412	3336
829.551	3359
829.69	3382
829.829	3424
829.968	3515
830.107	3443
830.246	3401
830.385	3386
830.524	3351
830.663	3321
830.802	3275
830.941	3176
831.08	3199
831.219	3264
831.357	3241
831.496	3412
831.635	3222
831.774	3203
831.913	3241
832.051	3123
832.19	3097
832.329	3279
832.467	3108
832.606	3135
832.744	3188
832.883	3218
833.022	3195
833.16	3268
833.299	3283
833.437	3298
833.576	3374
833.714	3420
833.852	3424
833.991	3481
834.129	3477
834.267	3450
834.406	3405
834.544	3462
834.682	3435
834.821	3389
834.959	3587
835.097	3409
835.235	3523
835.373	3473
835.511	3488
835.65	3458
835.788	3458
835.926	3397
836.064	3401
836.202	3367
836.34	3557
836.478	3618
836.615	3542
836.753	3614
836.891	3656
837.029	3614
837.167	3595
837.305	3584
837.443	3507
837.58	3504
837.718	3572
837.856	3526
837.993	3511
838.131	3587
838.269	3606
838.406	3580
838.544	3576
838.681	3473
838.819	3443
838.956	3389
839.094	3363
839.231	3424
839.369	3545
839.506	3720
839.643	3671
839.781	3523
839.918	3500
840.055	3587
840.193	3519
840.33	3542
840.467	3568
840.604	3599
840.742	3831
840.879	3519
841.016	3568
841.153	3637
841.29	3797
841.427	3713
841.564	3698
841.701	3770
841.838	3667
841.975	3656
842.112	3720
842.249	3618
842.385	3606
842.522	3819
842.659	3705
842.796	3660
842.933	3690
843.069	3705
843.206	3671
843.343	3808
843.479	3736
843.616	3766
843.752	3667
843.889	3682
844.025	3880
844.162	3713
844.298	3838
844.435	3743
844.571	3762
844.708	3903
844.844	3983
844.98	4032
845.117	4032
845.253	3876
845.389	3869
845.525	3968
845.661	3945
845.798	3880
845.934	3994
846.07	3956
846.206	4055
846.342	4109
846.478	4078
846.614	3983
846.75	3937
846.886	3930
847.022	4040
847.158	3956
847.294	4017
847.429	4002
847.565	3998
847.701	4257
847.837	3884
847.972	3911
848.108	3979
848.244	3972
848.379	3873
848.515	3819
848.65	3781
848.786	3797
848.921	3838
849.057	3972
849.192	3941
849.328	3903
849.463	3937
849.598	3930
849.734	3823
849.869	3835
850.004	3770
850.14	3819
850.275	3762
850.41	3720
850.545	3759
850.68	3762
850.815	3812
850.95	3778
851.085	3945
851.22	3915
851.355	3850
851.49	3816
851.625	3812
851.76	3778
851.895	3724
852.03	3732
852.165	3766
852.299	3857
852.434	3892
852.569	3892
852.703	3892
852.838	3937
852.973	4002
853.107	3987
853.242	3884
853.376	3869
853.511	3759
853.645	3831
853.78	3964
853.914	3873
854.048	3880
854.183	3896
854.317	3956
854.451	4059
854.585	3964
854.72	3960
854.854	4013
854.988	3968
855.122	3998
855.256	3899
855.39	3991
855.524	4124
855.658	4078
855.792	4097
855.926	4120
856.06	4169
856.194	4249
856.327	4162
856.461	4150
856.595	4154
856.729	4181
856.862	4291
856.996	4238
857.13	4322
857.263	4325
857.397	4402
857.53	4314
857.664	4299
857.797	4432
857.931	4428
858.064	4386
858.197	4470
858.331	4398
858.464	4383
858.597	4344
858.731	4462
858.864	4466
858.997	4466
859.13	4542
859.263	4607
859.396	4565
859.529	4538
859.662	4573
859.795	4519
859.928	4649
860.061	4691
860.194	4748
860.327	4664
860.46	4584
860.592	4725
860.725	4786
860.858	4820
860.99	4691
861.123	4634
861.256	4679
861.388	4710
861.521	5490
861.653	4733
861.786	4759
861.918	4759
862.05	4793
862.183	4850
862.315	4908
862.447	4934
862.58	4854
862.712	4820
862.844	4748
862.976	4858
863.108	4930
863.24	5235
863.372	4858
863.504	4866
863.636	4885
863.768	4972
863.9	4965
864.032	4896
864.164	4946
864.296	5052
864.428	5052
864.559	5124
864.691	5075
864.823	5147
864.954	5132
865.086	5102
865.217	5128
865.349	5124
865.48	5174
865.612	5204
865.743	5258
865.875	5162
866.006	5189
866.137	5277
866.269	5242
866.4	5235
866.531	5250
866.662	5273
866.793	5265
866.924	5250
867.055	5341
867.186	5334
867.317	5284
867.448	5315
867.579	5334
867.71	5383
867.841	5364
867.972	5493
868.103	5505
868.233	5474
868.364	5490
868.495	5524
868.625	5661
868.756	5764
868.886	5649
869.017	5680
869.147	5836
869.278	5813
869.408	5764
869.539	5779
869.669	5878
869.799	5882
869.929	5999
870.06	6007
870.19	6216
870.32	6186
870.45	6262
870.58	6365
870.71	6369
870.84	6418
870.97	6418
871.1	6437
871.23	6623
871.36	6650
871.489	6654
871.619	6764
871.749	6840
871.879	6901
872.008	6954
872.138	6977
872.267	6970
872.397	7019
872.526	7012
872.656	7103
872.785	7225
872.915	7377
873.044	7472
873.173	7521
873.303	7677
873.432	7700
873.561	7856
873.69	7944
873.819	8050
873.948	8149
874.077	8309
874.206	8309
874.335	8473
874.464	8689
874.593	8979
874.722	8921
874.851	9100
874.979	9283
875.108	9321
875.237	9450
875.365	9500
875.494	9724
875.623	9816
875.751	9816
875.88	10040
876.008	10139
876.136	10284
876.265	10512
876.393	10596
876.521	10763
876.65	10782
876.778	10843
876.906	10850
877.034	10995
877.162	11064
877.29	11121
877.418	11216
877.546	11326
877.674	11490
877.802	11520
877.93	11608
878.058	11501
878.185	11684
878.313	11680
878.441	11676
878.568	11665
878.696	11783
878.824	11805
878.951	11946
879.079	12041
879.206	12125
879.333	12015
879.461	12045
879.588	12114
879.715	12053
879.842	12235
879.97	12110
880.097	11946
880.224	11912
880.351	11916
880.478	11889
880.605	11840
880.732	11878
880.859	12007
880.986	11836
881.112	11843
881.239	11691
881.366	11611
881.493	11634
881.619	11558
881.746	11585
881.872	11490
881.999	11444
882.125	11452
882.252	11532
882.378	11501
882.505	11547
882.631	11318
882.757	11296
882.883	11299
883.01	11261
883.136	11178
883.262	11075
883.388	11075
883.514	11105
883.64	11189
883.766	11105
883.892	11056
884.018	11003
884.143	11136
884.269	11170
884.395	10828
884.52	10740
884.646	10759
884.772	10691
884.897	10687
885.023	10706
885.148	10771
885.274	10828
885.399	10767
885.524	10542
885.65	10588
885.775	10538
885.9	10603
886.025	10527
886.15	10535
886.275	10474
886.4	10421
886.525	10371
886.65	10508
886.775	10318
886.9	10459
887.025	10558
887.149	10356
887.274	10223
887.399	10204
887.523	10215
887.648	10051
887.773	10116
887.897	10257
888.021	10257
888.146	10150
888.27	10227
888.395	10169
888.519	10128
888.643	10154
888.767	10246
888.891	10025
889.015	9968
889.139	10029
889.263	10010
889.387	10067
889.511	10139
889.635	10131
889.759	9964
889.883	10017
890.006	9979
890.13	10124
890.254	10032
890.377	9937
890.501	9865
890.624	9903
890.748	9884
890.871	9823
890.995	9755
891.118	9682
891.241	9724
891.364	9736
891.488	9827
891.611	9740
891.734	9690
891.857	9770
891.98	9671
892.103	9778
892.226	9736
892.349	9690
892.471	9580
892.594	9496
892.717	9576
892.839	9599
892.962	9606
893.085	9622
893.207	9534
893.33	9519
893.452	9523
893.575	9652
893.697	9496
893.819	9591
893.941	9576
894.064	9618
894.186	9477
894.308	9420
894.43	9534
894.552	9553
894.674	9561
894.796	9416
894.918	9367
895.04	9355
895.161	9344
895.283	9321
895.405	9233
895.526	9287
895.648	9275
895.769	9256
895.891	9226
896.012	9260
896.134	9157
896.255	9237
896.376	9108
896.498	9142
896.619	9131
896.74	9108
896.861	9161
896.982	9241
897.103	9275
897.224	9142
897.345	9058
897.466	9013
897.587	9020
897.708	9058
897.828	9058
897.949	9005
898.07	8948
898.19	8975
898.311	9017
898.431	8895
898.552	8933
898.672	9017
898.792	8956
898.913	8918
899.033	8811
899.153	8724
899.273	8667
899.393	8724
899.513	8762
899.633	8708
899.753	8724
899.873	8701
899.993	8674
900.113	8731
900.232	8670
900.352	8724
900.472	8659
900.591	8606
900.711	8530
900.83	8499
900.95	8625
901.069	8739
901.189	8610
901.308	8431
901.427	8404
901.546	8374
901.665	8461
901.784	8396
901.904	8317
902.023	8305
902.141	8191
902.26	8275
902.379	8259
902.498	8240
902.617	8214
902.735	8282
902.854	8313
902.973	8225
903.091	8123
903.21	8123
903.328	8225
903.446	8153
903.565	8001
903.683	8046
903.801	8065
903.919	8103
904.038	8092
904.156	8050
904.274	8065
904.392	7944
904.51	7974
904.627	8115
904.745	8126
904.863	8115
904.981	7921
905.098	7860
905.216	7879
905.334	7936
905.451	7917
905.569	7894
905.686	7993
905.803	7898
905.921	7807
906.038	7917
906.155	7807
906.272	7750
906.389	7727
906.506	7696
906.623	7708
906.74	7544
906.857	7506
906.974	7578
907.091	7670
907.208	7715
907.324	7685
907.441	7605
907.557	7506
907.674	7445
907.79	7339
907.907	7392
908.023	7468
908.139	7411
908.256	7346
908.372	7335
908.488	7388
908.604	7297
908.72	7251
908.836	7274
908.952	7278
909.068	7289
909.184	7324
909.3	7305
909.415	7282
909.531	7278
909.647	7126
909.762	7072
909.878	7110
909.993	7072
910.108	7107
910.224	7133
910.339	7080
910.454	7000
910.57	7046
910.685	7019
910.8	7183
910.915	7095
911.03	6993
911.145	6901
911.259	6821
911.374	6920
911.489	6840
911.604	6806
911.718	6719
911.833	6711
911.947	6604
912.062	6631
912.176	6768
912.291	6673
912.405	6681
912.519	6871
912.633	6798
912.748	6738
912.862	6665
912.976	6635
913.09	6582
913.204	6623
913.318	6639
913.431	6665
913.545	6662
913.659	6734
913.772	6608
913.886	6585
914	6555
914.113	6627
914.226	6604
914.34	6684
914.453	6475
914.566	6601
914.68	6536
914.793	6547
914.906	6376
915.019	6388
915.132	6342
915.245	6311
915.358	6475
915.47	6490
915.583	6376
915.696	6498
915.809	6544
915.921	6513
916.034	6372
916.146	6369
916.259	6365
916.371	6494
916.483	6475
916.595	6391
916.708	6403
916.82	6395
916.932	6361
917.044	6426
917.156	6410
917.268	6350
917.38	6331
917.491	6289
917.603	6365
917.715	6395
917.826	6448
917.938	6327
918.049	6304
918.161	6346
918.272	6407
918.384	6479
918.495	6384
918.606	6228
918.717	6178
918.828	6251
918.939	6239
919.05	6224
919.161	6273
919.272	6133
919.383	6175
919.494	6311
919.604	6452
919.715	6304
919.826	6247
919.936	6281
920.047	6319
920.157	6243
920.267	6452
920.378	6346
920.488	6239
920.598	6437
920.708	6551
920.818	6448
920.928	6441
921.038	6559
921.148	6570
921.258	6338
921.368	6232
921.477	6270
921.587	6213
921.697	6049
921.806	6167
921.916	6022
922.025	6007
922.134	5916
922.244	5844
922.353	5954
922.462	5885
922.571	5821
922.68	5779
922.789	5680
922.898	5672
923.007	5691
923.116	5737
923.224	5661
923.333	5665
923.442	5592
923.55	5535
923.659	5573
923.767	5638
923.876	5535
923.984	5615
924.092	5440
924.201	5535
924.309	5573
924.417	5535
924.525	5520
924.633	5455
924.741	6114
924.849	5391
924.956	5493
925.064	5326
925.172	5303
925.279	5311
925.387	5311
925.494	5402
925.602	5372
925.709	5383
925.816	5246
925.924	5360
926.031	5360
926.138	5273
926.245	5353
926.352	5185
926.459	5322
926.566	5322
926.673	5223
926.779	5128
926.886	5155
926.993	5045
927.099	5018
927.206	5018
927.312	4984
927.419	5018
927.525	5003
927.631	4995
927.737	4873
927.843	4858
927.95	4752
928.056	4843
928.162	4831
928.267	4866
928.373	5383
928.479	4873
928.585	4710
928.69	4759
928.796	4801
928.901	4672
929.007	4596
929.112	4653
929.218	4649
929.323	4668
929.428	4542
929.533	4653
929.638	4485
929.743	4512
929.848	4584
929.953	4489
930.058	4478
930.163	4360
930.267	4356
930.372	4459
930.477	4310
930.581	4478
930.685	4306
930.79	4268
930.894	4284
930.998	4276
931.103	4375
931.207	4120
931.311	4097
931.415	4010
931.519	3941
931.623	3922
