Data from glass_V78500241_769.txt Node
Date: Wed Sep 01 19:19:49 CST 2021
User: usil
Spectrometer: V785-0024
Trigger mode: 0
Integration Time (sec): 4.000000E-1
Scans to average: 1
Nonlinearity correction enabled: false
Boxcar width: 0
Storing dark spectrum: false
XAxis mode: Wavelengths
Number of Pixels in Spectrum: 1024
>>>>>Begin Spectral Data<<<<<
801.071	3778
801.214	3751
801.356	3701
801.499	3770
801.641	3743
801.783	3762
801.926	3922
802.068	3842
802.211	3846
802.353	3884
802.496	3850
802.638	3869
802.78	3915
802.923	3896
803.065	3922
803.208	3827
803.35	3884
803.492	3956
803.635	3975
803.777	3812
803.919	3922
804.061	4200
804.204	3964
804.346	3953
804.488	3903
804.63	3994
804.773	3994
804.915	4036
805.057	4173
805.199	4067
805.341	4109
805.483	4150
805.626	4177
805.768	4173
805.91	4204
806.052	4246
806.194	4215
806.336	4329
806.478	4227
806.62	4185
806.762	4185
806.904	4257
807.046	4303
807.188	4257
807.33	4177
807.472	4295
807.614	4215
807.756	4249
807.898	4207
808.04	4223
808.182	4303
808.324	4329
808.465	4379
808.607	4455
808.749	4493
808.891	4485
809.033	4523
809.174	4447
809.316	4265
809.458	4268
809.6	4154
809.741	4162
809.883	4215
810.025	4219
810.166	4230
810.308	4303
810.45	4261
810.591	4295
810.733	4284
810.875	4519
811.016	4835
811.158	5128
811.299	5284
811.441	5208
811.582	5090
811.724	4702
811.865	4500
812.007	4493
812.148	4417
812.29	4428
812.431	4462
812.573	4405
812.714	4398
812.855	4402
812.997	4451
813.138	4500
813.279	4443
813.421	4344
813.562	4337
813.703	4291
813.845	4390
813.986	4272
814.127	4223
814.268	4287
814.41	4322
814.551	4272
814.692	4314
814.833	4234
814.974	4310
815.115	4352
815.256	4234
815.397	4291
815.539	4253
815.68	4200
815.821	4230
815.962	4337
816.103	4272
816.244	4215
816.385	4280
816.526	4333
816.666	4200
816.807	4078
816.948	4162
817.089	4223
817.23	4143
817.371	4082
817.512	4048
817.653	4059
817.793	4071
817.934	4112
818.075	4086
818.216	4078
818.356	4078
818.497	3968
818.638	3907
818.778	3915
818.919	3888
819.06	3896
819.2	3892
819.341	3892
819.481	3831
819.622	3926
819.762	4032
819.903	3930
820.043	3846
820.184	3869
820.324	3808
820.465	3907
820.605	3937
820.746	3903
820.886	3808
821.026	3964
821.167	3953
821.307	4002
821.447	4010
821.588	3987
821.728	3994
821.868	3956
822.008	3854
822.149	3983
822.289	3888
822.429	3781
822.569	3793
822.709	3781
822.849	3694
822.99	3759
823.13	3759
823.27	3819
823.41	3766
823.55	3785
823.69	3720
823.83	3759
823.97	3675
824.11	3625
824.25	3641
824.389	3633
824.529	3644
824.669	3595
824.809	3732
824.949	3759
825.089	3778
825.228	3740
825.368	3595
825.508	3580
825.648	3603
825.787	3641
825.927	3648
826.067	3656
826.206	3694
826.346	3797
826.485	3880
826.625	3892
826.765	3956
826.904	3861
827.044	3633
827.183	3549
827.323	3443
827.462	3496
827.601	3431
827.741	3424
827.88	3473
828.02	3393
828.159	3439
828.298	3496
828.437	3538
828.577	3469
828.716	3614
828.855	3488
828.994	3386
829.134	3397
829.273	3359
829.412	3317
829.551	3367
829.69	3382
829.829	3393
829.968	3526
830.107	3443
830.246	3450
830.385	3386
830.524	3332
830.663	3313
830.802	3275
830.941	3211
831.08	3199
831.219	3291
831.357	3249
831.496	3424
831.635	3214
831.774	3199
831.913	3192
832.051	3131
832.19	3112
832.329	3230
832.467	3165
832.606	3119
832.744	3188
832.883	3203
833.022	3203
833.16	3241
833.299	3317
833.437	3317
833.576	3367
833.714	3393
833.852	3435
833.991	3458
834.129	3435
834.267	3450
834.406	3401
834.544	3424
834.682	3405
834.821	3431
834.959	3576
835.097	3447
835.235	3538
835.373	3507
835.511	3504
835.65	3511
835.788	3515
835.926	3401
836.064	3401
836.202	3409
836.34	3564
836.478	3652
836.615	3542
836.753	3637
836.891	3648
837.029	3633
837.167	3584
837.305	3587
837.443	3595
837.58	3519
837.718	3584
837.856	3572
837.993	3515
838.131	3576
838.269	3587
838.406	3587
838.544	3587
838.681	3469
838.819	3481
838.956	3397
839.094	3428
839.231	3454
839.369	3561
839.506	3747
839.643	3652
839.781	3530
839.918	3481
840.055	3549
840.193	3542
840.33	3580
840.467	3587
840.604	3656
840.742	3793
840.879	3538
841.016	3561
841.153	3644
841.29	3762
841.427	3740
841.564	3724
841.701	3759
841.838	3713
841.975	3682
842.112	3732
842.249	3701
842.385	3603
842.522	3880
842.659	3701
842.796	3675
842.933	3701
843.069	3732
843.206	3759
843.343	3819
843.479	3800
843.616	3838
843.752	3633
843.889	3660
844.025	3876
844.162	3740
844.298	3873
844.435	3819
844.571	3751
844.708	3899
844.844	4032
844.98	4017
845.117	3983
845.253	3964
845.389	3907
845.525	3949
845.661	3956
845.798	3941
845.934	4025
846.07	4017
846.206	4109
846.342	4105
846.478	4055
846.614	4010
846.75	3937
846.886	3892
847.022	4074
847.158	3972
847.294	3994
847.429	4013
847.565	3983
847.701	4253
847.837	3915
847.972	3857
848.108	4017
848.244	3979
848.379	3876
848.515	3827
848.65	3827
848.786	3831
848.921	3896
849.057	3991
849.192	3960
849.328	3941
849.463	3956
849.598	3896
849.734	3876
849.869	3850
850.004	3827
850.14	3850
850.275	3812
850.41	3766
850.545	3804
850.68	3789
850.815	3808
850.95	3831
851.085	3945
851.22	3903
851.355	3869
851.49	3774
851.625	3838
851.76	3816
851.895	3728
852.03	3759
852.165	3800
852.299	3876
852.434	3926
852.569	3892
852.703	3873
852.838	3937
852.973	4036
853.107	4021
853.242	3926
853.376	3854
853.511	3804
853.645	3880
853.78	3960
853.914	3945
854.048	3953
854.183	3918
854.317	3972
854.451	4071
854.585	3964
854.72	3968
854.854	4032
854.988	3960
855.122	3998
855.256	3975
855.39	4017
855.524	4101
855.658	4059
855.792	4109
855.926	4150
856.06	4200
856.194	4219
856.327	4139
856.461	4074
856.595	4173
856.729	4207
856.862	4284
856.996	4253
857.13	4329
857.263	4341
857.397	4363
857.53	4337
857.664	4344
857.797	4386
857.931	4428
858.064	4379
858.197	4432
858.331	4390
858.464	4356
858.597	4356
858.731	4466
858.864	4413
858.997	4481
859.13	4546
859.263	4565
859.396	4580
859.529	4546
859.662	4542
859.795	4538
859.928	4615
860.061	4660
860.194	4740
860.327	4664
860.46	4672
860.592	4710
860.725	4744
860.858	4748
860.99	4698
861.123	4729
861.256	4679
861.388	4778
861.521	5414
861.653	4721
861.786	4698
861.918	4797
862.05	4847
862.183	4850
862.315	4911
862.447	4976
862.58	4877
862.712	4854
862.844	4733
862.976	4850
863.108	4877
863.24	5250
863.372	4862
863.504	4953
863.636	4896
863.768	5003
863.9	4980
864.032	4908
864.164	4968
864.296	4980
864.428	5105
864.559	5117
864.691	5079
864.823	5105
864.954	5094
865.086	5136
865.217	5109
865.349	5140
865.48	5174
865.612	5212
865.743	5273
865.875	5204
866.006	5216
866.137	5288
866.269	5254
866.4	5280
866.531	5254
866.662	5292
866.793	5288
866.924	5288
867.055	5341
867.186	5353
867.317	5341
867.448	5292
867.579	5425
867.71	5372
867.841	5414
867.972	5471
868.103	5501
868.233	5463
868.364	5539
868.495	5592
868.625	5638
868.756	5783
868.886	5726
869.017	5729
869.147	5828
869.278	5813
869.408	5844
869.539	5874
869.669	5965
869.799	5935
869.929	6034
870.06	6019
870.19	6182
870.32	6190
870.45	6315
870.58	6361
870.71	6426
870.84	6498
870.97	6414
871.1	6441
871.23	6654
871.36	6745
871.489	6658
871.619	6768
871.749	6848
871.879	6954
872.008	6951
872.138	7000
872.267	7004
872.397	6970
872.526	7042
872.656	7133
872.785	7278
872.915	7369
873.044	7506
873.173	7575
873.303	7632
873.432	7738
873.561	7902
873.69	7913
873.819	8020
873.948	8172
874.077	8282
874.206	8355
874.335	8511
874.464	8659
874.593	8853
874.722	8948
874.851	9150
874.979	9119
875.108	9416
875.237	9447
875.365	9515
875.494	9572
875.623	9846
875.751	9808
875.88	9983
876.008	10135
876.136	10234
876.265	10508
876.393	10683
876.521	10592
876.65	10866
876.778	10915
876.906	10942
877.034	10938
877.162	11098
877.29	11094
877.418	11299
877.546	11391
877.674	11459
877.802	11463
877.93	11520
878.058	11554
878.185	11558
878.313	11600
878.441	11737
878.568	11680
878.696	11767
878.824	11836
878.951	11984
879.079	11992
879.206	12110
879.333	12095
879.461	11999
879.588	12175
879.715	12140
879.842	12197
879.97	12057
880.097	11897
880.224	11866
880.351	11843
880.478	11843
880.605	11847
880.732	11859
880.859	12041
880.986	11828
881.112	11866
881.239	11642
881.366	11642
881.493	11688
881.619	11558
881.746	11539
881.872	11539
881.999	11547
882.125	11455
882.252	11558
882.378	11463
882.505	11524
882.631	11444
882.757	11246
882.883	11280
883.01	11303
883.136	11201
883.262	11197
883.388	11117
883.514	11159
883.64	11193
883.766	11090
883.892	10976
884.018	11045
884.143	11048
884.269	11147
884.395	10828
884.52	10729
884.646	10725
884.772	10725
884.897	10683
885.023	10687
885.148	10793
885.274	10675
885.399	10668
885.524	10637
885.65	10596
885.775	10637
885.9	10516
886.025	10626
886.15	10542
886.275	10459
886.4	10409
886.525	10478
886.65	10405
886.775	10306
886.9	10565
887.025	10542
887.149	10367
887.274	10261
887.399	10207
887.523	10192
887.648	10131
887.773	10147
887.897	10223
888.021	10196
888.146	10135
888.27	10253
888.395	10150
888.519	10150
888.643	10200
888.767	10173
888.891	10128
889.015	10002
889.139	10078
889.263	10013
889.387	9998
889.511	10158
889.635	10067
889.759	9949
889.883	9968
890.006	9930
890.13	10074
890.254	10013
890.377	9968
890.501	9850
890.624	9865
890.748	9945
890.871	9808
890.995	9759
891.118	9625
891.241	9812
891.364	9781
891.488	9819
891.611	9694
891.734	9838
891.857	9789
891.98	9720
892.103	9857
892.226	9728
892.349	9641
892.471	9538
892.594	9568
892.717	9667
892.839	9549
892.962	9660
893.085	9629
893.207	9622
893.33	9614
893.452	9519
893.575	9606
893.697	9488
893.819	9618
893.941	9652
894.064	9637
894.186	9454
894.308	9386
894.43	9523
894.552	9595
894.674	9549
894.796	9370
894.918	9477
895.04	9370
895.161	9370
895.283	9469
895.405	9203
895.526	9294
895.648	9310
895.769	9310
895.891	9291
896.012	9287
896.134	9233
896.255	9237
896.376	9097
896.498	9165
896.619	9214
896.74	9081
896.861	9142
896.982	9203
897.103	9279
897.224	9176
897.345	9093
897.466	8986
897.587	9032
897.708	9058
897.828	8998
897.949	8838
898.07	8845
898.19	8941
898.311	9020
898.431	8876
898.552	8902
898.672	9013
898.792	9001
898.913	8902
899.033	8902
899.153	8674
899.273	8708
899.393	8674
899.513	8800
899.633	8644
899.753	8727
899.873	8720
899.993	8701
900.113	8716
900.232	8762
900.352	8746
900.472	8552
900.591	8568
900.711	8682
900.83	8541
900.95	8632
901.069	8708
901.189	8518
901.308	8461
901.427	8377
901.546	8461
901.665	8469
901.784	8461
901.904	8377
902.023	8355
902.141	8282
902.26	8195
902.379	8351
902.498	8244
902.617	8210
902.735	8313
902.854	8290
902.973	8286
903.091	8126
903.21	8138
903.328	8145
903.446	8130
903.565	8134
903.683	8111
903.801	8107
903.919	8134
904.038	8153
904.156	8065
904.274	8103
904.392	8008
904.51	8012
904.627	8103
904.745	8035
904.863	8069
904.981	7936
905.098	7864
905.216	7879
905.334	7921
905.451	7944
905.569	7883
905.686	7913
905.803	7928
905.921	7742
906.038	7894
906.155	7769
906.272	7696
906.389	7742
906.506	7647
906.623	7658
906.74	7628
906.857	7582
906.974	7567
907.091	7647
907.208	7776
907.324	7655
907.441	7552
907.557	7476
907.674	7464
907.79	7346
907.907	7381
908.023	7483
908.139	7460
908.256	7411
908.372	7411
908.488	7384
908.604	7270
908.72	7190
908.836	7312
908.952	7285
909.068	7266
909.184	7297
909.3	7335
909.415	7247
909.531	7289
909.647	7126
909.762	7122
909.878	7065
909.993	7160
910.108	7103
910.224	7107
910.339	7114
910.454	7065
910.57	7046
910.685	6935
910.8	7156
910.915	7137
911.03	7008
911.145	6928
911.259	6951
911.374	6928
911.489	6840
911.604	6798
911.718	6730
911.833	6757
911.947	6673
912.062	6654
912.176	6711
912.291	6734
912.405	6673
912.519	6825
912.633	6859
912.748	6791
912.862	6753
912.976	6654
913.09	6544
913.204	6620
913.318	6616
913.431	6684
913.545	6692
913.659	6722
913.772	6669
913.886	6620
914	6547
914.113	6612
914.226	6650
914.34	6612
914.453	6574
914.566	6635
914.68	6528
914.793	6551
914.906	6437
915.019	6418
915.132	6365
915.245	6448
915.358	6460
915.47	6448
915.583	6403
915.696	6410
915.809	6521
915.921	6589
916.034	6441
916.146	6433
916.259	6414
916.371	6490
916.483	6486
916.595	6418
916.708	6467
916.82	6448
916.932	6410
917.044	6353
917.156	6388
917.268	6311
917.38	6285
917.491	6304
917.603	6380
917.715	6445
917.826	6407
917.938	6380
918.049	6262
918.161	6384
918.272	6388
918.384	6399
918.495	6365
918.606	6243
918.717	6235
918.828	6243
918.939	6285
919.05	6247
919.161	6315
919.272	6136
919.383	6117
919.494	6350
919.604	6410
919.715	6251
919.826	6228
919.936	6232
920.047	6414
920.157	6281
920.267	6437
920.378	6350
920.488	6292
920.598	6437
920.708	6608
920.818	6544
920.928	6486
921.038	6620
921.148	6654
921.258	6365
921.368	6311
921.477	6254
921.587	6228
921.697	6087
921.806	6190
921.916	6034
922.025	5958
922.134	5904
922.244	5939
922.353	5912
922.462	5832
922.571	5809
922.68	5699
922.789	5756
922.898	5691
923.007	5604
923.116	5653
923.224	5695
923.333	5684
923.442	5634
923.55	5627
923.659	5646
923.767	5657
923.876	5547
923.984	5611
924.092	5524
924.201	5558
924.309	5570
924.417	5585
924.525	5547
924.633	5505
924.741	6148
924.849	5376
924.956	5455
925.064	5337
925.172	5334
925.279	5254
925.387	5417
925.494	5345
925.602	5448
925.709	5383
925.816	5330
925.924	5280
926.031	5383
926.138	5360
926.245	5402
926.352	5231
926.459	5360
926.566	5315
926.673	5261
926.779	5147
926.886	5136
926.993	5052
927.099	5029
927.206	5010
927.312	4938
927.419	4991
927.525	4949
927.631	4976
927.737	4881
927.843	4877
927.95	4786
928.056	4847
928.162	4862
928.267	4854
928.373	5330
928.479	4881
928.585	4710
928.69	4805
928.796	4816
928.901	4679
929.007	4607
929.112	4641
929.218	4634
929.323	4615
929.428	4538
929.533	4634
929.638	4497
929.743	4584
929.848	4565
929.953	4577
930.058	4447
930.163	4341
930.267	4329
930.372	4451
930.477	4287
930.581	4466
930.685	4383
930.79	4310
930.894	4314
930.998	4257
931.103	4367
931.207	4131
931.311	4074
931.415	4048
931.519	3918
931.623	3907
