Data from glass_V78500241_1532.txt Node
Date: Wed Sep 01 19:25:07 CST 2021
User: usil
Spectrometer: V785-0024
Trigger mode: 0
Integration Time (sec): 4.000000E-1
Scans to average: 1
Nonlinearity correction enabled: false
Boxcar width: 0
Storing dark spectrum: false
XAxis mode: Wavelengths
Number of Pixels in Spectrum: 1024
>>>>>Begin Spectral Data<<<<<
801.071	3751
801.214	3713
801.356	3724
801.499	3755
801.641	3717
801.783	3720
801.926	3816
802.068	3778
802.211	3857
802.353	3888
802.496	3846
802.638	3918
802.78	3907
802.923	3926
803.065	3953
803.208	3865
803.35	3846
803.492	3899
803.635	3945
803.777	3774
803.919	3899
804.061	4139
804.204	3934
804.346	3968
804.488	3922
804.63	4059
804.773	3956
804.915	4017
805.057	4166
805.199	4017
805.341	4067
805.483	4120
805.626	4181
805.768	4116
805.91	4192
806.052	4204
806.194	4219
806.336	4398
806.478	4234
806.62	4093
806.762	4234
806.904	4249
807.046	4306
807.188	4223
807.33	4181
807.472	4242
807.614	4177
807.756	4249
807.898	4249
808.04	4211
808.182	4303
808.324	4352
808.465	4390
808.607	4451
808.749	4398
808.891	4508
809.033	4516
809.174	4363
809.316	4253
809.458	4257
809.6	4177
809.741	4154
809.883	4131
810.025	4196
810.166	4158
810.308	4211
810.45	4227
810.591	4219
810.733	4287
810.875	4478
811.016	4809
811.158	5128
811.299	5258
811.441	5284
811.582	5098
811.724	4706
811.865	4478
812.007	4447
812.148	4428
812.29	4447
812.431	4402
812.573	4352
812.714	4344
812.855	4417
812.997	4352
813.138	4508
813.279	4424
813.421	4379
813.562	4375
813.703	4314
813.845	4348
813.986	4242
814.127	4219
814.268	4314
814.41	4287
814.551	4284
814.692	4363
814.833	4284
814.974	4310
815.115	4356
815.256	4257
815.397	4249
815.539	4242
815.68	4227
815.821	4238
815.962	4318
816.103	4291
816.244	4276
816.385	4207
816.526	4280
816.666	4177
816.807	4169
816.948	4196
817.089	4147
817.23	4093
817.371	4048
817.512	4010
817.653	4078
817.793	4036
817.934	4059
818.075	4109
818.216	4082
818.356	4109
818.497	3987
818.638	3907
818.778	3903
818.919	3884
819.06	3869
819.2	3880
819.341	3911
819.481	3827
819.622	3884
819.762	4025
819.903	3979
820.043	3846
820.184	3846
820.324	3800
820.465	3903
820.605	3873
820.746	3850
820.886	3762
821.026	3915
821.167	3922
821.307	3983
821.447	3975
821.588	3968
821.728	3941
821.868	3934
822.008	3808
822.149	3918
822.289	3945
822.429	3781
822.569	3774
822.709	3732
822.849	3740
822.99	3720
823.13	3694
823.27	3789
823.41	3698
823.55	3682
823.69	3698
823.83	3747
823.97	3663
824.11	3622
824.25	3576
824.389	3614
824.529	3656
824.669	3652
824.809	3759
824.949	3781
825.089	3781
825.228	3694
825.368	3564
825.508	3564
825.648	3591
825.787	3622
825.927	3629
826.067	3606
826.206	3667
826.346	3804
826.485	3823
826.625	3876
826.765	3899
826.904	3781
827.044	3610
827.183	3519
827.323	3412
827.462	3492
827.601	3469
827.741	3447
827.88	3443
828.02	3359
828.159	3450
828.298	3458
828.437	3511
828.577	3500
828.716	3603
828.855	3519
828.994	3389
829.134	3363
829.273	3420
829.412	3329
829.551	3355
829.69	3378
829.829	3397
829.968	3485
830.107	3416
830.246	3431
830.385	3393
830.524	3351
830.663	3340
830.802	3291
830.941	3214
831.08	3199
831.219	3291
831.357	3230
831.496	3431
831.635	3256
831.774	3230
831.913	3211
832.051	3108
832.19	3142
832.329	3199
832.467	3135
832.606	3142
832.744	3157
832.883	3192
833.022	3195
833.16	3291
833.299	3272
833.437	3283
833.576	3363
833.714	3393
833.852	3428
833.991	3473
834.129	3458
834.267	3443
834.406	3416
834.544	3454
834.682	3454
834.821	3409
834.959	3584
835.097	3420
835.235	3549
835.373	3473
835.511	3515
835.65	3469
835.788	3435
835.926	3363
836.064	3367
836.202	3382
836.34	3568
836.478	3564
836.615	3515
836.753	3591
836.891	3625
837.029	3610
837.167	3549
837.305	3557
837.443	3534
837.58	3500
837.718	3587
837.856	3576
837.993	3523
838.131	3625
838.269	3584
838.406	3610
838.544	3599
838.681	3523
838.819	3454
838.956	3382
839.094	3378
839.231	3477
839.369	3523
839.506	3751
839.643	3633
839.781	3496
839.918	3485
840.055	3504
840.193	3511
840.33	3549
840.467	3584
840.604	3610
840.742	3831
840.879	3515
841.016	3545
841.153	3572
841.29	3747
841.427	3709
841.564	3705
841.701	3724
841.838	3717
841.975	3686
842.112	3785
842.249	3629
842.385	3610
842.522	3819
842.659	3675
842.796	3686
842.933	3694
843.069	3679
843.206	3717
843.343	3804
843.479	3766
843.616	3774
843.752	3690
843.889	3656
844.025	3842
844.162	3736
844.298	3835
844.435	3823
844.571	3789
844.708	3926
844.844	3975
844.98	4002
845.117	4032
845.253	3896
845.389	3911
845.525	3903
845.661	3972
845.798	3926
845.934	4002
846.07	3941
846.206	4063
846.342	4112
846.478	4082
846.614	3918
846.75	3953
846.886	3903
847.022	4021
847.158	3964
847.294	4002
847.429	3975
847.565	4006
847.701	4230
847.837	3907
847.972	3831
848.108	3975
848.244	3991
848.379	3873
848.515	3835
848.65	3812
848.786	3827
848.921	3876
849.057	3888
849.192	3960
849.328	3915
849.463	3903
849.598	3922
849.734	3861
849.869	3827
850.004	3759
850.14	3816
850.275	3743
850.41	3759
850.545	3732
850.68	3789
850.815	3804
850.95	3823
851.085	3941
851.22	3907
851.355	3793
851.49	3800
851.625	3804
851.76	3766
851.895	3717
852.03	3755
852.165	3827
852.299	3785
852.434	3884
852.569	3873
852.703	3884
852.838	3915
852.973	3979
853.107	4044
853.242	3899
853.376	3823
853.511	3819
853.645	3884
853.78	3998
853.914	3918
854.048	3918
854.183	3842
854.317	3918
854.451	4051
854.585	4002
854.72	3930
854.854	4029
854.988	3983
855.122	4017
855.256	3953
855.39	3975
855.524	4109
855.658	4067
855.792	4105
855.926	4139
856.06	4154
856.194	4185
856.327	4105
856.461	4128
856.595	4185
856.729	4150
856.862	4257
856.996	4238
857.13	4287
857.263	4295
857.397	4360
857.53	4276
857.664	4344
857.797	4375
857.931	4432
858.064	4421
858.197	4424
858.331	4402
858.464	4421
858.597	4386
858.731	4478
858.864	4493
858.997	4432
859.13	4527
859.263	4580
859.396	4599
859.529	4565
859.662	4508
859.795	4569
859.928	4607
860.061	4664
860.194	4717
860.327	4691
860.46	4645
860.592	4748
860.725	4771
860.858	4778
860.99	4721
861.123	4675
861.256	4698
861.388	4774
861.521	5505
861.653	4698
861.786	4736
861.918	4744
862.05	4797
862.183	4873
862.315	4892
862.447	4915
862.58	4831
862.712	4831
862.844	4714
862.976	4850
863.108	4889
863.24	5277
863.372	4839
863.504	4923
863.636	4896
863.768	4961
863.9	4968
864.032	4896
864.164	4946
864.296	5048
864.428	5090
864.559	5113
864.691	5147
864.823	5083
864.954	5124
865.086	5121
865.217	5109
865.349	5113
865.48	5178
865.612	5136
865.743	5299
865.875	5174
866.006	5174
866.137	5269
866.269	5269
866.4	5220
866.531	5261
866.662	5223
866.793	5303
866.924	5292
867.055	5345
867.186	5337
867.317	5307
867.448	5288
867.579	5353
867.71	5417
867.841	5383
867.972	5448
868.103	5490
868.233	5482
868.364	5478
868.495	5532
868.625	5619
868.756	5828
868.886	5668
869.017	5718
869.147	5889
869.278	5882
869.408	5779
869.539	5836
869.669	5904
869.799	5878
869.929	5992
870.06	6019
870.19	6194
870.32	6159
870.45	6194
870.58	6403
870.71	6399
870.84	6464
870.97	6418
871.1	6494
871.23	6608
871.36	6673
871.489	6623
871.619	6768
871.749	6783
871.879	6787
872.008	7027
872.138	6977
872.267	6966
872.397	7027
872.526	7008
872.656	7145
872.785	7179
872.915	7324
873.044	7502
873.173	7552
873.303	7689
873.432	7712
873.561	7788
873.69	7932
873.819	8031
873.948	8199
874.077	8206
874.206	8374
874.335	8450
874.464	8712
874.593	8815
874.722	8872
874.851	9112
874.979	9256
875.108	9420
875.237	9439
875.365	9519
875.494	9568
875.623	9861
875.751	9804
875.88	9994
876.008	10029
876.136	10310
876.265	10497
876.393	10714
876.521	10752
876.65	10866
876.778	10847
876.906	10885
877.034	10949
877.162	11056
877.29	11178
877.418	11220
877.546	11318
877.674	11425
877.802	11455
877.93	11425
878.058	11566
878.185	11600
878.313	11646
878.441	11718
878.568	11684
878.696	11805
878.824	11882
878.951	11980
879.079	12068
879.206	12163
879.333	12129
879.461	11969
879.588	12053
879.715	12060
879.842	12232
879.97	12087
880.097	11832
880.224	11893
880.351	11847
880.478	11889
880.605	11855
880.732	11912
880.859	11961
880.986	11923
881.112	11832
881.239	11722
881.366	11741
881.493	11611
881.619	11589
881.746	11566
881.872	11539
881.999	11463
882.125	11391
882.252	11562
882.378	11490
882.505	11566
882.631	11345
882.757	11303
882.883	11406
883.01	11315
883.136	11185
883.262	11159
883.388	11033
883.514	11185
883.64	11147
883.766	11113
883.892	11075
884.018	10915
884.143	11052
884.269	11094
884.395	10850
884.52	10771
884.646	10854
884.772	10805
884.897	10660
885.023	10698
885.148	10717
885.274	10786
885.399	10725
885.524	10615
885.65	10577
885.775	10637
885.9	10550
886.025	10569
886.15	10554
886.275	10386
886.4	10375
886.525	10402
886.65	10409
886.775	10367
886.9	10516
887.025	10523
887.149	10363
887.274	10246
887.399	10223
887.523	10181
887.648	10109
887.773	10101
887.897	10257
888.021	10207
888.146	10090
888.27	10219
888.395	10116
888.519	10158
888.643	10120
888.767	10246
888.891	10116
889.015	9968
889.139	10101
889.263	9960
889.387	10067
889.511	10162
889.635	10116
889.759	9987
889.883	10032
890.006	10025
890.13	10067
890.254	9937
890.377	9972
890.501	9838
890.624	9876
890.748	9918
890.871	9789
890.995	9781
891.118	9751
891.241	9816
891.364	9644
891.488	9831
891.611	9759
891.734	9770
891.857	9774
891.98	9747
892.103	9781
892.226	9682
892.349	9591
892.471	9557
892.594	9523
892.717	9648
892.839	9564
892.962	9614
893.085	9629
893.207	9542
893.33	9511
893.452	9523
893.575	9492
893.697	9515
893.819	9690
893.941	9675
894.064	9557
894.186	9405
894.308	9435
894.43	9629
894.552	9576
894.674	9599
894.796	9439
894.918	9374
895.04	9382
895.161	9344
895.283	9416
895.405	9279
895.526	9218
895.648	9199
895.769	9176
895.891	9294
896.012	9256
896.134	9260
896.255	9150
896.376	9104
896.498	9161
896.619	9157
896.74	9108
896.861	9150
896.982	9310
897.103	9275
897.224	9184
897.345	9077
897.466	8967
897.587	9047
897.708	9100
897.828	9089
897.949	9058
898.07	8941
898.19	8891
898.311	8948
898.431	8807
898.552	8963
898.672	9001
898.792	8952
898.913	8899
899.033	8792
899.153	8777
899.273	8674
899.393	8705
899.513	8788
899.633	8746
899.753	8697
899.873	8701
899.993	8796
900.113	8640
900.232	8766
900.352	8655
900.472	8594
900.591	8571
900.711	8617
900.83	8526
900.95	8621
901.069	8735
901.189	8590
901.308	8438
901.427	8400
901.546	8419
901.665	8495
901.784	8514
901.904	8434
902.023	8336
902.141	8206
902.26	8244
902.379	8294
902.498	8214
902.617	8153
902.735	8259
902.854	8263
902.973	8240
903.091	8123
903.21	8180
903.328	8176
903.446	8111
903.565	8039
903.683	8138
903.801	8027
903.919	8084
904.038	8149
904.156	8005
904.274	8123
904.392	7925
904.51	8065
904.627	8134
904.745	8016
904.863	8092
904.981	7997
905.098	7856
905.216	7818
905.334	7864
905.451	7868
905.569	7818
905.686	7947
905.803	7921
905.921	7788
906.038	7860
906.155	7826
906.272	7727
906.389	7734
906.506	7677
906.623	7613
906.74	7594
906.857	7597
906.974	7616
907.091	7769
907.208	7719
907.324	7651
907.441	7514
907.557	7464
907.674	7510
907.79	7419
907.907	7384
908.023	7457
908.139	7422
908.256	7362
908.372	7365
908.488	7278
908.604	7240
908.72	7251
908.836	7343
908.952	7251
909.068	7270
909.184	7400
909.3	7236
909.415	7282
909.531	7179
909.647	7076
909.762	7095
909.878	7114
909.993	7114
910.108	7042
910.224	7156
910.339	7088
910.454	7012
910.57	7015
910.685	6932
910.8	7145
910.915	7095
911.03	7046
911.145	6882
911.259	6901
911.374	6916
911.489	6829
911.604	6779
911.718	6703
911.833	6722
911.947	6604
912.062	6631
912.176	6677
912.291	6696
912.405	6738
912.519	6833
912.633	6825
912.748	6745
912.862	6745
912.976	6620
913.09	6578
913.204	6616
913.318	6608
913.431	6650
913.545	6700
913.659	6719
913.772	6658
913.886	6559
914	6559
914.113	6627
914.226	6662
914.34	6658
914.453	6498
914.566	6589
914.68	6490
914.793	6486
914.906	6471
915.019	6410
915.132	6323
915.245	6456
915.358	6422
915.47	6475
915.583	6448
915.696	6414
915.809	6517
915.921	6517
916.034	6418
916.146	6426
916.259	6391
916.371	6471
916.483	6460
916.595	6350
916.708	6369
916.82	6361
916.932	6395
917.044	6448
917.156	6391
917.268	6327
917.38	6300
917.491	6315
917.603	6357
917.715	6426
917.826	6414
917.938	6266
918.049	6205
918.161	6372
918.272	6361
918.384	6448
918.495	6338
918.606	6254
918.717	6235
918.828	6311
918.939	6292
919.05	6216
919.161	6194
919.272	6171
919.383	6152
919.494	6334
919.604	6376
919.715	6327
919.826	6243
919.936	6296
920.047	6319
920.157	6247
920.267	6464
920.378	6331
920.488	6213
920.598	6448
920.708	6563
920.818	6441
920.928	6525
921.038	6623
921.148	6601
921.258	6361
921.368	6304
921.477	6178
921.587	6175
921.697	6057
921.806	6155
921.916	6057
922.025	5969
922.134	5904
922.244	5863
922.353	5950
922.462	5893
922.571	5779
922.68	5646
922.789	5672
922.898	5748
923.007	5619
923.116	5684
923.224	5657
923.333	5638
923.442	5547
923.55	5570
923.659	5551
923.767	5630
923.876	5543
923.984	5623
924.092	5505
924.201	5524
924.309	5524
924.417	5596
924.525	5486
924.633	5516
924.741	6110
924.849	5395
924.956	5448
925.064	5337
925.172	5273
925.279	5349
925.387	5379
925.494	5364
925.602	5417
925.709	5379
925.816	5318
925.924	5258
926.031	5368
926.138	5311
926.245	5284
926.352	5239
926.459	5311
926.566	5357
926.673	5208
926.779	5189
926.886	5113
926.993	4995
927.099	4961
927.206	4946
927.312	4946
927.419	5029
927.525	5071
927.631	4968
927.737	4862
927.843	4877
927.95	4782
928.056	4820
928.162	4835
928.267	4820
928.373	5292
928.479	4923
928.585	4675
928.69	4763
928.796	4809
928.901	4668
929.007	4596
929.112	4683
929.218	4649
929.323	4599
929.428	4561
929.533	4714
929.638	4466
929.743	4497
929.848	4603
929.953	4478
930.058	4466
930.163	4295
930.267	4352
930.372	4428
930.477	4310
930.581	4481
930.685	4329
930.79	4276
930.894	4257
930.998	4265
931.103	4402
931.207	4097
931.311	4078
931.415	4059
931.519	3861
931.623	3953
