Data from glass_V78500241_874.txt Node
Date: Wed Sep 01 19:20:33 CST 2021
User: usil
Spectrometer: V785-0024
Trigger mode: 0
Integration Time (sec): 4.000000E-1
Scans to average: 1
Nonlinearity correction enabled: false
Boxcar width: 0
Storing dark spectrum: false
XAxis mode: Wavelengths
Number of Pixels in Spectrum: 1024
>>>>>Begin Spectral Data<<<<<
801.071	3740
801.214	3755
801.356	3740
801.499	3762
801.641	3724
801.783	3800
801.926	3831
802.068	3831
802.211	3861
802.353	3915
802.496	3842
802.638	3918
802.78	3949
802.923	3941
803.065	3960
803.208	3865
803.35	3907
803.492	3918
803.635	3926
803.777	3808
803.919	3941
804.061	4154
804.204	3956
804.346	3964
804.488	3960
804.63	4021
804.773	3968
804.915	4071
805.057	4128
805.199	4029
805.341	4124
805.483	4124
805.626	4131
805.768	4109
805.91	4230
806.052	4268
806.194	4230
806.336	4356
806.478	4211
806.62	4181
806.762	4173
806.904	4276
807.046	4344
807.188	4242
807.33	4207
807.472	4204
807.614	4185
807.756	4268
807.898	4223
808.04	4192
808.182	4356
808.324	4367
808.465	4371
808.607	4493
808.749	4466
808.891	4493
809.033	4504
809.174	4409
809.316	4306
809.458	4253
809.6	4162
809.741	4147
809.883	4181
810.025	4215
810.166	4257
810.308	4211
810.45	4280
810.591	4230
810.733	4280
810.875	4474
811.016	4835
811.158	5037
811.299	5288
811.441	5311
811.582	5045
811.724	4702
811.865	4462
812.007	4462
812.148	4451
812.29	4432
812.431	4459
812.573	4447
812.714	4402
812.855	4383
812.997	4405
813.138	4462
813.279	4455
813.421	4409
813.562	4413
813.703	4348
813.845	4356
813.986	4268
814.127	4219
814.268	4280
814.41	4253
814.551	4261
814.692	4375
814.833	4249
814.974	4344
815.115	4363
815.256	4276
815.397	4227
815.539	4261
815.68	4192
815.821	4238
815.962	4341
816.103	4253
816.244	4242
816.385	4219
816.526	4257
816.666	4234
816.807	4109
816.948	4143
817.089	4169
817.23	4128
817.371	4090
817.512	4082
817.653	4044
817.793	4040
817.934	4029
818.075	4120
818.216	4063
818.356	4090
818.497	4017
818.638	3930
818.778	3934
818.919	3876
819.06	3865
819.2	3941
819.341	3861
819.481	3831
819.622	3915
819.762	3994
819.903	3994
820.043	3861
820.184	3865
820.324	3861
820.465	3869
820.605	3854
820.746	3876
820.886	3762
821.026	3960
821.167	3930
821.307	3991
821.447	3968
821.588	3979
821.728	3983
821.868	3941
822.008	3838
822.149	3941
822.289	3892
822.429	3800
822.569	3762
822.709	3827
822.849	3698
822.99	3755
823.13	3759
823.27	3793
823.41	3690
823.55	3766
823.69	3728
823.83	3690
823.97	3648
824.11	3622
824.25	3599
824.389	3690
824.529	3667
824.669	3652
824.809	3747
824.949	3766
825.089	3732
825.228	3724
825.368	3564
825.508	3538
825.648	3618
825.787	3576
825.927	3671
826.067	3614
826.206	3698
826.346	3812
826.485	3838
826.625	3861
826.765	3956
826.904	3804
827.044	3618
827.183	3523
827.323	3454
827.462	3477
827.601	3454
827.741	3439
827.88	3466
828.02	3389
828.159	3450
828.298	3435
828.437	3553
828.577	3504
828.716	3606
828.855	3492
828.994	3348
829.134	3359
829.273	3389
829.412	3378
829.551	3336
829.69	3363
829.829	3466
829.968	3504
830.107	3462
830.246	3462
830.385	3367
830.524	3359
830.663	3344
830.802	3268
830.941	3192
831.08	3192
831.219	3253
831.357	3253
831.496	3401
831.635	3222
831.774	3214
831.913	3211
832.051	3150
832.19	3188
832.329	3233
832.467	3157
832.606	3108
832.744	3173
832.883	3154
833.022	3230
833.16	3306
833.299	3279
833.437	3329
833.576	3370
833.714	3435
833.852	3431
833.991	3420
834.129	3469
834.267	3473
834.406	3401
834.544	3458
834.682	3405
834.821	3420
834.959	3591
835.097	3447
835.235	3511
835.373	3488
835.511	3481
835.65	3485
835.788	3504
835.926	3397
836.064	3409
836.202	3409
836.34	3568
836.478	3606
836.615	3584
836.753	3591
836.891	3641
837.029	3667
837.167	3561
837.305	3568
837.443	3568
837.58	3526
837.718	3610
837.856	3572
837.993	3534
838.131	3637
838.269	3599
838.406	3564
838.544	3618
838.681	3496
838.819	3466
838.956	3363
839.094	3355
839.231	3428
839.369	3515
839.506	3789
839.643	3660
839.781	3534
839.918	3447
840.055	3545
840.193	3584
840.33	3526
840.467	3568
840.604	3629
840.742	3797
840.879	3538
841.016	3561
841.153	3603
841.29	3770
841.427	3747
841.564	3740
841.701	3755
841.838	3747
841.975	3701
842.112	3698
842.249	3652
842.385	3622
842.522	3854
842.659	3720
842.796	3698
842.933	3728
843.069	3728
843.206	3705
843.343	3812
843.479	3774
843.616	3846
843.752	3682
843.889	3720
844.025	3880
844.162	3679
844.298	3846
844.435	3797
844.571	3827
844.708	3918
844.844	3983
844.98	3994
845.117	4036
845.253	3949
845.389	3930
845.525	4002
845.661	3979
845.798	3907
845.934	3994
846.07	3972
846.206	4086
846.342	4131
846.478	4093
846.614	3987
846.75	3937
846.886	3899
847.022	4074
847.158	3975
847.294	4021
847.429	4071
847.565	4017
847.701	4246
847.837	3926
847.972	3876
848.108	3979
848.244	3979
848.379	3846
848.515	3869
848.65	3827
848.786	3857
848.921	3892
849.057	3968
849.192	3903
849.328	3918
849.463	3960
849.598	3915
849.734	3873
849.869	3869
850.004	3789
850.14	3831
850.275	3808
850.41	3728
850.545	3762
850.68	3823
850.815	3838
850.95	3804
851.085	3960
851.22	3842
851.355	3823
851.49	3808
851.625	3835
851.76	3800
851.895	3759
852.03	3717
852.165	3816
852.299	3884
852.434	3896
852.569	3899
852.703	3903
852.838	3956
852.973	4017
853.107	3983
853.242	3934
853.376	3838
853.511	3778
853.645	3896
853.78	3968
853.914	3903
854.048	3903
854.183	3899
854.317	3964
854.451	4105
854.585	3945
854.72	3918
854.854	4086
854.988	3949
855.122	3991
855.256	3903
855.39	4025
855.524	4112
855.658	4135
855.792	4063
855.926	4150
856.06	4166
856.194	4173
856.327	4162
856.461	4086
856.595	4196
856.729	4192
856.862	4257
856.996	4268
857.13	4306
857.263	4348
857.397	4386
857.53	4265
857.664	4360
857.797	4428
857.931	4455
858.064	4390
858.197	4455
858.331	4405
858.464	4402
858.597	4386
858.731	4451
858.864	4489
858.997	4489
859.13	4554
859.263	4573
859.396	4558
859.529	4550
859.662	4489
859.795	4535
859.928	4645
860.061	4755
860.194	4782
860.327	4641
860.46	4645
860.592	4759
860.725	4790
860.858	4797
860.99	4698
861.123	4698
861.256	4691
861.388	4778
861.521	5463
861.653	4744
861.786	4721
861.918	4710
862.05	4793
862.183	4805
862.315	4885
862.447	4976
862.58	4915
862.712	4744
862.844	4805
862.976	4862
863.108	4911
863.24	5261
863.372	4835
863.504	4927
863.636	4900
863.768	4961
863.9	4999
864.032	4919
864.164	4976
864.296	5006
864.428	5117
864.559	5067
864.691	5136
864.823	5170
864.954	5132
865.086	5143
865.217	5170
865.349	5109
865.48	5193
865.612	5166
865.743	5345
865.875	5197
866.006	5239
866.137	5307
866.269	5265
866.4	5273
866.531	5235
866.662	5239
866.793	5254
866.924	5273
867.055	5353
867.186	5318
867.317	5296
867.448	5349
867.579	5360
867.71	5391
867.841	5391
867.972	5452
868.103	5524
868.233	5509
868.364	5539
868.495	5619
868.625	5672
868.756	5847
868.886	5634
869.017	5691
869.147	5847
869.278	5840
869.408	5824
869.539	5885
869.669	5923
869.799	5901
869.929	5984
870.06	5984
870.19	6224
870.32	6205
870.45	6277
870.58	6380
870.71	6410
870.84	6490
870.97	6475
871.1	6414
871.23	6658
871.36	6635
871.489	6692
871.619	6798
871.749	6852
871.879	6897
872.008	6989
872.138	6970
872.267	6966
872.397	6993
872.526	6970
872.656	7099
872.785	7187
872.915	7377
873.044	7495
873.173	7533
873.303	7696
873.432	7753
873.561	7947
873.69	7925
873.819	8043
873.948	8164
874.077	8259
874.206	8294
874.335	8484
874.464	8682
874.593	8914
874.722	8899
874.851	9093
874.979	9245
875.108	9424
875.237	9469
875.365	9443
875.494	9663
875.623	9793
875.751	9846
875.88	9968
876.008	10128
876.136	10341
876.265	10535
876.393	10672
876.521	10759
876.65	10858
876.778	10835
876.906	10919
877.034	10984
877.162	11037
877.29	11086
877.418	11402
877.546	11372
877.674	11509
877.802	11440
877.93	11562
878.058	11516
878.185	11551
878.313	11684
878.441	11699
878.568	11699
878.696	11813
878.824	11851
878.951	11939
879.079	12060
879.206	12171
879.333	12064
879.461	12041
879.588	12140
879.715	12068
879.842	12186
879.97	12057
880.097	11813
880.224	11885
880.351	11836
880.478	11965
880.605	11832
880.732	11805
880.859	11988
880.986	11802
881.112	11878
881.239	11741
881.366	11680
881.493	11646
881.619	11554
881.746	11554
881.872	11596
881.999	11562
882.125	11554
882.252	11516
882.378	11410
882.505	11577
882.631	11402
882.757	11273
882.883	11383
883.01	11242
883.136	11143
883.262	11102
883.388	11132
883.514	11216
883.64	11197
883.766	11090
883.892	10968
884.018	10972
884.143	11143
884.269	11056
884.395	10854
884.52	10839
884.646	10793
884.772	10729
884.897	10637
885.023	10679
885.148	10774
885.274	10850
885.399	10675
885.524	10622
885.65	10622
885.775	10599
885.9	10481
886.025	10573
886.15	10592
886.275	10466
886.4	10413
886.525	10424
886.65	10276
886.775	10386
886.9	10531
887.025	10523
887.149	10352
887.274	10276
887.399	10181
887.523	10200
887.648	10169
887.773	10188
887.897	10211
888.021	10169
888.146	10150
888.27	10227
888.395	10207
888.519	10181
888.643	10204
888.767	10238
888.891	10200
889.015	10032
889.139	10192
889.263	9892
889.387	10112
889.511	10135
889.635	10048
889.759	9869
889.883	9979
890.006	9953
890.13	9998
890.254	9975
890.377	10048
890.501	9907
890.624	9987
890.748	9880
890.871	9873
890.995	9755
891.118	9751
891.241	9804
891.364	9766
891.488	9857
891.611	9751
891.734	9743
891.857	9850
891.98	9709
892.103	9816
892.226	9812
892.349	9652
892.471	9492
892.594	9603
892.717	9637
892.839	9561
892.962	9584
893.085	9690
893.207	9603
893.33	9542
893.452	9515
893.575	9557
893.697	9576
893.819	9561
893.941	9644
894.064	9618
894.186	9435
894.308	9359
894.43	9496
894.552	9606
894.674	9507
894.796	9424
894.918	9401
895.04	9329
895.161	9367
895.283	9370
895.405	9268
895.526	9249
895.648	9199
895.769	9245
895.891	9226
896.012	9241
896.134	9283
896.255	9173
896.376	9123
896.498	9192
896.619	9116
896.74	9104
896.861	9142
896.982	9211
897.103	9355
897.224	9157
897.345	9119
897.466	8990
897.587	9051
897.708	9146
897.828	9036
897.949	9005
898.07	8902
898.19	8956
898.311	9036
898.431	8899
898.552	8975
898.672	8941
898.792	8960
898.913	8921
899.033	8811
899.153	8777
899.273	8667
899.393	8686
899.513	8693
899.633	8754
899.753	8781
899.873	8766
899.993	8838
900.113	8644
900.232	8773
900.352	8689
900.472	8610
900.591	8583
900.711	8575
900.83	8640
900.95	8716
901.069	8727
901.189	8583
901.308	8336
901.427	8362
901.546	8427
901.665	8514
901.784	8507
901.904	8419
902.023	8381
902.141	8206
902.26	8218
902.379	8275
902.498	8256
902.617	8229
902.735	8290
902.854	8286
902.973	8290
903.091	8119
903.21	8180
903.328	8210
903.446	8096
903.565	8119
903.683	8096
903.801	8046
903.919	8134
904.038	8206
904.156	8005
904.274	8043
904.392	8050
904.51	8077
904.627	8031
904.745	8081
904.863	8092
904.981	7860
905.098	7803
905.216	7826
905.334	7906
905.451	7921
905.569	7963
905.686	7955
905.803	7993
905.921	7784
906.038	7883
906.155	7826
906.272	7731
906.389	7715
906.506	7662
906.623	7662
906.74	7578
906.857	7594
906.974	7571
907.091	7643
907.208	7715
907.324	7616
907.441	7582
907.557	7419
907.674	7449
907.79	7468
907.907	7362
908.023	7453
908.139	7480
908.256	7422
908.372	7377
908.488	7335
908.604	7343
908.72	7149
908.836	7255
908.952	7285
909.068	7259
909.184	7293
909.3	7221
909.415	7244
909.531	7263
909.647	7080
909.762	7152
909.878	7099
909.993	7099
910.108	7103
910.224	7088
910.339	7099
910.454	7053
910.57	6981
910.685	6993
910.8	7171
910.915	7110
911.03	7015
911.145	6924
911.259	6897
911.374	6916
911.489	6859
911.604	6856
911.718	6741
911.833	6692
911.947	6650
912.062	6566
912.176	6684
912.291	6684
912.405	6719
912.519	6821
912.633	6863
912.748	6757
912.862	6662
912.976	6639
913.09	6532
913.204	6578
913.318	6589
913.431	6654
913.545	6715
913.659	6700
913.772	6623
913.886	6604
914	6532
914.113	6635
914.226	6677
914.34	6673
914.453	6566
914.566	6635
914.68	6532
914.793	6513
914.906	6429
915.019	6456
915.132	6376
915.245	6391
915.358	6414
915.47	6456
915.583	6517
915.696	6486
915.809	6570
915.921	6582
916.034	6422
916.146	6414
916.259	6384
916.371	6448
916.483	6479
916.595	6376
916.708	6380
916.82	6445
916.932	6334
917.044	6380
917.156	6388
917.268	6357
917.38	6285
917.491	6323
917.603	6361
917.715	6357
917.826	6486
917.938	6365
918.049	6273
918.161	6304
918.272	6407
918.384	6471
918.495	6353
918.606	6228
918.717	6190
918.828	6289
918.939	6232
919.05	6205
919.161	6270
919.272	6148
919.383	6144
919.494	6323
919.604	6448
919.715	6319
919.826	6220
919.936	6308
920.047	6372
920.157	6270
920.267	6399
920.378	6338
920.488	6277
920.598	6483
920.708	6559
920.818	6460
920.928	6471
921.038	6597
921.148	6589
921.258	6395
921.368	6323
921.477	6213
921.587	6194
921.697	6098
921.806	6171
921.916	6125
922.025	5893
922.134	5821
922.244	5935
922.353	5935
922.462	5851
922.571	5828
922.68	5688
922.789	5722
922.898	5748
923.007	5600
923.116	5733
923.224	5630
923.333	5646
923.442	5638
923.55	5604
923.659	5627
923.767	5627
923.876	5551
923.984	5638
924.092	5509
924.201	5630
924.309	5573
924.417	5524
924.525	5486
924.633	5520
924.741	6182
924.849	5376
924.956	5486
925.064	5318
925.172	5391
925.279	5349
925.387	5330
925.494	5341
925.602	5410
925.709	5417
925.816	5318
925.924	5311
926.031	5398
926.138	5330
926.245	5334
926.352	5239
926.459	5337
926.566	5318
926.673	5212
926.779	5155
926.886	5151
926.993	5083
927.099	5006
927.206	4965
927.312	5010
927.419	5052
927.525	4984
927.631	5018
927.737	4942
927.843	4877
927.95	4786
928.056	4858
928.162	4816
928.267	4862
928.373	5345
928.479	4862
928.585	4656
928.69	4820
928.796	4759
928.901	4698
929.007	4615
929.112	4683
929.218	4645
929.323	4603
929.428	4607
929.533	4683
929.638	4599
929.743	4538
929.848	4577
929.953	4542
930.058	4459
930.163	4367
930.267	4405
930.372	4417
930.477	4280
930.581	4478
930.685	4386
930.79	4219
930.894	4306
930.998	4306
931.103	4413
931.207	4154
931.311	4086
931.415	4044
931.519	3941
931.623	3949
