Data from glass_V78500241_2402.txt Node
Date: Wed Sep 01 19:31:09 CST 2021
User: usil
Spectrometer: V785-0024
Trigger mode: 0
Integration Time (sec): 4.000000E-1
Scans to average: 1
Nonlinearity correction enabled: false
Boxcar width: 0
Storing dark spectrum: false
XAxis mode: Wavelengths
Number of Pixels in Spectrum: 1024
>>>>>Begin Spectral Data<<<<<
801.071	3747
801.214	3774
801.356	3675
801.499	3717
801.641	3740
801.783	3755
801.926	3846
802.068	3808
802.211	3865
802.353	3922
802.496	3816
802.638	3865
802.78	3918
802.923	3934
803.065	3896
803.208	3850
803.35	3888
803.492	3892
803.635	3918
803.777	3747
803.919	3869
804.061	4143
804.204	3975
804.346	3956
804.488	3934
804.63	4071
804.773	3987
804.915	4055
805.057	4131
805.199	4025
805.341	4074
805.483	4177
805.626	4124
805.768	4090
805.91	4196
806.052	4291
806.194	4223
806.336	4333
806.478	4238
806.62	4158
806.762	4192
806.904	4234
807.046	4379
807.188	4215
807.33	4162
807.472	4234
807.614	4162
807.756	4234
807.898	4200
808.04	4207
808.182	4284
808.324	4356
808.465	4341
808.607	4459
808.749	4462
808.891	4447
809.033	4527
809.174	4421
809.316	4230
809.458	4207
809.6	4147
809.741	4131
809.883	4101
810.025	4196
810.166	4169
810.308	4177
810.45	4227
810.591	4211
810.733	4246
810.875	4489
811.016	4835
811.158	5124
811.299	5269
811.441	5227
811.582	5029
811.724	4656
811.865	4451
812.007	4455
812.148	4402
812.29	4424
812.431	4383
812.573	4394
812.714	4390
812.855	4386
812.997	4394
813.138	4462
813.279	4443
813.421	4344
813.562	4363
813.703	4295
813.845	4314
813.986	4219
814.127	4200
814.268	4257
814.41	4253
814.551	4223
814.692	4333
814.833	4268
814.974	4303
815.115	4337
815.256	4276
815.397	4215
815.539	4246
815.68	4188
815.821	4234
815.962	4318
816.103	4280
816.244	4196
816.385	4219
816.526	4303
816.666	4185
816.807	4143
816.948	4196
817.089	4124
817.23	4090
817.371	4036
817.512	4021
817.653	4055
817.793	3991
817.934	4017
818.075	4097
818.216	4078
818.356	4071
818.497	3964
818.638	3884
818.778	3911
818.919	3888
819.06	3846
819.2	3926
819.341	3831
819.481	3812
819.622	3873
819.762	3960
819.903	3934
820.043	3850
820.184	3850
820.324	3854
820.465	3838
820.605	3873
820.746	3842
820.886	3808
821.026	3903
821.167	3934
821.307	3956
821.447	3968
821.588	3930
821.728	3987
821.868	3953
822.008	3918
822.149	3918
822.289	3918
822.429	3838
822.569	3747
822.709	3797
822.849	3705
822.99	3751
823.13	3751
823.27	3789
823.41	3701
823.55	3762
823.69	3682
823.83	3732
823.97	3656
824.11	3576
824.25	3614
824.389	3671
824.529	3660
824.669	3637
824.809	3724
824.949	3781
825.089	3736
825.228	3728
825.368	3576
825.508	3580
825.648	3568
825.787	3610
825.927	3572
826.067	3625
826.206	3694
826.346	3781
826.485	3823
826.625	3842
826.765	3960
826.904	3804
827.044	3606
827.183	3526
827.323	3412
827.462	3454
827.601	3393
827.741	3416
827.88	3397
828.02	3355
828.159	3416
828.298	3466
828.437	3488
828.577	3458
828.716	3572
828.855	3477
828.994	3340
829.134	3367
829.273	3397
829.412	3321
829.551	3329
829.69	3386
829.829	3435
829.968	3473
830.107	3420
830.246	3443
830.385	3351
830.524	3332
830.663	3306
830.802	3283
830.941	3199
831.08	3157
831.219	3264
831.357	3233
831.496	3389
831.635	3218
831.774	3150
831.913	3214
832.051	3108
832.19	3161
832.329	3169
832.467	3112
832.606	3116
832.744	3199
832.883	3173
833.022	3192
833.16	3245
833.299	3279
833.437	3317
833.576	3401
833.714	3409
833.852	3409
833.991	3416
834.129	3462
834.267	3435
834.406	3370
834.544	3405
834.682	3447
834.821	3393
834.959	3511
835.097	3397
835.235	3523
835.373	3511
835.511	3439
835.65	3450
835.788	3454
835.926	3344
836.064	3367
836.202	3412
836.34	3572
836.478	3606
836.615	3523
836.753	3584
836.891	3652
837.029	3610
837.167	3599
837.305	3553
837.443	3538
837.58	3500
837.718	3637
837.856	3557
837.993	3542
838.131	3614
838.269	3523
838.406	3587
838.544	3595
838.681	3435
838.819	3462
838.956	3386
839.094	3386
839.231	3458
839.369	3443
839.506	3793
839.643	3614
839.781	3530
839.918	3439
840.055	3545
840.193	3519
840.33	3542
840.467	3572
840.604	3614
840.742	3793
840.879	3496
841.016	3530
841.153	3599
841.29	3732
841.427	3698
841.564	3701
841.701	3747
841.838	3641
841.975	3679
842.112	3705
842.249	3618
842.385	3629
842.522	3827
842.659	3682
842.796	3701
842.933	3701
843.069	3679
843.206	3694
843.343	3778
843.479	3770
843.616	3793
843.752	3637
843.889	3671
844.025	3857
844.162	3679
844.298	3816
844.435	3743
844.571	3774
844.708	3888
844.844	3968
844.98	3975
845.117	3979
845.253	3876
845.389	3922
845.525	3956
845.661	3979
845.798	3903
845.934	4029
846.07	3926
846.206	4059
846.342	4074
846.478	4044
846.614	3930
846.75	3941
846.886	3949
847.022	4074
847.158	3949
847.294	3960
847.429	3934
847.565	3987
847.701	4196
847.837	3861
847.972	3835
848.108	3972
848.244	3964
848.379	3865
848.515	3789
848.65	3808
848.786	3816
848.921	3831
849.057	3926
849.192	3941
849.328	3873
849.463	3888
849.598	3857
849.734	3869
849.869	3774
850.004	3766
850.14	3800
850.275	3793
850.41	3709
850.545	3743
850.68	3736
850.815	3751
850.95	3797
851.085	3930
851.22	3869
851.355	3861
851.49	3823
851.625	3800
851.76	3812
851.895	3747
852.03	3709
852.165	3793
852.299	3819
852.434	3896
852.569	3808
852.703	3850
852.838	3876
852.973	4002
853.107	3987
853.242	3930
853.376	3873
853.511	3781
853.645	3865
853.78	3987
853.914	3918
854.048	3915
854.183	3857
854.317	3934
854.451	4051
854.585	3918
854.72	3960
854.854	3991
854.988	3926
855.122	3964
855.256	3926
855.39	4010
855.524	4128
855.658	4051
855.792	4093
855.926	4147
856.06	4150
856.194	4268
856.327	4131
856.461	4120
856.595	4196
856.729	4177
856.862	4242
856.996	4253
857.13	4291
857.263	4341
857.397	4356
857.53	4257
857.664	4367
857.797	4322
857.931	4417
858.064	4417
858.197	4443
858.331	4344
858.464	4398
858.597	4238
858.731	4459
858.864	4462
858.997	4443
859.13	4497
859.263	4538
859.396	4569
859.529	4512
859.662	4542
859.795	4508
859.928	4554
860.061	4687
860.194	4706
860.327	4687
860.46	4615
860.592	4714
860.725	4717
860.858	4786
860.99	4710
861.123	4664
861.256	4660
861.388	4812
861.521	5471
861.653	4702
861.786	4664
861.918	4706
862.05	4790
862.183	4839
862.315	4892
862.447	4911
862.58	4862
862.712	4797
862.844	4801
862.976	4870
863.108	4843
863.24	5208
863.372	4839
863.504	4889
863.636	4919
863.768	4987
863.9	4995
864.032	4889
864.164	4942
864.296	5037
864.428	5079
864.559	5052
864.691	5098
864.823	5109
864.954	5098
865.086	5155
865.217	5094
865.349	5102
865.48	5132
865.612	5155
865.743	5311
865.875	5220
866.006	5204
866.137	5223
866.269	5250
866.4	5299
866.531	5254
866.662	5250
866.793	5269
866.924	5250
867.055	5337
867.186	5288
867.317	5299
867.448	5273
867.579	5315
867.71	5322
867.841	5360
867.972	5360
868.103	5440
868.233	5497
868.364	5433
868.495	5551
868.625	5611
868.756	5821
868.886	5653
869.017	5691
869.147	5824
869.278	5866
869.408	5813
869.539	5809
869.669	5863
869.799	5885
869.929	5920
870.06	6030
870.19	6140
870.32	6201
870.45	6239
870.58	6300
870.71	6422
870.84	6433
870.97	6422
871.1	6486
871.23	6620
871.36	6627
871.489	6688
871.619	6829
871.749	6810
871.879	6867
872.008	6913
872.138	6916
872.267	6996
872.397	6913
872.526	7042
872.656	7129
872.785	7187
872.915	7400
873.044	7529
873.173	7537
873.303	7639
873.432	7734
873.561	7902
873.69	7894
873.819	7944
873.948	8119
874.077	8210
874.206	8385
874.335	8434
874.464	8667
874.593	8769
874.722	8872
874.851	9127
874.979	9291
875.108	9401
875.237	9367
875.365	9466
875.494	9682
875.623	9854
875.751	9835
875.88	9991
876.008	10105
876.136	10246
876.265	10561
876.393	10615
876.521	10714
876.65	10816
876.778	10873
876.906	10949
877.034	11003
877.162	11090
877.29	11181
877.418	11307
877.546	11376
877.674	11421
877.802	11337
877.93	11570
878.058	11535
878.185	11570
878.313	11665
878.441	11729
878.568	11623
878.696	11737
878.824	11832
878.951	11946
879.079	12030
879.206	12087
879.333	12068
879.461	11859
879.588	12182
879.715	11999
879.842	12178
879.97	12007
880.097	11847
880.224	11920
880.351	11843
880.478	11969
880.605	11832
880.732	11817
880.859	12057
880.986	11767
881.112	11893
881.239	11688
881.366	11615
881.493	11653
881.619	11482
881.746	11524
881.872	11630
881.999	11452
882.125	11528
882.252	11528
882.378	11554
882.505	11573
882.631	11303
882.757	11277
882.883	11261
883.01	11254
883.136	11185
883.262	11162
883.388	11071
883.514	11208
883.64	11189
883.766	11170
883.892	11090
884.018	10927
884.143	11060
884.269	11060
884.395	10858
884.52	10752
884.646	10721
884.772	10649
884.897	10641
885.023	10660
885.148	10786
885.274	10698
885.399	10649
885.524	10538
885.65	10603
885.775	10538
885.9	10527
886.025	10580
886.15	10538
886.275	10451
886.4	10379
886.525	10356
886.65	10428
886.775	10265
886.9	10485
887.025	10466
887.149	10352
887.274	10227
887.399	10200
887.523	10196
887.648	10131
887.773	10169
887.897	10215
888.021	10268
888.146	10051
888.27	10223
888.395	10173
888.519	10188
888.643	10249
888.767	10215
888.891	10120
889.015	9937
889.139	10074
889.263	9991
889.387	10071
889.511	10101
889.635	10135
889.759	10036
889.883	10010
890.006	9953
890.13	10173
890.254	9945
890.377	10002
890.501	9838
890.624	9800
890.748	9865
890.871	9812
890.995	9728
891.118	9713
891.241	9720
891.364	9701
891.488	9732
891.611	9701
891.734	9736
891.857	9778
891.98	9751
892.103	9785
892.226	9694
892.349	9675
892.471	9492
892.594	9679
892.717	9599
892.839	9584
892.962	9629
893.085	9709
893.207	9492
893.33	9534
893.452	9481
893.575	9633
893.697	9523
893.819	9637
893.941	9553
894.064	9629
894.186	9412
894.308	9374
894.43	9507
894.552	9595
894.674	9523
894.796	9332
894.918	9382
895.04	9283
895.161	9351
895.283	9359
895.405	9211
895.526	9264
895.648	9230
895.769	9222
895.891	9241
896.012	9195
896.134	9195
896.255	9173
896.376	9176
896.498	9169
896.619	9138
896.74	9097
896.861	9157
896.982	9157
897.103	9264
897.224	9165
897.345	9024
897.466	8956
897.587	9039
897.708	9074
897.828	9043
897.949	8944
898.07	8887
898.19	8895
898.311	8967
898.431	8941
898.552	8849
898.672	8952
898.792	8952
898.913	8826
899.033	8796
899.153	8750
899.273	8686
899.393	8750
899.513	8727
899.633	8659
899.753	8705
899.873	8636
899.993	8689
900.113	8739
900.232	8697
900.352	8598
900.472	8564
900.591	8552
900.711	8583
900.83	8564
900.95	8636
901.069	8682
901.189	8598
901.308	8442
901.427	8370
901.546	8415
901.665	8492
901.784	8492
901.904	8347
902.023	8256
902.141	8252
902.26	8168
902.379	8271
902.498	8202
902.617	8237
902.735	8286
902.854	8263
902.973	8233
903.091	8107
903.21	8145
903.328	8153
903.446	8100
903.565	8157
903.683	8096
903.801	8016
903.919	8100
904.038	8103
904.156	7986
904.274	8069
904.392	8039
904.51	8043
904.627	8043
904.745	8107
904.863	8081
904.981	7860
905.098	7856
905.216	7921
905.334	7940
905.451	7913
905.569	7947
905.686	7902
905.803	7917
905.921	7753
906.038	7826
906.155	7784
906.272	7712
906.389	7696
906.506	7647
906.623	7636
906.74	7594
906.857	7510
906.974	7567
907.091	7624
907.208	7677
907.324	7685
907.441	7529
907.557	7453
907.674	7377
907.79	7331
907.907	7403
908.023	7487
908.139	7468
908.256	7346
908.372	7396
908.488	7324
908.604	7179
908.72	7270
908.836	7266
908.952	7263
909.068	7301
909.184	7331
909.3	7247
909.415	7255
909.531	7236
909.647	7129
909.762	7091
909.878	7065
909.993	7103
910.108	7168
910.224	7080
910.339	7141
910.454	7012
910.57	7015
910.685	7008
910.8	7137
910.915	7118
911.03	7012
911.145	6878
911.259	6852
911.374	6909
911.489	6829
911.604	6757
911.718	6696
911.833	6688
911.947	6711
912.062	6559
912.176	6798
912.291	6684
912.405	6711
912.519	6787
912.633	6776
912.748	6760
912.862	6726
912.976	6597
913.09	6544
913.204	6601
913.318	6616
913.431	6658
913.545	6692
913.659	6700
913.772	6601
913.886	6585
914	6566
914.113	6601
914.226	6612
914.34	6593
914.453	6479
914.566	6551
914.68	6517
914.793	6532
914.906	6422
915.019	6353
915.132	6391
915.245	6380
915.358	6422
915.47	6441
915.583	6418
915.696	6460
915.809	6601
915.921	6544
916.034	6395
916.146	6437
916.259	6388
916.371	6456
916.483	6479
916.595	6376
916.708	6399
916.82	6372
916.932	6327
917.044	6426
917.156	6452
917.268	6350
917.38	6342
917.491	6281
917.603	6361
917.715	6369
917.826	6422
917.938	6323
918.049	6251
918.161	6319
918.272	6422
918.384	6456
918.495	6380
918.606	6300
918.717	6152
918.828	6197
918.939	6281
919.05	6125
919.161	6239
919.272	6136
919.383	6083
919.494	6266
919.604	6437
919.715	6239
919.826	6239
919.936	6205
920.047	6327
920.157	6258
920.267	6418
920.378	6289
920.488	6296
920.598	6456
920.708	6544
920.818	6441
920.928	6547
921.038	6559
921.148	6532
921.258	6346
921.368	6220
921.477	6144
921.587	6216
921.697	6026
921.806	6148
921.916	6049
922.025	5935
922.134	5897
922.244	5889
922.353	5939
922.462	5828
922.571	5798
922.68	5672
922.789	5649
922.898	5691
923.007	5642
923.116	5707
923.224	5661
923.333	5665
923.442	5577
923.55	5532
923.659	5566
923.767	5642
923.876	5551
923.984	5573
924.092	5497
924.201	5630
924.309	5562
924.417	5554
924.525	5452
924.633	5471
924.741	6273
924.849	5345
924.956	5459
925.064	5349
925.172	5261
925.279	5296
925.387	5330
925.494	5330
925.602	5360
925.709	5326
925.816	5227
925.924	5322
926.031	5360
926.138	5246
926.245	5345
926.352	5208
926.459	5318
926.566	5318
926.673	5147
926.779	5128
926.886	5102
926.993	5037
927.099	4961
927.206	4976
927.312	4915
927.419	5045
927.525	5014
927.631	4968
927.737	4828
927.843	4870
927.95	4790
928.056	4786
928.162	4835
928.267	4850
928.373	5303
928.479	4831
928.585	4679
928.69	4809
928.796	4767
928.901	4683
929.007	4592
929.112	4653
929.218	4645
929.323	4584
929.428	4512
929.533	4645
929.638	4523
929.743	4512
929.848	4573
929.953	4504
930.058	4421
930.163	4333
930.267	4325
930.372	4424
930.477	4287
930.581	4428
930.685	4352
930.79	4280
930.894	4268
930.998	4219
931.103	4367
931.207	4109
931.311	4097
931.415	4059
931.519	3903
931.623	3918
