Data from glass_V78500241_122.txt Node
Date: Wed Sep 01 19:15:20 CST 2021
User: usil
Spectrometer: V785-0024
Trigger mode: 0
Integration Time (sec): 4.000000E-1
Scans to average: 1
Nonlinearity correction enabled: false
Boxcar width: 0
Storing dark spectrum: false
XAxis mode: Wavelengths
Number of Pixels in Spectrum: 1024
>>>>>Begin Spectral Data<<<<<
801.071	3743
801.214	3770
801.356	3701
801.499	3781
801.641	3682
801.783	3816
801.926	3873
802.068	3857
802.211	3911
802.353	3888
802.496	3865
802.638	3896
802.78	3911
802.923	3983
803.065	3899
803.208	3846
803.35	3888
803.492	3915
803.635	3956
803.777	3812
803.919	3869
804.061	4143
804.204	3972
804.346	3994
804.488	3930
804.63	4029
804.773	3979
804.915	4067
805.057	4116
805.199	4078
805.341	4101
805.483	4139
805.626	4131
805.768	4116
805.91	4234
806.052	4287
806.194	4280
806.336	4310
806.478	4238
806.62	4249
806.762	4234
806.904	4272
807.046	4360
807.188	4181
807.33	4147
807.472	4265
807.614	4192
807.756	4284
807.898	4196
808.04	4200
808.182	4295
808.324	4344
808.465	4413
808.607	4470
808.749	4443
808.891	4500
809.033	4535
809.174	4386
809.316	4280
809.458	4249
809.6	4135
809.741	4147
809.883	4188
810.025	4211
810.166	4215
810.308	4257
810.45	4230
810.591	4230
810.733	4306
810.875	4512
811.016	4831
811.158	5155
811.299	5269
811.441	5315
811.582	5121
811.724	4694
811.865	4451
812.007	4485
812.148	4455
812.29	4413
812.431	4443
812.573	4428
812.714	4341
812.855	4383
812.997	4436
813.138	4485
813.279	4478
813.421	4363
813.562	4394
813.703	4341
813.845	4344
813.986	4295
814.127	4230
814.268	4276
814.41	4318
814.551	4295
814.692	4322
814.833	4303
814.974	4310
815.115	4360
815.256	4227
815.397	4253
815.539	4242
815.68	4207
815.821	4177
815.962	4322
816.103	4337
816.244	4215
816.385	4265
816.526	4299
816.666	4196
816.807	4124
816.948	4200
817.089	4211
817.23	4135
817.371	4048
817.512	4086
817.653	4147
817.793	4002
817.934	4055
818.075	4128
818.216	4063
818.356	4078
818.497	4017
818.638	3903
818.778	3911
818.919	3937
819.06	3869
819.2	3949
819.341	3899
819.481	3873
819.622	3964
819.762	4025
819.903	3937
820.043	3854
820.184	3808
820.324	3884
820.465	3869
820.605	3892
820.746	3888
820.886	3835
821.026	3918
821.167	3896
821.307	4013
821.447	4021
821.588	3975
821.728	3964
821.868	3987
822.008	3869
822.149	3934
822.289	3911
822.429	3770
822.569	3774
822.709	3827
822.849	3743
822.99	3770
823.13	3804
823.27	3816
823.41	3740
823.55	3736
823.69	3781
823.83	3770
823.97	3701
824.11	3625
824.25	3633
824.389	3690
824.529	3682
824.669	3671
824.809	3709
824.949	3789
825.089	3732
825.228	3713
825.368	3580
825.508	3633
825.648	3580
825.787	3614
825.927	3679
826.067	3625
826.206	3701
826.346	3808
826.485	3831
826.625	3880
826.765	3994
826.904	3846
827.044	3641
827.183	3580
827.323	3450
827.462	3564
827.601	3447
827.741	3428
827.88	3462
828.02	3370
828.159	3450
828.298	3492
828.437	3568
828.577	3488
828.716	3629
828.855	3526
828.994	3431
829.134	3363
829.273	3386
829.412	3386
829.551	3310
829.69	3355
829.829	3462
829.968	3523
830.107	3447
830.246	3447
830.385	3386
830.524	3374
830.663	3329
830.802	3302
830.941	3230
831.08	3180
831.219	3268
831.357	3313
831.496	3435
831.635	3249
831.774	3214
831.913	3214
832.051	3142
832.19	3142
832.329	3245
832.467	3146
832.606	3116
832.744	3138
832.883	3203
833.022	3211
833.16	3272
833.299	3344
833.437	3363
833.576	3389
833.714	3397
833.852	3473
833.991	3492
834.129	3507
834.267	3416
834.406	3382
834.544	3450
834.682	3416
834.821	3424
834.959	3603
835.097	3443
835.235	3572
835.373	3526
835.511	3576
835.65	3504
835.788	3549
835.926	3435
836.064	3393
836.202	3450
836.34	3568
836.478	3625
836.615	3545
836.753	3599
836.891	3686
837.029	3656
837.167	3576
837.305	3580
837.443	3545
837.58	3519
837.718	3610
837.856	3603
837.993	3545
838.131	3553
838.269	3591
838.406	3587
838.544	3599
838.681	3447
838.819	3450
838.956	3389
839.094	3443
839.231	3462
839.369	3504
839.506	3717
839.643	3656
839.781	3515
839.918	3500
840.055	3530
840.193	3530
840.33	3549
840.467	3553
840.604	3641
840.742	3774
840.879	3576
841.016	3622
841.153	3622
841.29	3740
841.427	3732
841.564	3701
841.701	3755
841.838	3728
841.975	3709
842.112	3755
842.249	3644
842.385	3667
842.522	3808
842.659	3728
842.796	3663
842.933	3759
843.069	3709
843.206	3736
843.343	3857
843.479	3800
843.616	3812
843.752	3686
843.889	3705
844.025	3850
844.162	3724
844.298	3846
844.435	3812
844.571	3781
844.708	3888
844.844	3979
844.98	4032
845.117	3998
845.253	3937
845.389	3915
845.525	4002
845.661	4006
845.798	3930
845.934	4036
846.07	3945
846.206	4097
846.342	4150
846.478	4059
846.614	3983
846.75	3937
846.886	3911
847.022	4029
847.158	4006
847.294	3998
847.429	4055
847.565	4006
847.701	4192
847.837	3896
847.972	3842
848.108	4013
848.244	4010
848.379	3873
848.515	3835
848.65	3865
848.786	3873
848.921	3896
849.057	3949
849.192	3941
849.328	3911
849.463	3918
849.598	3838
849.734	3903
849.869	3876
850.004	3819
850.14	3819
850.275	3755
850.41	3747
850.545	3778
850.68	3812
850.815	3827
850.95	3800
851.085	4010
851.22	3869
851.355	3831
851.49	3774
851.625	3800
851.76	3755
851.895	3781
852.03	3762
852.165	3804
852.299	3896
852.434	3907
852.569	3865
852.703	3903
852.838	3972
852.973	4021
853.107	4010
853.242	3888
853.376	3888
853.511	3793
853.645	3861
853.78	4002
853.914	3930
854.048	3945
854.183	3915
854.317	3960
854.451	4086
854.585	3975
854.72	3937
854.854	4010
854.988	3903
855.122	4025
855.256	3979
855.39	4032
855.524	4135
855.658	4090
855.792	4139
855.926	4150
856.06	4150
856.194	4204
856.327	4162
856.461	4158
856.595	4181
856.729	4200
856.862	4280
856.996	4234
857.13	4333
857.263	4371
857.397	4386
857.53	4268
857.664	4367
857.797	4424
857.931	4451
858.064	4428
858.197	4447
858.331	4394
858.464	4417
858.597	4348
858.731	4432
858.864	4500
858.997	4493
859.13	4516
859.263	4527
859.396	4607
859.529	4546
859.662	4542
859.795	4535
859.928	4611
860.061	4691
860.194	4771
860.327	4694
860.46	4694
860.592	4740
860.725	4809
860.858	4782
860.99	4717
861.123	4691
861.256	4729
861.388	4790
861.521	5543
861.653	4744
861.786	4752
861.918	4793
862.05	4824
862.183	4797
862.315	4900
862.447	4968
862.58	4927
862.712	4793
862.844	4805
862.976	4866
863.108	4904
863.24	5296
863.372	4854
863.504	4961
863.636	4904
863.768	4953
863.9	4953
864.032	4927
864.164	4957
864.296	5006
864.428	5056
864.559	5113
864.691	5121
864.823	5121
864.954	5102
865.086	5128
865.217	5132
865.349	5109
865.48	5170
865.612	5292
865.743	5303
865.875	5220
866.006	5178
866.137	5239
866.269	5193
866.4	5258
866.531	5273
866.662	5250
866.793	5280
866.924	5311
867.055	5368
867.186	5315
867.317	5307
867.448	5353
867.579	5402
867.71	5474
867.841	5364
867.972	5497
868.103	5429
868.233	5463
868.364	5505
868.495	5585
868.625	5668
868.756	5855
868.886	5710
869.017	5745
869.147	5889
869.278	5882
869.408	5798
869.539	5786
869.669	5984
869.799	5908
869.929	6003
870.06	6003
870.19	6277
870.32	6167
870.45	6277
870.58	6361
870.71	6464
870.84	6445
870.97	6388
871.1	6513
871.23	6642
871.36	6658
871.489	6654
871.619	6791
871.749	6859
871.879	6890
872.008	6977
872.138	7012
872.267	7015
872.397	6947
872.526	7042
872.656	7107
872.785	7198
872.915	7388
873.044	7533
873.173	7571
873.303	7628
873.432	7742
873.561	7947
873.69	8012
873.819	8024
873.948	8157
874.077	8301
874.206	8377
874.335	8431
874.464	8606
874.593	8887
874.722	8998
874.851	9176
874.979	9317
875.108	9447
875.237	9348
875.365	9488
875.494	9701
875.623	9895
875.751	9895
875.88	9991
876.008	10124
876.136	10314
876.265	10504
876.393	10702
876.521	10740
876.65	10850
876.778	10858
876.906	10908
877.034	10961
877.162	11136
877.29	11193
877.418	11254
877.546	11372
877.674	11356
877.802	11448
877.93	11474
878.058	11600
878.185	11577
878.313	11623
878.441	11775
878.568	11665
878.696	11843
878.824	11855
878.951	11901
879.079	12015
879.206	12095
879.333	12019
879.461	12015
879.588	12053
879.715	12083
879.842	12197
879.97	12136
880.097	11813
880.224	11916
880.351	11935
880.478	11889
880.605	11863
880.732	11836
880.859	11969
880.986	11798
881.112	11878
881.239	11718
881.366	11661
881.493	11600
881.619	11562
881.746	11573
881.872	11554
881.999	11478
882.125	11581
882.252	11520
882.378	11482
882.505	11535
882.631	11410
882.757	11216
882.883	11326
883.01	11258
883.136	11277
883.262	11083
883.388	11048
883.514	11143
883.64	11181
883.766	11117
883.892	10999
884.018	11025
884.143	11155
884.269	11098
884.395	10904
884.52	10759
884.646	10797
884.772	10721
884.897	10691
885.023	10717
885.148	10714
885.274	10767
885.399	10717
885.524	10580
885.65	10592
885.775	10603
885.9	10592
886.025	10550
886.15	10565
886.275	10402
886.4	10390
886.525	10398
886.65	10360
886.775	10394
886.9	10512
887.025	10489
887.149	10394
887.274	10234
887.399	10219
887.523	10223
887.648	10204
887.773	10177
887.897	10188
888.021	10280
888.146	10173
888.27	10261
888.395	10196
888.519	10188
888.643	10223
888.767	10211
888.891	10143
889.015	9987
889.139	10166
889.263	10017
889.387	10093
889.511	10112
889.635	10059
889.759	10002
889.883	9998
890.006	9994
890.13	10124
890.254	9941
890.377	9983
890.501	9873
890.624	9869
890.748	9903
890.871	9835
890.995	9781
891.118	9762
891.241	9816
891.364	9743
891.488	9846
891.611	9778
891.734	9778
891.857	9876
891.98	9751
892.103	9770
892.226	9690
892.349	9713
892.471	9595
892.594	9545
892.717	9576
892.839	9561
892.962	9682
893.085	9705
893.207	9568
893.33	9504
893.452	9564
893.575	9553
893.697	9538
893.819	9610
893.941	9679
894.064	9561
894.186	9386
894.308	9424
894.43	9549
894.552	9614
894.674	9564
894.796	9435
894.918	9389
895.04	9351
895.161	9329
895.283	9340
895.405	9195
895.526	9226
895.648	9283
895.769	9298
895.891	9264
896.012	9211
896.134	9214
896.255	9195
896.376	9089
896.498	9161
896.619	9165
896.74	9062
896.861	9039
896.982	9351
897.103	9294
897.224	9138
897.345	9058
897.466	8990
897.587	9093
897.708	9116
897.828	9089
897.949	9001
898.07	8899
898.19	8876
898.311	9009
898.431	8891
898.552	8914
898.672	8956
898.792	8963
898.913	8941
899.033	8872
899.153	8769
899.273	8708
899.393	8625
899.513	8670
899.633	8750
899.753	8739
899.873	8720
899.993	8762
900.113	8670
900.232	8712
900.352	8686
900.472	8655
900.591	8575
900.711	8606
900.83	8590
900.95	8705
901.069	8686
901.189	8629
901.308	8415
901.427	8431
901.546	8442
901.665	8377
901.784	8518
901.904	8446
902.023	8298
902.141	8248
902.26	8187
902.379	8271
902.498	8309
902.617	8218
902.735	8328
902.854	8336
902.973	8271
903.091	8126
903.21	8046
903.328	8214
903.446	8176
903.565	8065
903.683	8103
903.801	8134
903.919	8134
904.038	8153
904.156	7993
904.274	8134
904.392	8084
904.51	7986
904.627	7993
904.745	8107
904.863	8119
904.981	7936
905.098	7845
905.216	7902
905.334	7837
905.451	7902
905.569	7879
905.686	7936
905.803	7932
905.921	7765
906.038	7879
906.155	7837
906.272	7746
906.389	7723
906.506	7681
906.623	7655
906.74	7601
906.857	7518
906.974	7693
907.091	7677
907.208	7731
907.324	7590
907.441	7540
907.557	7407
907.674	7457
907.79	7426
907.907	7430
908.023	7460
908.139	7476
908.256	7419
908.372	7411
908.488	7350
908.604	7320
908.72	7274
908.836	7255
908.952	7225
909.068	7236
909.184	7373
909.3	7312
909.415	7350
909.531	7274
909.647	7137
909.762	7110
909.878	7149
909.993	7065
910.108	7171
910.224	7110
910.339	7118
910.454	7122
910.57	6939
910.685	6916
910.8	7221
910.915	7145
911.03	7034
911.145	6916
911.259	6932
911.374	6890
911.489	6798
911.604	6776
911.718	6753
911.833	6783
911.947	6677
912.062	6585
912.176	6681
912.291	6692
912.405	6654
912.519	6802
912.633	6852
912.748	6795
912.862	6692
912.976	6623
913.09	6547
913.204	6585
913.318	6612
913.431	6658
913.545	6722
913.659	6688
913.772	6662
913.886	6593
914	6528
914.113	6536
914.226	6658
914.34	6620
914.453	6490
914.566	6547
914.68	6513
914.793	6578
914.906	6429
915.019	6426
915.132	6357
915.245	6384
915.358	6414
915.47	6407
915.583	6509
915.696	6509
915.809	6509
915.921	6601
916.034	6410
916.146	6426
916.259	6403
916.371	6448
916.483	6490
916.595	6338
916.708	6452
916.82	6418
916.932	6407
917.044	6353
917.156	6403
917.268	6346
917.38	6361
917.491	6338
917.603	6369
917.715	6376
917.826	6426
917.938	6323
918.049	6228
918.161	6342
918.272	6452
918.384	6441
918.495	6311
918.606	6262
918.717	6239
918.828	6319
918.939	6311
919.05	6220
919.161	6266
919.272	6152
919.383	6155
919.494	6258
919.604	6410
919.715	6338
919.826	6216
919.936	6365
920.047	6388
920.157	6311
920.267	6471
920.378	6327
920.488	6270
920.598	6414
920.708	6555
920.818	6506
920.928	6494
921.038	6631
921.148	6601
921.258	6331
921.368	6361
921.477	6266
921.587	6209
921.697	6117
921.806	6232
921.916	6095
922.025	5996
922.134	5927
922.244	5939
922.353	5942
922.462	5870
922.571	5817
922.68	5699
922.789	5737
922.898	5707
923.007	5627
923.116	5707
923.224	5684
923.333	5680
923.442	5577
923.55	5611
923.659	5547
923.767	5676
923.876	5558
923.984	5665
924.092	5535
924.201	5573
924.309	5501
924.417	5528
924.525	5486
924.633	5505
924.741	6163
924.849	5406
924.956	5493
925.064	5410
925.172	5337
925.279	5315
925.387	5368
925.494	5334
925.602	5436
925.709	5387
925.816	5296
925.924	5288
926.031	5406
926.138	5322
926.245	5357
926.352	5254
926.459	5315
926.566	5322
926.673	5239
926.779	5155
926.886	5098
926.993	5041
927.099	5025
927.206	4991
927.312	4938
927.419	4999
927.525	4968
927.631	4991
927.737	4904
927.843	4835
927.95	4755
928.056	4809
928.162	4923
928.267	4831
928.373	5440
928.479	4873
928.585	4717
928.69	4793
928.796	4790
928.901	4710
929.007	4596
929.112	4675
929.218	4626
929.323	4615
929.428	4569
929.533	4675
929.638	4561
929.743	4519
929.848	4569
929.953	4512
930.058	4440
930.163	4341
930.267	4333
930.372	4436
930.477	4352
930.581	4485
930.685	4386
930.79	4249
930.894	4242
930.998	4291
931.103	4428
931.207	4128
931.311	4082
931.415	4071
931.519	3941
931.623	3964
