Data from glass_V78500241_306.txt Node
Date: Wed Sep 01 19:16:37 CST 2021
User: usil
Spectrometer: V785-0024
Trigger mode: 0
Integration Time (sec): 4.000000E-1
Scans to average: 1
Nonlinearity correction enabled: false
Boxcar width: 0
Storing dark spectrum: false
XAxis mode: Wavelengths
Number of Pixels in Spectrum: 1024
>>>>>Begin Spectral Data<<<<<
801.071	3766
801.214	3770
801.356	3720
801.499	3740
801.641	3724
801.783	3808
801.926	3869
802.068	3854
802.211	3838
802.353	3880
802.496	3854
802.638	3884
802.78	3907
802.923	3930
803.065	3903
803.208	3869
803.35	3880
803.492	3896
803.635	3915
803.777	3800
803.919	3899
804.061	4143
804.204	3964
804.346	3979
804.488	3956
804.63	4078
804.773	3972
804.915	4063
805.057	4154
805.199	4055
805.341	4150
805.483	4169
805.626	4192
805.768	4139
805.91	4207
806.052	4325
806.194	4211
806.336	4360
806.478	4211
806.62	4200
806.762	4169
806.904	4280
807.046	4329
807.188	4196
807.33	4234
807.472	4249
807.614	4219
807.756	4318
807.898	4227
808.04	4230
808.182	4322
808.324	4310
808.465	4344
808.607	4432
808.749	4432
808.891	4516
809.033	4519
809.174	4405
809.316	4329
809.458	4268
809.6	4204
809.741	4166
809.883	4143
810.025	4211
810.166	4242
810.308	4211
810.45	4265
810.591	4242
810.733	4295
810.875	4504
811.016	4831
811.158	5109
811.299	5315
811.441	5261
811.582	5117
811.724	4786
811.865	4489
812.007	4481
812.148	4443
812.29	4424
812.431	4440
812.573	4428
812.714	4405
812.855	4383
812.997	4409
813.138	4474
813.279	4394
813.421	4398
813.562	4405
813.703	4337
813.845	4363
813.986	4265
814.127	4238
814.268	4329
814.41	4261
814.551	4287
814.692	4367
814.833	4276
814.974	4310
815.115	4375
815.256	4257
815.397	4299
815.539	4268
815.68	4227
815.821	4253
815.962	4318
816.103	4291
816.244	4246
816.385	4257
816.526	4291
816.666	4249
816.807	4135
816.948	4238
817.089	4169
817.23	4166
817.371	4067
817.512	4090
817.653	4090
817.793	4044
817.934	4101
818.075	4116
818.216	4101
818.356	4086
818.497	4002
818.638	4006
818.778	3945
818.919	3903
819.06	3922
819.2	3911
819.341	3911
819.481	3888
819.622	3903
819.762	4040
819.903	3953
820.043	3934
820.184	3827
820.324	3857
820.465	3903
820.605	3892
820.746	3827
820.886	3785
821.026	3983
821.167	3941
821.307	3964
821.447	3994
821.588	3979
821.728	3991
821.868	3934
822.008	3896
822.149	3911
822.289	3941
822.429	3808
822.569	3800
822.709	3755
822.849	3679
822.99	3762
823.13	3785
823.27	3785
823.41	3701
823.55	3747
823.69	3717
823.83	3740
823.97	3713
824.11	3644
824.25	3641
824.389	3663
824.529	3652
824.669	3652
824.809	3724
824.949	3770
825.089	3759
825.228	3766
825.368	3595
825.508	3603
825.648	3568
825.787	3606
825.927	3641
826.067	3671
826.206	3713
826.346	3793
826.485	3838
826.625	3876
826.765	3979
826.904	3888
827.044	3644
827.183	3542
827.323	3473
827.462	3477
827.601	3454
827.741	3420
827.88	3481
828.02	3367
828.159	3462
828.298	3488
828.437	3561
828.577	3462
828.716	3648
828.855	3469
828.994	3382
829.134	3424
829.273	3393
829.412	3363
829.551	3363
829.69	3386
829.829	3412
829.968	3515
830.107	3511
830.246	3447
830.385	3420
830.524	3374
830.663	3332
830.802	3279
830.941	3199
831.08	3226
831.219	3306
831.357	3294
831.496	3428
831.635	3237
831.774	3214
831.913	3211
832.051	3146
832.19	3112
832.329	3180
832.467	3176
832.606	3138
832.744	3169
832.883	3218
833.022	3222
833.16	3272
833.299	3325
833.437	3370
833.576	3367
833.714	3424
833.852	3416
833.991	3435
834.129	3485
834.267	3428
834.406	3435
834.544	3435
834.682	3409
834.821	3416
834.959	3580
835.097	3473
835.235	3488
835.373	3507
835.511	3511
835.65	3500
835.788	3496
835.926	3431
836.064	3397
836.202	3409
836.34	3549
836.478	3614
836.615	3530
836.753	3637
836.891	3625
837.029	3629
837.167	3663
837.305	3542
837.443	3496
837.58	3473
837.718	3629
837.856	3564
837.993	3561
838.131	3591
838.269	3584
838.406	3614
838.544	3568
838.681	3458
838.819	3466
838.956	3393
839.094	3431
839.231	3500
839.369	3553
839.506	3759
839.643	3644
839.781	3500
839.918	3454
840.055	3549
840.193	3572
840.33	3564
840.467	3618
840.604	3599
840.742	3819
840.879	3557
841.016	3561
841.153	3633
841.29	3778
841.427	3728
841.564	3736
841.701	3778
841.838	3694
841.975	3690
842.112	3743
842.249	3667
842.385	3625
842.522	3857
842.659	3698
842.796	3656
842.933	3667
843.069	3694
843.206	3690
843.343	3850
843.479	3770
843.616	3835
843.752	3671
843.889	3709
844.025	3865
844.162	3724
844.298	3907
844.435	3743
844.571	3827
844.708	3941
844.844	4002
844.98	4013
845.117	4029
845.253	3915
845.389	3892
845.525	3975
845.661	3968
845.798	3945
845.934	4013
846.07	3983
846.206	4097
846.342	4116
846.478	4071
846.614	3937
846.75	3956
846.886	3934
847.022	4040
847.158	4010
847.294	3983
847.429	4029
847.565	4002
847.701	4242
847.837	3869
847.972	3842
848.108	4002
848.244	4021
848.379	3930
848.515	3846
848.65	3785
848.786	3842
848.921	3888
849.057	3953
849.192	3934
849.328	3907
849.463	3922
849.598	3892
849.734	3842
849.869	3808
850.004	3770
850.14	3827
850.275	3804
850.41	3728
850.545	3736
850.68	3793
850.815	3804
850.95	3778
851.085	3972
851.22	3888
851.355	3854
851.49	3789
851.625	3755
851.76	3819
851.895	3736
852.03	3747
852.165	3865
852.299	3850
852.434	3945
852.569	3838
852.703	3861
852.838	3949
852.973	3964
853.107	3979
853.242	3915
853.376	3854
853.511	3816
853.645	3838
853.78	3953
853.914	3892
854.048	3869
854.183	3873
854.317	4006
854.451	4082
854.585	4036
854.72	3953
854.854	4048
854.988	3991
855.122	3972
855.256	3968
855.39	4010
855.524	4143
855.658	4143
855.792	4101
855.926	4204
856.06	4154
856.194	4253
856.327	4154
856.461	4105
856.595	4162
856.729	4188
856.862	4295
856.996	4284
857.13	4280
857.263	4360
857.397	4428
857.53	4303
857.664	4363
857.797	4413
857.931	4451
858.064	4398
858.197	4428
858.331	4402
858.464	4356
858.597	4428
858.731	4481
858.864	4470
858.997	4451
859.13	4538
859.263	4542
859.396	4577
859.529	4500
859.662	4523
859.795	4538
859.928	4577
860.061	4714
860.194	4744
860.327	4683
860.46	4668
860.592	4752
860.725	4782
860.858	4828
860.99	4733
861.123	4698
861.256	4733
861.388	4736
861.521	5254
861.653	4744
861.786	4755
861.918	4740
862.05	4847
862.183	4866
862.315	4889
862.447	4953
862.58	4938
862.712	4862
862.844	4778
862.976	4889
863.108	4847
863.24	5318
863.372	4820
863.504	4892
863.636	4850
863.768	5006
863.9	4968
864.032	4987
864.164	4961
864.296	5079
864.428	5083
864.559	5162
864.691	5124
864.823	5181
864.954	5140
865.086	5227
865.217	5132
865.349	5090
865.48	5140
865.612	5220
865.743	5292
865.875	5197
866.006	5220
866.137	5242
866.269	5197
866.4	5258
866.531	5303
866.662	5265
866.793	5322
866.924	5258
867.055	5318
867.186	5334
867.317	5303
867.448	5337
867.579	5429
867.71	5463
867.841	5330
867.972	5455
868.103	5493
868.233	5493
868.364	5539
868.495	5520
868.625	5729
868.756	5802
868.886	5657
869.017	5760
869.147	5931
869.278	5882
869.408	5840
869.539	5870
869.669	5920
869.799	5954
869.929	6060
870.06	6026
870.19	6205
870.32	6175
870.45	6292
870.58	6323
870.71	6418
870.84	6479
870.97	6445
871.1	6506
871.23	6662
871.36	6669
871.489	6722
871.619	6783
871.749	6856
871.879	6863
872.008	6981
872.138	7012
872.267	7004
872.397	7000
872.526	6989
872.656	7088
872.785	7179
872.915	7411
873.044	7529
873.173	7552
873.303	7628
873.432	7830
873.561	7932
873.69	7959
873.819	8008
873.948	8199
874.077	8275
874.206	8396
874.335	8434
874.464	8670
874.593	8845
874.722	8868
874.851	9119
874.979	9233
875.108	9344
875.237	9428
875.365	9416
875.494	9679
875.623	9888
875.751	9812
875.88	9994
876.008	10109
876.136	10249
876.265	10558
876.393	10714
876.521	10820
876.65	10843
876.778	10892
876.906	10930
877.034	10972
877.162	11102
877.29	11181
877.418	11356
877.546	11379
877.674	11402
877.802	11429
877.93	11604
878.058	11512
878.185	11539
878.313	11665
878.441	11722
878.568	11672
878.696	11828
878.824	11870
878.951	11870
879.079	11999
879.206	12114
879.333	12125
879.461	11965
879.588	12041
879.715	12057
879.842	12201
879.97	12091
880.097	11908
880.224	11882
880.351	11798
880.478	11847
880.605	11863
880.732	11783
880.859	12019
880.986	11836
881.112	11969
881.239	11726
881.366	11668
881.493	11596
881.619	11558
881.746	11634
881.872	11577
881.999	11490
882.125	11459
882.252	11619
882.378	11455
882.505	11611
882.631	11455
882.757	11318
882.883	11364
883.01	11360
883.136	11258
883.262	11086
883.388	11075
883.514	11193
883.64	11197
883.766	11128
883.892	10968
884.018	11014
884.143	11048
884.269	11208
884.395	10820
884.52	10858
884.646	10744
884.772	10748
884.897	10710
885.023	10672
885.148	10714
885.274	10839
885.399	10683
885.524	10660
885.65	10550
885.775	10535
885.9	10577
886.025	10611
886.15	10580
886.275	10451
886.4	10398
886.525	10421
886.65	10413
886.775	10409
886.9	10474
887.025	10538
887.149	10375
887.274	10185
887.399	10192
887.523	10238
887.648	10082
887.773	10120
887.897	10261
888.021	10215
888.146	10150
888.27	10211
888.395	10333
888.519	10181
888.643	10204
888.767	10200
888.891	10067
889.015	9994
889.139	10078
889.263	10040
889.387	10067
889.511	10093
889.635	10090
889.759	9941
889.883	10048
890.006	9960
890.13	10169
890.254	9994
890.377	9926
890.501	9899
890.624	9895
890.748	9842
890.871	9797
890.995	9785
891.118	9717
891.241	9747
891.364	9762
891.488	9880
891.611	9797
891.734	9778
891.857	9747
891.98	9728
892.103	9846
892.226	9778
892.349	9709
892.471	9542
892.594	9610
892.717	9572
892.839	9679
892.962	9568
893.085	9637
893.207	9599
893.33	9545
893.452	9526
893.575	9606
893.697	9492
893.819	9625
893.941	9644
894.064	9606
894.186	9401
894.308	9466
894.43	9485
894.552	9576
894.674	9481
894.796	9363
894.918	9389
895.04	9336
895.161	9359
895.283	9325
895.405	9226
895.526	9226
895.648	9332
895.769	9348
895.891	9222
896.012	9283
896.134	9233
896.255	9226
896.376	9192
896.498	9146
896.619	9123
896.74	9058
896.861	9081
896.982	9294
897.103	9298
897.224	9119
897.345	9085
897.466	9028
897.587	8971
897.708	9093
897.828	9013
897.949	8986
898.07	8929
898.19	8914
898.311	9089
898.431	8906
898.552	8963
898.672	8994
898.792	8941
898.913	8902
899.033	8845
899.153	8792
899.273	8674
899.393	8655
899.513	8758
899.633	8659
899.753	8758
899.873	8705
899.993	8701
900.113	8636
900.232	8651
900.352	8632
900.472	8636
900.591	8541
900.711	8644
900.83	8590
900.95	8636
901.069	8693
901.189	8587
901.308	8450
901.427	8465
901.546	8465
901.665	8495
901.784	8552
901.904	8404
902.023	8332
902.141	8240
902.26	8214
902.379	8332
902.498	8244
902.617	8271
902.735	8263
902.854	8374
902.973	8229
903.091	8199
903.21	8084
903.328	8164
903.446	8096
903.565	8092
903.683	8130
903.801	8107
903.919	8153
904.038	8119
904.156	8092
904.274	8107
904.392	7993
904.51	8050
904.627	8088
904.745	8050
904.863	8073
904.981	7921
905.098	7913
905.216	7978
905.334	7993
905.451	7913
905.569	7928
905.686	7906
905.803	7925
905.921	7731
906.038	7925
906.155	7788
906.272	7700
906.389	7765
906.506	7674
906.623	7769
906.74	7643
906.857	7567
906.974	7613
907.091	7655
907.208	7727
907.324	7696
907.441	7616
907.557	7472
907.674	7506
907.79	7430
907.907	7438
908.023	7453
908.139	7426
908.256	7403
908.372	7358
908.488	7449
908.604	7259
908.72	7225
908.836	7362
908.952	7240
909.068	7282
909.184	7403
909.3	7228
909.415	7285
909.531	7289
909.647	7160
909.762	7110
909.878	7129
909.993	7122
910.108	7065
910.224	7091
910.339	7137
910.454	7012
910.57	7027
910.685	7008
910.8	7255
910.915	7126
911.03	7008
911.145	6920
911.259	6954
911.374	6863
911.489	6848
911.604	6848
911.718	6738
911.833	6779
911.947	6662
912.062	6601
912.176	6707
912.291	6711
912.405	6719
912.519	6779
912.633	6882
912.748	6722
912.862	6722
912.976	6623
913.09	6513
913.204	6650
913.318	6627
913.431	6662
913.545	6677
913.659	6741
913.772	6642
913.886	6601
914	6589
914.113	6604
914.226	6669
914.34	6574
914.453	6525
914.566	6593
914.68	6517
914.793	6525
914.906	6429
915.019	6380
915.132	6384
915.245	6513
915.358	6467
915.47	6448
915.583	6456
915.696	6479
915.809	6475
915.921	6551
916.034	6433
916.146	6395
916.259	6399
916.371	6426
916.483	6441
916.595	6429
916.708	6437
916.82	6429
916.932	6403
917.044	6441
917.156	6460
917.268	6315
917.38	6376
917.491	6331
917.603	6350
917.715	6372
917.826	6410
917.938	6350
918.049	6243
918.161	6357
918.272	6494
918.384	6483
918.495	6342
918.606	6258
918.717	6182
918.828	6277
918.939	6296
919.05	6186
919.161	6251
919.272	6117
919.383	6167
919.494	6327
919.604	6452
919.715	6285
919.826	6251
919.936	6285
920.047	6334
920.157	6270
920.267	6498
920.378	6323
920.488	6296
920.598	6437
920.708	6578
920.818	6426
920.928	6422
921.038	6601
921.148	6623
921.258	6369
921.368	6357
921.477	6243
921.587	6228
921.697	6083
921.806	6213
921.916	6136
922.025	5969
922.134	5897
922.244	5893
922.353	5999
922.462	5802
922.571	5847
922.68	5691
922.789	5668
922.898	5718
923.007	5653
923.116	5668
923.224	5634
923.333	5653
923.442	5608
923.55	5611
923.659	5520
923.767	5661
923.876	5547
923.984	5623
924.092	5551
924.201	5543
924.309	5535
924.417	5611
924.525	5600
924.633	5512
924.741	6319
924.849	5387
924.956	5493
925.064	5376
925.172	5364
925.279	5337
925.387	5364
925.494	5364
925.602	5417
925.709	5383
925.816	5261
925.924	5414
926.031	5376
926.138	5334
926.245	5303
926.352	5250
926.459	5337
926.566	5353
926.673	5189
926.779	5143
926.886	5105
926.993	4999
927.099	5041
927.206	4987
927.312	4946
927.419	5018
927.525	5022
927.631	4995
927.737	4908
927.843	4889
927.95	4752
928.056	4862
928.162	4862
928.267	4843
928.373	5239
928.479	4854
928.585	4691
928.69	4725
928.796	4801
928.901	4691
929.007	4592
929.112	4656
929.218	4649
929.323	4645
929.428	4596
929.533	4683
929.638	4489
929.743	4554
929.848	4558
929.953	4531
930.058	4489
930.163	4367
930.267	4405
930.372	4443
930.477	4280
930.581	4474
930.685	4379
930.79	4246
930.894	4303
930.998	4303
931.103	4363
931.207	4128
931.311	4044
931.415	4055
931.519	3941
931.623	3945
