Data from glass_V78500241_2276.txt Node
Date: Wed Sep 01 19:30:16 CST 2021
User: usil
Spectrometer: V785-0024
Trigger mode: 0
Integration Time (sec): 4.000000E-1
Scans to average: 1
Nonlinearity correction enabled: false
Boxcar width: 0
Storing dark spectrum: false
XAxis mode: Wavelengths
Number of Pixels in Spectrum: 1024
>>>>>Begin Spectral Data<<<<<
801.071	3736
801.214	3743
801.356	3698
801.499	3724
801.641	3724
801.783	3774
801.926	3884
802.068	3827
802.211	3819
802.353	3827
802.496	3816
802.638	3850
802.78	3854
802.923	3934
803.065	3907
803.208	3816
803.35	3884
803.492	3873
803.635	3903
803.777	3789
803.919	3884
804.061	4147
804.204	3945
804.346	3922
804.488	3884
804.63	4025
804.773	3968
804.915	4002
805.057	4082
805.199	4044
805.341	4105
805.483	4101
805.626	4101
805.768	4051
805.91	4185
806.052	4238
806.194	4200
806.336	4333
806.478	4154
806.62	4150
806.762	4188
806.904	4249
807.046	4329
807.188	4158
807.33	4162
807.472	4246
807.614	4185
807.756	4265
807.898	4200
808.04	4185
808.182	4291
808.324	4318
808.465	4367
808.607	4485
808.749	4405
808.891	4459
809.033	4451
809.174	4398
809.316	4246
809.458	4230
809.6	4135
809.741	4150
809.883	4120
810.025	4230
810.166	4204
810.308	4204
810.45	4223
810.591	4211
810.733	4314
810.875	4542
811.016	4824
811.158	5147
811.299	5235
811.441	5292
811.582	5052
811.724	4645
811.865	4440
812.007	4493
812.148	4413
812.29	4367
812.431	4417
812.573	4390
812.714	4413
812.855	4405
812.997	4409
813.138	4497
813.279	4394
813.421	4417
813.562	4337
813.703	4303
813.845	4348
813.986	4261
814.127	4238
814.268	4215
814.41	4249
814.551	4234
814.692	4329
814.833	4257
814.974	4257
815.115	4333
815.256	4268
815.397	4219
815.539	4261
815.68	4181
815.821	4211
815.962	4291
816.103	4299
816.244	4227
816.385	4230
816.526	4299
816.666	4181
816.807	4124
816.948	4181
817.089	4166
817.23	4097
817.371	4040
817.512	4036
817.653	4059
817.793	4010
817.934	4044
818.075	4090
818.216	4048
818.356	4055
818.497	4006
818.638	3934
818.778	3964
818.919	3903
819.06	3865
819.2	3918
819.341	3873
819.481	3838
819.622	3896
819.762	4036
819.903	3937
820.043	3869
820.184	3823
820.324	3812
820.465	3857
820.605	3854
820.746	3880
820.886	3797
821.026	3907
821.167	3911
821.307	3991
821.447	3998
821.588	3991
821.728	3926
821.868	3922
822.008	3850
822.149	3934
822.289	3884
822.429	3831
822.569	3797
822.709	3797
822.849	3713
822.99	3698
823.13	3755
823.27	3762
823.41	3705
823.55	3732
823.69	3724
823.83	3732
823.97	3660
824.11	3606
824.25	3603
824.389	3644
824.529	3675
824.669	3584
824.809	3724
824.949	3724
825.089	3728
825.228	3671
825.368	3564
825.508	3538
825.648	3564
825.787	3648
825.927	3614
826.067	3633
826.206	3625
826.346	3774
826.485	3850
826.625	3835
826.765	3911
826.904	3831
827.044	3595
827.183	3519
827.323	3462
827.462	3511
827.601	3420
827.741	3412
827.88	3462
828.02	3336
828.159	3389
828.298	3443
828.437	3492
828.577	3496
828.716	3599
828.855	3481
828.994	3386
829.134	3351
829.273	3370
829.412	3344
829.551	3321
829.69	3405
829.829	3393
829.968	3477
830.107	3462
830.246	3409
830.385	3382
830.524	3359
830.663	3302
830.802	3214
830.941	3199
831.08	3184
831.219	3253
831.357	3253
831.496	3405
831.635	3207
831.774	3173
831.913	3195
832.051	3131
832.19	3146
832.329	3184
832.467	3104
832.606	3116
832.744	3123
832.883	3173
833.022	3173
833.16	3230
833.299	3329
833.437	3351
833.576	3416
833.714	3386
833.852	3424
833.991	3458
834.129	3447
834.267	3428
834.406	3424
834.544	3393
834.682	3420
834.821	3397
834.959	3545
835.097	3348
835.235	3549
835.373	3477
835.511	3428
835.65	3420
835.788	3466
835.926	3367
836.064	3374
836.202	3374
836.34	3549
836.478	3644
836.615	3519
836.753	3580
836.891	3629
837.029	3599
837.167	3606
837.305	3549
837.443	3496
837.58	3454
837.718	3587
837.856	3526
837.993	3523
838.131	3553
838.269	3561
838.406	3572
838.544	3572
838.681	3485
838.819	3409
838.956	3389
839.094	3359
839.231	3386
839.369	3511
839.506	3736
839.643	3610
839.781	3515
839.918	3469
840.055	3492
840.193	3515
840.33	3557
840.467	3549
840.604	3549
840.742	3812
840.879	3557
841.016	3568
841.153	3606
841.29	3740
841.427	3698
841.564	3701
841.701	3732
841.838	3682
841.975	3660
842.112	3709
842.249	3652
842.385	3603
842.522	3812
842.659	3656
842.796	3637
842.933	3743
843.069	3656
843.206	3679
843.343	3816
843.479	3778
843.616	3800
843.752	3682
843.889	3671
844.025	3857
844.162	3675
844.298	3827
844.435	3808
844.571	3789
844.708	3899
844.844	4013
844.98	3949
845.117	4010
845.253	3888
845.389	3876
845.525	3968
845.661	3941
845.798	3896
845.934	3964
846.07	3937
846.206	4097
846.342	4116
846.478	4071
846.614	3991
846.75	3922
846.886	3922
847.022	4013
847.158	3964
847.294	4032
847.429	3983
847.565	3926
847.701	4249
847.837	3892
847.972	3808
848.108	3968
848.244	3975
848.379	3869
848.515	3827
848.65	3816
848.786	3812
848.921	3884
849.057	3911
849.192	3968
849.328	3911
849.463	3960
849.598	3884
849.734	3816
849.869	3835
850.004	3759
850.14	3831
850.275	3785
850.41	3747
850.545	3778
850.68	3808
850.815	3812
850.95	3831
851.085	3922
851.22	3861
851.355	3789
851.49	3751
851.625	3816
851.76	3755
851.895	3698
852.03	3724
852.165	3774
852.299	3869
852.434	3915
852.569	3854
852.703	3865
852.838	3983
852.973	3987
853.107	3972
853.242	3876
853.376	3846
853.511	3762
853.645	3835
853.78	3937
853.914	3915
854.048	3869
854.183	3838
854.317	3998
854.451	4048
854.585	3918
854.72	3899
854.854	4051
854.988	3934
855.122	3975
855.256	3884
855.39	4063
855.524	4093
855.658	4124
855.792	4090
855.926	4116
856.06	4181
856.194	4158
856.327	4143
856.461	4139
856.595	4169
856.729	4173
856.862	4253
856.996	4249
857.13	4284
857.263	4356
857.397	4325
857.53	4295
857.664	4303
857.797	4367
857.931	4390
858.064	4371
858.197	4432
858.331	4375
858.464	4379
858.597	4299
858.731	4432
858.864	4447
858.997	4417
859.13	4497
859.263	4523
859.396	4592
859.529	4519
859.662	4474
859.795	4459
859.928	4611
860.061	4664
860.194	4744
860.327	4649
860.46	4634
860.592	4656
860.725	4721
860.858	4782
860.99	4668
861.123	4694
861.256	4691
861.388	4710
861.521	5463
861.653	4778
861.786	4702
861.918	4759
862.05	4767
862.183	4850
862.315	4862
862.447	4938
862.58	4873
862.712	4797
862.844	4752
862.976	4877
863.108	4866
863.24	5155
863.372	4850
863.504	4896
863.636	4870
863.768	4934
863.9	4968
864.032	4927
864.164	4896
864.296	5003
864.428	5079
864.559	5113
864.691	5109
864.823	5151
864.954	5109
865.086	5143
865.217	5143
865.349	5098
865.48	5124
865.612	5136
865.743	5250
865.875	5208
866.006	5193
866.137	5189
866.269	5265
866.4	5208
866.531	5212
866.662	5201
866.793	5201
866.924	5277
867.055	5364
867.186	5353
867.317	5376
867.448	5341
867.579	5334
867.71	5429
867.841	5391
867.972	5429
868.103	5490
868.233	5474
868.364	5471
868.495	5562
868.625	5619
868.756	5779
868.886	5619
869.017	5714
869.147	5844
869.278	5882
869.408	5775
869.539	5824
869.669	5984
869.799	5935
869.929	6003
870.06	6038
870.19	6194
870.32	6228
870.45	6315
870.58	6296
870.71	6433
870.84	6483
870.97	6441
871.1	6399
871.23	6597
871.36	6662
871.489	6658
871.619	6726
871.749	6730
871.879	6863
872.008	6958
872.138	6958
872.267	6985
872.397	7034
872.526	6947
872.656	7076
872.785	7209
872.915	7369
873.044	7544
873.173	7533
873.303	7643
873.432	7738
873.561	7928
873.69	7921
873.819	8111
873.948	8107
874.077	8267
874.206	8339
874.335	8408
874.464	8621
874.593	8845
874.722	8902
874.851	9074
874.979	9264
875.108	9283
875.237	9435
875.365	9477
875.494	9534
875.623	9770
875.751	9819
875.88	10017
876.008	10135
876.136	10196
876.265	10459
876.393	10736
876.521	10683
876.65	10793
876.778	10835
876.906	10881
877.034	10972
877.162	11098
877.29	11113
877.418	11303
877.546	11318
877.674	11509
877.802	11467
877.93	11478
878.058	11547
878.185	11570
878.313	11657
878.441	11726
878.568	11688
878.696	11710
878.824	11847
878.951	11916
879.079	12015
879.206	12117
879.333	12083
879.461	11988
879.588	12045
879.715	12076
879.842	12175
879.97	12030
880.097	11847
880.224	11802
880.351	11931
880.478	11901
880.605	11794
880.732	11828
880.859	11996
880.986	11771
881.112	11805
881.239	11771
881.366	11535
881.493	11551
881.619	11501
881.746	11558
881.872	11512
881.999	11608
882.125	11406
882.252	11642
882.378	11486
882.505	11524
882.631	11387
882.757	11220
882.883	11303
883.01	11223
883.136	11102
883.262	11128
883.388	11071
883.514	11166
883.64	11105
883.766	11086
883.892	10938
884.018	10957
884.143	11010
884.269	11060
884.395	10824
884.52	10744
884.646	10778
884.772	10744
884.897	10710
885.023	10683
885.148	10717
885.274	10694
885.399	10565
885.524	10542
885.65	10622
885.775	10554
885.9	10588
886.025	10546
886.15	10554
886.275	10481
886.4	10333
886.525	10356
886.65	10375
886.775	10272
886.9	10481
887.025	10546
887.149	10329
887.274	10185
887.399	10238
887.523	10192
887.648	10086
887.773	10128
887.897	10200
888.021	10185
888.146	10150
888.27	10219
888.395	10169
888.519	10219
888.643	10124
888.767	10135
888.891	10078
889.015	9987
889.139	10063
889.263	9956
889.387	10010
889.511	10021
889.635	10051
889.759	9930
889.883	9960
890.006	10013
890.13	10078
890.254	9987
890.377	10010
890.501	9880
890.624	9880
890.748	9975
890.871	9823
890.995	9804
891.118	9713
891.241	9732
891.364	9713
891.488	9800
891.611	9751
891.734	9759
891.857	9808
891.98	9774
892.103	9793
892.226	9682
892.349	9679
892.471	9492
892.594	9576
892.717	9629
892.839	9584
892.962	9614
893.085	9641
893.207	9606
893.33	9564
893.452	9473
893.575	9644
893.697	9538
893.819	9610
893.941	9618
894.064	9504
894.186	9424
894.308	9344
894.43	9507
894.552	9618
894.674	9515
894.796	9310
894.918	9401
895.04	9306
895.161	9321
895.283	9382
895.405	9188
895.526	9222
895.648	9203
895.769	9184
895.891	9268
896.012	9317
896.134	9249
896.255	9176
896.376	9150
896.498	9135
896.619	9081
896.74	9116
896.861	9036
896.982	9363
897.103	9230
897.224	9180
897.345	9017
897.466	8998
897.587	9028
897.708	8956
897.828	9062
897.949	8880
898.07	8891
898.19	8891
898.311	8986
898.431	8872
898.552	8967
898.672	8956
898.792	8925
898.913	8887
899.033	8777
899.153	8716
899.273	8701
899.393	8727
899.513	8697
899.633	8739
899.753	8659
899.873	8678
899.993	8701
900.113	8682
900.232	8724
900.352	8655
900.472	8629
900.591	8594
900.711	8575
900.83	8514
900.95	8686
901.069	8697
901.189	8522
901.308	8423
901.427	8362
901.546	8412
901.665	8438
901.784	8434
901.904	8434
902.023	8339
902.141	8229
902.26	8202
902.379	8286
902.498	8248
902.617	8149
902.735	8282
902.854	8332
902.973	8294
903.091	8107
903.21	8157
903.328	8134
903.446	8058
903.565	8024
903.683	8016
903.801	8065
903.919	8115
904.038	8107
904.156	8092
904.274	8073
904.392	8031
904.51	7955
904.627	8081
904.745	8142
904.863	8092
904.981	7868
905.098	7818
905.216	7883
905.334	7917
905.451	7887
905.569	7841
905.686	7879
905.803	7951
905.921	7746
906.038	7883
906.155	7792
906.272	7704
906.389	7738
906.506	7647
906.623	7620
906.74	7677
906.857	7582
906.974	7548
907.091	7636
907.208	7628
907.324	7605
907.441	7521
907.557	7464
907.674	7354
907.79	7346
907.907	7388
908.023	7457
908.139	7388
908.256	7377
908.372	7324
908.488	7305
908.604	7278
908.72	7225
908.836	7247
908.952	7213
909.068	7221
909.184	7308
909.3	7263
909.415	7251
909.531	7278
909.647	7168
909.762	7080
909.878	7095
909.993	7122
910.108	7046
910.224	7042
910.339	7103
910.454	7046
910.57	7012
910.685	6970
910.8	7133
910.915	7103
911.03	7065
911.145	6867
911.259	6810
911.374	6814
911.489	6795
911.604	6749
911.718	6703
911.833	6734
911.947	6646
912.062	6593
912.176	6707
912.291	6684
912.405	6700
912.519	6814
912.633	6821
912.748	6677
912.862	6711
912.976	6559
913.09	6509
913.204	6639
913.318	6589
913.431	6650
913.545	6677
913.659	6669
913.772	6623
913.886	6635
914	6563
914.113	6608
914.226	6612
914.34	6551
914.453	6479
914.566	6608
914.68	6441
914.793	6490
914.906	6407
915.019	6471
915.132	6380
915.245	6433
915.358	6475
915.47	6441
915.583	6464
915.696	6445
915.809	6498
915.921	6494
916.034	6380
916.146	6380
916.259	6323
916.371	6486
916.483	6429
916.595	6319
916.708	6407
916.82	6403
916.932	6403
917.044	6388
917.156	6338
917.268	6296
917.38	6323
917.491	6323
917.603	6327
917.715	6391
917.826	6331
917.938	6346
918.049	6228
918.161	6289
918.272	6369
918.384	6429
918.495	6319
918.606	6243
918.717	6254
918.828	6220
918.939	6285
919.05	6213
919.161	6254
919.272	6182
919.383	6144
919.494	6270
919.604	6399
919.715	6262
919.826	6235
919.936	6216
920.047	6331
920.157	6273
920.267	6403
920.378	6308
920.488	6262
920.598	6445
920.708	6544
920.818	6456
920.928	6479
921.038	6574
921.148	6601
921.258	6403
921.368	6266
921.477	6220
921.587	6125
921.697	6091
921.806	6186
921.916	6038
922.025	5958
922.134	5897
922.244	5866
922.353	5927
922.462	5821
922.571	5775
922.68	5726
922.789	5596
922.898	5733
923.007	5634
923.116	5684
923.224	5661
923.333	5649
923.442	5562
923.55	5604
923.659	5547
923.767	5615
923.876	5509
923.984	5604
924.092	5471
924.201	5497
924.309	5547
924.417	5516
924.525	5474
924.633	5501
924.741	6216
924.849	5379
924.956	5482
925.064	5379
925.172	5288
925.279	5261
925.387	5395
925.494	5307
925.602	5391
925.709	5406
925.816	5242
925.924	5288
926.031	5303
926.138	5296
926.245	5368
926.352	5197
926.459	5265
926.566	5357
926.673	5136
926.779	5170
926.886	5121
926.993	4965
927.099	4991
927.206	4968
927.312	4946
927.419	4987
927.525	4930
927.631	4949
927.737	4889
927.843	4854
927.95	4729
928.056	4862
928.162	4767
928.267	4877
928.373	5341
928.479	4919
928.585	4645
928.69	4755
928.796	4790
928.901	4679
929.007	4558
929.112	4672
929.218	4615
929.323	4573
929.428	4561
929.533	4641
929.638	4497
929.743	4542
929.848	4523
929.953	4485
930.058	4455
930.163	4325
930.267	4322
930.372	4379
930.477	4268
930.581	4459
930.685	4402
930.79	4200
930.894	4314
930.998	4242
931.103	4341
931.207	4105
931.311	4055
931.415	4074
931.519	3930
931.623	3937
