Data from glass_V78500241_1318.txt Node
Date: Wed Sep 01 19:23:38 CST 2021
User: usil
Spectrometer: V785-0024
Trigger mode: 0
Integration Time (sec): 4.000000E-1
Scans to average: 1
Nonlinearity correction enabled: false
Boxcar width: 0
Storing dark spectrum: false
XAxis mode: Wavelengths
Number of Pixels in Spectrum: 1024
>>>>>Begin Spectral Data<<<<<
801.071	3751
801.214	3766
801.356	3728
801.499	3762
801.641	3751
801.783	3781
801.926	3865
802.068	3846
802.211	3838
802.353	3915
802.496	3854
802.638	3857
802.78	3922
802.923	3899
803.065	3876
803.208	3854
803.35	3892
803.492	3926
803.635	3926
803.777	3835
803.919	3915
804.061	4158
804.204	4032
804.346	3949
804.488	3876
804.63	4017
804.773	3972
804.915	4036
805.057	4173
805.199	4071
805.341	4139
805.483	4105
805.626	4135
805.768	4112
805.91	4207
806.052	4242
806.194	4204
806.336	4383
806.478	4284
806.62	4166
806.762	4223
806.904	4306
807.046	4341
807.188	4238
807.33	4154
807.472	4211
807.614	4227
807.756	4242
807.898	4207
808.04	4207
808.182	4257
808.324	4360
808.465	4386
808.607	4447
808.749	4451
808.891	4512
809.033	4504
809.174	4424
809.316	4257
809.458	4246
809.6	4188
809.741	4219
809.883	4116
810.025	4234
810.166	4211
810.308	4249
810.45	4280
810.591	4192
810.733	4272
810.875	4478
811.016	4812
811.158	5124
811.299	5254
811.441	5315
811.582	5067
811.724	4721
811.865	4402
812.007	4466
812.148	4394
812.29	4413
812.431	4402
812.573	4421
812.714	4363
812.855	4398
812.997	4424
813.138	4558
813.279	4436
813.421	4367
813.562	4352
813.703	4348
813.845	4303
813.986	4234
814.127	4192
814.268	4280
814.41	4303
814.551	4287
814.692	4348
814.833	4246
814.974	4276
815.115	4383
815.256	4249
815.397	4268
815.539	4268
815.68	4238
815.821	4227
815.962	4284
816.103	4287
816.244	4261
816.385	4284
816.526	4257
816.666	4249
816.807	4090
816.948	4196
817.089	4192
817.23	4116
817.371	4063
817.512	4059
817.653	4082
817.793	4025
817.934	4051
818.075	4078
818.216	4090
818.356	4078
818.497	4032
818.638	3937
818.778	3918
818.919	3831
819.06	3861
819.2	3915
819.341	3842
819.481	3842
819.622	3896
819.762	4010
819.903	4002
820.043	3888
820.184	3880
820.324	3819
820.465	3854
820.605	3884
820.746	3896
820.886	3819
821.026	3899
821.167	3941
821.307	3998
821.447	3994
821.588	3899
821.728	3918
821.868	3915
822.008	3869
822.149	3907
822.289	3899
822.429	3789
822.569	3793
822.709	3774
822.849	3740
822.99	3774
823.13	3800
823.27	3770
823.41	3709
823.55	3766
823.69	3759
823.83	3774
823.97	3682
824.11	3641
824.25	3580
824.389	3614
824.529	3701
824.669	3633
824.809	3724
824.949	3762
825.089	3747
825.228	3709
825.368	3572
825.508	3584
825.648	3545
825.787	3629
825.927	3606
826.067	3618
826.206	3652
826.346	3778
826.485	3854
826.625	3869
826.765	3941
826.904	3838
827.044	3587
827.183	3549
827.323	3431
827.462	3507
827.601	3397
827.741	3466
827.88	3450
828.02	3351
828.159	3439
828.298	3485
828.437	3542
828.577	3488
828.716	3606
828.855	3530
828.994	3416
829.134	3378
829.273	3424
829.412	3348
829.551	3325
829.69	3386
829.829	3450
829.968	3496
830.107	3447
830.246	3450
830.385	3370
830.524	3378
830.663	3313
830.802	3256
830.941	3237
831.08	3192
831.219	3302
831.357	3264
831.496	3378
831.635	3260
831.774	3199
831.913	3184
832.051	3135
832.19	3142
832.329	3180
832.467	3138
832.606	3142
832.744	3157
832.883	3192
833.022	3192
833.16	3283
833.299	3348
833.437	3325
833.576	3386
833.714	3409
833.852	3473
833.991	3431
834.129	3488
834.267	3405
834.406	3393
834.544	3420
834.682	3443
834.821	3428
834.959	3530
835.097	3416
835.235	3534
835.373	3507
835.511	3504
835.65	3462
835.788	3466
835.926	3424
836.064	3374
836.202	3382
836.34	3553
836.478	3610
836.615	3545
836.753	3584
836.891	3618
837.029	3671
837.167	3595
837.305	3538
837.443	3538
837.58	3473
837.718	3549
837.856	3561
837.993	3507
838.131	3633
838.269	3553
838.406	3614
838.544	3572
838.681	3485
838.819	3477
838.956	3386
839.094	3428
839.231	3450
839.369	3507
839.506	3732
839.643	3644
839.781	3504
839.918	3473
840.055	3534
840.193	3530
840.33	3500
840.467	3591
840.604	3622
840.742	3819
840.879	3545
841.016	3595
841.153	3629
841.29	3785
841.427	3728
841.564	3717
841.701	3713
841.838	3698
841.975	3682
842.112	3713
842.249	3679
842.385	3660
842.522	3774
842.659	3713
842.796	3633
842.933	3694
843.069	3732
843.206	3724
843.343	3816
843.479	3797
843.616	3789
843.752	3641
843.889	3698
844.025	3842
844.162	3747
844.298	3816
844.435	3789
844.571	3743
844.708	3911
844.844	3987
844.98	4048
845.117	4013
845.253	3907
845.389	3922
845.525	4029
845.661	3930
845.798	3934
845.934	3998
846.07	3960
846.206	4074
846.342	4139
846.478	4090
846.614	4006
846.75	3926
846.886	3926
847.022	4013
847.158	3960
847.294	4021
847.429	4055
847.565	3983
847.701	4192
847.837	3903
847.972	3838
848.108	3998
848.244	3937
848.379	3854
848.515	3831
848.65	3827
848.786	3854
848.921	3854
849.057	3896
849.192	3994
849.328	3915
849.463	3903
849.598	3873
849.734	3846
849.869	3831
850.004	3827
850.14	3785
850.275	3831
850.41	3759
850.545	3762
850.68	3747
850.815	3789
850.95	3789
851.085	3918
851.22	3899
851.355	3808
851.49	3831
851.625	3819
851.76	3751
851.895	3755
852.03	3720
852.165	3800
852.299	3835
852.434	3937
852.569	3869
852.703	3884
852.838	3949
852.973	4010
853.107	4006
853.242	3945
853.376	3846
853.511	3762
853.645	3846
853.78	3998
853.914	3930
854.048	3899
854.183	3915
854.317	3953
854.451	4082
854.585	3983
854.72	3983
854.854	4051
854.988	3937
855.122	3975
855.256	3926
855.39	4063
855.524	4135
855.658	4086
855.792	4074
855.926	4147
856.06	4169
856.194	4181
856.327	4090
856.461	4131
856.595	4154
856.729	4150
856.862	4276
856.996	4265
857.13	4268
857.263	4318
857.397	4325
857.53	4295
857.664	4367
857.797	4394
857.931	4432
858.064	4417
858.197	4459
858.331	4413
858.464	4344
858.597	4356
858.731	4455
858.864	4470
858.997	4485
859.13	4504
859.263	4550
859.396	4599
859.529	4500
859.662	4554
859.795	4516
859.928	4588
860.061	4733
860.194	4736
860.327	4687
860.46	4679
860.592	4714
860.725	4752
860.858	4744
860.99	4702
861.123	4691
861.256	4698
861.388	4763
861.521	5349
861.653	4744
861.786	4694
861.918	4755
862.05	4801
862.183	4866
862.315	4919
862.447	4927
862.58	4930
862.712	4850
862.844	4797
862.976	4892
863.108	4904
863.24	5216
863.372	4793
863.504	4919
863.636	4904
863.768	4976
863.9	4972
864.032	4961
864.164	4946
864.296	5052
864.428	5056
864.559	5136
864.691	5151
864.823	5132
864.954	5143
865.086	5166
865.217	5178
865.349	5147
865.48	5128
865.612	5197
865.743	5288
865.875	5235
866.006	5185
866.137	5269
866.269	5193
866.4	5208
866.531	5318
866.662	5216
866.793	5299
866.924	5307
867.055	5349
867.186	5372
867.317	5288
867.448	5330
867.579	5402
867.71	5387
867.841	5360
867.972	5463
868.103	5448
868.233	5486
868.364	5524
868.495	5528
868.625	5680
868.756	5794
868.886	5699
869.017	5703
869.147	5851
869.278	5874
869.408	5821
869.539	5912
869.669	5916
869.799	5901
869.929	6045
870.06	5980
870.19	6205
870.32	6220
870.45	6273
870.58	6334
870.71	6464
870.84	6528
870.97	6380
871.1	6471
871.23	6631
871.36	6681
871.489	6658
871.619	6760
871.749	6821
871.879	6829
872.008	7069
872.138	6951
872.267	6939
872.397	6989
872.526	7008
872.656	7091
872.785	7228
872.915	7430
873.044	7502
873.173	7510
873.303	7632
873.432	7704
873.561	7860
873.69	7799
873.819	8001
873.948	8240
874.077	8225
874.206	8336
874.335	8427
874.464	8678
874.593	8861
874.722	8933
874.851	9173
874.979	9199
875.108	9348
875.237	9481
875.365	9477
875.494	9698
875.623	9770
875.751	9835
875.88	9949
876.008	10139
876.136	10234
876.265	10478
876.393	10714
876.521	10645
876.65	10797
876.778	10763
876.906	10873
877.034	11052
877.162	11178
877.29	11185
877.418	11360
877.546	11349
877.674	11459
877.802	11429
877.93	11490
878.058	11528
878.185	11551
878.313	11688
878.441	11710
878.568	11668
878.696	11802
878.824	11992
878.951	11931
879.079	12003
879.206	12091
879.333	12060
879.461	12007
879.588	12091
879.715	12095
879.842	12216
879.97	12087
880.097	11980
880.224	11916
880.351	11866
880.478	11920
880.605	11859
880.732	11817
880.859	12076
880.986	11870
881.112	11863
881.239	11779
881.366	11718
881.493	11627
881.619	11554
881.746	11535
881.872	11566
881.999	11459
882.125	11471
882.252	11478
882.378	11493
882.505	11592
882.631	11368
882.757	11277
882.883	11307
883.01	11261
883.136	11166
883.262	11132
883.388	11155
883.514	11227
883.64	11151
883.766	11140
883.892	10927
884.018	10991
884.143	11128
884.269	11162
884.395	10862
884.52	10843
884.646	10755
884.772	10714
884.897	10683
885.023	10721
885.148	10702
885.274	10736
885.399	10733
885.524	10561
885.65	10637
885.775	10466
885.9	10634
886.025	10630
886.15	10634
886.275	10478
886.4	10413
886.525	10325
886.65	10303
886.775	10440
886.9	10538
887.025	10466
887.149	10402
887.274	10234
887.399	10280
887.523	10318
887.648	10139
887.773	10055
887.897	10310
888.021	10223
888.146	10169
888.27	10215
888.395	10253
888.519	10246
888.643	10128
888.767	10150
888.891	9994
889.015	10010
889.139	10040
889.263	10055
889.387	10131
889.511	10143
889.635	10105
889.759	10040
889.883	9937
890.006	10010
890.13	10131
890.254	9956
890.377	9960
890.501	9800
890.624	9869
890.748	9918
890.871	9800
890.995	9728
891.118	9671
891.241	9751
891.364	9740
891.488	9713
891.611	9705
891.734	9698
891.857	9762
891.98	9747
892.103	9793
892.226	9740
892.349	9717
892.471	9530
892.594	9633
892.717	9629
892.839	9629
892.962	9614
893.085	9572
893.207	9576
893.33	9526
893.452	9568
893.575	9595
893.697	9515
893.819	9542
893.941	9641
894.064	9641
894.186	9481
894.308	9447
894.43	9496
894.552	9633
894.674	9549
894.796	9348
894.918	9378
895.04	9283
895.161	9363
895.283	9397
895.405	9287
895.526	9253
895.648	9268
895.769	9233
895.891	9230
896.012	9325
896.134	9195
896.255	9230
896.376	9131
896.498	9138
896.619	9184
896.74	9116
896.861	9108
896.982	9233
897.103	9283
897.224	9131
897.345	9077
897.466	9005
897.587	8994
897.708	9112
897.828	9032
897.949	8956
898.07	8941
898.19	8830
898.311	9028
898.431	8994
898.552	8872
898.672	9009
898.792	8864
898.913	8994
899.033	8815
899.153	8777
899.273	8670
899.393	8735
899.513	8727
899.633	8811
899.753	8777
899.873	8727
899.993	8743
900.113	8746
900.232	8659
900.352	8659
900.472	8613
900.591	8530
900.711	8556
900.83	8511
900.95	8606
901.069	8758
901.189	8571
901.308	8473
901.427	8343
901.546	8419
901.665	8495
901.784	8457
901.904	8374
902.023	8366
902.141	8164
902.26	8301
902.379	8286
902.498	8210
902.617	8195
902.735	8347
902.854	8317
902.973	8263
903.091	8145
903.21	8161
903.328	8153
903.446	8206
903.565	8134
903.683	8035
903.801	8092
903.919	8092
904.038	8161
904.156	7978
904.274	8100
904.392	8058
904.51	8092
904.627	8069
904.745	8035
904.863	8134
904.981	7917
905.098	7845
905.216	7864
905.334	7921
905.451	7936
905.569	7860
905.686	7928
905.803	7940
905.921	7772
906.038	7890
906.155	7746
906.272	7715
906.389	7712
906.506	7651
906.623	7693
906.74	7571
906.857	7597
906.974	7563
907.091	7693
907.208	7681
907.324	7609
907.441	7609
907.557	7472
907.674	7445
907.79	7403
907.907	7419
908.023	7460
908.139	7472
908.256	7411
908.372	7346
908.488	7388
908.604	7293
908.72	7240
908.836	7289
908.952	7187
909.068	7206
909.184	7320
909.3	7247
909.415	7350
909.531	7282
909.647	7103
909.762	7107
909.878	7103
909.993	7126
910.108	7118
910.224	7019
910.339	7099
910.454	7069
910.57	7000
910.685	6966
910.8	7164
910.915	7133
911.03	7031
911.145	6924
911.259	6909
911.374	6863
911.489	6935
911.604	6833
911.718	6738
911.833	6772
911.947	6711
912.062	6570
912.176	6722
912.291	6741
912.405	6696
912.519	6738
912.633	6840
912.748	6768
912.862	6688
912.976	6589
913.09	6563
913.204	6570
913.318	6601
913.431	6696
913.545	6646
913.659	6696
913.772	6658
913.886	6566
914	6593
914.113	6639
914.226	6589
914.34	6623
914.453	6467
914.566	6570
914.68	6540
914.793	6566
914.906	6346
915.019	6380
915.132	6376
915.245	6479
915.358	6441
915.47	6544
915.583	6441
915.696	6422
915.809	6525
915.921	6570
916.034	6422
916.146	6391
916.259	6384
916.371	6513
916.483	6467
916.595	6403
916.708	6460
916.82	6460
916.932	6380
917.044	6441
917.156	6429
917.268	6365
917.38	6296
917.491	6323
917.603	6353
917.715	6445
917.826	6490
917.938	6270
918.049	6194
918.161	6353
918.272	6464
918.384	6418
918.495	6331
918.606	6289
918.717	6201
918.828	6308
918.939	6334
919.05	6239
919.161	6254
919.272	6163
919.383	6167
919.494	6266
919.604	6452
919.715	6311
919.826	6247
919.936	6254
920.047	6361
920.157	6296
920.267	6426
920.378	6296
920.488	6300
920.598	6471
920.708	6536
920.818	6433
920.928	6433
921.038	6612
921.148	6604
921.258	6357
921.368	6350
921.477	6239
921.587	6186
921.697	6030
921.806	6178
921.916	6064
922.025	6030
922.134	5958
922.244	5893
922.353	5946
922.462	5859
922.571	5786
922.68	5707
922.789	5653
922.898	5672
923.007	5646
923.116	5710
923.224	5634
923.333	5691
923.442	5657
923.55	5554
923.659	5611
923.767	5653
923.876	5520
923.984	5642
924.092	5444
924.201	5589
924.309	5577
924.417	5520
924.525	5490
924.633	5471
924.741	6270
924.849	5383
924.956	5520
925.064	5391
925.172	5334
925.279	5337
925.387	5349
925.494	5330
925.602	5425
925.709	5417
925.816	5334
925.924	5368
926.031	5395
926.138	5379
926.245	5322
926.352	5246
926.459	5368
926.566	5353
926.673	5227
926.779	5136
926.886	5098
926.993	5033
927.099	5014
927.206	4987
927.312	4972
927.419	4995
927.525	4957
927.631	5003
927.737	4873
927.843	4904
927.95	4820
928.056	4786
928.162	4839
928.267	4854
928.373	5357
928.479	4873
928.585	4687
928.69	4744
928.796	4767
928.901	4698
929.007	4634
929.112	4672
929.218	4664
929.323	4535
929.428	4603
929.533	4668
929.638	4481
929.743	4527
929.848	4538
929.953	4512
930.058	4421
930.163	4306
930.267	4341
930.372	4474
930.477	4295
930.581	4424
930.685	4333
930.79	4284
930.894	4322
930.998	4238
931.103	4455
931.207	4105
931.311	4078
931.415	4078
931.519	3941
931.623	3964
