Data from glass_V78500241_1591.txt Node
Date: Wed Sep 01 19:25:31 CST 2021
User: usil
Spectrometer: V785-0024
Trigger mode: 0
Integration Time (sec): 4.000000E-1
Scans to average: 1
Nonlinearity correction enabled: false
Boxcar width: 0
Storing dark spectrum: false
XAxis mode: Wavelengths
Number of Pixels in Spectrum: 1024
>>>>>Begin Spectral Data<<<<<
801.071	3740
801.214	3740
801.356	3682
801.499	3747
801.641	3755
801.783	3736
801.926	3831
802.068	3827
802.211	3808
802.353	3896
802.496	3861
802.638	3892
802.78	3899
802.923	3945
803.065	3907
803.208	3865
803.35	3873
803.492	3880
803.635	3922
803.777	3762
803.919	3831
804.061	4169
804.204	3975
804.346	3979
804.488	3922
804.63	4025
804.773	3934
804.915	3998
805.057	4116
805.199	4036
805.341	4044
805.483	4147
805.626	4097
805.768	4090
805.91	4211
806.052	4204
806.194	4200
806.336	4371
806.478	4215
806.62	4173
806.762	4204
806.904	4238
807.046	4333
807.188	4246
807.33	4204
807.472	4215
807.614	4200
807.756	4234
807.898	4154
808.04	4242
808.182	4246
808.324	4322
808.465	4341
808.607	4474
808.749	4459
808.891	4519
809.033	4500
809.174	4440
809.316	4280
809.458	4272
809.6	4169
809.741	4169
809.883	4147
810.025	4223
810.166	4223
810.308	4253
810.45	4207
810.591	4249
810.733	4284
810.875	4527
811.016	4797
811.158	5132
811.299	5265
811.441	5284
811.582	5094
811.724	4714
811.865	4421
812.007	4485
812.148	4436
812.29	4409
812.431	4363
812.573	4383
812.714	4379
812.855	4417
812.997	4417
813.138	4516
813.279	4417
813.421	4409
813.562	4379
813.703	4325
813.845	4341
813.986	4227
814.127	4242
814.268	4287
814.41	4284
814.551	4257
814.692	4356
814.833	4272
814.974	4333
815.115	4375
815.256	4230
815.397	4272
815.539	4234
815.68	4211
815.821	4242
815.962	4299
816.103	4272
816.244	4230
816.385	4265
816.526	4249
816.666	4246
816.807	4082
816.948	4131
817.089	4150
817.23	4154
817.371	4078
817.512	4063
817.653	4097
817.793	4044
817.934	4090
818.075	4071
818.216	4112
818.356	4116
818.497	3987
818.638	3972
818.778	3884
818.919	3926
819.06	3838
819.2	3892
819.341	3865
819.481	3823
819.622	3876
819.762	4010
819.903	4002
820.043	3838
820.184	3797
820.324	3846
820.465	3865
820.605	3838
820.746	3876
820.886	3816
821.026	3915
821.167	3915
821.307	3998
821.447	3994
821.588	3941
821.728	3975
821.868	3937
822.008	3880
822.149	3880
822.289	3903
822.429	3781
822.569	3778
822.709	3778
822.849	3724
822.99	3720
823.13	3793
823.27	3766
823.41	3698
823.55	3736
823.69	3717
823.83	3732
823.97	3663
824.11	3625
824.25	3576
824.389	3614
824.529	3686
824.669	3656
824.809	3667
824.949	3724
825.089	3736
825.228	3728
825.368	3599
825.508	3568
825.648	3572
825.787	3587
825.927	3599
826.067	3648
826.206	3641
826.346	3789
826.485	3846
826.625	3888
826.765	3937
826.904	3846
827.044	3587
827.183	3557
827.323	3405
827.462	3450
827.601	3439
827.741	3469
827.88	3462
828.02	3412
828.159	3443
828.298	3485
828.437	3530
828.577	3462
828.716	3606
828.855	3469
828.994	3412
829.134	3378
829.273	3374
829.412	3363
829.551	3367
829.69	3370
829.829	3450
829.968	3526
830.107	3435
830.246	3462
830.385	3359
830.524	3397
830.663	3313
830.802	3264
830.941	3218
831.08	3157
831.219	3287
831.357	3279
831.496	3393
831.635	3237
831.774	3195
831.913	3203
832.051	3195
832.19	3131
832.329	3241
832.467	3127
832.606	3100
832.744	3176
832.883	3192
833.022	3203
833.16	3268
833.299	3294
833.437	3351
833.576	3393
833.714	3416
833.852	3431
833.991	3443
834.129	3458
834.267	3431
834.406	3412
834.544	3420
834.682	3469
834.821	3382
834.959	3545
835.097	3416
835.235	3526
835.373	3435
835.511	3469
835.65	3473
835.788	3454
835.926	3397
836.064	3439
836.202	3401
836.34	3572
836.478	3622
836.615	3553
836.753	3637
836.891	3686
837.029	3618
837.167	3576
837.305	3572
837.443	3542
837.58	3485
837.718	3599
837.856	3564
837.993	3519
838.131	3587
838.269	3584
838.406	3587
838.544	3614
838.681	3507
838.819	3424
838.956	3370
839.094	3374
839.231	3485
839.369	3507
839.506	3724
839.643	3690
839.781	3500
839.918	3450
840.055	3515
840.193	3523
840.33	3507
840.467	3545
840.604	3622
840.742	3800
840.879	3549
841.016	3591
841.153	3587
841.29	3797
841.427	3717
841.564	3736
841.701	3720
841.838	3663
841.975	3648
842.112	3732
842.249	3599
842.385	3648
842.522	3823
842.659	3713
842.796	3663
842.933	3736
843.069	3720
843.206	3705
843.343	3774
843.479	3781
843.616	3831
843.752	3694
843.889	3694
844.025	3888
844.162	3686
844.298	3835
844.435	3793
844.571	3766
844.708	3918
844.844	3994
844.98	4017
845.117	4040
845.253	3892
845.389	3899
845.525	3968
845.661	3987
845.798	3918
845.934	3983
846.07	3918
846.206	4021
846.342	4093
846.478	4044
846.614	3964
846.75	3922
846.886	3903
847.022	4078
847.158	4017
847.294	3994
847.429	4051
847.565	4010
847.701	4215
847.837	3865
847.972	3865
848.108	3972
848.244	3972
848.379	3831
848.515	3785
848.65	3835
848.786	3831
848.921	3915
849.057	3937
849.192	3949
849.328	3911
849.463	3934
849.598	3838
849.734	3884
849.869	3812
850.004	3804
850.14	3800
850.275	3774
850.41	3717
850.545	3778
850.68	3800
850.815	3797
850.95	3755
851.085	3968
851.22	3884
851.355	3789
851.49	3778
851.625	3835
851.76	3785
851.895	3717
852.03	3766
852.165	3816
852.299	3880
852.434	3926
852.569	3861
852.703	3865
852.838	3934
852.973	4021
853.107	4010
853.242	3884
853.376	3842
853.511	3766
853.645	3838
853.78	3975
853.914	3884
854.048	3899
854.183	3888
854.317	3926
854.451	4067
854.585	3953
854.72	3960
854.854	4086
854.988	3960
855.122	3998
855.256	3937
855.39	4010
855.524	4135
855.658	4082
855.792	4116
855.926	4131
856.06	4177
856.194	4173
856.327	4131
856.461	4135
856.595	4147
856.729	4192
856.862	4223
856.996	4249
857.13	4287
857.263	4337
857.397	4386
857.53	4265
857.664	4379
857.797	4417
857.931	4421
858.064	4379
858.197	4455
858.331	4371
858.464	4451
858.597	4337
858.731	4428
858.864	4470
858.997	4443
859.13	4531
859.263	4519
859.396	4569
859.529	4500
859.662	4523
859.795	4523
859.928	4561
860.061	4721
860.194	4782
860.327	4668
860.46	4656
860.592	4694
860.725	4752
860.858	4793
860.99	4729
861.123	4725
861.256	4725
861.388	4755
861.521	5532
861.653	4725
861.786	4706
861.918	4714
862.05	4801
862.183	4828
862.315	4847
862.447	4904
862.58	4870
862.712	4828
862.844	4831
862.976	4896
863.108	4870
863.24	5265
863.372	4843
863.504	4885
863.636	4930
863.768	4949
863.9	4911
864.032	4934
864.164	4961
864.296	5045
864.428	5037
864.559	5067
864.691	5155
864.823	5147
864.954	5113
865.086	5140
865.217	5162
865.349	5147
865.48	5143
865.612	5155
865.743	5277
865.875	5181
866.006	5181
866.137	5227
866.269	5246
866.4	5250
866.531	5227
866.662	5216
866.793	5288
866.924	5258
867.055	5315
867.186	5307
867.317	5345
867.448	5273
867.579	5391
867.71	5337
867.841	5417
867.972	5421
868.103	5509
868.233	5471
868.364	5490
868.495	5516
868.625	5710
868.756	5828
868.886	5680
869.017	5760
869.147	5836
869.278	5840
869.408	5794
869.539	5824
869.669	5961
869.799	5927
869.929	6049
870.06	6015
870.19	6163
870.32	6228
870.45	6254
870.58	6346
870.71	6429
870.84	6475
870.97	6418
871.1	6479
871.23	6620
871.36	6642
871.489	6669
871.619	6688
871.749	6837
871.879	6867
872.008	6973
872.138	6943
872.267	7004
872.397	7046
872.526	7137
872.656	7015
872.785	7259
872.915	7373
873.044	7506
873.173	7586
873.303	7696
873.432	7677
873.561	7898
873.69	7898
873.819	8016
873.948	8214
874.077	8225
874.206	8343
874.335	8427
874.464	8663
874.593	8880
874.722	8975
874.851	9142
874.979	9214
875.108	9317
875.237	9443
875.365	9450
875.494	9690
875.623	9831
875.751	9823
875.88	10017
876.008	10166
876.136	10257
876.265	10504
876.393	10615
876.521	10763
876.65	10790
876.778	10900
876.906	10881
877.034	11018
877.162	11147
877.29	11159
877.418	11379
877.546	11322
877.674	11425
877.802	11455
877.93	11520
878.058	11581
878.185	11619
878.313	11668
878.441	11752
878.568	11729
878.696	11764
878.824	11901
878.951	11946
879.079	12007
879.206	12110
879.333	12068
879.461	11923
879.588	12159
879.715	12057
879.842	12220
879.97	12076
880.097	11859
880.224	11942
880.351	11863
880.478	11859
880.605	11836
880.732	11767
880.859	12034
880.986	11821
881.112	11882
881.239	11748
881.366	11668
881.493	11627
881.619	11623
881.746	11589
881.872	11444
881.999	11524
882.125	11448
882.252	11516
882.378	11509
882.505	11463
882.631	11455
882.757	11341
882.883	11303
883.01	11227
883.136	11197
883.262	11166
883.388	11151
883.514	11181
883.64	11166
883.766	11090
883.892	10942
884.018	10946
884.143	11143
884.269	11136
884.395	10816
884.52	10809
884.646	10805
884.772	10774
884.897	10656
885.023	10634
885.148	10755
885.274	10668
885.399	10714
885.524	10596
885.65	10561
885.775	10656
885.9	10569
886.025	10558
886.15	10493
886.275	10421
886.4	10466
886.525	10390
886.65	10386
886.775	10398
886.9	10440
887.025	10538
887.149	10363
887.274	10192
887.399	10188
887.523	10169
887.648	10131
887.773	10139
887.897	10265
888.021	10211
888.146	10097
888.27	10261
888.395	10188
888.519	10276
888.643	10204
888.767	10188
888.891	10086
889.015	10044
889.139	10086
889.263	10048
889.387	10120
889.511	10116
889.635	10086
889.759	9968
889.883	9998
890.006	10048
890.13	10086
890.254	9998
890.377	9960
890.501	9781
890.624	9819
890.748	9842
890.871	9838
890.995	9808
891.118	9701
891.241	9747
891.364	9759
891.488	9846
891.611	9797
891.734	9781
891.857	9819
891.98	9709
892.103	9682
892.226	9698
892.349	9629
892.471	9519
892.594	9591
892.717	9591
892.839	9568
892.962	9523
893.085	9728
893.207	9614
893.33	9561
893.452	9526
893.575	9656
893.697	9504
893.819	9591
893.941	9618
894.064	9584
894.186	9401
894.308	9462
894.43	9538
894.552	9671
894.674	9538
894.796	9370
894.918	9397
895.04	9302
895.161	9412
895.283	9386
895.405	9268
895.526	9298
895.648	9230
895.769	9253
895.891	9306
896.012	9203
896.134	9207
896.255	9157
896.376	9127
896.498	9176
896.619	9085
896.74	9017
896.861	9043
896.982	9256
897.103	9184
897.224	9157
897.345	9036
897.466	9009
897.587	8986
897.708	9043
897.828	9074
897.949	8941
898.07	8887
898.19	8891
898.311	9024
898.431	8872
898.552	8929
898.672	9009
898.792	8963
898.913	8918
899.033	8819
899.153	8796
899.273	8689
899.393	8712
899.513	8720
899.633	8724
899.753	8785
899.873	8716
899.993	8762
900.113	8746
900.232	8674
900.352	8606
900.472	8610
900.591	8625
900.711	8560
900.83	8560
900.95	8686
901.069	8731
901.189	8579
901.308	8480
901.427	8362
901.546	8423
901.665	8480
901.784	8476
901.904	8450
902.023	8328
902.141	8248
902.26	8202
902.379	8259
902.498	8248
902.617	8176
902.735	8305
902.854	8336
902.973	8286
903.091	8134
903.21	8130
903.328	8187
903.446	8138
903.565	8096
903.683	8065
903.801	8031
903.919	8157
904.038	8157
904.156	8069
904.274	8088
904.392	7967
904.51	8065
904.627	8081
904.745	8058
904.863	8100
904.981	7830
905.098	7849
905.216	7902
905.334	7913
905.451	7944
905.569	7887
905.686	7921
905.803	7902
905.921	7795
906.038	7845
906.155	7712
906.272	7685
906.389	7700
906.506	7639
906.623	7632
906.74	7628
906.857	7537
906.974	7613
907.091	7586
907.208	7757
907.324	7674
907.441	7578
907.557	7449
907.674	7472
907.79	7411
907.907	7365
908.023	7468
908.139	7419
908.256	7354
908.372	7392
908.488	7320
908.604	7225
908.72	7282
908.836	7232
908.952	7274
909.068	7236
909.184	7373
909.3	7244
909.415	7266
909.531	7327
909.647	7126
909.762	7156
909.878	7137
909.993	7160
910.108	7091
910.224	7141
910.339	7114
910.454	7084
910.57	7004
910.685	6970
910.8	7099
910.915	7126
911.03	7084
911.145	6909
911.259	6848
911.374	6913
911.489	6859
911.604	6757
911.718	6741
911.833	6734
911.947	6677
912.062	6555
912.176	6703
912.291	6726
912.405	6745
912.519	6837
912.633	6840
912.748	6768
912.862	6646
912.976	6585
913.09	6475
913.204	6566
913.318	6623
913.431	6700
913.545	6623
913.659	6654
913.772	6608
913.886	6528
914	6574
914.113	6551
914.226	6623
914.34	6608
914.453	6479
914.566	6608
914.68	6540
914.793	6498
914.906	6380
915.019	6350
915.132	6418
915.245	6357
915.358	6407
915.47	6437
915.583	6410
915.696	6437
915.809	6555
915.921	6547
916.034	6380
916.146	6414
916.259	6422
916.371	6506
916.483	6445
916.595	6407
916.708	6395
916.82	6395
916.932	6334
917.044	6391
917.156	6437
917.268	6319
917.38	6391
917.491	6342
917.603	6319
917.715	6426
917.826	6433
917.938	6376
918.049	6258
918.161	6277
918.272	6422
918.384	6395
918.495	6384
918.606	6281
918.717	6220
918.828	6323
918.939	6258
919.05	6152
919.161	6213
919.272	6125
919.383	6148
919.494	6315
919.604	6418
919.715	6289
919.826	6205
919.936	6270
920.047	6357
920.157	6251
920.267	6441
920.378	6331
920.488	6289
920.598	6498
920.708	6578
920.818	6498
920.928	6456
921.038	6570
921.148	6566
921.258	6365
921.368	6311
921.477	6197
921.587	6136
921.697	6144
921.806	6121
921.916	6140
922.025	5927
922.134	5885
922.244	5851
922.353	5954
922.462	5859
922.571	5767
922.68	5726
922.789	5718
922.898	5741
923.007	5627
923.116	5691
923.224	5737
923.333	5680
923.442	5649
923.55	5577
923.659	5558
923.767	5672
923.876	5585
923.984	5600
924.092	5520
924.201	5585
924.309	5551
924.417	5570
924.525	5474
924.633	5501
924.741	6091
924.849	5330
924.956	5448
925.064	5330
925.172	5330
925.279	5322
925.387	5349
925.494	5334
925.602	5410
925.709	5353
925.816	5296
925.924	5311
926.031	5383
926.138	5299
926.245	5364
926.352	5204
926.459	5303
926.566	5345
926.673	5220
926.779	5124
926.886	5136
926.993	5060
927.099	5014
927.206	4995
927.312	4949
927.419	5052
927.525	4972
927.631	4965
927.737	4889
927.843	4828
927.95	4771
928.056	4801
928.162	4866
928.267	4850
928.373	5341
928.479	4850
928.585	4702
928.69	4778
928.796	4771
928.901	4645
929.007	4580
929.112	4694
929.218	4660
929.323	4641
929.428	4531
929.533	4687
929.638	4504
929.743	4516
929.848	4569
929.953	4512
930.058	4455
930.163	4348
930.267	4325
930.372	4428
930.477	4314
930.581	4417
930.685	4348
930.79	4280
930.894	4287
930.998	4257
931.103	4375
931.207	4112
931.311	4063
931.415	4074
931.519	3949
931.623	3930
