Data from glass_V78500241_1180.txt Node
Date: Wed Sep 01 19:22:40 CST 2021
User: usil
Spectrometer: V785-0024
Trigger mode: 0
Integration Time (sec): 4.000000E-1
Scans to average: 1
Nonlinearity correction enabled: false
Boxcar width: 0
Storing dark spectrum: false
XAxis mode: Wavelengths
Number of Pixels in Spectrum: 1024
>>>>>Begin Spectral Data<<<<<
801.071	3781
801.214	3774
801.356	3766
801.499	3816
801.641	3736
801.783	3789
801.926	3869
802.068	3861
802.211	3846
802.353	3884
802.496	3857
802.638	3846
802.78	3888
802.923	3888
803.065	3911
803.208	3816
803.35	3865
803.492	3926
803.635	3899
803.777	3785
803.919	3850
804.061	4135
804.204	3953
804.346	4010
804.488	3922
804.63	4059
804.773	4017
804.915	4063
805.057	4120
805.199	4040
805.341	4090
805.483	4124
805.626	4131
805.768	4166
805.91	4238
806.052	4265
806.194	4185
806.336	4348
806.478	4200
806.62	4188
806.762	4192
806.904	4227
807.046	4413
807.188	4207
807.33	4166
807.472	4265
807.614	4219
807.756	4265
807.898	4272
808.04	4177
808.182	4318
808.324	4371
808.465	4375
808.607	4508
808.749	4459
808.891	4451
809.033	4512
809.174	4405
809.316	4287
809.458	4268
809.6	4192
809.741	4162
809.883	4150
810.025	4215
810.166	4207
810.308	4230
810.45	4284
810.591	4219
810.733	4310
810.875	4519
811.016	4839
811.158	5086
811.299	5303
811.441	5315
811.582	5067
811.724	4725
811.865	4493
812.007	4481
812.148	4481
812.29	4424
812.431	4451
812.573	4402
812.714	4386
812.855	4447
812.997	4462
813.138	4519
813.279	4386
813.421	4386
813.562	4409
813.703	4379
813.845	4322
813.986	4272
814.127	4234
814.268	4303
814.41	4223
814.551	4295
814.692	4360
814.833	4291
814.974	4299
815.115	4375
815.256	4257
815.397	4207
815.539	4276
815.68	4219
815.821	4257
815.962	4299
816.103	4318
816.244	4234
816.385	4246
816.526	4284
816.666	4211
816.807	4078
816.948	4219
817.089	4196
817.23	4059
817.371	4055
817.512	4048
817.653	4059
817.793	4086
817.934	4105
818.075	4082
818.216	4097
818.356	4143
818.497	3956
818.638	3869
818.778	3922
818.919	3884
819.06	3899
819.2	3892
819.341	3876
819.481	3842
819.622	3918
819.762	4013
819.903	3968
820.043	3884
820.184	3831
820.324	3861
820.465	3911
820.605	3873
820.746	3873
820.886	3800
821.026	3922
821.167	3926
821.307	3953
821.447	4040
821.588	3934
821.728	3945
821.868	3911
822.008	3880
822.149	3911
822.289	3899
822.429	3770
822.569	3800
822.709	3797
822.849	3656
822.99	3713
823.13	3770
823.27	3797
823.41	3751
823.55	3740
823.69	3717
823.83	3720
823.97	3667
824.11	3648
824.25	3622
824.389	3667
824.529	3686
824.669	3660
824.809	3736
824.949	3736
825.089	3766
825.228	3728
825.368	3568
825.508	3538
825.648	3580
825.787	3603
825.927	3584
826.067	3633
826.206	3671
826.346	3800
826.485	3842
826.625	3873
826.765	3941
826.904	3819
827.044	3633
827.183	3553
827.323	3462
827.462	3477
827.601	3431
827.741	3458
827.88	3504
828.02	3420
828.159	3473
828.298	3500
828.437	3553
828.577	3492
828.716	3644
828.855	3519
828.994	3386
829.134	3363
829.273	3401
829.412	3336
829.551	3370
829.69	3389
829.829	3477
829.968	3538
830.107	3431
830.246	3481
830.385	3397
830.524	3351
830.663	3325
830.802	3249
830.941	3233
831.08	3222
831.219	3253
831.357	3256
831.496	3420
831.635	3279
831.774	3207
831.913	3264
832.051	3192
832.19	3146
832.329	3230
832.467	3146
832.606	3165
832.744	3184
832.883	3199
833.022	3173
833.16	3283
833.299	3321
833.437	3310
833.576	3363
833.714	3428
833.852	3431
833.991	3443
834.129	3469
834.267	3435
834.406	3412
834.544	3435
834.682	3439
834.821	3428
834.959	3610
835.097	3382
835.235	3584
835.373	3511
835.511	3507
835.65	3454
835.788	3492
835.926	3389
836.064	3397
836.202	3382
836.34	3526
836.478	3663
836.615	3542
836.753	3660
836.891	3682
837.029	3576
837.167	3633
837.305	3564
837.443	3526
837.58	3496
837.718	3576
837.856	3557
837.993	3545
838.131	3584
838.269	3618
838.406	3568
838.544	3549
838.681	3439
838.819	3409
838.956	3401
839.094	3393
839.231	3450
839.369	3496
839.506	3751
839.643	3641
839.781	3492
839.918	3488
840.055	3538
840.193	3542
840.33	3519
840.467	3587
840.604	3618
840.742	3827
840.879	3568
841.016	3584
841.153	3663
841.29	3785
841.427	3736
841.564	3728
841.701	3717
841.838	3743
841.975	3644
842.112	3759
842.249	3675
842.385	3644
842.522	3823
842.659	3736
842.796	3694
842.933	3709
843.069	3724
843.206	3713
843.343	3850
843.479	3770
843.616	3804
843.752	3709
843.889	3663
844.025	3888
844.162	3747
844.298	3846
844.435	3819
844.571	3778
844.708	3876
844.844	3979
844.98	4040
845.117	3998
845.253	3968
845.389	3926
845.525	3968
845.661	3937
845.798	3956
845.934	4063
846.07	3987
846.206	4059
846.342	4124
846.478	4051
846.614	4017
846.75	3964
846.886	3915
847.022	4040
847.158	3975
847.294	4002
847.429	4059
847.565	3998
847.701	4310
847.837	3926
847.972	3880
848.108	3994
848.244	3975
848.379	3896
848.515	3835
848.65	3827
848.786	3865
848.921	3873
849.057	3960
849.192	3945
849.328	3987
849.463	3987
849.598	3934
849.734	3876
849.869	3816
850.004	3808
850.14	3816
850.275	3766
850.41	3728
850.545	3789
850.68	3823
850.815	3857
850.95	3797
851.085	3983
851.22	3918
851.355	3857
851.49	3797
851.625	3797
851.76	3842
851.895	3743
852.03	3724
852.165	3785
852.299	3865
852.434	3930
852.569	3911
852.703	3846
852.838	3968
852.973	3991
853.107	3983
853.242	3911
853.376	3835
853.511	3778
853.645	3850
853.78	3987
853.914	3907
854.048	3926
854.183	3903
854.317	3937
854.451	4067
854.585	3960
854.72	3949
854.854	4029
854.988	3945
855.122	3987
855.256	3918
855.39	4029
855.524	4128
855.658	4101
855.792	4128
855.926	4196
856.06	4166
856.194	4261
856.327	4154
856.461	4169
856.595	4162
856.729	4124
856.862	4303
856.996	4253
857.13	4246
857.263	4356
857.397	4394
857.53	4265
857.664	4356
857.797	4394
857.931	4432
858.064	4394
858.197	4459
858.331	4383
858.464	4348
858.597	4341
858.731	4451
858.864	4443
858.997	4485
859.13	4493
859.263	4550
859.396	4607
859.529	4516
859.662	4542
859.795	4569
859.928	4611
860.061	4740
860.194	4733
860.327	4668
860.46	4717
860.592	4744
860.725	4805
860.858	4710
860.99	4725
861.123	4683
861.256	4721
861.388	4763
861.521	5212
861.653	4782
861.786	4691
861.918	4763
862.05	4812
862.183	4831
862.315	4885
862.447	4991
862.58	4873
862.712	4797
862.844	4767
862.976	4858
863.108	4911
863.24	5227
863.372	4820
863.504	4915
863.636	4877
863.768	4946
863.9	4942
864.032	4961
864.164	5003
864.296	4999
864.428	5102
864.559	5124
864.691	5067
864.823	5098
864.954	5151
865.086	5189
865.217	5140
865.349	5132
865.48	5159
865.612	5220
865.743	5284
865.875	5231
866.006	5193
866.137	5231
866.269	5250
866.4	5269
866.531	5258
866.662	5201
866.793	5254
866.924	5269
867.055	5395
867.186	5288
867.317	5349
867.448	5307
867.579	5387
867.71	5364
867.841	5421
867.972	5478
868.103	5478
868.233	5482
868.364	5543
868.495	5589
868.625	5707
868.756	5821
868.886	5695
869.017	5756
869.147	5885
869.278	5882
869.408	5805
869.539	5813
869.669	5916
869.799	5920
869.929	6007
870.06	6007
870.19	6178
870.32	6190
870.45	6258
870.58	6365
870.71	6426
870.84	6532
870.97	6441
871.1	6433
871.23	6707
871.36	6684
871.489	6665
871.619	6764
871.749	6840
871.879	6856
872.008	6932
872.138	7023
872.267	7038
872.397	6985
872.526	7031
872.656	7065
872.785	7194
872.915	7445
873.044	7434
873.173	7537
873.303	7578
873.432	7746
873.561	7811
873.69	7936
873.819	8046
873.948	8145
874.077	8218
874.206	8442
874.335	8438
874.464	8689
874.593	8887
874.722	8868
874.851	9104
874.979	9214
875.108	9317
875.237	9473
875.365	9515
875.494	9743
875.623	9823
875.751	9846
875.88	9975
876.008	10162
876.136	10268
876.265	10584
876.393	10721
876.521	10725
876.65	10843
876.778	10885
876.906	10930
877.034	11033
877.162	11124
877.29	11159
877.418	11261
877.546	11410
877.674	11406
877.802	11368
877.93	11497
878.058	11604
878.185	11528
878.313	11653
878.441	11703
878.568	11623
878.696	11790
878.824	11821
878.951	11992
879.079	11984
879.206	12129
879.333	12034
879.461	11958
879.588	12133
879.715	12095
879.842	12186
879.97	12064
880.097	11851
880.224	11817
880.351	11847
880.478	11878
880.605	11866
880.732	11863
880.859	11946
880.986	11836
881.112	11809
881.239	11802
881.366	11733
881.493	11699
881.619	11585
881.746	11539
881.872	11486
881.999	11589
882.125	11539
882.252	11577
882.378	11501
882.505	11554
882.631	11349
882.757	11284
882.883	11250
883.01	11242
883.136	11193
883.262	11185
883.388	11094
883.514	11208
883.64	11204
883.766	11105
883.892	10995
884.018	11022
884.143	11041
884.269	11181
884.395	10759
884.52	10763
884.646	10801
884.772	10675
884.897	10634
885.023	10717
885.148	10748
885.274	10790
885.399	10714
885.524	10634
885.65	10664
885.775	10653
885.9	10478
886.025	10588
886.15	10546
886.275	10538
886.4	10447
886.525	10398
886.65	10344
886.775	10363
886.9	10504
887.025	10569
887.149	10382
887.274	10280
887.399	10211
887.523	10192
887.648	10150
887.773	10105
887.897	10219
888.021	10200
888.146	10219
888.27	10230
888.395	10230
888.519	10162
888.643	10230
888.767	10181
888.891	10021
889.015	10029
889.139	9964
889.263	9994
889.387	10093
889.511	10154
889.635	10177
889.759	9979
889.883	9975
890.006	10025
890.13	10059
890.254	10032
890.377	9937
890.501	9861
890.624	9838
890.748	9876
890.871	9842
890.995	9762
891.118	9717
891.241	9793
891.364	9778
891.488	9850
891.611	9705
891.734	9835
891.857	9789
891.98	9724
892.103	9743
892.226	9797
892.349	9633
892.471	9557
892.594	9557
892.717	9584
892.839	9599
892.962	9606
893.085	9663
893.207	9599
893.33	9545
893.452	9542
893.575	9614
893.697	9450
893.819	9656
893.941	9614
894.064	9625
894.186	9485
894.308	9443
894.43	9511
894.552	9526
894.674	9485
894.796	9325
894.918	9473
895.04	9363
895.161	9416
895.283	9332
895.405	9256
895.526	9329
895.648	9260
895.769	9329
895.891	9321
896.012	9283
896.134	9237
896.255	9211
896.376	9176
896.498	9138
896.619	9104
896.74	8994
896.861	9154
896.982	9249
897.103	9226
897.224	9184
897.345	9070
897.466	9058
897.587	9024
897.708	9108
897.828	9097
897.949	8902
898.07	8937
898.19	8933
898.311	9081
898.431	8872
898.552	8872
898.672	9039
898.792	8960
898.913	8941
899.033	8807
899.153	8708
899.273	8678
899.393	8781
899.513	8788
899.633	8731
899.753	8743
899.873	8667
899.993	8758
900.113	8655
900.232	8705
900.352	8667
900.472	8644
900.591	8549
900.711	8613
900.83	8564
900.95	8659
901.069	8667
901.189	8564
901.308	8415
901.427	8461
901.546	8423
901.665	8488
901.784	8480
901.904	8385
902.023	8362
902.141	8275
902.26	8256
902.379	8275
902.498	8263
902.617	8233
902.735	8317
902.854	8256
902.973	8244
903.091	8092
903.21	8191
903.328	8187
903.446	8103
903.565	8103
903.683	8123
903.801	8100
903.919	8123
904.038	8145
904.156	8065
904.274	8096
904.392	8050
904.51	8077
904.627	8096
904.745	8054
904.863	8107
904.981	7894
905.098	7887
905.216	7902
905.334	7928
905.451	7906
905.569	7928
905.686	7947
905.803	7974
905.921	7860
906.038	7871
906.155	7795
906.272	7700
906.389	7693
906.506	7624
906.623	7628
906.74	7613
906.857	7518
906.974	7552
907.091	7734
907.208	7693
907.324	7696
907.441	7525
907.557	7400
907.674	7453
907.79	7411
907.907	7419
908.023	7453
908.139	7483
908.256	7354
908.372	7358
908.488	7381
908.604	7266
908.72	7225
908.836	7316
908.952	7221
909.068	7198
909.184	7350
909.3	7301
909.415	7278
909.531	7350
909.647	7076
909.762	7152
909.878	7095
909.993	7194
910.108	7145
910.224	7091
910.339	7023
910.454	7065
910.57	6996
910.685	6993
910.8	7175
910.915	7069
911.03	7034
911.145	6916
911.259	6863
911.374	6878
911.489	6833
911.604	6760
911.718	6749
911.833	6726
911.947	6673
912.062	6631
912.176	6703
912.291	6707
912.405	6738
912.519	6852
912.633	6757
912.748	6673
912.862	6688
912.976	6623
913.09	6555
913.204	6528
913.318	6608
913.431	6662
913.545	6700
913.659	6700
913.772	6658
913.886	6589
914	6570
914.113	6585
914.226	6616
914.34	6601
914.453	6471
914.566	6570
914.68	6555
914.793	6475
914.906	6486
915.019	6418
915.132	6311
915.245	6464
915.358	6429
915.47	6452
915.583	6471
915.696	6521
915.809	6582
915.921	6593
916.034	6433
916.146	6426
916.259	6365
916.371	6471
916.483	6445
916.595	6445
916.708	6388
916.82	6399
916.932	6407
917.044	6395
917.156	6399
917.268	6304
917.38	6338
917.491	6292
917.603	6388
917.715	6384
917.826	6486
917.938	6296
918.049	6289
918.161	6327
918.272	6452
918.384	6471
918.495	6353
918.606	6273
918.717	6270
918.828	6243
918.939	6353
919.05	6175
919.161	6292
919.272	6121
919.383	6182
919.494	6209
919.604	6433
919.715	6311
919.826	6213
919.936	6224
920.047	6308
920.157	6285
920.267	6490
920.378	6296
920.488	6319
920.598	6464
920.708	6589
920.818	6445
920.928	6445
921.038	6604
921.148	6616
921.258	6346
921.368	6327
921.477	6262
921.587	6247
921.697	6117
921.806	6178
921.916	6087
922.025	5954
922.134	5882
922.244	5863
922.353	5977
922.462	5878
922.571	5786
922.68	5775
922.789	5691
922.898	5745
923.007	5676
923.116	5794
923.224	5657
923.333	5695
923.442	5619
923.55	5596
923.659	5596
923.767	5638
923.876	5539
923.984	5657
924.092	5528
924.201	5562
924.309	5562
924.417	5577
924.525	5455
924.633	5452
924.741	6289
924.849	5372
924.956	5478
925.064	5360
925.172	5322
925.279	5280
925.387	5360
925.494	5341
925.602	5463
925.709	5353
925.816	5258
925.924	5299
926.031	5387
926.138	5292
926.245	5341
926.352	5261
926.459	5334
926.566	5326
926.673	5261
926.779	5189
926.886	5128
926.993	5037
927.099	4999
927.206	5010
927.312	4949
927.419	4972
927.525	5010
927.631	5075
927.737	4896
927.843	4885
927.95	4801
928.056	4809
928.162	4862
928.267	4854
928.373	5391
928.479	4892
928.585	4679
928.69	4759
928.796	4748
928.901	4656
929.007	4592
929.112	4649
929.218	4615
929.323	4626
929.428	4607
929.533	4668
929.638	4554
929.743	4538
929.848	4558
929.953	4504
930.058	4489
930.163	4360
930.267	4356
930.372	4447
930.477	4322
930.581	4497
930.685	4398
930.79	4261
930.894	4310
930.998	4242
931.103	4421
931.207	4124
931.311	4086
931.415	4086
931.519	3953
931.623	3975
