Data from glass_V78500241_2496.txt Node
Date: Wed Sep 01 19:31:48 CST 2021
User: usil
Spectrometer: V785-0024
Trigger mode: 0
Integration Time (sec): 4.000000E-1
Scans to average: 1
Nonlinearity correction enabled: false
Boxcar width: 0
Storing dark spectrum: false
XAxis mode: Wavelengths
Number of Pixels in Spectrum: 1024
>>>>>Begin Spectral Data<<<<<
801.071	3755
801.214	3724
801.356	3713
801.499	3713
801.641	3728
801.783	3759
801.926	3823
802.068	3804
802.211	3846
802.353	3915
802.496	3816
802.638	3857
802.78	3926
802.923	3865
803.065	3884
803.208	3880
803.35	3850
803.492	3896
803.635	3888
803.777	3785
803.919	3884
804.061	4169
804.204	3956
804.346	3918
804.488	3873
804.63	4048
804.773	3953
804.915	4025
805.057	4128
805.199	4036
805.341	4055
805.483	4086
805.626	4128
805.768	4120
805.91	4196
806.052	4272
806.194	4185
806.336	4325
806.478	4200
806.62	4158
806.762	4181
806.904	4253
807.046	4329
807.188	4211
807.33	4177
807.472	4207
807.614	4173
807.756	4234
807.898	4215
808.04	4207
808.182	4272
808.324	4322
808.465	4352
808.607	4459
808.749	4466
808.891	4443
809.033	4489
809.174	4375
809.316	4280
809.458	4238
809.6	4131
809.741	4162
809.883	4131
810.025	4200
810.166	4204
810.308	4230
810.45	4253
810.591	4207
810.733	4280
810.875	4519
811.016	4801
811.158	5143
811.299	5273
811.441	5269
811.582	5079
811.724	4653
811.865	4428
812.007	4474
812.148	4417
812.29	4405
812.431	4413
812.573	4371
812.714	4371
812.855	4409
812.997	4424
813.138	4459
813.279	4383
813.421	4318
813.562	4348
813.703	4314
813.845	4295
813.986	4223
814.127	4249
814.268	4280
814.41	4280
814.551	4219
814.692	4280
814.833	4234
814.974	4295
815.115	4272
815.256	4272
815.397	4227
815.539	4242
815.68	4211
815.821	4204
815.962	4333
816.103	4257
816.244	4230
816.385	4223
816.526	4257
816.666	4181
816.807	4124
816.948	4200
817.089	4147
817.23	4097
817.371	4025
817.512	4051
817.653	4082
817.793	3983
817.934	4029
818.075	4124
818.216	4105
818.356	4097
818.497	3979
818.638	3915
818.778	3846
818.919	3899
819.06	3846
819.2	3911
819.341	3854
819.481	3838
819.622	3861
819.762	4017
819.903	3956
820.043	3865
820.184	3827
820.324	3816
820.465	3835
820.605	3827
820.746	3827
820.886	3793
821.026	3937
821.167	3945
821.307	3949
821.447	3907
821.588	3941
821.728	3934
821.868	3926
822.008	3854
822.149	3930
822.289	3865
822.429	3751
822.569	3789
822.709	3770
822.849	3705
822.99	3717
823.13	3808
823.27	3774
823.41	3690
823.55	3740
823.69	3717
823.83	3743
823.97	3701
824.11	3599
824.25	3564
824.389	3610
824.529	3663
824.669	3625
824.809	3667
824.949	3709
825.089	3686
825.228	3717
825.368	3557
825.508	3538
825.648	3561
825.787	3564
825.927	3576
826.067	3610
826.206	3663
826.346	3793
826.485	3793
826.625	3869
826.765	3922
826.904	3800
827.044	3595
827.183	3481
827.323	3424
827.462	3500
827.601	3447
827.741	3443
827.88	3473
828.02	3370
828.159	3370
828.298	3466
828.437	3542
828.577	3450
828.716	3549
828.855	3458
828.994	3359
829.134	3340
829.273	3420
829.412	3340
829.551	3329
829.69	3332
829.829	3431
829.968	3469
830.107	3428
830.246	3424
830.385	3348
830.524	3359
830.663	3302
830.802	3256
830.941	3222
831.08	3195
831.219	3245
831.357	3275
831.496	3389
831.635	3245
831.774	3192
831.913	3161
832.051	3116
832.19	3165
832.329	3207
832.467	3150
832.606	3135
832.744	3157
832.883	3146
833.022	3211
833.16	3207
833.299	3260
833.437	3329
833.576	3367
833.714	3435
833.852	3401
833.991	3393
834.129	3424
834.267	3458
834.406	3409
834.544	3397
834.682	3462
834.821	3409
834.959	3545
835.097	3409
835.235	3534
835.373	3469
835.511	3477
835.65	3443
835.788	3466
835.926	3393
836.064	3344
836.202	3374
836.34	3591
836.478	3622
836.615	3557
836.753	3576
836.891	3644
837.029	3595
837.167	3580
837.305	3572
837.443	3545
837.58	3507
837.718	3580
837.856	3526
837.993	3553
838.131	3584
838.269	3584
838.406	3526
838.544	3526
838.681	3454
838.819	3428
838.956	3397
839.094	3389
839.231	3420
839.369	3469
839.506	3694
839.643	3625
839.781	3488
839.918	3481
840.055	3507
840.193	3504
840.33	3496
840.467	3564
840.604	3610
840.742	3762
840.879	3523
841.016	3576
841.153	3568
841.29	3705
841.427	3682
841.564	3698
841.701	3747
841.838	3694
841.975	3736
842.112	3701
842.249	3629
842.385	3675
842.522	3831
842.659	3656
842.796	3633
842.933	3682
843.069	3667
843.206	3709
843.343	3778
843.479	3755
843.616	3804
843.752	3667
843.889	3656
844.025	3831
844.162	3690
844.298	3842
844.435	3774
844.571	3766
844.708	3861
844.844	3968
844.98	3991
845.117	3998
845.253	3915
845.389	3896
845.525	3979
845.661	3956
845.798	3835
845.934	3991
846.07	3945
846.206	4013
846.342	4086
846.478	4013
846.614	3964
846.75	3937
846.886	3918
847.022	3991
847.158	3949
847.294	3953
847.429	3975
847.565	4002
847.701	4219
847.837	3861
847.972	3827
848.108	3956
848.244	3956
848.379	3835
848.515	3785
848.65	3789
848.786	3823
848.921	3842
849.057	3953
849.192	3949
849.328	3857
849.463	3922
849.598	3876
849.734	3861
849.869	3823
850.004	3781
850.14	3781
850.275	3755
850.41	3679
850.545	3781
850.68	3759
850.815	3816
850.95	3793
851.085	3899
851.22	3857
851.355	3831
851.49	3789
851.625	3732
851.76	3789
851.895	3724
852.03	3713
852.165	3755
852.299	3857
852.434	3934
852.569	3857
852.703	3888
852.838	3918
852.973	3983
853.107	3930
853.242	3899
853.376	3869
853.511	3755
853.645	3800
853.78	3972
853.914	3899
854.048	3884
854.183	3831
854.317	3960
854.451	4063
854.585	3903
854.72	3922
854.854	4029
854.988	3930
855.122	3968
855.256	3907
855.39	3983
855.524	4120
855.658	4059
855.792	4067
855.926	4128
856.06	4120
856.194	4200
856.327	4131
856.461	4090
856.595	4166
856.729	4158
856.862	4276
856.996	4211
857.13	4295
857.263	4287
857.397	4352
857.53	4268
857.664	4371
857.797	4398
857.931	4440
858.064	4394
858.197	4432
858.331	4436
858.464	4390
858.597	4375
858.731	4436
858.864	4459
858.997	4478
859.13	4478
859.263	4493
859.396	4603
859.529	4519
859.662	4493
859.795	4512
859.928	4596
860.061	4714
860.194	4717
860.327	4656
860.46	4634
860.592	4714
860.725	4725
860.858	4790
860.99	4721
861.123	4653
861.256	4687
861.388	4736
861.521	5490
861.653	4687
861.786	4694
861.918	4744
862.05	4782
862.183	4862
862.315	4885
862.447	4938
862.58	4900
862.712	4805
862.844	4755
862.976	4828
863.108	4866
863.24	5212
863.372	4786
863.504	4873
863.636	4866
863.768	4953
863.9	4904
864.032	4904
864.164	4938
864.296	5014
864.428	5075
864.559	5067
864.691	5079
864.823	5098
864.954	5098
865.086	5170
865.217	5071
865.349	5067
865.48	5151
865.612	5197
865.743	5299
865.875	5212
866.006	5178
866.137	5246
866.269	5258
866.4	5223
866.531	5246
866.662	5181
866.793	5242
866.924	5246
867.055	5387
867.186	5269
867.317	5303
867.448	5337
867.579	5391
867.71	5372
867.841	5406
867.972	5471
868.103	5410
868.233	5493
868.364	5467
868.495	5520
868.625	5615
868.756	5798
868.886	5691
869.017	5699
869.147	5805
869.278	5783
869.408	5817
869.539	5844
869.669	5942
869.799	5931
869.929	6011
870.06	6049
870.19	6136
870.32	6148
870.45	6285
870.58	6395
870.71	6357
870.84	6475
870.97	6407
871.1	6479
871.23	6635
871.36	6673
871.489	6684
871.619	6776
871.749	6795
871.879	6814
872.008	6973
872.138	6932
872.267	6966
872.397	6970
872.526	7057
872.656	7107
872.785	7209
872.915	7365
873.044	7464
873.173	7537
873.303	7655
873.432	7761
873.561	7875
873.69	7894
873.819	8046
873.948	8172
874.077	8210
874.206	8252
874.335	8476
874.464	8610
874.593	8910
874.722	8883
874.851	9161
874.979	9161
875.108	9370
875.237	9466
875.365	9450
875.494	9667
875.623	9759
875.751	9823
875.88	9975
876.008	10040
876.136	10230
876.265	10485
876.393	10656
876.521	10736
876.65	10869
876.778	10866
876.906	10843
877.034	11022
877.162	11056
877.29	11113
877.418	11212
877.546	11360
877.674	11391
877.802	11486
877.93	11448
878.058	11547
878.185	11501
878.313	11615
878.441	11726
878.568	11596
878.696	11699
878.824	11821
878.951	11870
879.079	12064
879.206	12136
879.333	12015
879.461	11946
879.588	12049
879.715	12159
879.842	12205
879.97	12049
880.097	11954
880.224	11946
880.351	11786
880.478	11912
880.605	11821
880.732	11737
880.859	11999
880.986	11722
881.112	11843
881.239	11722
881.366	11680
881.493	11581
881.619	11535
881.746	11573
881.872	11566
881.999	11604
882.125	11516
882.252	11554
882.378	11501
882.505	11532
882.631	11307
882.757	11277
882.883	11364
883.01	11223
883.136	11242
883.262	11022
883.388	11045
883.514	11220
883.64	11136
883.766	11124
883.892	11029
884.018	10965
884.143	11029
884.269	11121
884.395	10831
884.52	10710
884.646	10744
884.772	10653
884.897	10664
885.023	10668
885.148	10675
885.274	10725
885.399	10714
885.524	10584
885.65	10599
885.775	10535
885.9	10466
886.025	10584
886.15	10523
886.275	10413
886.4	10375
886.525	10440
886.65	10424
886.775	10265
886.9	10421
887.025	10451
887.149	10360
887.274	10261
887.399	10154
887.523	10150
887.648	10101
887.773	10143
887.897	10295
888.021	10177
888.146	10055
888.27	10268
888.395	10196
888.519	10158
888.643	10166
888.767	10230
888.891	10010
889.015	10025
889.139	10006
889.263	9934
889.387	10067
889.511	10059
889.635	10025
889.759	9945
889.883	9983
890.006	9994
890.13	10048
890.254	9975
890.377	9937
890.501	9838
890.624	9835
890.748	9850
890.871	9774
890.995	9698
891.118	9819
891.241	9778
891.364	9728
891.488	9854
891.611	9800
891.734	9751
891.857	9785
891.98	9698
892.103	9698
892.226	9732
892.349	9679
892.471	9515
892.594	9568
892.717	9580
892.839	9580
892.962	9633
893.085	9675
893.207	9580
893.33	9515
893.452	9500
893.575	9500
893.697	9500
893.819	9675
893.941	9675
894.064	9591
894.186	9466
894.308	9310
894.43	9530
894.552	9500
894.674	9504
894.796	9332
894.918	9359
895.04	9317
895.161	9313
895.283	9370
895.405	9268
895.526	9302
895.648	9310
895.769	9275
895.891	9283
896.012	9317
896.134	9272
896.255	9131
896.376	9077
896.498	9154
896.619	9112
896.74	9036
896.861	9085
896.982	9287
897.103	9283
897.224	9146
897.345	9062
897.466	8956
897.587	8990
897.708	9077
897.828	9066
897.949	8944
898.07	8853
898.19	8921
898.311	9127
898.431	8963
898.552	8880
898.672	8971
898.792	8933
898.913	8815
899.033	8758
899.153	8769
899.273	8693
899.393	8708
899.513	8815
899.633	8739
899.753	8682
899.873	8773
899.993	8644
900.113	8705
900.232	8746
900.352	8678
900.472	8579
900.591	8541
900.711	8549
900.83	8541
900.95	8667
901.069	8629
901.189	8552
901.308	8396
901.427	8366
901.546	8400
901.665	8412
901.784	8492
901.904	8408
902.023	8339
902.141	8237
902.26	8138
902.379	8279
902.498	8206
902.617	8225
902.735	8336
902.854	8240
902.973	8229
903.091	8100
903.21	8119
903.328	8180
903.446	8100
903.565	8020
903.683	8107
903.801	8054
903.919	8145
904.038	8077
904.156	8020
904.274	8077
904.392	8088
904.51	8054
904.627	8073
904.745	8008
904.863	8058
904.981	7906
905.098	7890
905.216	7837
905.334	7947
905.451	7837
905.569	7845
905.686	7925
905.803	7925
905.921	7750
906.038	7898
906.155	7803
906.272	7700
906.389	7658
906.506	7613
906.623	7700
906.74	7518
906.857	7476
906.974	7548
907.091	7651
907.208	7696
907.324	7628
907.441	7601
907.557	7453
907.674	7365
907.79	7403
907.907	7324
908.023	7487
908.139	7438
908.256	7384
908.372	7407
908.488	7293
908.604	7282
908.72	7194
908.836	7305
908.952	7232
909.068	7305
909.184	7312
909.3	7221
909.415	7305
909.531	7232
909.647	7126
909.762	7072
909.878	7072
909.993	7145
910.108	7095
910.224	7080
910.339	7107
910.454	7053
910.57	7012
910.685	6981
910.8	7156
910.915	7027
911.03	6996
911.145	6878
911.259	6844
911.374	6890
911.489	6810
911.604	6783
911.718	6700
911.833	6722
911.947	6635
912.062	6585
912.176	6635
912.291	6696
912.405	6665
912.519	6806
912.633	6867
912.748	6741
912.862	6681
912.976	6650
913.09	6555
913.204	6551
913.318	6585
913.431	6616
913.545	6654
913.659	6760
913.772	6631
913.886	6555
914	6574
914.113	6631
914.226	6608
914.34	6544
914.453	6498
914.566	6597
914.68	6566
914.793	6506
914.906	6426
915.019	6350
915.132	6395
915.245	6403
915.358	6391
915.47	6388
915.583	6426
915.696	6418
915.809	6604
915.921	6544
916.034	6365
916.146	6391
916.259	6391
916.371	6426
916.483	6456
916.595	6395
916.708	6361
916.82	6388
916.932	6334
917.044	6395
917.156	6346
917.268	6319
917.38	6365
917.491	6334
917.603	6338
917.715	6414
917.826	6437
917.938	6292
918.049	6232
918.161	6292
918.272	6399
918.384	6380
918.495	6319
918.606	6235
918.717	6197
918.828	6232
918.939	6285
919.05	6182
919.161	6281
919.272	6083
919.383	6163
919.494	6273
919.604	6414
919.715	6365
919.826	6197
919.936	6224
920.047	6346
920.157	6281
920.267	6426
920.378	6308
920.488	6247
920.598	6498
920.708	6509
920.818	6433
920.928	6475
921.038	6555
921.148	6490
921.258	6372
921.368	6224
921.477	6175
921.587	6171
921.697	6106
921.806	6140
921.916	6079
922.025	5931
922.134	5916
922.244	5897
922.353	5958
922.462	5847
922.571	5798
922.68	5695
922.789	5699
922.898	5638
923.007	5611
923.116	5703
923.224	5707
923.333	5649
923.442	5615
923.55	5570
923.659	5596
923.767	5608
923.876	5600
923.984	5680
924.092	5524
924.201	5570
924.309	5520
924.417	5528
924.525	5547
924.633	5512
924.741	6277
924.849	5330
924.956	5444
925.064	5337
925.172	5322
925.279	5303
925.387	5341
925.494	5303
925.602	5395
925.709	5376
925.816	5299
925.924	5280
926.031	5307
926.138	5265
926.245	5330
926.352	5181
926.459	5235
926.566	5273
926.673	5212
926.779	5102
926.886	5109
926.993	5010
927.099	4965
927.206	4965
927.312	4961
927.419	4972
927.525	4930
927.631	4968
927.737	4949
927.843	4881
927.95	4759
928.056	4839
928.162	4831
928.267	4862
928.373	5254
928.479	4850
928.585	4641
928.69	4771
928.796	4744
928.901	4672
929.007	4565
929.112	4637
929.218	4588
929.323	4588
929.428	4538
929.533	4694
929.638	4504
929.743	4478
929.848	4558
929.953	4500
930.058	4440
930.163	4375
930.267	4371
930.372	4394
930.477	4314
930.581	4447
930.685	4329
930.79	4238
930.894	4219
930.998	4265
931.103	4333
931.207	4105
931.311	4059
931.415	3994
931.519	3960
931.623	3972
