Data from glass_V78500241_1621.txt Node
Date: Wed Sep 01 19:25:44 CST 2021
User: usil
Spectrometer: V785-0024
Trigger mode: 0
Integration Time (sec): 4.000000E-1
Scans to average: 1
Nonlinearity correction enabled: false
Boxcar width: 0
Storing dark spectrum: false
XAxis mode: Wavelengths
Number of Pixels in Spectrum: 1024
>>>>>Begin Spectral Data<<<<<
801.071	3747
801.214	3720
801.356	3713
801.499	3728
801.641	3743
801.783	3785
801.926	3865
802.068	3835
802.211	3823
802.353	3846
802.496	3804
802.638	3816
802.78	3911
802.923	3960
803.065	3934
803.208	3835
803.35	3857
803.492	3899
803.635	3884
803.777	3800
803.919	3911
804.061	4143
804.204	3956
804.346	3983
804.488	3899
804.63	4048
804.773	3922
804.915	4002
805.057	4143
805.199	4002
805.341	4074
805.483	4188
805.626	4169
805.768	4135
805.91	4211
806.052	4200
806.194	4204
806.336	4337
806.478	4196
806.62	4169
806.762	4192
806.904	4230
807.046	4310
807.188	4223
807.33	4166
807.472	4219
807.614	4158
807.756	4280
807.898	4204
808.04	4207
808.182	4287
808.324	4325
808.465	4367
808.607	4432
808.749	4451
808.891	4455
809.033	4466
809.174	4413
809.316	4280
809.458	4249
809.6	4131
809.741	4158
809.883	4150
810.025	4196
810.166	4219
810.308	4215
810.45	4215
810.591	4280
810.733	4276
810.875	4504
811.016	4816
811.158	5132
811.299	5337
811.441	5280
811.582	5033
811.724	4740
811.865	4462
812.007	4489
812.148	4470
812.29	4466
812.431	4398
812.573	4417
812.714	4352
812.855	4386
812.997	4413
813.138	4459
813.279	4443
813.421	4375
813.562	4386
813.703	4325
813.845	4314
813.986	4234
814.127	4246
814.268	4303
814.41	4276
814.551	4265
814.692	4325
814.833	4295
814.974	4314
815.115	4344
815.256	4249
815.397	4227
815.539	4246
815.68	4188
815.821	4143
815.962	4284
816.103	4276
816.244	4284
816.385	4223
816.526	4246
816.666	4192
816.807	4128
816.948	4154
817.089	4169
817.23	4105
817.371	4074
817.512	4067
817.653	4112
817.793	4040
817.934	4059
818.075	4067
818.216	4048
818.356	4116
818.497	4013
818.638	3907
818.778	3896
818.919	3915
819.06	3831
819.2	3896
819.341	3854
819.481	3838
819.622	3918
819.762	4013
819.903	3934
820.043	3846
820.184	3812
820.324	3812
820.465	3876
820.605	3865
820.746	3896
820.886	3800
821.026	3937
821.167	3915
821.307	3983
821.447	3956
821.588	3949
821.728	3922
821.868	3918
822.008	3842
822.149	3934
822.289	3918
822.429	3743
822.569	3751
822.709	3819
822.849	3724
822.99	3736
823.13	3759
823.27	3766
823.41	3701
823.55	3736
823.69	3720
823.83	3717
823.97	3625
824.11	3614
824.25	3576
824.389	3671
824.529	3720
824.669	3648
824.809	3701
824.949	3747
825.089	3747
825.228	3724
825.368	3568
825.508	3519
825.648	3580
825.787	3599
825.927	3614
826.067	3599
826.206	3652
826.346	3808
826.485	3865
826.625	3846
826.765	3922
826.904	3835
827.044	3587
827.183	3576
827.323	3431
827.462	3553
827.601	3405
827.741	3420
827.88	3473
828.02	3397
828.159	3420
828.298	3500
828.437	3519
828.577	3500
828.716	3564
828.855	3462
828.994	3370
829.134	3382
829.273	3374
829.412	3367
829.551	3389
829.69	3374
829.829	3409
829.968	3511
830.107	3447
830.246	3447
830.385	3401
830.524	3359
830.663	3298
830.802	3275
830.941	3180
831.08	3176
831.219	3260
831.357	3222
831.496	3412
831.635	3249
831.774	3184
831.913	3211
832.051	3161
832.19	3146
832.329	3214
832.467	3104
832.606	3142
832.744	3138
832.883	3207
833.022	3207
833.16	3249
833.299	3329
833.437	3336
833.576	3363
833.714	3428
833.852	3431
833.991	3458
834.129	3462
834.267	3466
834.406	3405
834.544	3405
834.682	3450
834.821	3420
834.959	3523
835.097	3447
835.235	3553
835.373	3454
835.511	3473
835.65	3473
835.788	3496
835.926	3363
836.064	3386
836.202	3428
836.34	3553
836.478	3557
836.615	3553
836.753	3587
836.891	3633
837.029	3584
837.167	3599
837.305	3538
837.443	3580
837.58	3511
837.718	3549
837.856	3534
837.993	3511
838.131	3618
838.269	3599
838.406	3595
838.544	3572
838.681	3473
838.819	3435
838.956	3367
839.094	3389
839.231	3485
839.369	3515
839.506	3736
839.643	3625
839.781	3515
839.918	3485
840.055	3496
840.193	3526
840.33	3519
840.467	3534
840.604	3561
840.742	3785
840.879	3568
841.016	3580
841.153	3599
841.29	3751
841.427	3705
841.564	3740
841.701	3747
841.838	3713
841.975	3652
842.112	3698
842.249	3610
842.385	3641
842.522	3812
842.659	3717
842.796	3663
842.933	3686
843.069	3743
843.206	3720
843.343	3865
843.479	3766
843.616	3888
843.752	3698
843.889	3667
844.025	3854
844.162	3682
844.298	3838
844.435	3755
844.571	3808
844.708	3937
844.844	3953
844.98	4040
845.117	4017
845.253	3987
845.389	3930
845.525	4025
845.661	3953
845.798	3941
845.934	4010
846.07	3968
846.206	4059
846.342	4109
846.478	4048
846.614	3994
846.75	4002
846.886	3911
847.022	4036
847.158	4010
847.294	4021
847.429	4006
847.565	3953
847.701	4204
847.837	3873
847.972	3873
848.108	3987
848.244	3953
848.379	3850
848.515	3812
848.65	3827
848.786	3804
848.921	3873
849.057	3857
849.192	3926
849.328	3903
849.463	3861
849.598	3846
849.734	3819
849.869	3838
850.004	3755
850.14	3846
850.275	3778
850.41	3762
850.545	3789
850.68	3747
850.815	3766
850.95	3808
851.085	3880
851.22	3850
851.355	3831
851.49	3766
851.625	3797
851.76	3835
851.895	3743
852.03	3720
852.165	3842
852.299	3842
852.434	3884
852.569	3850
852.703	3861
852.838	3930
852.973	4036
853.107	3949
853.242	3873
853.376	3880
853.511	3778
853.645	3823
853.78	3991
853.914	3876
854.048	3876
854.183	3892
854.317	3968
854.451	4082
854.585	3956
854.72	3968
854.854	4029
854.988	3880
855.122	4040
855.256	3953
855.39	3991
855.524	4101
855.658	4086
855.792	4105
855.926	4158
856.06	4181
856.194	4177
856.327	4150
856.461	4143
856.595	4166
856.729	4169
856.862	4265
856.996	4257
857.13	4318
857.263	4341
857.397	4337
857.53	4280
857.664	4303
857.797	4344
857.931	4398
858.064	4413
858.197	4436
858.331	4367
858.464	4367
858.597	4341
858.731	4443
858.864	4421
858.997	4447
859.13	4599
859.263	4523
859.396	4603
859.529	4546
859.662	4554
859.795	4558
859.928	4622
860.061	4656
860.194	4771
860.327	4675
860.46	4637
860.592	4736
860.725	4725
860.858	4763
860.99	4653
861.123	4740
861.256	4653
861.388	4805
861.521	5539
861.653	4752
861.786	4721
861.918	4733
862.05	4809
862.183	4858
862.315	4908
862.447	4949
862.58	4850
862.712	4824
862.844	4759
862.976	4850
863.108	4957
863.24	5239
863.372	4854
863.504	4881
863.636	4923
863.768	4972
863.9	4900
864.032	4911
864.164	4995
864.296	5048
864.428	5052
864.559	5083
864.691	5121
864.823	5155
864.954	5140
865.086	5102
865.217	5128
865.349	5147
865.48	5155
865.612	5178
865.743	5280
865.875	5197
866.006	5212
866.137	5212
866.269	5227
866.4	5189
866.531	5197
866.662	5292
866.793	5246
866.924	5296
867.055	5372
867.186	5345
867.317	5345
867.448	5292
867.579	5349
867.71	5330
867.841	5421
867.972	5463
868.103	5444
868.233	5478
868.364	5486
868.495	5592
868.625	5684
868.756	5722
868.886	5699
869.017	5813
869.147	5847
869.278	5908
869.408	5813
869.539	5805
869.669	5931
869.799	5927
869.929	6011
870.06	6003
870.19	6152
870.32	6190
870.45	6224
870.58	6331
870.71	6456
870.84	6410
870.97	6426
871.1	6452
871.23	6574
871.36	6719
871.489	6734
871.619	6738
871.749	6856
871.879	6901
872.008	6981
872.138	6958
872.267	7031
872.397	6989
872.526	7072
872.656	7091
872.785	7190
872.915	7396
873.044	7445
873.173	7563
873.303	7677
873.432	7784
873.561	7883
873.69	7963
873.819	8054
873.948	8138
874.077	8225
874.206	8415
874.335	8419
874.464	8651
874.593	8792
874.722	8960
874.851	9150
874.979	9230
875.108	9416
875.237	9447
875.365	9492
875.494	9641
875.623	9789
875.751	9880
875.88	9975
876.008	10128
876.136	10268
876.265	10558
876.393	10672
876.521	10702
876.65	10786
876.778	10835
876.906	10885
877.034	11018
877.162	11079
877.29	11170
877.418	11315
877.546	11349
877.674	11463
877.802	11444
877.93	11459
878.058	11581
878.185	11619
878.313	11714
878.441	11752
878.568	11691
878.696	11786
878.824	11821
878.951	11832
879.079	11996
879.206	12140
879.333	12079
879.461	11965
879.588	12125
879.715	12053
879.842	12117
879.97	12129
880.097	11855
880.224	11878
880.351	11832
880.478	11863
880.605	11855
880.732	11824
880.859	12026
880.986	11790
881.112	11851
881.239	11729
881.366	11688
881.493	11520
881.619	11589
881.746	11642
881.872	11497
881.999	11505
882.125	11448
882.252	11634
882.378	11467
882.505	11520
882.631	11387
882.757	11379
882.883	11220
883.01	11299
883.136	11159
883.262	11155
883.388	11147
883.514	11174
883.64	11201
883.766	11143
883.892	10976
884.018	10957
884.143	11105
884.269	11060
884.395	10927
884.52	10839
884.646	10714
884.772	10660
884.897	10615
885.023	10641
885.148	10755
885.274	10774
885.399	10675
885.524	10634
885.65	10599
885.775	10622
885.9	10527
886.025	10558
886.15	10500
886.275	10489
886.4	10375
886.525	10474
886.65	10402
886.775	10310
886.9	10462
887.025	10500
887.149	10303
887.274	10291
887.399	10223
887.523	10257
887.648	10158
887.773	10078
887.897	10261
888.021	10227
888.146	10150
888.27	10276
888.395	10166
888.519	10219
888.643	10181
888.767	10185
888.891	10109
889.015	9998
889.139	10044
889.263	9975
889.387	10109
889.511	10128
889.635	10150
889.759	9915
889.883	9994
890.006	9979
890.13	10051
890.254	10017
890.377	9937
890.501	9835
890.624	9827
890.748	9880
890.871	9854
890.995	9713
891.118	9785
891.241	9778
891.364	9686
891.488	9808
891.611	9705
891.734	9762
891.857	9797
891.98	9759
892.103	9827
892.226	9747
892.349	9671
892.471	9584
892.594	9542
892.717	9641
892.839	9618
892.962	9557
893.085	9648
893.207	9530
893.33	9549
893.452	9549
893.575	9587
893.697	9515
893.819	9637
893.941	9641
894.064	9641
894.186	9439
894.308	9389
894.43	9591
894.552	9618
894.674	9500
894.796	9363
894.918	9389
895.04	9302
895.161	9332
895.283	9374
895.405	9294
895.526	9260
895.648	9249
895.769	9226
895.891	9268
896.012	9260
896.134	9184
896.255	9165
896.376	9043
896.498	9184
896.619	9161
896.74	8998
896.861	9043
896.982	9207
897.103	9382
897.224	9180
897.345	9066
897.466	8990
897.587	9093
897.708	9055
897.828	9020
897.949	8937
898.07	8868
898.19	8937
898.311	8975
898.431	8929
898.552	8891
898.672	8918
898.792	8937
898.913	8906
899.033	8773
899.153	8724
899.273	8678
899.393	8743
899.513	8773
899.633	8705
899.753	8716
899.873	8686
899.993	8712
900.113	8705
900.232	8678
900.352	8693
900.472	8583
900.591	8564
900.711	8610
900.83	8625
900.95	8594
901.069	8705
901.189	8610
901.308	8427
901.427	8431
901.546	8423
901.665	8495
901.784	8480
901.904	8366
902.023	8343
902.141	8298
902.26	8221
902.379	8301
902.498	8248
902.617	8221
902.735	8351
902.854	8309
902.973	8168
903.091	8157
903.21	8191
903.328	8225
903.446	8084
903.565	8115
903.683	8035
903.801	8081
903.919	8119
904.038	8142
904.156	8050
904.274	8065
904.392	8031
904.51	8069
904.627	8050
904.745	8081
904.863	8069
904.981	7906
905.098	7849
905.216	7845
905.334	7890
905.451	7906
905.569	7849
905.686	7947
905.803	7909
905.921	7799
906.038	7906
906.155	7841
906.272	7738
906.389	7765
906.506	7639
906.623	7662
906.74	7597
906.857	7586
906.974	7552
907.091	7636
907.208	7715
907.324	7674
907.441	7540
907.557	7464
907.674	7449
907.79	7419
907.907	7411
908.023	7491
908.139	7377
908.256	7335
908.372	7339
908.488	7400
908.604	7244
908.72	7240
908.836	7289
908.952	7274
909.068	7240
909.184	7312
909.3	7266
909.415	7285
909.531	7316
909.647	7091
909.762	7099
909.878	7069
909.993	7046
910.108	7160
910.224	7053
910.339	7099
910.454	7076
910.57	7031
910.685	6973
910.8	7187
910.915	7110
911.03	7034
911.145	6882
911.259	6886
911.374	6954
911.489	6871
911.604	6768
911.718	6749
911.833	6764
911.947	6650
912.062	6593
912.176	6711
912.291	6730
912.405	6692
912.519	6802
912.633	6871
912.748	6757
912.862	6681
912.976	6642
913.09	6525
913.204	6494
913.318	6639
913.431	6669
913.545	6734
913.659	6696
913.772	6616
913.886	6582
914	6532
914.113	6658
914.226	6620
914.34	6642
914.453	6471
914.566	6582
914.68	6551
914.793	6551
914.906	6471
915.019	6429
915.132	6380
915.245	6471
915.358	6437
915.47	6384
915.583	6422
915.696	6483
915.809	6547
915.921	6559
916.034	6403
916.146	6388
916.259	6384
916.371	6475
916.483	6403
916.595	6384
916.708	6456
916.82	6437
916.932	6410
917.044	6342
917.156	6353
917.268	6327
917.38	6353
917.491	6346
917.603	6380
917.715	6376
917.826	6422
917.938	6232
918.049	6308
918.161	6361
918.272	6380
918.384	6429
918.495	6350
918.606	6289
918.717	6213
918.828	6235
918.939	6266
919.05	6213
919.161	6216
919.272	6068
919.383	6167
919.494	6327
919.604	6391
919.715	6243
919.826	6289
919.936	6247
920.047	6323
920.157	6308
920.267	6460
920.378	6350
920.488	6300
920.598	6464
920.708	6513
920.818	6376
920.928	6513
921.038	6612
921.148	6589
921.258	6395
921.368	6289
921.477	6239
921.587	6125
921.697	5996
921.806	6125
921.916	6136
922.025	5942
922.134	5923
922.244	5882
922.353	5939
922.462	5851
922.571	5828
922.68	5718
922.789	5684
922.898	5680
923.007	5649
923.116	5729
923.224	5665
923.333	5665
923.442	5630
923.55	5589
923.659	5592
923.767	5608
923.876	5547
923.984	5589
924.092	5482
924.201	5570
924.309	5566
924.417	5562
924.525	5512
924.633	5505
924.741	6243
924.849	5448
924.956	5459
925.064	5349
925.172	5303
925.279	5360
925.387	5376
925.494	5372
925.602	5429
925.709	5391
925.816	5280
925.924	5311
926.031	5368
926.138	5307
926.245	5322
926.352	5197
926.459	5280
926.566	5318
926.673	5239
926.779	5094
926.886	5086
926.993	5037
927.099	4995
927.206	4980
927.312	5010
927.419	5045
927.525	4938
927.631	4991
927.737	4854
927.843	4900
927.95	4755
928.056	4824
928.162	4831
928.267	4824
928.373	5326
928.479	4854
928.585	4736
928.69	4767
928.796	4755
928.901	4717
929.007	4641
929.112	4679
929.218	4618
929.323	4618
929.428	4558
929.533	4637
929.638	4516
929.743	4504
929.848	4611
929.953	4478
930.058	4443
930.163	4287
930.267	4333
930.372	4405
930.477	4268
930.581	4436
930.685	4421
930.79	4280
930.894	4242
930.998	4230
931.103	4413
931.207	4093
931.311	4093
931.415	4032
931.519	3949
931.623	3930
