Data from glass_V78500241_339.txt Node
Date: Wed Sep 01 19:16:50 CST 2021
User: usil
Spectrometer: V785-0024
Trigger mode: 0
Integration Time (sec): 4.000000E-1
Scans to average: 1
Nonlinearity correction enabled: false
Boxcar width: 0
Storing dark spectrum: false
XAxis mode: Wavelengths
Number of Pixels in Spectrum: 1024
>>>>>Begin Spectral Data<<<<<
801.071	3797
801.214	3762
801.356	3728
801.499	3732
801.641	3732
801.783	3736
801.926	3888
802.068	3827
802.211	3854
802.353	3907
802.496	3854
802.638	3892
802.78	3907
802.923	3960
803.065	3911
803.208	3884
803.35	3888
803.492	3937
803.635	3903
803.777	3831
803.919	3922
804.061	4162
804.204	3975
804.346	3987
804.488	3911
804.63	4029
804.773	3979
804.915	4006
805.057	4154
805.199	4078
805.341	4074
805.483	4181
805.626	4154
805.768	4128
805.91	4204
806.052	4242
806.194	4200
806.336	4356
806.478	4230
806.62	4169
806.762	4219
806.904	4276
807.046	4356
807.188	4265
807.33	4204
807.472	4272
807.614	4177
807.756	4314
807.898	4185
808.04	4200
808.182	4295
808.324	4322
808.465	4348
808.607	4481
808.749	4478
808.891	4440
809.033	4493
809.174	4443
809.316	4306
809.458	4287
809.6	4169
809.741	4181
809.883	4158
810.025	4246
810.166	4234
810.308	4211
810.45	4265
810.591	4230
810.733	4303
810.875	4527
811.016	4877
811.158	5121
811.299	5296
811.441	5292
811.582	5083
811.724	4714
811.865	4478
812.007	4489
812.148	4497
812.29	4390
812.431	4386
812.573	4451
812.714	4398
812.855	4436
812.997	4447
813.138	4481
813.279	4424
813.421	4383
813.562	4398
813.703	4375
813.845	4417
813.986	4303
814.127	4219
814.268	4261
814.41	4344
814.551	4253
814.692	4341
814.833	4306
814.974	4310
815.115	4341
815.256	4303
815.397	4287
815.539	4261
815.68	4204
815.821	4242
815.962	4329
816.103	4318
816.244	4230
816.385	4272
816.526	4261
816.666	4253
816.807	4105
816.948	4223
817.089	4234
817.23	4135
817.371	4097
817.512	4032
817.653	4074
817.793	4029
817.934	4090
818.075	4086
818.216	4044
818.356	4090
818.497	4010
818.638	3922
818.778	3937
818.919	3869
819.06	3892
819.2	3937
819.341	3888
819.481	3857
819.622	3949
819.762	4093
819.903	3968
820.043	3842
820.184	3808
820.324	3835
820.465	3850
820.605	3880
820.746	3861
820.886	3781
821.026	3960
821.167	3934
821.307	4010
821.447	3991
821.588	3964
821.728	3975
821.868	3953
822.008	3888
822.149	3975
822.289	3979
822.429	3789
822.569	3770
822.709	3857
822.849	3682
822.99	3732
823.13	3755
823.27	3804
823.41	3732
823.55	3743
823.69	3770
823.83	3785
823.97	3690
824.11	3584
824.25	3625
824.389	3652
824.529	3728
824.669	3694
824.809	3709
824.949	3770
825.089	3755
825.228	3686
825.368	3572
825.508	3568
825.648	3584
825.787	3686
825.927	3667
826.067	3644
826.206	3656
826.346	3793
826.485	3857
826.625	3873
826.765	3960
826.904	3876
827.044	3663
827.183	3572
827.323	3435
827.462	3458
827.601	3458
827.741	3443
827.88	3504
828.02	3416
828.159	3473
828.298	3488
828.437	3545
828.577	3507
828.716	3606
828.855	3462
828.994	3412
829.134	3367
829.273	3359
829.412	3382
829.551	3367
829.69	3386
829.829	3431
829.968	3504
830.107	3447
830.246	3469
830.385	3370
830.524	3405
830.663	3329
830.802	3272
830.941	3211
831.08	3199
831.219	3321
831.357	3294
831.496	3405
831.635	3241
831.774	3214
831.913	3207
832.051	3161
832.19	3165
832.329	3241
832.467	3165
832.606	3070
832.744	3157
832.883	3180
833.022	3192
833.16	3275
833.299	3359
833.437	3321
833.576	3428
833.714	3386
833.852	3435
833.991	3439
834.129	3507
834.267	3469
834.406	3477
834.544	3378
834.682	3473
834.821	3428
834.959	3610
835.097	3462
835.235	3561
835.373	3526
835.511	3469
835.65	3477
835.788	3511
835.926	3397
836.064	3401
836.202	3386
836.34	3618
836.478	3644
836.615	3564
836.753	3599
836.891	3625
837.029	3637
837.167	3614
837.305	3549
837.443	3591
837.58	3511
837.718	3599
837.856	3572
837.993	3538
838.131	3561
838.269	3564
838.406	3618
838.544	3557
838.681	3504
838.819	3450
838.956	3393
839.094	3397
839.231	3447
839.369	3549
839.506	3751
839.643	3633
839.781	3534
839.918	3507
840.055	3542
840.193	3545
840.33	3523
840.467	3542
840.604	3625
840.742	3781
840.879	3542
841.016	3553
841.153	3625
841.29	3755
841.427	3751
841.564	3701
841.701	3766
841.838	3698
841.975	3686
842.112	3713
842.249	3652
842.385	3625
842.522	3823
842.659	3694
842.796	3740
842.933	3679
843.069	3675
843.206	3747
843.343	3819
843.479	3808
843.616	3812
843.752	3686
843.889	3652
844.025	3876
844.162	3736
844.298	3884
844.435	3797
844.571	3804
844.708	3907
844.844	4010
844.98	4032
845.117	4021
845.253	3949
845.389	3899
845.525	4006
845.661	3991
845.798	3937
845.934	4032
846.07	3918
846.206	4063
846.342	4105
846.478	4082
846.614	3994
846.75	3964
846.886	3934
847.022	4044
847.158	3991
847.294	4025
847.429	3998
847.565	4029
847.701	4223
847.837	3861
847.972	3896
848.108	3994
848.244	4013
848.379	3846
848.515	3838
848.65	3857
848.786	3819
848.921	3880
849.057	3922
849.192	3979
849.328	3907
849.463	3918
849.598	3911
849.734	3907
849.869	3865
850.004	3800
850.14	3876
850.275	3785
850.41	3781
850.545	3781
850.68	3797
850.815	3823
850.95	3816
851.085	3934
851.22	3873
851.355	3838
851.49	3831
851.625	3804
851.76	3819
851.895	3774
852.03	3747
852.165	3835
852.299	3873
852.434	3903
852.569	3896
852.703	3926
852.838	3896
852.973	4013
853.107	4025
853.242	3918
853.376	3831
853.511	3846
853.645	3869
853.78	3987
853.914	3930
854.048	3915
854.183	3926
854.317	3934
854.451	4112
854.585	3926
854.72	3968
854.854	4010
854.988	3983
855.122	3994
855.256	3922
855.39	4097
855.524	4105
855.658	4116
855.792	4112
855.926	4158
856.06	4200
856.194	4257
856.327	4177
856.461	4139
856.595	4192
856.729	4188
856.862	4272
856.996	4265
857.13	4291
857.263	4310
857.397	4356
857.53	4329
857.664	4325
857.797	4413
857.931	4413
858.064	4398
858.197	4440
858.331	4390
858.464	4417
858.597	4348
858.731	4451
858.864	4421
858.997	4474
859.13	4596
859.263	4493
859.396	4615
859.529	4519
859.662	4523
859.795	4584
859.928	4622
860.061	4706
860.194	4736
860.327	4702
860.46	4668
860.592	4687
860.725	4767
860.858	4740
860.99	4691
861.123	4710
861.256	4672
861.388	4801
861.521	5414
861.653	4733
861.786	4740
861.918	4778
862.05	4824
862.183	4839
862.315	4911
862.447	4889
862.58	4911
862.712	4828
862.844	4759
862.976	4930
863.108	4854
863.24	5288
863.372	4850
863.504	4904
863.636	4885
863.768	4965
863.9	4995
864.032	4904
864.164	4999
864.296	4995
864.428	5060
864.559	5124
864.691	5128
864.823	5128
864.954	5140
865.086	5090
865.217	5064
865.349	5178
865.48	5185
865.612	5193
865.743	5258
865.875	5197
866.006	5193
866.137	5261
866.269	5296
866.4	5254
866.531	5239
866.662	5261
866.793	5315
866.924	5307
867.055	5353
867.186	5341
867.317	5368
867.448	5280
867.579	5391
867.71	5391
867.841	5414
867.972	5425
868.103	5421
868.233	5535
868.364	5547
868.495	5528
868.625	5668
868.756	5767
868.886	5646
869.017	5752
869.147	5870
869.278	5847
869.408	5847
869.539	5851
869.669	5927
869.799	5965
869.929	5931
870.06	6011
870.19	6216
870.32	6224
870.45	6251
870.58	6338
870.71	6441
870.84	6467
870.97	6486
871.1	6532
871.23	6669
871.36	6642
871.489	6642
871.619	6738
871.749	6856
871.879	6894
872.008	7065
872.138	6951
872.267	7080
872.397	6943
872.526	7004
872.656	7095
872.785	7209
872.915	7343
873.044	7502
873.173	7510
873.303	7666
873.432	7712
873.561	7898
873.69	7955
873.819	8043
873.948	8206
874.077	8244
874.206	8332
874.335	8400
874.464	8689
874.593	8853
874.722	8929
874.851	9100
874.979	9233
875.108	9374
875.237	9408
875.365	9530
875.494	9690
875.623	9869
875.751	9880
875.88	10051
876.008	10071
876.136	10333
876.265	10508
876.393	10733
876.521	10702
876.65	10828
876.778	10858
876.906	10930
877.034	10923
877.162	11067
877.29	11189
877.418	11208
877.546	11379
877.674	11459
877.802	11433
877.93	11543
878.058	11535
878.185	11611
878.313	11653
878.441	11710
878.568	11684
878.696	11775
878.824	11863
878.951	11946
879.079	11939
879.206	12182
879.333	12064
879.461	11992
879.588	12087
879.715	11988
879.842	12194
879.97	12125
880.097	11885
880.224	11927
880.351	11878
880.478	11866
880.605	11855
880.732	11893
880.859	12019
880.986	11855
881.112	11843
881.239	11847
881.366	11623
881.493	11630
881.619	11463
881.746	11535
881.872	11604
881.999	11467
882.125	11410
882.252	11532
882.378	11509
882.505	11596
882.631	11341
882.757	11337
882.883	11296
883.01	11212
883.136	11185
883.262	11132
883.388	11124
883.514	11261
883.64	11132
883.766	11170
883.892	11022
884.018	11022
884.143	11090
884.269	11140
884.395	10820
884.52	10778
884.646	10744
884.772	10767
884.897	10721
885.023	10649
885.148	10691
885.274	10763
885.399	10710
885.524	10653
885.65	10622
885.775	10577
885.9	10489
886.025	10649
886.15	10573
886.275	10493
886.4	10424
886.525	10413
886.65	10318
886.775	10280
886.9	10459
887.025	10466
887.149	10344
887.274	10268
887.399	10188
887.523	10265
887.648	10101
887.773	10112
887.897	10227
888.021	10188
888.146	10139
888.27	10215
888.395	10268
888.519	10196
888.643	10200
888.767	10227
888.891	10067
889.015	10013
889.139	10048
889.263	9903
889.387	10044
889.511	10109
889.635	10082
889.759	9956
889.883	9983
890.006	10044
890.13	10090
890.254	9998
890.377	9956
890.501	9934
890.624	9831
890.748	9842
890.871	9812
890.995	9747
891.118	9789
891.241	9755
891.364	9717
891.488	9884
891.611	9755
891.734	9713
891.857	9740
891.98	9724
892.103	9774
892.226	9644
892.349	9644
892.471	9606
892.594	9637
892.717	9580
892.839	9724
892.962	9606
893.085	9610
893.207	9595
893.33	9454
893.452	9564
893.575	9534
893.697	9564
893.819	9637
893.941	9625
894.064	9610
894.186	9477
894.308	9500
894.43	9587
894.552	9561
894.674	9595
894.796	9401
894.918	9359
895.04	9344
895.161	9363
895.283	9336
895.405	9249
895.526	9336
895.648	9184
895.769	9230
895.891	9226
896.012	9389
896.134	9241
896.255	9222
896.376	9184
896.498	9173
896.619	9123
896.74	9020
896.861	9112
896.982	9340
897.103	9370
897.224	9161
897.345	9112
897.466	9047
897.587	9058
897.708	9127
897.828	9013
897.949	9032
898.07	8880
898.19	8925
898.311	8990
898.431	8902
898.552	8967
898.672	9020
898.792	8941
898.913	8971
899.033	8842
899.153	8792
899.273	8720
899.393	8773
899.513	8781
899.633	8823
899.753	8792
899.873	8670
899.993	8750
900.113	8720
900.232	8670
900.352	8701
900.472	8617
900.591	8587
900.711	8590
900.83	8560
900.95	8743
901.069	8670
901.189	8617
901.308	8488
901.427	8408
901.546	8454
901.665	8484
901.784	8518
901.904	8385
902.023	8377
902.141	8259
902.26	8134
902.379	8233
902.498	8187
902.617	8202
902.735	8381
902.854	8263
902.973	8301
903.091	8123
903.21	8119
903.328	8168
903.446	8107
903.565	8153
903.683	8046
903.801	8062
903.919	8161
904.038	8134
904.156	8069
904.274	8119
904.392	8035
904.51	8050
904.627	8005
904.745	8046
904.863	8073
904.981	7967
905.098	7936
905.216	7894
905.334	7947
905.451	7902
905.569	7883
905.686	7989
905.803	7921
905.921	7807
906.038	7826
906.155	7822
906.272	7719
906.389	7738
906.506	7685
906.623	7674
906.74	7544
906.857	7609
906.974	7578
907.091	7685
907.208	7715
907.324	7685
907.441	7605
907.557	7468
907.674	7449
907.79	7392
907.907	7350
908.023	7460
908.139	7480
908.256	7400
908.372	7339
908.488	7354
908.604	7327
908.72	7221
908.836	7274
908.952	7251
909.068	7206
909.184	7297
909.3	7221
909.415	7324
909.531	7228
909.647	7133
909.762	7076
909.878	7091
909.993	7107
910.108	7129
910.224	7095
910.339	7145
910.454	7053
910.57	7023
910.685	6989
910.8	7202
910.915	7152
911.03	7031
911.145	6916
911.259	6924
911.374	6863
911.489	6791
911.604	6787
911.718	6738
911.833	6768
911.947	6635
912.062	6639
912.176	6753
912.291	6726
912.405	6779
912.519	6840
912.633	6852
912.748	6745
912.862	6707
912.976	6589
913.09	6540
913.204	6589
913.318	6639
913.431	6662
913.545	6703
913.659	6730
913.772	6650
913.886	6555
914	6646
914.113	6639
914.226	6669
914.34	6627
914.453	6570
914.566	6665
914.68	6532
914.793	6555
914.906	6445
915.019	6429
915.132	6388
915.245	6490
915.358	6544
915.47	6452
915.583	6452
915.696	6498
915.809	6559
915.921	6616
916.034	6429
916.146	6433
916.259	6372
916.371	6483
916.483	6452
916.595	6388
916.708	6456
916.82	6388
916.932	6395
917.044	6403
917.156	6441
917.268	6304
917.38	6361
917.491	6334
917.603	6357
917.715	6384
917.826	6433
917.938	6372
918.049	6247
918.161	6380
918.272	6426
918.384	6490
918.495	6357
918.606	6239
918.717	6220
918.828	6273
918.939	6270
919.05	6197
919.161	6270
919.272	6159
919.383	6201
919.494	6346
919.604	6403
919.715	6319
919.826	6308
919.936	6315
920.047	6353
920.157	6281
920.267	6467
920.378	6353
920.488	6350
920.598	6490
920.708	6563
920.818	6464
920.928	6490
921.038	6688
921.148	6593
921.258	6342
921.368	6277
921.477	6243
921.587	6144
921.697	6102
921.806	6186
921.916	6125
922.025	5931
922.134	5950
922.244	5923
922.353	5999
922.462	5859
922.571	5863
922.68	5680
922.789	5707
922.898	5688
923.007	5672
923.116	5741
923.224	5672
923.333	5668
923.442	5596
923.55	5592
923.659	5592
923.767	5589
923.876	5520
923.984	5608
924.092	5524
924.201	5623
924.309	5589
924.417	5547
924.525	5474
924.633	5501
924.741	6273
924.849	5379
924.956	5528
925.064	5387
925.172	5360
925.279	5296
925.387	5368
925.494	5315
925.602	5417
925.709	5379
925.816	5353
925.924	5307
926.031	5398
926.138	5299
926.245	5368
926.352	5246
926.459	5303
926.566	5311
926.673	5254
926.779	5143
926.886	5193
926.993	5071
927.099	4980
927.206	4999
927.312	4934
927.419	5022
927.525	5025
927.631	5010
927.737	4896
927.843	4889
927.95	4702
928.056	4835
928.162	4854
928.267	4877
928.373	5235
928.479	4850
928.585	4687
928.69	4793
928.796	4778
928.901	4710
929.007	4691
929.112	4672
929.218	4592
929.323	4630
929.428	4588
929.533	4706
929.638	4558
929.743	4516
929.848	4558
929.953	4523
930.058	4447
930.163	4356
930.267	4436
930.372	4421
930.477	4344
930.581	4462
930.685	4394
930.79	4253
930.894	4242
930.998	4268
931.103	4421
931.207	4173
931.311	4071
931.415	4025
931.519	3953
931.623	3964
