Data from glass_V78500241_401.txt Node
Date: Wed Sep 01 19:17:16 CST 2021
User: usil
Spectrometer: V785-0024
Trigger mode: 0
Integration Time (sec): 4.000000E-1
Scans to average: 1
Nonlinearity correction enabled: false
Boxcar width: 0
Storing dark spectrum: false
XAxis mode: Wavelengths
Number of Pixels in Spectrum: 1024
>>>>>Begin Spectral Data<<<<<
801.071	3736
801.214	3724
801.356	3701
801.499	3736
801.641	3766
801.783	3816
801.926	3869
802.068	3850
802.211	3850
802.353	3880
802.496	3869
802.638	3937
802.78	3865
802.923	3953
803.065	3907
803.208	3884
803.35	3880
803.492	3926
803.635	3911
803.777	3819
803.919	3911
804.061	4143
804.204	3987
804.346	3991
804.488	3949
804.63	4040
804.773	3937
804.915	4025
805.057	4173
805.199	4071
805.341	4185
805.483	4135
805.626	4143
805.768	4135
805.91	4200
806.052	4257
806.194	4238
806.336	4348
806.478	4196
806.62	4147
806.762	4192
806.904	4314
807.046	4379
807.188	4223
807.33	4177
807.472	4257
807.614	4196
807.756	4291
807.898	4204
808.04	4238
808.182	4318
808.324	4329
808.465	4375
808.607	4470
808.749	4459
808.891	4485
809.033	4500
809.174	4413
809.316	4287
809.458	4261
809.6	4192
809.741	4143
809.883	4154
810.025	4261
810.166	4219
810.308	4257
810.45	4242
810.591	4211
810.733	4276
810.875	4523
811.016	4850
811.158	5143
811.299	5299
811.441	5254
811.582	5086
811.724	4641
811.865	4466
812.007	4493
812.148	4462
812.29	4432
812.431	4440
812.573	4390
812.714	4386
812.855	4417
812.997	4443
813.138	4504
813.279	4386
813.421	4421
813.562	4375
813.703	4363
813.845	4363
813.986	4276
814.127	4196
814.268	4303
814.41	4276
814.551	4234
814.692	4344
814.833	4272
814.974	4329
815.115	4386
815.256	4276
815.397	4291
815.539	4265
815.68	4215
815.821	4207
815.962	4287
816.103	4291
816.244	4238
816.385	4249
816.526	4310
816.666	4215
816.807	4078
816.948	4196
817.089	4230
817.23	4093
817.371	4086
817.512	4074
817.653	4055
817.793	4059
817.934	4036
818.075	4124
818.216	4090
818.356	4120
818.497	4017
818.638	3880
818.778	3975
818.919	3876
819.06	3865
819.2	3892
819.341	3842
819.481	3838
819.622	3949
819.762	4036
819.903	3975
820.043	3854
820.184	3884
820.324	3800
820.465	3911
820.605	3892
820.746	3850
820.886	3819
821.026	3956
821.167	3949
821.307	4006
821.447	3998
821.588	3945
821.728	3983
821.868	3956
822.008	3934
822.149	3937
822.289	3937
822.429	3835
822.569	3762
822.709	3838
822.849	3690
822.99	3732
823.13	3724
823.27	3819
823.41	3747
823.55	3747
823.69	3762
823.83	3793
823.97	3709
824.11	3625
824.25	3629
824.389	3705
824.529	3656
824.669	3682
824.809	3736
824.949	3732
825.089	3728
825.228	3709
825.368	3603
825.508	3603
825.648	3603
825.787	3603
825.927	3652
826.067	3679
826.206	3701
826.346	3831
826.485	3846
826.625	3884
826.765	3934
826.904	3812
827.044	3625
827.183	3545
827.323	3473
827.462	3469
827.601	3431
827.741	3469
827.88	3492
828.02	3397
828.159	3439
828.298	3507
828.437	3545
828.577	3515
828.716	3603
828.855	3507
828.994	3405
829.134	3382
829.273	3389
829.412	3321
829.551	3359
829.69	3405
829.829	3439
829.968	3576
830.107	3462
830.246	3485
830.385	3393
830.524	3389
830.663	3317
830.802	3264
830.941	3195
831.08	3222
831.219	3287
831.357	3291
831.496	3382
831.635	3253
831.774	3222
831.913	3188
832.051	3127
832.19	3173
832.329	3233
832.467	3169
832.606	3104
832.744	3230
832.883	3192
833.022	3173
833.16	3245
833.299	3294
833.437	3348
833.576	3405
833.714	3435
833.852	3439
833.991	3409
834.129	3488
834.267	3450
834.406	3420
834.544	3447
834.682	3428
834.821	3409
834.959	3580
835.097	3462
835.235	3538
835.373	3526
835.511	3534
835.65	3496
835.788	3492
835.926	3409
836.064	3397
836.202	3431
836.34	3618
836.478	3576
836.615	3587
836.753	3633
836.891	3698
837.029	3614
837.167	3553
837.305	3572
837.443	3538
837.58	3553
837.718	3629
837.856	3564
837.993	3564
838.131	3618
838.269	3572
838.406	3591
838.544	3587
838.681	3466
838.819	3500
838.956	3393
839.094	3424
839.231	3466
839.369	3557
839.506	3724
839.643	3633
839.781	3511
839.918	3496
840.055	3511
840.193	3530
840.33	3534
840.467	3587
840.604	3614
840.742	3793
840.879	3519
841.016	3545
841.153	3625
841.29	3785
841.427	3694
841.564	3751
841.701	3759
841.838	3717
841.975	3720
842.112	3690
842.249	3637
842.385	3648
842.522	3827
842.659	3690
842.796	3675
842.933	3732
843.069	3740
843.206	3667
843.343	3831
843.479	3797
843.616	3850
843.752	3705
843.889	3663
844.025	3861
844.162	3717
844.298	3850
844.435	3816
844.571	3812
844.708	3899
844.844	3994
844.98	4036
845.117	4017
845.253	3956
845.389	3907
845.525	3975
845.661	4006
845.798	3953
845.934	3994
846.07	3979
846.206	4082
846.342	4139
846.478	4112
846.614	4021
846.75	3956
846.886	3922
847.022	4048
847.158	4002
847.294	4017
847.429	4051
847.565	4036
847.701	4230
847.837	3899
847.972	3926
848.108	3987
848.244	3987
848.379	3892
848.515	3808
848.65	3823
848.786	3831
848.921	3838
849.057	3941
849.192	3953
849.328	3899
849.463	3903
849.598	3915
849.734	3892
849.869	3831
850.004	3797
850.14	3850
850.275	3842
850.41	3728
850.545	3759
850.68	3838
850.815	3766
850.95	3808
851.085	3915
851.22	3903
851.355	3819
851.49	3800
851.625	3793
851.76	3800
851.895	3781
852.03	3720
852.165	3827
852.299	3831
852.434	3953
852.569	3831
852.703	3857
852.838	3975
852.973	3994
853.107	4048
853.242	3922
853.376	3838
853.511	3800
853.645	3838
853.78	3968
853.914	3934
854.048	3926
854.183	3892
854.317	3937
854.451	4071
854.585	4002
854.72	3972
854.854	4025
854.988	3937
855.122	4036
855.256	3998
855.39	4044
855.524	4124
855.658	4128
855.792	4128
855.926	4143
856.06	4169
856.194	4272
856.327	4166
856.461	4166
856.595	4200
856.729	4169
856.862	4299
856.996	4238
857.13	4287
857.263	4329
857.397	4379
857.53	4253
857.664	4398
857.797	4409
857.931	4417
858.064	4398
858.197	4500
858.331	4398
858.464	4356
858.597	4348
858.731	4466
858.864	4402
858.997	4451
859.13	4569
859.263	4497
859.396	4596
859.529	4542
859.662	4527
859.795	4580
859.928	4607
860.061	4694
860.194	4759
860.327	4687
860.46	4645
860.592	4816
860.725	4740
860.858	4767
860.99	4729
861.123	4672
861.256	4694
861.388	4805
861.521	5444
861.653	4748
861.786	4683
861.918	4752
862.05	4854
862.183	4824
862.315	4850
862.447	4957
862.58	4946
862.712	4847
862.844	4797
862.976	4934
863.108	4930
863.24	5273
863.372	4820
863.504	4938
863.636	4949
863.768	4987
863.9	5006
864.032	4972
864.164	5006
864.296	5029
864.428	5086
864.559	5090
864.691	5079
864.823	5056
864.954	5151
865.086	5124
865.217	5185
865.349	5128
865.48	5185
865.612	5212
865.743	5307
865.875	5254
866.006	5212
866.137	5227
866.269	5288
866.4	5357
866.531	5277
866.662	5254
866.793	5277
866.924	5322
867.055	5387
867.186	5387
867.317	5303
867.448	5334
867.579	5368
867.71	5391
867.841	5402
867.972	5501
868.103	5425
868.233	5463
868.364	5520
868.495	5566
868.625	5676
868.756	5840
868.886	5668
869.017	5737
869.147	5916
869.278	5878
869.408	5817
869.539	5844
869.669	5942
869.799	5965
869.929	5961
870.06	6022
870.19	6228
870.32	6205
870.45	6239
870.58	6342
870.71	6471
870.84	6460
870.97	6388
871.1	6490
871.23	6658
871.36	6696
871.489	6700
871.619	6760
871.749	6856
871.879	6844
872.008	7000
872.138	6981
872.267	7015
872.397	6951
872.526	7072
872.656	7118
872.785	7209
872.915	7373
873.044	7559
873.173	7556
873.303	7624
873.432	7792
873.561	7909
873.69	7944
873.819	7993
873.948	8153
874.077	8317
874.206	8309
874.335	8492
874.464	8659
874.593	8876
874.722	8925
874.851	9119
874.979	9264
875.108	9325
875.237	9386
875.365	9462
875.494	9667
875.623	9827
875.751	9854
875.88	9991
876.008	10204
876.136	10249
876.265	10485
876.393	10710
876.521	10831
876.65	10828
876.778	10850
876.906	10892
877.034	10995
877.162	11140
877.29	11185
877.418	11280
877.546	11387
877.674	11467
877.802	11493
877.93	11554
878.058	11524
878.185	11577
878.313	11741
878.441	11684
878.568	11573
878.696	11798
878.824	11805
878.951	12041
879.079	12026
879.206	12091
879.333	12015
879.461	12026
879.588	12129
879.715	12175
879.842	12262
879.97	12064
880.097	11859
880.224	11870
880.351	11878
880.478	11874
880.605	11855
880.732	11832
880.859	12083
880.986	11821
881.112	11859
881.239	11737
881.366	11661
881.493	11604
881.619	11463
881.746	11581
881.872	11570
881.999	11532
882.125	11436
882.252	11570
882.378	11471
882.505	11433
882.631	11387
882.757	11303
882.883	11299
883.01	11299
883.136	11189
883.262	11071
883.388	11136
883.514	11197
883.64	11185
883.766	11143
883.892	11052
884.018	11071
884.143	11041
884.269	11140
884.395	10934
884.52	10812
884.646	10854
884.772	10790
884.897	10687
885.023	10710
885.148	10740
885.274	10858
885.399	10649
885.524	10660
885.65	10607
885.775	10535
885.9	10561
886.025	10668
886.15	10519
886.275	10447
886.4	10382
886.525	10402
886.65	10455
886.775	10284
886.9	10443
887.025	10538
887.149	10329
887.274	10257
887.399	10257
887.523	10181
887.648	10147
887.773	10112
887.897	10200
888.021	10234
888.146	10158
888.27	10219
888.395	10242
888.519	10204
888.643	10276
888.767	10196
888.891	10048
889.015	9987
889.139	10063
889.263	10013
889.387	10143
889.511	10204
889.635	10074
889.759	9945
889.883	10036
890.006	10025
890.13	10169
890.254	9972
890.377	9956
890.501	9865
890.624	9922
890.748	9907
890.871	9797
890.995	9785
891.118	9724
891.241	9865
891.364	9778
891.488	9804
891.611	9774
891.734	9789
891.857	9835
891.98	9652
892.103	9728
892.226	9690
892.349	9667
892.471	9568
892.594	9629
892.717	9724
892.839	9568
892.962	9622
893.085	9641
893.207	9568
893.33	9485
893.452	9584
893.575	9690
893.697	9519
893.819	9591
893.941	9492
894.064	9606
894.186	9431
894.308	9450
894.43	9515
894.552	9603
894.674	9667
894.796	9412
894.918	9363
895.04	9329
895.161	9351
895.283	9431
895.405	9256
895.526	9355
895.648	9249
895.769	9233
895.891	9245
896.012	9317
896.134	9253
896.255	9226
896.376	9131
896.498	9123
896.619	9112
896.74	9135
896.861	9138
896.982	9291
897.103	9321
897.224	9306
897.345	9085
897.466	9070
897.587	9047
897.708	9135
897.828	9066
897.949	9005
898.07	8891
898.19	8941
898.311	9039
898.431	8853
898.552	8902
898.672	8986
898.792	8994
898.913	9005
899.033	8834
899.153	8826
899.273	8663
899.393	8735
899.513	8830
899.633	8762
899.753	8777
899.873	8655
899.993	8762
900.113	8750
900.232	8743
900.352	8670
900.472	8663
900.591	8522
900.711	8644
900.83	8556
900.95	8659
901.069	8674
901.189	8533
901.308	8442
901.427	8374
901.546	8480
901.665	8427
901.784	8541
901.904	8396
902.023	8286
902.141	8309
902.26	8305
902.379	8294
902.498	8240
902.617	8214
902.735	8290
902.854	8279
902.973	8305
903.091	8084
903.21	8126
903.328	8100
903.446	8168
903.565	8138
903.683	8168
903.801	8065
903.919	8142
904.038	8126
904.156	8103
904.274	8092
904.392	8001
904.51	7982
904.627	8050
904.745	8138
904.863	8126
904.981	7898
905.098	7852
905.216	7944
905.334	7940
905.451	7955
905.569	7883
905.686	7913
905.803	7928
905.921	7818
906.038	7909
906.155	7852
906.272	7734
906.389	7780
906.506	7567
906.623	7636
906.74	7575
906.857	7571
906.974	7556
907.091	7643
907.208	7700
907.324	7620
907.441	7613
907.557	7476
907.674	7548
907.79	7514
907.907	7381
908.023	7445
908.139	7445
908.256	7343
908.372	7384
908.488	7335
908.604	7244
908.72	7236
908.836	7240
908.952	7206
909.068	7266
909.184	7324
909.3	7251
909.415	7369
909.531	7369
909.647	7122
909.762	7137
909.878	7091
909.993	7152
910.108	7080
910.224	7137
910.339	7095
910.454	7088
910.57	6996
910.685	6954
910.8	7202
910.915	7065
911.03	7034
911.145	6947
911.259	6867
911.374	6867
911.489	6856
911.604	6810
911.718	6722
911.833	6730
911.947	6688
912.062	6639
912.176	6741
912.291	6787
912.405	6749
912.519	6867
912.633	6856
912.748	6795
912.862	6715
912.976	6623
913.09	6559
913.204	6597
913.318	6650
913.431	6696
913.545	6669
913.659	6715
913.772	6696
913.886	6623
914	6536
914.113	6662
914.226	6646
914.34	6589
914.453	6517
914.566	6646
914.68	6585
914.793	6509
914.906	6422
915.019	6460
915.132	6422
915.245	6429
915.358	6464
915.47	6471
915.583	6460
915.696	6490
915.809	6517
915.921	6544
916.034	6498
916.146	6399
916.259	6353
916.371	6448
916.483	6353
916.595	6376
916.708	6384
916.82	6448
916.932	6388
917.044	6388
917.156	6414
917.268	6357
917.38	6357
917.491	6296
917.603	6346
917.715	6486
917.826	6475
917.938	6380
918.049	6304
918.161	6380
918.272	6426
918.384	6399
918.495	6399
918.606	6300
918.717	6235
918.828	6270
918.939	6308
919.05	6213
919.161	6262
919.272	6121
919.383	6178
919.494	6342
919.604	6429
919.715	6319
919.826	6224
919.936	6243
920.047	6407
920.157	6342
920.267	6422
920.378	6353
920.488	6311
920.598	6483
920.708	6582
920.818	6460
920.928	6460
921.038	6620
921.148	6654
921.258	6353
921.368	6296
921.477	6190
921.587	6205
921.697	6072
921.806	6201
921.916	6110
922.025	6030
922.134	5874
922.244	5885
922.353	5939
922.462	5836
922.571	5794
922.68	5752
922.789	5680
922.898	5729
923.007	5699
923.116	5748
923.224	5688
923.333	5680
923.442	5573
923.55	5592
923.659	5592
923.767	5668
923.876	5554
923.984	5653
924.092	5543
924.201	5585
924.309	5558
924.417	5615
924.525	5467
924.633	5509
924.741	6251
924.849	5391
924.956	5493
925.064	5357
925.172	5284
925.279	5345
925.387	5406
925.494	5353
925.602	5478
925.709	5379
925.816	5311
925.924	5318
926.031	5383
926.138	5341
926.245	5368
926.352	5216
926.459	5360
926.566	5326
926.673	5208
926.779	5197
926.886	5140
926.993	5052
927.099	4968
927.206	4980
927.312	4961
927.419	5037
927.525	5025
927.631	5014
927.737	4889
927.843	4942
927.95	4778
928.056	4831
928.162	4820
928.267	4847
928.373	5307
928.479	4870
928.585	4717
928.69	4812
928.796	4797
928.901	4675
929.007	4577
929.112	4645
929.218	4634
929.323	4596
929.428	4554
929.533	4702
929.638	4527
929.743	4523
929.848	4588
929.953	4512
930.058	4455
930.163	4348
930.267	4375
930.372	4451
930.477	4295
930.581	4493
930.685	4348
930.79	4272
930.894	4314
930.998	4238
931.103	4409
931.207	4078
931.311	4120
931.415	4071
931.519	3899
931.623	3930
