Data from glass_V78500241_2283.txt Node
Date: Wed Sep 01 19:30:19 CST 2021
User: usil
Spectrometer: V785-0024
Trigger mode: 0
Integration Time (sec): 4.000000E-1
Scans to average: 1
Nonlinearity correction enabled: false
Boxcar width: 0
Storing dark spectrum: false
XAxis mode: Wavelengths
Number of Pixels in Spectrum: 1024
>>>>>Begin Spectral Data<<<<<
801.071	3728
801.214	3762
801.356	3701
801.499	3740
801.641	3679
801.783	3781
801.926	3846
802.068	3846
802.211	3880
802.353	3903
802.496	3793
802.638	3842
802.78	3899
802.923	3937
803.065	3838
803.208	3854
803.35	3907
803.492	3888
803.635	3907
803.777	3797
803.919	3880
804.061	4135
804.204	3949
804.346	3941
804.488	3956
804.63	3998
804.773	4006
804.915	4032
805.057	4143
805.199	4051
805.341	4078
805.483	4128
805.626	4143
805.768	4101
805.91	4204
806.052	4219
806.194	4196
806.336	4363
806.478	4207
806.62	4124
806.762	4131
806.904	4284
807.046	4352
807.188	4181
807.33	4147
807.472	4227
807.614	4181
807.756	4249
807.898	4173
808.04	4246
808.182	4253
808.324	4360
808.465	4390
808.607	4436
808.749	4462
808.891	4409
809.033	4470
809.174	4379
809.316	4265
809.458	4227
809.6	4135
809.741	4082
809.883	4074
810.025	4166
810.166	4185
810.308	4211
810.45	4207
810.591	4173
810.733	4291
810.875	4500
811.016	4866
811.158	5113
811.299	5258
811.441	5280
811.582	5079
811.724	4714
811.865	4428
812.007	4447
812.148	4436
812.29	4428
812.431	4405
812.573	4371
812.714	4333
812.855	4421
812.997	4428
813.138	4455
813.279	4402
813.421	4367
813.562	4356
813.703	4295
813.845	4352
813.986	4272
814.127	4246
814.268	4234
814.41	4291
814.551	4215
814.692	4352
814.833	4272
814.974	4234
815.115	4295
815.256	4219
815.397	4215
815.539	4272
815.68	4173
815.821	4192
815.962	4325
816.103	4227
816.244	4219
816.385	4211
816.526	4299
816.666	4219
816.807	4093
816.948	4181
817.089	4154
817.23	4139
817.371	4063
817.512	4051
817.653	4044
817.793	4063
817.934	3968
818.075	4078
818.216	4128
818.356	4063
818.497	3972
818.638	3880
818.778	3915
818.919	3888
819.06	3884
819.2	3915
819.341	3857
819.481	3800
819.622	3842
819.762	4002
819.903	3960
820.043	3876
820.184	3808
820.324	3793
820.465	3835
820.605	3880
820.746	3861
820.886	3800
821.026	3926
821.167	3911
821.307	3945
821.447	3987
821.588	3918
821.728	3964
821.868	3922
822.008	3880
822.149	3892
822.289	3907
822.429	3759
822.569	3709
822.709	3800
822.849	3690
822.99	3705
823.13	3751
823.27	3759
823.41	3732
823.55	3770
823.69	3720
823.83	3701
823.97	3663
824.11	3606
824.25	3610
824.389	3675
824.529	3663
824.669	3622
824.809	3705
824.949	3713
825.089	3728
825.228	3663
825.368	3564
825.508	3599
825.648	3530
825.787	3610
825.927	3629
826.067	3595
826.206	3633
826.346	3793
826.485	3778
826.625	3873
826.765	3930
826.904	3816
827.044	3580
827.183	3530
827.323	3416
827.462	3439
827.601	3424
827.741	3424
827.88	3431
828.02	3359
828.159	3401
828.298	3477
828.437	3561
828.577	3450
828.716	3595
828.855	3439
828.994	3386
829.134	3370
829.273	3329
829.412	3313
829.551	3336
829.69	3344
829.829	3405
829.968	3542
830.107	3405
830.246	3374
830.385	3378
830.524	3298
830.663	3336
830.802	3245
830.941	3184
831.08	3169
831.219	3256
831.357	3218
831.496	3393
831.635	3203
831.774	3157
831.913	3165
832.051	3135
832.19	3131
832.329	3161
832.467	3081
832.606	3097
832.744	3180
832.883	3195
833.022	3176
833.16	3268
833.299	3283
833.437	3306
833.576	3405
833.714	3359
833.852	3485
833.991	3409
834.129	3466
834.267	3443
834.406	3397
834.544	3409
834.682	3428
834.821	3389
834.959	3542
835.097	3420
835.235	3534
835.373	3477
835.511	3504
835.65	3447
835.788	3500
835.926	3367
836.064	3336
836.202	3393
836.34	3564
836.478	3572
836.615	3488
836.753	3663
836.891	3610
837.029	3614
837.167	3561
837.305	3534
837.443	3526
837.58	3507
837.718	3603
837.856	3545
837.993	3485
838.131	3549
838.269	3526
838.406	3557
838.544	3591
838.681	3420
838.819	3458
838.956	3351
839.094	3348
839.231	3439
839.369	3515
839.506	3766
839.643	3595
839.781	3511
839.918	3439
840.055	3572
840.193	3511
840.33	3523
840.467	3584
840.604	3610
840.742	3766
840.879	3568
841.016	3545
841.153	3610
841.29	3720
841.427	3705
841.564	3717
841.701	3743
841.838	3682
841.975	3690
842.112	3705
842.249	3633
842.385	3614
842.522	3861
842.659	3652
842.796	3679
842.933	3690
843.069	3675
843.206	3679
843.343	3812
843.479	3778
843.616	3816
843.752	3663
843.889	3641
844.025	3835
844.162	3701
844.298	3831
844.435	3797
844.571	3808
844.708	3865
844.844	3941
844.98	3979
845.117	3983
845.253	3918
845.389	3880
845.525	3968
845.661	3968
845.798	3911
845.934	3991
846.07	3941
846.206	4036
846.342	4093
846.478	4017
846.614	3979
846.75	3945
846.886	3892
847.022	4002
847.158	3968
847.294	3964
847.429	4006
847.565	3979
847.701	4238
847.837	3903
847.972	3869
848.108	3998
848.244	3953
848.379	3812
848.515	3850
848.65	3827
848.786	3876
848.921	3857
849.057	3915
849.192	3968
849.328	3865
849.463	3907
849.598	3907
849.734	3873
849.869	3808
850.004	3778
850.14	3850
850.275	3751
850.41	3698
850.545	3743
850.68	3785
850.815	3823
850.95	3785
851.085	3930
851.22	3842
851.355	3831
851.49	3789
851.625	3785
851.76	3774
851.895	3724
852.03	3743
852.165	3800
852.299	3816
852.434	3873
852.569	3850
852.703	3903
852.838	3876
852.973	3998
853.107	3968
853.242	3884
853.376	3850
853.511	3781
853.645	3838
853.78	3941
853.914	3915
854.048	3903
854.183	3892
854.317	3918
854.451	4071
854.585	3930
854.72	3953
854.854	4051
854.988	3922
855.122	3968
855.256	3907
855.39	4067
855.524	4120
855.658	4109
855.792	4055
855.926	4116
856.06	4181
856.194	4166
856.327	4131
856.461	4109
856.595	4143
856.729	4169
856.862	4238
856.996	4230
857.13	4261
857.263	4276
857.397	4371
857.53	4219
857.664	4348
857.797	4432
857.931	4413
858.064	4386
858.197	4500
858.331	4398
858.464	4352
858.597	4341
858.731	4409
858.864	4424
858.997	4417
859.13	4447
859.263	4535
859.396	4565
859.529	4546
859.662	4485
859.795	4508
859.928	4592
860.061	4714
860.194	4778
860.327	4641
860.46	4649
860.592	4710
860.725	4774
860.858	4755
860.99	4717
861.123	4649
861.256	4641
861.388	4782
861.521	5543
861.653	4759
861.786	4698
861.918	4714
862.05	4786
862.183	4820
862.315	4820
862.447	4946
862.58	4862
862.712	4759
862.844	4736
862.976	4866
863.108	4820
863.24	5140
863.372	4801
863.504	4885
863.636	4870
863.768	4995
863.9	4930
864.032	4949
864.164	4946
864.296	4946
864.428	5075
864.559	5105
864.691	5140
864.823	5121
864.954	5178
865.086	5155
865.217	5136
865.349	5124
865.48	5109
865.612	5170
865.743	5288
865.875	5178
866.006	5208
866.137	5265
866.269	5235
866.4	5254
866.531	5223
866.662	5250
866.793	5258
866.924	5261
867.055	5299
867.186	5330
867.317	5334
867.448	5318
867.579	5315
867.71	5421
867.841	5322
867.972	5474
868.103	5421
868.233	5452
868.364	5471
868.495	5558
868.625	5653
868.756	5824
868.886	5672
869.017	5688
869.147	5832
869.278	5809
869.408	5840
869.539	5786
869.669	5942
869.799	5901
869.929	5961
870.06	6068
870.19	6190
870.32	6201
870.45	6289
870.58	6342
870.71	6452
870.84	6433
870.97	6380
871.1	6429
871.23	6578
871.36	6673
871.489	6681
871.619	6738
871.749	6772
871.879	6909
872.008	6973
872.138	6905
872.267	6993
872.397	6977
872.526	7057
872.656	7160
872.785	7179
872.915	7384
873.044	7441
873.173	7548
873.303	7632
873.432	7715
873.561	7887
873.69	7890
873.819	7993
873.948	8065
874.077	8244
874.206	8332
874.335	8427
874.464	8621
874.593	8804
874.722	8891
874.851	9062
874.979	9256
875.108	9340
875.237	9397
875.365	9526
875.494	9675
875.623	9854
875.751	9876
875.88	9998
876.008	10059
876.136	10268
876.265	10523
876.393	10660
876.521	10809
876.65	10793
876.778	10869
876.906	10927
877.034	11014
877.162	11102
877.29	11201
877.418	11288
877.546	11288
877.674	11379
877.802	11448
877.93	11551
878.058	11524
878.185	11520
878.313	11703
878.441	11638
878.568	11748
878.696	11882
878.824	11824
878.951	11893
879.079	11908
879.206	12140
879.333	12079
879.461	12072
879.588	12015
879.715	12091
879.842	12159
879.97	12079
880.097	11885
880.224	11847
880.351	11866
880.478	11805
880.605	11859
880.732	11855
880.859	11999
880.986	11714
881.112	11870
881.239	11760
881.366	11630
881.493	11630
881.619	11524
881.746	11604
881.872	11585
881.999	11524
882.125	11474
882.252	11455
882.378	11452
882.505	11554
882.631	11410
882.757	11296
882.883	11303
883.01	11212
883.136	11231
883.262	11056
883.388	11121
883.514	11113
883.64	11181
883.766	11117
883.892	11006
884.018	10949
884.143	11162
884.269	11086
884.395	10835
884.52	10778
884.646	10862
884.772	10729
884.897	10637
885.023	10755
885.148	10649
885.274	10714
885.399	10717
885.524	10645
885.65	10611
885.775	10573
885.9	10542
886.025	10634
886.15	10577
886.275	10485
886.4	10478
886.525	10432
886.65	10360
886.775	10352
886.9	10424
887.025	10527
887.149	10409
887.274	10284
887.399	10257
887.523	10112
887.648	10086
887.773	10109
887.897	10177
888.021	10219
888.146	10074
888.27	10265
888.395	10223
888.519	10188
888.643	10192
888.767	10200
888.891	10063
889.015	10051
889.139	10032
889.263	10063
889.387	10021
889.511	10048
889.635	10090
889.759	9956
889.883	9926
890.006	9994
890.13	10143
890.254	9915
890.377	9953
890.501	9869
890.624	9823
890.748	9907
890.871	9861
890.995	9660
891.118	9740
891.241	9781
891.364	9762
891.488	9835
891.611	9701
891.734	9736
891.857	9652
891.98	9671
892.103	9694
892.226	9747
892.349	9629
892.471	9511
892.594	9496
892.717	9629
892.839	9523
892.962	9542
893.085	9595
893.207	9557
893.33	9458
893.452	9538
893.575	9557
893.697	9530
893.819	9641
893.941	9553
894.064	9625
894.186	9485
894.308	9351
894.43	9595
894.552	9572
894.674	9492
894.796	9462
894.918	9435
895.04	9268
895.161	9340
895.283	9344
895.405	9192
895.526	9249
895.648	9256
895.769	9237
895.891	9253
896.012	9260
896.134	9306
896.255	9127
896.376	9173
896.498	9108
896.619	9146
896.74	9066
896.861	9093
896.982	9264
897.103	9237
897.224	9108
897.345	9097
897.466	8963
897.587	8998
897.708	9093
897.828	8971
897.949	8971
898.07	8883
898.19	8861
898.311	8982
898.431	8910
898.552	8956
898.672	9013
898.792	8895
898.913	8918
899.033	8754
899.153	8727
899.273	8598
899.393	8705
899.513	8773
899.633	8769
899.753	8701
899.873	8769
899.993	8766
900.113	8735
900.232	8663
900.352	8606
900.472	8590
900.591	8533
900.711	8594
900.83	8541
900.95	8712
901.069	8670
901.189	8602
901.308	8431
901.427	8423
901.546	8541
901.665	8400
901.784	8530
901.904	8336
902.023	8275
902.141	8225
902.26	8210
902.379	8248
902.498	8202
902.617	8164
902.735	8305
902.854	8244
902.973	8286
903.091	8134
903.21	8145
903.328	8168
903.446	8145
903.565	8077
903.683	8142
903.801	8046
903.919	8088
904.038	8069
904.156	8016
904.274	8062
904.392	8016
904.51	8054
904.627	8043
904.745	8065
904.863	8027
904.981	7909
905.098	7875
905.216	7902
905.334	7940
905.451	7917
905.569	7944
905.686	7887
905.803	7868
905.921	7769
906.038	7875
906.155	7814
906.272	7727
906.389	7700
906.506	7624
906.623	7636
906.74	7567
906.857	7533
906.974	7582
907.091	7708
907.208	7685
907.324	7662
907.441	7597
907.557	7438
907.674	7445
907.79	7377
907.907	7403
908.023	7468
908.139	7438
908.256	7441
908.372	7358
908.488	7388
908.604	7198
908.72	7221
908.836	7217
908.952	7194
909.068	7301
909.184	7293
909.3	7232
909.415	7289
909.531	7305
909.647	7088
909.762	7076
909.878	7110
909.993	7088
910.108	7091
910.224	7027
910.339	7114
910.454	7019
910.57	7000
910.685	6958
910.8	7141
910.915	7091
911.03	7050
911.145	6916
911.259	6856
911.374	6852
911.489	6772
911.604	6818
911.718	6669
911.833	6669
911.947	6559
912.062	6623
912.176	6707
912.291	6741
912.405	6677
912.519	6829
912.633	6848
912.748	6703
912.862	6696
912.976	6620
913.09	6506
913.204	6502
913.318	6635
913.431	6669
913.545	6669
913.659	6749
913.772	6631
913.886	6547
914	6563
914.113	6589
914.226	6616
914.34	6566
914.453	6494
914.566	6578
914.68	6525
914.793	6563
914.906	6410
915.019	6414
915.132	6357
915.245	6407
915.358	6437
915.47	6429
915.583	6448
915.696	6445
915.809	6506
915.921	6551
916.034	6410
916.146	6422
916.259	6365
916.371	6475
916.483	6483
916.595	6407
916.708	6403
916.82	6403
916.932	6300
917.044	6388
917.156	6410
917.268	6319
917.38	6292
917.491	6331
917.603	6247
917.715	6372
917.826	6388
917.938	6311
918.049	6213
918.161	6342
918.272	6361
918.384	6395
918.495	6346
918.606	6228
918.717	6209
918.828	6292
918.939	6270
919.05	6152
919.161	6270
919.272	6068
919.383	6140
919.494	6273
919.604	6391
919.715	6357
919.826	6171
919.936	6273
920.047	6292
920.157	6251
920.267	6418
920.378	6285
920.488	6273
920.598	6452
920.708	6528
920.818	6422
920.928	6498
921.038	6563
921.148	6559
921.258	6372
921.368	6319
921.477	6213
921.587	6197
921.697	6106
921.806	6121
921.916	6068
922.025	5946
922.134	5897
922.244	5912
922.353	5889
922.462	5878
922.571	5802
922.68	5684
922.789	5649
922.898	5630
923.007	5604
923.116	5665
923.224	5672
923.333	5684
923.442	5589
923.55	5539
923.659	5589
923.767	5611
923.876	5505
923.984	5596
924.092	5493
924.201	5554
924.309	5474
924.417	5577
924.525	5478
924.633	5433
924.741	6285
924.849	5334
924.956	5474
925.064	5376
925.172	5273
925.279	5315
925.387	5326
925.494	5345
925.602	5471
925.709	5410
925.816	5239
925.924	5284
926.031	5368
926.138	5318
926.245	5318
926.352	5212
926.459	5334
926.566	5318
926.673	5231
926.779	5105
926.886	5102
926.993	5045
927.099	5006
927.206	4942
927.312	4987
927.419	5067
927.525	4957
927.631	4976
927.737	4908
927.843	4843
927.95	4763
928.056	4809
928.162	4793
928.267	4877
928.373	5318
928.479	4858
928.585	4634
928.69	4729
928.796	4774
928.901	4656
929.007	4603
929.112	4672
929.218	4622
929.323	4580
929.428	4542
929.533	4649
929.638	4493
929.743	4542
929.848	4538
929.953	4512
930.058	4466
930.163	4287
930.267	4287
930.372	4375
930.477	4276
930.581	4516
930.685	4379
930.79	4257
930.894	4246
930.998	4227
931.103	4402
931.207	4112
931.311	4071
931.415	4036
931.519	3934
931.623	3888
