Data from glass_V78500241_2584.txt Node
Date: Wed Sep 01 19:32:24 CST 2021
User: usil
Spectrometer: V785-0024
Trigger mode: 0
Integration Time (sec): 4.000000E-1
Scans to average: 1
Nonlinearity correction enabled: false
Boxcar width: 0
Storing dark spectrum: false
XAxis mode: Wavelengths
Number of Pixels in Spectrum: 1024
>>>>>Begin Spectral Data<<<<<
801.071	3724
801.214	3724
801.356	3663
801.499	3728
801.641	3740
801.783	3770
801.926	3812
802.068	3793
802.211	3846
802.353	3842
802.496	3819
802.638	3823
802.78	3892
802.923	3941
803.065	3876
803.208	3838
803.35	3835
803.492	3899
803.635	3918
803.777	3808
803.919	3915
804.061	4120
804.204	3918
804.346	3964
804.488	3949
804.63	4029
804.773	3926
804.915	4017
805.057	4135
805.199	4021
805.341	4063
805.483	4143
805.626	4093
805.768	4109
805.91	4196
806.052	4223
806.194	4185
806.336	4360
806.478	4227
806.62	4185
806.762	4169
806.904	4246
807.046	4375
807.188	4215
807.33	4173
807.472	4215
807.614	4185
807.756	4276
807.898	4230
808.04	4227
808.182	4337
808.324	4291
808.465	4356
808.607	4440
808.749	4485
808.891	4493
809.033	4478
809.174	4383
809.316	4272
809.458	4249
809.6	4166
809.741	4120
809.883	4131
810.025	4219
810.166	4196
810.308	4261
810.45	4253
810.591	4238
810.733	4322
810.875	4508
811.016	4847
811.158	5151
811.299	5261
811.441	5269
811.582	5056
811.724	4710
811.865	4459
812.007	4447
812.148	4421
812.29	4363
812.431	4417
812.573	4386
812.714	4432
812.855	4360
812.997	4409
813.138	4485
813.279	4421
813.421	4371
813.562	4325
813.703	4291
813.845	4379
813.986	4242
814.127	4227
814.268	4230
814.41	4268
814.551	4230
814.692	4333
814.833	4223
814.974	4246
815.115	4295
815.256	4246
815.397	4261
815.539	4276
815.68	4192
815.821	4185
815.962	4291
816.103	4284
816.244	4230
816.385	4196
816.526	4234
816.666	4211
816.807	4124
816.948	4135
817.089	4166
817.23	4143
817.371	4078
817.512	4093
817.653	4097
817.793	4051
817.934	4051
818.075	4093
818.216	4105
818.356	4032
818.497	3972
818.638	3930
818.778	3915
818.919	3861
819.06	3846
819.2	3922
819.341	3854
819.481	3846
819.622	3861
819.762	4040
819.903	3945
820.043	3857
820.184	3816
820.324	3831
820.465	3876
820.605	3831
820.746	3850
820.886	3785
821.026	3949
821.167	3934
821.307	3915
821.447	3987
821.588	3964
821.728	3930
821.868	3949
822.008	3857
822.149	3918
822.289	3857
822.429	3751
822.569	3766
822.709	3781
822.849	3690
822.99	3709
823.13	3762
823.27	3740
823.41	3720
823.55	3713
823.69	3663
823.83	3713
823.97	3690
824.11	3564
824.25	3561
824.389	3606
824.529	3614
824.669	3614
824.809	3667
824.949	3694
825.089	3686
825.228	3644
825.368	3599
825.508	3530
825.648	3580
825.787	3587
825.927	3606
826.067	3584
826.206	3629
826.346	3812
826.485	3831
826.625	3854
826.765	3937
826.904	3835
827.044	3584
827.183	3469
827.323	3420
827.462	3507
827.601	3424
827.741	3401
827.88	3401
828.02	3409
828.159	3458
828.298	3435
828.437	3515
828.577	3439
828.716	3603
828.855	3466
828.994	3382
829.134	3405
829.273	3378
829.412	3332
829.551	3313
829.69	3374
829.829	3386
829.968	3523
830.107	3416
830.246	3435
830.385	3374
830.524	3374
830.663	3287
830.802	3241
830.941	3192
831.08	3176
831.219	3260
831.357	3253
831.496	3370
831.635	3241
831.774	3154
831.913	3230
832.051	3138
832.19	3127
832.329	3222
832.467	3138
832.606	3116
832.744	3195
832.883	3188
833.022	3173
833.16	3211
833.299	3260
833.437	3313
833.576	3340
833.714	3420
833.852	3435
833.991	3397
834.129	3481
834.267	3420
834.406	3374
834.544	3416
834.682	3412
834.821	3374
834.959	3557
835.097	3416
835.235	3504
835.373	3492
835.511	3488
835.65	3447
835.788	3485
835.926	3351
836.064	3363
836.202	3420
836.34	3572
836.478	3599
836.615	3530
836.753	3576
836.891	3641
837.029	3618
837.167	3564
837.305	3545
837.443	3526
837.58	3485
837.718	3595
837.856	3519
837.993	3500
838.131	3591
838.269	3591
838.406	3530
838.544	3564
838.681	3485
838.819	3435
838.956	3351
839.094	3367
839.231	3409
839.369	3504
839.506	3720
839.643	3610
839.781	3515
839.918	3443
840.055	3538
840.193	3515
840.33	3515
840.467	3599
840.604	3591
840.742	3789
840.879	3534
841.016	3568
841.153	3538
841.29	3766
841.427	3675
841.564	3740
841.701	3759
841.838	3660
841.975	3682
842.112	3679
842.249	3660
842.385	3637
842.522	3812
842.659	3656
842.796	3671
842.933	3713
843.069	3751
843.206	3682
843.343	3804
843.479	3789
843.616	3778
843.752	3686
843.889	3656
844.025	3816
844.162	3679
844.298	3804
844.435	3755
844.571	3800
844.708	3896
844.844	3983
844.98	4040
845.117	3979
845.253	3945
845.389	3903
845.525	3934
845.661	3994
845.798	3899
845.934	3979
846.07	3922
846.206	4097
846.342	4082
846.478	4021
846.614	3964
846.75	3892
846.886	3911
847.022	4021
847.158	3968
847.294	4006
847.429	3998
847.565	3991
847.701	4188
847.837	3907
847.972	3854
848.108	3979
848.244	3934
848.379	3846
848.515	3819
848.65	3766
848.786	3869
848.921	3838
849.057	3892
849.192	3945
849.328	3918
849.463	3930
849.598	3888
849.734	3842
849.869	3857
850.004	3804
850.14	3838
850.275	3800
850.41	3713
850.545	3747
850.68	3762
850.815	3751
850.95	3797
851.085	3960
851.22	3896
851.355	3819
851.49	3819
851.625	3789
851.76	3808
851.895	3751
852.03	3732
852.165	3774
852.299	3857
852.434	3896
852.569	3842
852.703	3880
852.838	3937
852.973	3998
853.107	4013
853.242	3930
853.376	3854
853.511	3770
853.645	3838
853.78	3983
853.914	3869
854.048	3880
854.183	3884
854.317	3968
854.451	4044
854.585	3956
854.72	3953
854.854	4044
854.988	3968
855.122	4006
855.256	3903
855.39	3987
855.524	4128
855.658	4044
855.792	4071
855.926	4097
856.06	4181
856.194	4196
856.327	4162
856.461	4074
856.595	4120
856.729	4158
856.862	4238
856.996	4276
857.13	4318
857.263	4329
857.397	4337
857.53	4299
857.664	4352
857.797	4375
857.931	4440
858.064	4390
858.197	4436
858.331	4390
858.464	4356
858.597	4344
858.731	4424
858.864	4451
858.997	4424
859.13	4497
859.263	4565
859.396	4531
859.529	4531
859.662	4538
859.795	4531
859.928	4622
860.061	4691
860.194	4733
860.327	4679
860.46	4607
860.592	4683
860.725	4755
860.858	4778
860.99	4691
861.123	4653
861.256	4660
861.388	4793
861.521	5296
861.653	4675
861.786	4733
861.918	4767
862.05	4755
862.183	4782
862.315	4870
862.447	4911
862.58	4881
862.712	4843
862.844	4763
862.976	4839
863.108	4847
863.24	5143
863.372	4816
863.504	4900
863.636	4847
863.768	4946
863.9	4930
864.032	4923
864.164	4961
864.296	4961
864.428	5071
864.559	5075
864.691	5109
864.823	5094
864.954	5109
865.086	5105
865.217	5083
865.349	5102
865.48	5204
865.612	5159
865.743	5296
865.875	5140
866.006	5140
866.137	5212
866.269	5227
866.4	5250
866.531	5223
866.662	5197
866.793	5292
866.924	5273
867.055	5326
867.186	5303
867.317	5357
867.448	5299
867.579	5421
867.71	5315
867.841	5364
867.972	5482
868.103	5452
868.233	5455
868.364	5520
868.495	5543
868.625	5638
868.756	5794
868.886	5668
869.017	5737
869.147	5847
869.278	5878
869.408	5771
869.539	5836
869.669	5939
869.799	5889
869.929	5999
870.06	6034
870.19	6232
870.32	6175
870.45	6239
870.58	6376
870.71	6391
870.84	6426
870.97	6418
871.1	6448
871.23	6593
871.36	6673
871.489	6711
871.619	6741
871.749	6768
871.879	6856
872.008	6973
872.138	6981
872.267	7000
872.397	6993
872.526	6996
872.656	7152
872.785	7171
872.915	7339
873.044	7464
873.173	7514
873.303	7719
873.432	7738
873.561	7833
873.69	7845
873.819	7974
873.948	8123
874.077	8298
874.206	8343
874.335	8393
874.464	8678
874.593	8941
874.722	8910
874.851	9104
874.979	9218
875.108	9351
875.237	9374
875.365	9542
875.494	9614
875.623	9816
875.751	9842
875.88	10036
876.008	10181
876.136	10246
876.265	10432
876.393	10725
876.521	10736
876.65	10763
876.778	10911
876.906	10881
877.034	10942
877.162	11075
877.29	11193
877.418	11254
877.546	11368
877.674	11410
877.802	11421
877.93	11478
878.058	11524
878.185	11596
878.313	11714
878.441	11745
878.568	11684
878.696	11828
878.824	11798
878.951	12007
879.079	11958
879.206	12102
879.333	12041
879.461	12011
879.588	12110
879.715	12072
879.842	12171
879.97	12076
880.097	11866
880.224	11832
880.351	11920
880.478	11920
880.605	11813
880.732	11897
880.859	11965
880.986	11870
881.112	11859
881.239	11737
881.366	11604
881.493	11653
881.619	11554
881.746	11592
881.872	11566
881.999	11547
882.125	11398
882.252	11566
882.378	11532
882.505	11493
882.631	11379
882.757	11261
882.883	11421
883.01	11223
883.136	11174
883.262	11162
883.388	11166
883.514	11181
883.64	11098
883.766	11113
883.892	10984
884.018	10972
884.143	11029
884.269	11060
884.395	10885
884.52	10668
884.646	10687
884.772	10714
884.897	10687
885.023	10687
885.148	10710
885.274	10694
885.399	10698
885.524	10554
885.65	10588
885.775	10615
885.9	10527
886.025	10630
886.15	10584
886.275	10466
886.4	10424
886.525	10344
886.65	10402
886.775	10352
886.9	10462
887.025	10550
887.149	10348
887.274	10238
887.399	10131
887.523	10169
887.648	10044
887.773	10086
887.897	10223
888.021	10246
888.146	10112
888.27	10169
888.395	10268
888.519	10173
888.643	10128
888.767	10207
888.891	10086
889.015	10025
889.139	10006
889.263	9979
889.387	10021
889.511	10105
889.635	10093
889.759	9960
889.883	10017
890.006	9964
890.13	10036
890.254	9983
890.377	9945
890.501	9861
890.624	9797
890.748	9915
890.871	9854
890.995	9694
891.118	9743
891.241	9770
891.364	9679
891.488	9770
891.611	9713
891.734	9793
891.857	9797
891.98	9743
892.103	9797
892.226	9690
892.349	9720
892.471	9496
892.594	9580
892.717	9568
892.839	9568
892.962	9595
893.085	9652
893.207	9587
893.33	9515
893.452	9553
893.575	9561
893.697	9530
893.819	9591
893.941	9618
894.064	9614
894.186	9439
894.308	9378
894.43	9492
894.552	9580
894.674	9431
894.796	9348
894.918	9382
895.04	9401
895.161	9382
895.283	9298
895.405	9253
895.526	9233
895.648	9233
895.769	9340
895.891	9192
896.012	9317
896.134	9245
896.255	9176
896.376	9127
896.498	9150
896.619	9127
896.74	9036
896.861	9100
896.982	9214
897.103	9329
897.224	9135
897.345	9112
897.466	8967
897.587	8967
897.708	9085
897.828	9047
897.949	8895
898.07	8830
898.19	8845
898.311	9005
898.431	8834
898.552	8948
898.672	8944
898.792	8986
898.913	8891
899.033	8746
899.153	8716
899.273	8670
899.393	8689
899.513	8705
899.633	8644
899.753	8697
899.873	8632
899.993	8735
900.113	8640
900.232	8697
900.352	8640
900.472	8568
900.591	8594
900.711	8621
900.83	8610
900.95	8701
901.069	8754
901.189	8541
901.308	8431
901.427	8442
901.546	8408
901.665	8427
901.784	8514
901.904	8381
902.023	8351
902.141	8271
902.26	8183
902.379	8305
902.498	8229
902.617	8240
902.735	8309
902.854	8244
902.973	8267
903.091	8123
903.21	8092
903.328	8123
903.446	8123
903.565	8100
903.683	8111
903.801	8050
903.919	8145
904.038	8142
904.156	7993
904.274	8130
904.392	8039
904.51	8081
904.627	7989
904.745	8111
904.863	8119
904.981	7890
905.098	7860
905.216	7890
905.334	7879
905.451	7871
905.569	7909
905.686	7944
905.803	7906
905.921	7731
906.038	7906
906.155	7750
906.272	7643
906.389	7655
906.506	7582
906.623	7689
906.74	7632
906.857	7499
906.974	7597
907.091	7643
907.208	7738
907.324	7662
907.441	7540
907.557	7453
907.674	7487
907.79	7434
907.907	7365
908.023	7403
908.139	7468
908.256	7324
908.372	7301
908.488	7327
908.604	7251
908.72	7274
908.836	7270
908.952	7213
909.068	7171
909.184	7289
909.3	7244
909.415	7327
909.531	7324
909.647	7095
909.762	7061
909.878	7076
909.993	7069
910.108	7152
910.224	7008
910.339	7076
910.454	7034
910.57	7008
910.685	6973
910.8	7114
910.915	7072
911.03	7004
911.145	6871
911.259	6878
911.374	6901
911.489	6844
911.604	6738
911.718	6696
911.833	6692
911.947	6673
912.062	6540
912.176	6681
912.291	6715
912.405	6707
912.519	6859
912.633	6768
912.748	6745
912.862	6650
912.976	6582
913.09	6544
913.204	6601
913.318	6631
913.431	6700
913.545	6665
913.659	6738
913.772	6646
913.886	6578
914	6509
914.113	6597
914.226	6646
914.34	6631
914.453	6509
914.566	6650
914.68	6525
914.793	6494
914.906	6433
915.019	6315
915.132	6395
915.245	6437
915.358	6426
915.47	6414
915.583	6494
915.696	6422
915.809	6521
915.921	6517
916.034	6418
916.146	6441
916.259	6403
916.371	6391
916.483	6407
916.595	6361
916.708	6342
916.82	6388
916.932	6350
917.044	6391
917.156	6418
917.268	6273
917.38	6338
917.491	6308
917.603	6311
917.715	6323
917.826	6448
917.938	6350
918.049	6209
918.161	6331
918.272	6350
918.384	6418
918.495	6334
918.606	6266
918.717	6273
918.828	6251
918.939	6308
919.05	6201
919.161	6243
919.272	6087
919.383	6098
919.494	6300
919.604	6418
919.715	6311
919.826	6201
919.936	6239
920.047	6319
920.157	6254
920.267	6410
920.378	6323
920.488	6300
920.598	6418
920.708	6551
920.818	6490
920.928	6422
921.038	6570
921.148	6604
921.258	6331
921.368	6262
921.477	6213
921.587	6155
921.697	6079
921.806	6110
921.916	6060
922.025	5912
922.134	5874
922.244	5828
922.353	5931
922.462	5840
922.571	5794
922.68	5714
922.789	5691
922.898	5680
923.007	5611
923.116	5676
923.224	5699
923.333	5642
923.442	5570
923.55	5581
923.659	5566
923.767	5634
923.876	5570
923.984	5577
924.092	5501
924.201	5562
924.309	5554
924.417	5551
924.525	5482
924.633	5467
924.741	6235
924.849	5360
924.956	5410
925.064	5349
925.172	5326
925.279	5288
925.387	5322
925.494	5311
925.602	5368
925.709	5398
925.816	5258
925.924	5326
926.031	5353
926.138	5284
926.245	5334
926.352	5170
926.459	5265
926.566	5284
926.673	5181
926.779	5124
926.886	5071
926.993	4987
927.099	5045
927.206	4968
927.312	4972
927.419	4995
927.525	4911
927.631	4938
927.737	4831
927.843	4866
927.95	4782
928.056	4847
928.162	4831
928.267	4892
928.373	5246
928.479	4793
928.585	4668
928.69	4805
928.796	4793
928.901	4694
929.007	4569
929.112	4679
929.218	4637
929.323	4580
929.428	4527
929.533	4615
929.638	4523
929.743	4519
929.848	4535
929.953	4436
930.058	4443
930.163	4344
930.267	4405
930.372	4383
930.477	4322
930.581	4466
930.685	4352
930.79	4219
930.894	4261
930.998	4219
931.103	4402
931.207	4128
931.311	4071
931.415	4040
931.519	3865
931.623	3949
