Data from glass_V78500241_1538.txt Node
Date: Wed Sep 01 19:25:09 CST 2021
User: usil
Spectrometer: V785-0024
Trigger mode: 0
Integration Time (sec): 4.000000E-1
Scans to average: 1
Nonlinearity correction enabled: false
Boxcar width: 0
Storing dark spectrum: false
XAxis mode: Wavelengths
Number of Pixels in Spectrum: 1024
>>>>>Begin Spectral Data<<<<<
801.071	3717
801.214	3724
801.356	3720
801.499	3720
801.641	3759
801.783	3789
801.926	3831
802.068	3808
802.211	3842
802.353	3869
802.496	3865
802.638	3899
802.78	3873
802.923	3907
803.065	3873
803.208	3888
803.35	3854
803.492	3907
803.635	3915
803.777	3800
803.919	3899
804.061	4135
804.204	3934
804.346	3979
804.488	3926
804.63	4010
804.773	3975
804.915	4021
805.057	4158
805.199	4074
805.341	4116
805.483	4090
805.626	4147
805.768	4112
805.91	4227
806.052	4253
806.194	4173
806.336	4348
806.478	4242
806.62	4150
806.762	4150
806.904	4249
807.046	4341
807.188	4230
807.33	4181
807.472	4223
807.614	4196
807.756	4284
807.898	4238
808.04	4177
808.182	4268
808.324	4360
808.465	4371
808.607	4493
808.749	4428
808.891	4478
809.033	4485
809.174	4398
809.316	4249
809.458	4253
809.6	4192
809.741	4109
809.883	4177
810.025	4249
810.166	4234
810.308	4204
810.45	4257
810.591	4246
810.733	4314
810.875	4527
811.016	4873
811.158	5147
811.299	5277
811.441	5269
811.582	5067
811.724	4687
811.865	4470
812.007	4466
812.148	4451
812.29	4462
812.431	4409
812.573	4424
812.714	4375
812.855	4424
812.997	4421
813.138	4455
813.279	4451
813.421	4390
813.562	4329
813.703	4329
813.845	4363
813.986	4287
814.127	4219
814.268	4230
814.41	4287
814.551	4238
814.692	4333
814.833	4242
814.974	4314
815.115	4371
815.256	4246
815.397	4242
815.539	4284
815.68	4253
815.821	4234
815.962	4295
816.103	4265
816.244	4207
816.385	4238
816.526	4268
816.666	4215
816.807	4158
816.948	4188
817.089	4211
817.23	4128
817.371	4044
817.512	4032
817.653	4071
817.793	4071
817.934	4074
818.075	4112
818.216	4093
818.356	4109
818.497	4013
818.638	3884
818.778	3930
818.919	3888
819.06	3899
819.2	3937
819.341	3842
819.481	3819
819.622	3903
819.762	4029
819.903	3979
820.043	3838
820.184	3857
820.324	3797
820.465	3854
820.605	3854
820.746	3873
820.886	3808
821.026	3911
821.167	3930
821.307	3979
821.447	3975
821.588	3907
821.728	3979
821.868	3949
822.008	3854
822.149	3896
822.289	3888
822.429	3819
822.569	3736
822.709	3804
822.849	3663
822.99	3747
823.13	3732
823.27	3797
823.41	3701
823.55	3770
823.69	3724
823.83	3740
823.97	3679
824.11	3614
824.25	3614
824.389	3663
824.529	3648
824.669	3652
824.809	3686
824.949	3740
825.089	3728
825.228	3717
825.368	3572
825.508	3576
825.648	3553
825.787	3633
825.927	3637
826.067	3633
826.206	3679
826.346	3770
826.485	3804
826.625	3880
826.765	3918
826.904	3854
827.044	3576
827.183	3511
827.323	3466
827.462	3488
827.601	3447
827.741	3462
827.88	3469
828.02	3359
828.159	3477
828.298	3473
828.437	3515
828.577	3496
828.716	3591
828.855	3507
828.994	3374
829.134	3344
829.273	3409
829.412	3378
829.551	3351
829.69	3321
829.829	3435
829.968	3473
830.107	3416
830.246	3443
830.385	3378
830.524	3340
830.663	3317
830.802	3249
830.941	3222
831.08	3199
831.219	3253
831.357	3283
831.496	3405
831.635	3222
831.774	3180
831.913	3207
832.051	3150
832.19	3146
832.329	3199
832.467	3131
832.606	3108
832.744	3138
832.883	3169
833.022	3195
833.16	3302
833.299	3256
833.437	3351
833.576	3393
833.714	3397
833.852	3439
833.991	3447
834.129	3469
834.267	3412
834.406	3409
834.544	3420
834.682	3466
834.821	3393
834.959	3606
835.097	3424
835.235	3500
835.373	3500
835.511	3466
835.65	3477
835.788	3485
835.926	3412
836.064	3409
836.202	3462
836.34	3568
836.478	3622
836.615	3561
836.753	3603
836.891	3656
837.029	3610
837.167	3572
837.305	3534
837.443	3538
837.58	3523
837.718	3595
837.856	3564
837.993	3530
838.131	3595
838.269	3576
838.406	3603
838.544	3584
838.681	3492
838.819	3458
838.956	3367
839.094	3401
839.231	3420
839.369	3523
839.506	3724
839.643	3671
839.781	3523
839.918	3488
840.055	3545
840.193	3526
840.33	3545
840.467	3568
840.604	3618
840.742	3770
840.879	3564
841.016	3561
841.153	3614
841.29	3743
841.427	3740
841.564	3736
841.701	3751
841.838	3686
841.975	3724
842.112	3736
842.249	3637
842.385	3622
842.522	3876
842.659	3663
842.796	3675
842.933	3705
843.069	3736
843.206	3732
843.343	3778
843.479	3789
843.616	3797
843.752	3667
843.889	3644
844.025	3846
844.162	3720
844.298	3850
844.435	3774
844.571	3808
844.708	3850
844.844	3998
844.98	3949
845.117	3998
845.253	3937
845.389	3915
845.525	3945
845.661	3979
845.798	3937
845.934	4013
846.07	3937
846.206	4036
846.342	4120
846.478	4048
846.614	3949
846.75	3892
846.886	3880
847.022	4032
847.158	3968
847.294	3998
847.429	4040
847.565	3998
847.701	4204
847.837	3937
847.972	3865
848.108	3975
848.244	3983
848.379	3857
848.515	3816
848.65	3854
848.786	3876
848.921	3861
849.057	3876
849.192	3930
849.328	3930
849.463	3934
849.598	3907
849.734	3865
849.869	3838
850.004	3789
850.14	3800
850.275	3755
850.41	3762
850.545	3770
850.68	3774
850.815	3793
850.95	3770
851.085	3922
851.22	3861
851.355	3823
851.49	3789
851.625	3819
851.76	3797
851.895	3728
852.03	3728
852.165	3793
852.299	3835
852.434	3903
852.569	3896
852.703	3903
852.838	3953
852.973	4010
853.107	3983
853.242	3899
853.376	3907
853.511	3808
853.645	3838
853.78	3975
853.914	3934
854.048	3888
854.183	3850
854.317	3991
854.451	4063
854.585	3994
854.72	3953
854.854	4032
854.988	3934
855.122	4013
855.256	3945
855.39	4017
855.524	4082
855.658	4082
855.792	4154
855.926	4147
856.06	4150
856.194	4207
856.327	4143
856.461	4135
856.595	4188
856.729	4223
856.862	4284
856.996	4265
857.13	4303
857.263	4337
857.397	4371
857.53	4246
857.664	4344
857.797	4455
857.931	4421
858.064	4421
858.197	4436
858.331	4383
858.464	4379
858.597	4333
858.731	4443
858.864	4462
858.997	4436
859.13	4546
859.263	4542
859.396	4599
859.529	4546
859.662	4538
859.795	4519
859.928	4599
860.061	4752
860.194	4759
860.327	4634
860.46	4645
860.592	4733
860.725	4763
860.858	4778
860.99	4725
861.123	4710
861.256	4752
861.388	4702
861.521	5509
861.653	4649
861.786	4752
861.918	4694
862.05	4828
862.183	4805
862.315	4881
862.447	4923
862.58	4896
862.712	4824
862.844	4744
862.976	4873
863.108	4927
863.24	5204
863.372	4828
863.504	4862
863.636	4938
863.768	4957
863.9	4965
864.032	4965
864.164	4949
864.296	5022
864.428	5121
864.559	5109
864.691	5094
864.823	5113
864.954	5136
865.086	5155
865.217	5105
865.349	5117
865.48	5105
865.612	5239
865.743	5315
865.875	5159
866.006	5216
866.137	5246
866.269	5235
866.4	5288
866.531	5265
866.662	5204
866.793	5349
866.924	5299
867.055	5330
867.186	5322
867.317	5311
867.448	5318
867.579	5410
867.71	5406
867.841	5406
867.972	5493
868.103	5490
868.233	5471
868.364	5528
868.495	5566
868.625	5684
868.756	5821
868.886	5672
869.017	5676
869.147	5870
869.278	5923
869.408	5824
869.539	5836
869.669	5893
869.799	5882
869.929	5969
870.06	5980
870.19	6273
870.32	6216
870.45	6251
870.58	6281
870.71	6399
870.84	6547
870.97	6410
871.1	6418
871.23	6673
871.36	6681
871.489	6612
871.619	6814
871.749	6791
871.879	6859
872.008	7034
872.138	7004
872.267	7004
872.397	7012
872.526	7038
872.656	7110
872.785	7285
872.915	7362
873.044	7510
873.173	7594
873.303	7616
873.432	7734
873.561	7849
873.69	7909
873.819	8039
873.948	8229
874.077	8282
874.206	8309
874.335	8423
874.464	8651
874.593	8872
874.722	8937
874.851	9180
874.979	9237
875.108	9329
875.237	9519
875.365	9466
875.494	9652
875.623	9850
875.751	9892
875.88	9949
876.008	10116
876.136	10249
876.265	10523
876.393	10706
876.521	10740
876.65	10733
876.778	10828
876.906	10866
877.034	11018
877.162	11090
877.29	11162
877.418	11349
877.546	11349
877.674	11402
877.802	11524
877.93	11615
878.058	11554
878.185	11611
878.313	11581
878.441	11718
878.568	11638
878.696	11878
878.824	11851
878.951	11935
879.079	11999
879.206	12155
879.333	12049
879.461	12015
879.588	12133
879.715	12053
879.842	12186
879.97	12068
880.097	11916
880.224	11783
880.351	11897
880.478	11954
880.605	11920
880.732	11802
880.859	11961
880.986	11836
881.112	11832
881.239	11741
881.366	11619
881.493	11577
881.619	11497
881.746	11497
881.872	11577
881.999	11516
882.125	11490
882.252	11516
882.378	11539
882.505	11547
882.631	11383
882.757	11315
882.883	11337
883.01	11254
883.136	11273
883.262	11117
883.388	11060
883.514	11216
883.64	11193
883.766	11109
883.892	11010
884.018	11052
884.143	11056
884.269	11193
884.395	10930
884.52	10752
884.646	10858
884.772	10698
884.897	10637
885.023	10714
885.148	10706
885.274	10679
885.399	10725
885.524	10561
885.65	10637
885.775	10588
885.9	10527
886.025	10599
886.15	10592
886.275	10382
886.4	10402
886.525	10398
886.65	10440
886.775	10371
886.9	10512
887.025	10512
887.149	10390
887.274	10268
887.399	10185
887.523	10147
887.648	10135
887.773	10128
887.897	10200
888.021	10318
888.146	10169
888.27	10223
888.395	10139
888.519	10169
888.643	10128
888.767	10272
888.891	10093
889.015	10036
889.139	10032
889.263	9915
889.387	10082
889.511	10147
889.635	10090
889.759	9979
889.883	10048
890.006	9975
890.13	10101
890.254	9895
890.377	9998
890.501	9819
890.624	9865
890.748	9945
890.871	9800
890.995	9713
891.118	9713
891.241	9804
891.364	9759
891.488	9842
891.611	9675
891.734	9797
891.857	9766
891.98	9713
892.103	9857
892.226	9705
892.349	9682
892.471	9580
892.594	9610
892.717	9675
892.839	9622
892.962	9618
893.085	9644
893.207	9515
893.33	9542
893.452	9530
893.575	9625
893.697	9572
893.819	9641
893.941	9591
894.064	9580
894.186	9439
894.308	9439
894.43	9595
894.552	9603
894.674	9545
894.796	9416
894.918	9424
895.04	9332
895.161	9367
895.283	9306
895.405	9264
895.526	9291
895.648	9268
895.769	9218
895.891	9233
896.012	9378
896.134	9222
896.255	9173
896.376	9112
896.498	9165
896.619	9104
896.74	9116
896.861	9058
896.982	9218
897.103	9249
897.224	9176
897.345	9028
897.466	9043
897.587	9032
897.708	9123
897.828	8998
897.949	8967
898.07	8849
898.19	8975
898.311	9070
898.431	8887
898.552	8941
898.672	8986
898.792	8937
898.913	8899
899.033	8792
899.153	8697
899.273	8689
899.393	8705
899.513	8743
899.633	8739
899.753	8727
899.873	8762
899.993	8712
900.113	8731
900.232	8720
900.352	8663
900.472	8648
900.591	8590
900.711	8568
900.83	8507
900.95	8724
901.069	8682
901.189	8564
901.308	8442
901.427	8377
901.546	8465
901.665	8446
901.784	8442
901.904	8427
902.023	8351
902.141	8271
902.26	8221
902.379	8339
902.498	8271
902.617	8313
902.735	8309
902.854	8252
902.973	8286
903.091	8161
903.21	8145
903.328	8107
903.446	8081
903.565	8050
903.683	8130
903.801	8001
903.919	8183
904.038	8157
904.156	7993
904.274	8077
904.392	7997
904.51	8039
904.627	8096
904.745	8065
904.863	8126
904.981	7898
905.098	7845
905.216	7906
905.334	7967
905.451	7921
905.569	7890
905.686	7906
905.803	7917
905.921	7750
906.038	7860
906.155	7856
906.272	7666
906.389	7750
906.506	7616
906.623	7628
906.74	7506
906.857	7575
906.974	7590
907.091	7704
907.208	7719
907.324	7636
907.441	7613
907.557	7529
907.674	7434
907.79	7415
907.907	7434
908.023	7438
908.139	7407
908.256	7396
908.372	7392
908.488	7343
908.604	7312
908.72	7270
908.836	7354
908.952	7251
909.068	7293
909.184	7350
909.3	7259
909.415	7293
909.531	7350
909.647	7084
909.762	7152
909.878	7080
909.993	7088
910.108	7050
910.224	7110
910.339	7065
910.454	7057
910.57	6947
910.685	6962
910.8	7225
910.915	7012
911.03	6954
911.145	6894
911.259	6951
911.374	6844
911.489	6787
911.604	6764
911.718	6654
911.833	6734
911.947	6593
912.062	6627
912.176	6673
912.291	6711
912.405	6711
912.519	6783
912.633	6768
912.748	6688
912.862	6707
912.976	6616
913.09	6509
913.204	6616
913.318	6604
913.431	6696
913.545	6692
913.659	6681
913.772	6650
913.886	6608
914	6582
914.113	6646
914.226	6631
914.34	6646
914.453	6452
914.566	6555
914.68	6460
914.793	6494
914.906	6357
915.019	6376
915.132	6346
915.245	6384
915.358	6403
915.47	6471
915.583	6509
915.696	6456
915.809	6555
915.921	6597
916.034	6414
916.146	6418
916.259	6414
916.371	6475
916.483	6407
916.595	6388
916.708	6380
916.82	6369
916.932	6353
917.044	6384
917.156	6460
917.268	6300
917.38	6391
917.491	6311
917.603	6376
917.715	6391
917.826	6429
917.938	6353
918.049	6243
918.161	6410
918.272	6471
918.384	6410
918.495	6311
918.606	6315
918.717	6178
918.828	6292
918.939	6220
919.05	6194
919.161	6285
919.272	6136
919.383	6136
919.494	6346
919.604	6426
919.715	6254
919.826	6205
919.936	6277
920.047	6391
920.157	6285
920.267	6479
920.378	6334
920.488	6308
920.598	6418
920.708	6563
920.818	6445
920.928	6506
921.038	6563
921.148	6578
921.258	6403
921.368	6258
921.477	6239
921.587	6213
921.697	6129
921.806	6129
921.916	6087
922.025	5954
922.134	5961
922.244	5904
922.353	5908
922.462	5844
922.571	5824
922.68	5707
922.789	5714
922.898	5676
923.007	5615
923.116	5680
923.224	5668
923.333	5695
923.442	5592
923.55	5604
923.659	5592
923.767	5646
923.876	5535
923.984	5592
924.092	5520
924.201	5520
924.309	5520
924.417	5566
924.525	5440
924.633	5509
924.741	6159
924.849	5433
924.956	5471
925.064	5360
925.172	5315
925.279	5258
925.387	5376
925.494	5307
925.602	5406
925.709	5349
925.816	5303
925.924	5322
926.031	5360
926.138	5311
926.245	5341
926.352	5277
926.459	5299
926.566	5311
926.673	5242
926.779	5132
926.886	5098
926.993	5083
927.099	5041
927.206	5018
927.312	4965
927.419	4961
927.525	4927
927.631	4976
927.737	4949
927.843	4896
927.95	4763
928.056	4843
928.162	4828
928.267	4820
928.373	5345
928.479	4850
928.585	4687
928.69	4759
928.796	4778
928.901	4691
929.007	4596
929.112	4645
929.218	4630
929.323	4637
929.428	4554
929.533	4702
929.638	4493
929.743	4573
929.848	4538
929.953	4512
930.058	4443
930.163	4314
930.267	4379
930.372	4443
930.477	4322
930.581	4447
930.685	4367
930.79	4253
930.894	4295
930.998	4234
931.103	4402
931.207	4166
931.311	4105
931.415	4051
931.519	3915
931.623	3907
