Data from glass_V78500241_2249.txt Node
Date: Wed Sep 01 19:30:05 CST 2021
User: usil
Spectrometer: V785-0024
Trigger mode: 0
Integration Time (sec): 4.000000E-1
Scans to average: 1
Nonlinearity correction enabled: false
Boxcar width: 0
Storing dark spectrum: false
XAxis mode: Wavelengths
Number of Pixels in Spectrum: 1024
>>>>>Begin Spectral Data<<<<<
801.071	3747
801.214	3781
801.356	3713
801.499	3740
801.641	3724
801.783	3759
801.926	3854
802.068	3838
802.211	3842
802.353	3865
802.496	3865
802.638	3861
802.78	3903
802.923	3922
803.065	3861
803.208	3827
803.35	3850
803.492	3915
803.635	3926
803.777	3766
803.919	3941
804.061	4139
804.204	3979
804.346	3972
804.488	3915
804.63	4059
804.773	3968
804.915	4071
805.057	4131
805.199	4021
805.341	4101
805.483	4128
805.626	4101
805.768	4166
805.91	4230
806.052	4230
806.194	4192
806.336	4383
806.478	4223
806.62	4192
806.762	4234
806.904	4246
807.046	4367
807.188	4219
807.33	4166
807.472	4219
807.614	4177
807.756	4253
807.898	4215
808.04	4207
808.182	4223
808.324	4306
808.465	4367
808.607	4443
808.749	4485
808.891	4447
809.033	4481
809.174	4409
809.316	4230
809.458	4207
809.6	4120
809.741	4131
809.883	4143
810.025	4158
810.166	4169
810.308	4200
810.45	4215
810.591	4196
810.733	4284
810.875	4531
811.016	4809
811.158	5136
811.299	5261
811.441	5288
811.582	5083
811.724	4679
811.865	4447
812.007	4497
812.148	4443
812.29	4428
812.431	4386
812.573	4428
812.714	4360
812.855	4447
812.997	4443
813.138	4459
813.279	4371
813.421	4356
813.562	4348
813.703	4299
813.845	4322
813.986	4265
814.127	4227
814.268	4253
814.41	4299
814.551	4253
814.692	4257
814.833	4204
814.974	4314
815.115	4333
815.256	4265
815.397	4196
815.539	4200
815.68	4162
815.821	4147
815.962	4310
816.103	4295
816.244	4230
816.385	4219
816.526	4261
816.666	4173
816.807	4139
816.948	4143
817.089	4158
817.23	4154
817.371	4040
817.512	4032
817.653	4063
817.793	4013
817.934	4036
818.075	4101
818.216	4055
818.356	4112
818.497	3998
818.638	3869
818.778	3937
818.919	3873
819.06	3861
819.2	3888
819.341	3880
819.481	3800
819.622	3907
819.762	3998
819.903	3949
820.043	3842
820.184	3819
820.324	3770
820.465	3854
820.605	3873
820.746	3880
820.886	3785
821.026	3926
821.167	3907
821.307	3945
821.447	3968
821.588	3960
821.728	3934
821.868	3960
822.008	3838
822.149	3899
822.289	3888
822.429	3800
822.569	3816
822.709	3781
822.849	3675
822.99	3740
823.13	3743
823.27	3797
823.41	3709
823.55	3679
823.69	3694
823.83	3732
823.97	3656
824.11	3663
824.25	3603
824.389	3614
824.529	3698
824.669	3629
824.809	3709
824.949	3747
825.089	3732
825.228	3701
825.368	3610
825.508	3595
825.648	3580
825.787	3580
825.927	3587
826.067	3618
826.206	3641
826.346	3778
826.485	3823
826.625	3892
826.765	3937
826.904	3816
827.044	3629
827.183	3530
827.323	3382
827.462	3519
827.601	3393
827.741	3405
827.88	3443
828.02	3370
828.159	3462
828.298	3485
828.437	3500
828.577	3466
828.716	3568
828.855	3431
828.994	3420
829.134	3393
829.273	3370
829.412	3325
829.551	3325
829.69	3332
829.829	3424
829.968	3507
830.107	3469
830.246	3485
830.385	3401
830.524	3302
830.663	3279
830.802	3230
830.941	3176
831.08	3226
831.219	3260
831.357	3264
831.496	3393
831.635	3241
831.774	3188
831.913	3230
832.051	3127
832.19	3146
832.329	3211
832.467	3108
832.606	3100
832.744	3150
832.883	3176
833.022	3199
833.16	3253
833.299	3272
833.437	3310
833.576	3340
833.714	3420
833.852	3409
833.991	3416
834.129	3488
834.267	3431
834.406	3412
834.544	3428
834.682	3439
834.821	3329
834.959	3534
835.097	3401
835.235	3526
835.373	3496
835.511	3481
835.65	3454
835.788	3458
835.926	3405
836.064	3389
836.202	3409
836.34	3515
836.478	3618
836.615	3553
836.753	3553
836.891	3637
837.029	3625
837.167	3545
837.305	3515
837.443	3538
837.58	3485
837.718	3572
837.856	3568
837.993	3507
838.131	3599
838.269	3603
838.406	3557
838.544	3568
838.681	3473
838.819	3466
838.956	3386
839.094	3401
839.231	3435
839.369	3545
839.506	3679
839.643	3656
839.781	3454
839.918	3450
840.055	3538
840.193	3515
840.33	3538
840.467	3557
840.604	3595
840.742	3789
840.879	3542
841.016	3523
841.153	3576
841.29	3717
841.427	3751
841.564	3724
841.701	3682
841.838	3686
841.975	3690
842.112	3709
842.249	3622
842.385	3591
842.522	3812
842.659	3675
842.796	3671
842.933	3720
843.069	3720
843.206	3701
843.343	3804
843.479	3785
843.616	3800
843.752	3648
843.889	3652
844.025	3846
844.162	3720
844.298	3816
844.435	3774
844.571	3751
844.708	3964
844.844	3983
844.98	4029
845.117	4010
845.253	3964
845.389	3911
845.525	3949
845.661	3964
845.798	3896
845.934	3956
846.07	3964
846.206	4017
846.342	4086
846.478	4071
846.614	3964
846.75	3926
846.886	3903
847.022	4040
847.158	3956
847.294	4017
847.429	3994
847.565	3979
847.701	4249
847.837	3850
847.972	3869
848.108	3991
848.244	3991
848.379	3827
848.515	3831
848.65	3842
848.786	3854
848.921	3823
849.057	3941
849.192	3945
849.328	3884
849.463	3945
849.598	3838
849.734	3800
849.869	3797
850.004	3781
850.14	3812
850.275	3740
850.41	3736
850.545	3755
850.68	3759
850.815	3770
850.95	3759
851.085	3949
851.22	3850
851.355	3812
851.49	3781
851.625	3785
851.76	3770
851.895	3686
852.03	3717
852.165	3808
852.299	3835
852.434	3854
852.569	3831
852.703	3880
852.838	3918
852.973	3983
853.107	4025
853.242	3884
853.376	3819
853.511	3800
853.645	3812
853.78	3922
853.914	3880
854.048	3880
854.183	3854
854.317	3960
854.451	4067
854.585	3930
854.72	3884
854.854	4074
854.988	3892
855.122	3987
855.256	3884
855.39	4040
855.524	4112
855.658	4048
855.792	4082
855.926	4143
856.06	4147
856.194	4211
856.327	4139
856.461	4169
856.595	4131
856.729	4181
856.862	4246
856.996	4234
857.13	4303
857.263	4261
857.397	4375
857.53	4295
857.664	4337
857.797	4383
857.931	4402
858.064	4375
858.197	4421
858.331	4344
858.464	4352
858.597	4363
858.731	4462
858.864	4443
858.997	4421
859.13	4459
859.263	4523
859.396	4592
859.529	4558
859.662	4550
859.795	4542
859.928	4580
860.061	4706
860.194	4755
860.327	4653
860.46	4596
860.592	4774
860.725	4752
860.858	4736
860.99	4714
861.123	4660
861.256	4714
861.388	4698
861.521	5288
861.653	4710
861.786	4698
861.918	4744
862.05	4793
862.183	4820
862.315	4885
862.447	4873
862.58	4900
862.712	4793
862.844	4782
862.976	4847
863.108	4835
863.24	5136
863.372	4793
863.504	4904
863.636	4934
863.768	4972
863.9	4949
864.032	4847
864.164	4938
864.296	4995
864.428	5086
864.559	5094
864.691	5140
864.823	5174
864.954	5151
865.086	5098
865.217	5113
865.349	5113
865.48	5140
865.612	5189
865.743	5265
865.875	5174
866.006	5178
866.137	5178
866.269	5254
866.4	5223
866.531	5280
866.662	5239
866.793	5277
866.924	5269
867.055	5353
867.186	5273
867.317	5307
867.448	5284
867.579	5334
867.71	5410
867.841	5406
867.972	5463
868.103	5478
868.233	5493
868.364	5509
868.495	5528
868.625	5672
868.756	5737
868.886	5657
869.017	5714
869.147	5771
869.278	5844
869.408	5836
869.539	5844
869.669	5904
869.799	5939
869.929	5923
870.06	5984
870.19	6175
870.32	6167
870.45	6243
870.58	6384
870.71	6372
870.84	6445
870.97	6372
871.1	6452
871.23	6612
871.36	6684
871.489	6692
871.619	6730
871.749	6791
871.879	6878
872.008	6966
872.138	6966
872.267	7008
872.397	6966
872.526	7004
872.656	7164
872.785	7206
872.915	7369
873.044	7552
873.173	7571
873.303	7636
873.432	7753
873.561	7871
873.69	7799
873.819	7989
873.948	8161
874.077	8263
874.206	8290
874.335	8495
874.464	8655
874.593	8842
874.722	8960
874.851	9104
874.979	9195
875.108	9367
875.237	9431
875.365	9526
875.494	9633
875.623	9800
875.751	9831
875.88	9983
876.008	10154
876.136	10333
876.265	10512
876.393	10672
876.521	10653
876.65	10801
876.778	10930
876.906	10862
877.034	11037
877.162	11064
877.29	11117
877.418	11280
877.546	11334
877.674	11497
877.802	11459
877.93	11532
878.058	11497
878.185	11528
878.313	11691
878.441	11672
878.568	11649
878.696	11786
878.824	11851
878.951	12030
879.079	11958
879.206	12117
879.333	12098
879.461	12045
879.588	11996
879.715	12034
879.842	12228
879.97	12095
880.097	11889
880.224	11855
880.351	11920
880.478	11870
880.605	11866
880.732	11840
880.859	11996
880.986	11798
881.112	11783
881.239	11771
881.366	11623
881.493	11619
881.619	11554
881.746	11619
881.872	11509
881.999	11501
882.125	11516
882.252	11440
882.378	11532
882.505	11646
882.631	11261
882.757	11269
882.883	11269
883.01	11246
883.136	11189
883.262	11067
883.388	11045
883.514	11193
883.64	11178
883.766	11037
883.892	10984
884.018	10847
884.143	11109
884.269	11155
884.395	10831
884.52	10862
884.646	10778
884.772	10702
884.897	10622
885.023	10656
885.148	10717
885.274	10721
885.399	10710
885.524	10641
885.65	10527
885.775	10516
885.9	10485
886.025	10611
886.15	10550
886.275	10409
886.4	10356
886.525	10421
886.65	10424
886.775	10314
886.9	10428
887.025	10504
887.149	10337
887.274	10261
887.399	10131
887.523	10284
887.648	10105
887.773	10044
887.897	10215
888.021	10280
888.146	10074
888.27	10169
888.395	10272
888.519	10200
888.643	10158
888.767	10112
888.891	10032
889.015	10040
889.139	10059
889.263	9975
889.387	10048
889.511	10162
889.635	10097
889.759	9926
889.883	10006
890.006	10017
890.13	10078
890.254	9945
890.377	9968
890.501	9899
890.624	9823
890.748	9915
890.871	9770
890.995	9728
891.118	9698
891.241	9709
891.364	9740
891.488	9911
891.611	9747
891.734	9751
891.857	9789
891.98	9671
892.103	9808
892.226	9740
892.349	9705
892.471	9534
892.594	9545
892.717	9610
892.839	9576
892.962	9591
893.085	9561
893.207	9584
893.33	9466
893.452	9538
893.575	9595
893.697	9584
893.819	9618
893.941	9564
894.064	9637
894.186	9481
894.308	9420
894.43	9576
894.552	9534
894.674	9591
894.796	9458
894.918	9348
895.04	9291
895.161	9416
895.283	9329
895.405	9264
895.526	9306
895.648	9203
895.769	9253
895.891	9321
896.012	9214
896.134	9237
896.255	9176
896.376	9154
896.498	9226
896.619	9188
896.74	9013
896.861	9077
896.982	9237
897.103	9321
897.224	9138
897.345	9024
897.466	8986
897.587	8986
897.708	9081
897.828	9017
897.949	8933
898.07	8864
898.19	8899
898.311	8994
898.431	8906
898.552	8849
898.672	8944
898.792	8960
898.913	8891
899.033	8746
899.153	8705
899.273	8674
899.393	8716
899.513	8701
899.633	8739
899.753	8712
899.873	8648
899.993	8716
900.113	8598
900.232	8674
900.352	8644
900.472	8568
900.591	8503
900.711	8667
900.83	8583
900.95	8651
901.069	8686
901.189	8598
901.308	8355
901.427	8381
901.546	8400
901.665	8457
901.784	8415
901.904	8358
902.023	8370
902.141	8183
902.26	8195
902.379	8275
902.498	8225
902.617	8229
902.735	8282
902.854	8275
902.973	8282
903.091	8153
903.21	8134
903.328	8187
903.446	8058
903.565	7986
903.683	8069
903.801	8062
903.919	8084
904.038	8069
904.156	7955
904.274	8069
904.392	8020
904.51	7982
904.627	8016
904.745	8100
904.863	8123
904.981	7909
905.098	7879
905.216	7868
905.334	7936
905.451	7928
905.569	7875
905.686	7925
905.803	7799
905.921	7784
906.038	7765
906.155	7792
906.272	7738
906.389	7738
906.506	7639
906.623	7632
906.74	7628
906.857	7567
906.974	7578
907.091	7696
907.208	7681
907.324	7586
907.441	7563
907.557	7514
907.674	7407
907.79	7407
907.907	7377
908.023	7453
908.139	7411
908.256	7289
908.372	7362
908.488	7331
908.604	7194
908.72	7259
908.836	7316
908.952	7305
909.068	7225
909.184	7297
909.3	7232
909.415	7259
909.531	7259
909.647	7076
909.762	7072
909.878	7053
909.993	7095
910.108	7050
910.224	7065
910.339	7080
910.454	7046
910.57	7004
910.685	6973
910.8	7179
910.915	7141
911.03	7023
911.145	6905
911.259	6783
911.374	6852
911.489	6818
911.604	6719
911.718	6696
911.833	6779
911.947	6597
912.062	6654
912.176	6669
912.291	6726
912.405	6669
912.519	6848
912.633	6867
912.748	6734
912.862	6703
912.976	6559
913.09	6551
913.204	6555
913.318	6570
913.431	6616
913.545	6669
913.659	6658
913.772	6639
913.886	6547
914	6555
914.113	6635
914.226	6639
914.34	6593
914.453	6494
914.566	6540
914.68	6544
914.793	6467
914.906	6350
915.019	6410
915.132	6384
915.245	6422
915.358	6452
915.47	6445
915.583	6460
915.696	6479
915.809	6479
915.921	6528
916.034	6437
916.146	6346
916.259	6323
916.371	6445
916.483	6471
916.595	6414
916.708	6380
916.82	6376
916.932	6350
917.044	6426
917.156	6376
917.268	6296
917.38	6292
917.491	6308
917.603	6289
917.715	6334
917.826	6433
917.938	6357
918.049	6251
918.161	6289
918.272	6353
918.384	6418
918.495	6395
918.606	6251
918.717	6258
918.828	6243
918.939	6308
919.05	6175
919.161	6239
919.272	6136
919.383	6064
919.494	6323
919.604	6456
919.715	6254
919.826	6194
919.936	6235
920.047	6357
920.157	6292
920.267	6418
920.378	6273
920.488	6224
920.598	6464
920.708	6563
920.818	6441
920.928	6433
921.038	6608
921.148	6475
921.258	6369
921.368	6315
921.477	6175
921.587	6091
921.697	6087
921.806	6167
921.916	6102
922.025	5942
922.134	5931
922.244	5920
922.353	5927
922.462	5783
922.571	5714
922.68	5661
922.789	5665
922.898	5665
923.007	5642
923.116	5684
923.224	5615
923.333	5649
923.442	5646
923.55	5554
923.659	5646
923.767	5615
923.876	5512
923.984	5581
924.092	5524
924.201	5547
924.309	5535
924.417	5566
924.525	5520
924.633	5524
924.741	6277
924.849	5353
924.956	5482
925.064	5337
925.172	5280
925.279	5357
925.387	5398
925.494	5288
925.602	5383
925.709	5376
925.816	5280
925.924	5353
926.031	5383
926.138	5345
926.245	5326
926.352	5212
926.459	5288
926.566	5349
926.673	5193
926.779	5155
926.886	5094
926.993	5018
927.099	5003
927.206	4923
927.312	4949
927.419	4946
927.525	4923
927.631	4999
927.737	4873
927.843	4831
927.95	4790
928.056	4850
928.162	4816
928.267	4820
928.373	5360
928.479	4862
928.585	4691
928.69	4675
928.796	4740
928.901	4725
929.007	4603
929.112	4694
929.218	4641
929.323	4618
929.428	4519
929.533	4679
929.638	4504
929.743	4542
929.848	4607
929.953	4443
930.058	4386
930.163	4299
930.267	4383
930.372	4459
930.477	4276
930.581	4474
930.685	4356
930.79	4272
930.894	4306
930.998	4287
931.103	4348
931.207	4120
931.311	4093
931.415	4082
931.519	3888
931.623	3953
