Data from glass_V78500241_2140.txt Node
Date: Wed Sep 01 19:29:20 CST 2021
User: usil
Spectrometer: V785-0024
Trigger mode: 0
Integration Time (sec): 4.000000E-1
Scans to average: 1
Nonlinearity correction enabled: false
Boxcar width: 0
Storing dark spectrum: false
XAxis mode: Wavelengths
Number of Pixels in Spectrum: 1024
>>>>>Begin Spectral Data<<<<<
801.071	3747
801.214	3778
801.356	3740
801.499	3709
801.641	3732
801.783	3804
801.926	3819
802.068	3797
802.211	3812
802.353	3869
802.496	3846
802.638	3930
802.78	3850
802.923	3903
803.065	3861
803.208	3827
803.35	3869
803.492	3907
803.635	3937
803.777	3751
803.919	3892
804.061	4154
804.204	3960
804.346	3987
804.488	3953
804.63	3998
804.773	3956
804.915	4006
805.057	4116
805.199	4063
805.341	4078
805.483	4128
805.626	4128
805.768	4120
805.91	4204
806.052	4253
806.194	4173
806.336	4386
806.478	4246
806.62	4169
806.762	4192
806.904	4204
807.046	4295
807.188	4192
807.33	4192
807.472	4234
807.614	4177
807.756	4265
807.898	4238
808.04	4204
808.182	4299
808.324	4303
808.465	4348
808.607	4443
808.749	4436
808.891	4440
809.033	4504
809.174	4367
809.316	4257
809.458	4227
809.6	4128
809.741	4166
809.883	4150
810.025	4204
810.166	4177
810.308	4196
810.45	4207
810.591	4249
810.733	4303
810.875	4481
811.016	4786
811.158	5105
811.299	5254
811.441	5299
811.582	5052
811.724	4679
811.865	4459
812.007	4489
812.148	4421
812.29	4386
812.431	4443
812.573	4398
812.714	4325
812.855	4409
812.997	4386
813.138	4470
813.279	4405
813.421	4375
813.562	4333
813.703	4310
813.845	4329
813.986	4234
814.127	4158
814.268	4253
814.41	4276
814.551	4276
814.692	4337
814.833	4246
814.974	4322
815.115	4356
815.256	4230
815.397	4200
815.539	4238
815.68	4154
815.821	4181
815.962	4276
816.103	4272
816.244	4215
816.385	4272
816.526	4337
816.666	4192
816.807	4078
816.948	4128
817.089	4124
817.23	4109
817.371	4067
817.512	4002
817.653	4086
817.793	3987
817.934	4048
818.075	4112
818.216	4032
818.356	4051
818.497	3987
818.638	3880
818.778	3838
818.919	3846
819.06	3865
819.2	3918
819.341	3854
819.481	3816
819.622	3888
819.762	3994
819.903	3941
820.043	3888
820.184	3785
820.324	3857
820.465	3880
820.605	3876
820.746	3831
820.886	3774
821.026	3926
821.167	3949
821.307	3983
821.447	3956
821.588	3937
821.728	3926
821.868	3953
822.008	3812
822.149	3930
822.289	3926
822.429	3759
822.569	3755
822.709	3785
822.849	3736
822.99	3732
823.13	3724
823.27	3797
823.41	3717
823.55	3701
823.69	3694
823.83	3740
823.97	3660
824.11	3614
824.25	3595
824.389	3622
824.529	3679
824.669	3622
824.809	3690
824.949	3759
825.089	3698
825.228	3698
825.368	3572
825.508	3530
825.648	3595
825.787	3614
825.927	3599
826.067	3663
826.206	3682
826.346	3743
826.485	3808
826.625	3869
826.765	3930
826.904	3831
827.044	3606
827.183	3542
827.323	3412
827.462	3511
827.601	3450
827.741	3420
827.88	3488
828.02	3386
828.159	3409
828.298	3488
828.437	3492
828.577	3439
828.716	3606
828.855	3473
828.994	3374
829.134	3378
829.273	3367
829.412	3332
829.551	3321
829.69	3409
829.829	3420
829.968	3496
830.107	3412
830.246	3462
830.385	3367
830.524	3386
830.663	3294
830.802	3237
830.941	3188
831.08	3199
831.219	3268
831.357	3253
831.496	3466
831.635	3230
831.774	3211
831.913	3169
832.051	3138
832.19	3119
832.329	3211
832.467	3089
832.606	3119
832.744	3157
832.883	3165
833.022	3165
833.16	3260
833.299	3310
833.437	3325
833.576	3340
833.714	3386
833.852	3428
833.991	3409
834.129	3450
834.267	3405
834.406	3420
834.544	3447
834.682	3359
834.821	3401
834.959	3568
835.097	3435
835.235	3511
835.373	3469
835.511	3439
835.65	3431
835.788	3496
835.926	3363
836.064	3382
836.202	3420
836.34	3545
836.478	3656
836.615	3549
836.753	3576
836.891	3595
837.029	3587
837.167	3534
837.305	3572
837.443	3504
837.58	3492
837.718	3561
837.856	3584
837.993	3534
838.131	3606
838.269	3584
838.406	3564
838.544	3526
838.681	3473
838.819	3469
838.956	3382
839.094	3325
839.231	3439
839.369	3542
839.506	3743
839.643	3671
839.781	3500
839.918	3469
840.055	3500
840.193	3519
840.33	3504
840.467	3561
840.604	3618
840.742	3770
840.879	3507
841.016	3580
841.153	3557
841.29	3705
841.427	3728
841.564	3679
841.701	3736
841.838	3717
841.975	3656
842.112	3705
842.249	3629
842.385	3648
842.522	3846
842.659	3686
842.796	3648
842.933	3717
843.069	3705
843.206	3679
843.343	3789
843.479	3759
843.616	3785
843.752	3728
843.889	3679
844.025	3869
844.162	3705
844.298	3831
844.435	3797
844.571	3789
844.708	3888
844.844	3975
844.98	3991
845.117	4010
845.253	3941
845.389	3903
845.525	3964
845.661	3994
845.798	3926
845.934	4006
846.07	3964
846.206	4044
846.342	4105
846.478	4013
846.614	3987
846.75	3945
846.886	3907
847.022	4032
847.158	3960
847.294	3998
847.429	3991
847.565	3972
847.701	4257
847.837	3842
847.972	3846
848.108	3979
848.244	3994
848.379	3850
848.515	3797
848.65	3774
848.786	3812
848.921	3907
849.057	3911
849.192	3941
849.328	3899
849.463	3911
849.598	3861
849.734	3869
849.869	3842
850.004	3766
850.14	3812
850.275	3781
850.41	3717
850.545	3736
850.68	3774
850.815	3797
850.95	3774
851.085	3937
851.22	3835
851.355	3800
851.49	3743
851.625	3800
851.76	3781
851.895	3724
852.03	3747
852.165	3823
852.299	3816
852.434	3884
852.569	3846
852.703	3926
852.838	3903
852.973	4010
853.107	3991
853.242	3865
853.376	3808
853.511	3793
853.645	3827
853.78	3968
853.914	3926
854.048	3884
854.183	3903
854.317	3934
854.451	3994
854.585	3956
854.72	3899
854.854	4067
854.988	3941
855.122	3972
855.256	3857
855.39	3953
855.524	4112
855.658	4120
855.792	4120
855.926	4109
856.06	4112
856.194	4223
856.327	4131
856.461	4067
856.595	4147
856.729	4162
856.862	4303
856.996	4234
857.13	4299
857.263	4360
857.397	4371
857.53	4284
857.664	4383
857.797	4386
857.931	4390
858.064	4360
858.197	4432
858.331	4402
858.464	4402
858.597	4314
858.731	4417
858.864	4478
858.997	4451
859.13	4516
859.263	4523
859.396	4599
859.529	4451
859.662	4470
859.795	4519
859.928	4596
860.061	4664
860.194	4725
860.327	4691
860.46	4615
860.592	4759
860.725	4774
860.858	4763
860.99	4706
861.123	4702
861.256	4733
861.388	4721
861.521	5395
861.653	4714
861.786	4740
861.918	4721
862.05	4778
862.183	4835
862.315	4831
862.447	4896
862.58	4873
862.712	4786
862.844	4759
862.976	4850
863.108	4870
863.24	5136
863.372	4847
863.504	4866
863.636	4858
863.768	4949
863.9	4976
864.032	4866
864.164	4938
864.296	5033
864.428	5048
864.559	5041
864.691	5086
864.823	5102
864.954	5113
865.086	5113
865.217	5128
865.349	5098
865.48	5155
865.612	5185
865.743	5318
865.875	5220
866.006	5170
866.137	5227
866.269	5242
866.4	5265
866.531	5269
866.662	5231
866.793	5280
866.924	5250
867.055	5326
867.186	5337
867.317	5326
867.448	5318
867.579	5368
867.71	5383
867.841	5368
867.972	5474
868.103	5452
868.233	5505
868.364	5490
868.495	5566
868.625	5710
868.756	5783
868.886	5653
869.017	5718
869.147	5866
869.278	5866
869.408	5805
869.539	5821
869.669	5897
869.799	5889
869.929	5946
870.06	5988
870.19	6182
870.32	6175
870.45	6258
870.58	6319
870.71	6384
870.84	6418
870.97	6357
871.1	6464
871.23	6620
871.36	6684
871.489	6673
871.619	6719
871.749	6802
871.879	6882
872.008	7012
872.138	6943
872.267	6954
872.397	6962
872.526	7023
872.656	7126
872.785	7156
872.915	7343
873.044	7533
873.173	7506
873.303	7586
873.432	7643
873.561	7841
873.69	7890
873.819	8054
873.948	8180
874.077	8187
874.206	8248
874.335	8499
874.464	8701
874.593	8815
874.722	8971
874.851	9097
874.979	9237
875.108	9329
875.237	9412
875.365	9523
875.494	9644
875.623	9778
875.751	9759
875.88	9994
876.008	10139
876.136	10291
876.265	10485
876.393	10675
876.521	10714
876.65	10820
876.778	10900
876.906	10889
877.034	10942
877.162	11086
877.29	11143
877.418	11277
877.546	11398
877.674	11391
877.802	11452
877.93	11543
878.058	11535
878.185	11516
878.313	11638
878.441	11733
878.568	11722
878.696	11878
878.824	11889
878.951	11931
879.079	11980
879.206	12102
879.333	12053
879.461	11996
879.588	12038
879.715	12045
879.842	12190
879.97	12083
880.097	11927
880.224	11866
880.351	11923
880.478	11889
880.605	11859
880.732	11783
880.859	11996
880.986	11805
881.112	11840
881.239	11676
881.366	11573
881.493	11627
881.619	11482
881.746	11585
881.872	11535
881.999	11520
882.125	11493
882.252	11581
882.378	11551
882.505	11532
882.631	11299
882.757	11356
882.883	11356
883.01	11277
883.136	11147
883.262	11140
883.388	11056
883.514	11162
883.64	11185
883.766	11067
883.892	11067
884.018	10995
884.143	11143
884.269	11094
884.395	10854
884.52	10744
884.646	10687
884.772	10679
884.897	10698
885.023	10645
885.148	10683
885.274	10736
885.399	10702
885.524	10588
885.65	10607
885.775	10565
885.9	10683
886.025	10580
886.15	10611
886.275	10443
886.4	10360
886.525	10405
886.65	10382
886.775	10436
886.9	10382
887.025	10561
887.149	10371
887.274	10257
887.399	10227
887.523	10158
887.648	10162
887.773	10032
887.897	10185
888.021	10230
888.146	10147
888.27	10295
888.395	10173
888.519	10173
888.643	10147
888.767	10192
888.891	10154
889.015	9994
889.139	10082
889.263	10013
889.387	10036
889.511	10067
889.635	10059
889.759	9994
889.883	9964
890.006	10048
890.13	10071
890.254	9945
890.377	10032
890.501	9819
890.624	9899
890.748	9922
890.871	9774
890.995	9751
891.118	9698
891.241	9759
891.364	9759
891.488	9873
891.611	9819
891.734	9720
891.857	9808
891.98	9751
892.103	9751
892.226	9736
892.349	9663
892.471	9500
892.594	9591
892.717	9637
892.839	9599
892.962	9534
893.085	9667
893.207	9606
893.33	9488
893.452	9561
893.575	9603
893.697	9428
893.819	9542
893.941	9580
894.064	9618
894.186	9416
894.308	9386
894.43	9466
894.552	9595
894.674	9462
894.796	9389
894.918	9428
895.04	9332
895.161	9428
895.283	9321
895.405	9192
895.526	9279
895.648	9173
895.769	9230
895.891	9306
896.012	9313
896.134	9180
896.255	9161
896.376	9138
896.498	9184
896.619	9135
896.74	9017
896.861	9077
896.982	9211
897.103	9359
897.224	9135
897.345	9127
897.466	8944
897.587	9020
897.708	9066
897.828	8971
897.949	8918
898.07	8845
898.19	8929
898.311	9043
898.431	8914
898.552	8906
898.672	8960
898.792	8925
898.913	8914
899.033	8743
899.153	8792
899.273	8663
899.393	8720
899.513	8720
899.633	8674
899.753	8701
899.873	8617
899.993	8705
900.113	8735
900.232	8708
900.352	8606
900.472	8583
900.591	8499
900.711	8613
900.83	8533
900.95	8606
901.069	8689
901.189	8598
901.308	8389
901.427	8431
901.546	8461
901.665	8457
901.784	8488
901.904	8385
902.023	8282
902.141	8233
902.26	8244
902.379	8305
902.498	8202
902.617	8218
902.735	8244
902.854	8267
902.973	8309
903.091	8103
903.21	8142
903.328	8210
903.446	8058
903.565	8046
903.683	8157
903.801	7974
903.919	8119
904.038	8138
904.156	8001
904.274	8050
904.392	8054
904.51	7982
904.627	8001
904.745	8119
904.863	8077
904.981	7917
905.098	7879
905.216	7875
905.334	7887
905.451	7932
905.569	7883
905.686	7898
905.803	7902
905.921	7792
906.038	7792
906.155	7776
906.272	7704
906.389	7693
906.506	7677
906.623	7624
906.74	7582
906.857	7537
906.974	7544
907.091	7594
907.208	7753
907.324	7628
907.441	7521
907.557	7441
907.674	7381
907.79	7384
907.907	7400
908.023	7441
908.139	7426
908.256	7400
908.372	7301
908.488	7362
908.604	7255
908.72	7179
908.836	7206
908.952	7232
909.068	7274
909.184	7308
909.3	7217
909.415	7266
909.531	7308
909.647	7141
909.762	7080
909.878	7091
909.993	7076
910.108	7095
910.224	7110
910.339	7053
910.454	7012
910.57	6962
910.685	6928
910.8	7187
910.915	7149
911.03	7084
911.145	6920
911.259	6837
911.374	6901
911.489	6795
911.604	6806
911.718	6711
911.833	6741
911.947	6669
912.062	6623
912.176	6642
912.291	6738
912.405	6681
912.519	6806
912.633	6825
912.748	6711
912.862	6711
912.976	6582
913.09	6601
913.204	6597
913.318	6639
913.431	6719
913.545	6627
913.659	6726
913.772	6601
913.886	6547
914	6521
914.113	6627
914.226	6658
914.34	6589
914.453	6525
914.566	6582
914.68	6544
914.793	6525
914.906	6414
915.019	6369
915.132	6384
915.245	6429
915.358	6388
915.47	6437
915.583	6429
915.696	6452
915.809	6467
915.921	6536
916.034	6407
916.146	6365
916.259	6384
916.371	6429
916.483	6445
916.595	6380
916.708	6407
916.82	6342
916.932	6350
917.044	6403
917.156	6391
917.268	6338
917.38	6338
917.491	6315
917.603	6331
917.715	6353
917.826	6414
917.938	6331
918.049	6281
918.161	6319
918.272	6422
918.384	6395
918.495	6353
918.606	6213
918.717	6186
918.828	6266
918.939	6228
919.05	6182
919.161	6243
919.272	6121
919.383	6167
919.494	6281
919.604	6342
919.715	6308
919.826	6243
919.936	6277
920.047	6365
920.157	6308
920.267	6464
920.378	6319
920.488	6273
920.598	6426
920.708	6559
920.818	6441
920.928	6452
921.038	6570
921.148	6540
921.258	6342
921.368	6270
921.477	6194
921.587	6175
921.697	6068
921.806	6205
921.916	6114
922.025	5935
922.134	5889
922.244	5904
922.353	5935
922.462	5821
922.571	5718
922.68	5665
922.789	5714
922.898	5684
923.007	5668
923.116	5676
923.224	5657
923.333	5722
923.442	5581
923.55	5570
923.659	5543
923.767	5634
923.876	5520
923.984	5592
924.092	5497
924.201	5551
924.309	5535
924.417	5532
924.525	5471
924.633	5455
924.741	6270
924.849	5337
924.956	5505
925.064	5379
925.172	5307
925.279	5330
925.387	5379
925.494	5353
925.602	5417
925.709	5376
925.816	5280
925.924	5277
926.031	5345
926.138	5269
926.245	5345
926.352	5227
926.459	5337
926.566	5368
926.673	5155
926.779	5132
926.886	5083
926.993	5010
927.099	5052
927.206	4984
927.312	5018
927.419	4980
927.525	4961
927.631	4984
927.737	4873
927.843	4900
927.95	4740
928.056	4809
928.162	4805
928.267	4820
928.373	5303
928.479	4858
928.585	4675
928.69	4797
928.796	4755
928.901	4687
929.007	4542
929.112	4637
929.218	4618
929.323	4588
929.428	4584
929.533	4694
929.638	4535
929.743	4573
929.848	4535
929.953	4493
930.058	4413
930.163	4329
930.267	4325
930.372	4417
930.477	4306
930.581	4481
930.685	4356
930.79	4253
930.894	4249
930.998	4257
931.103	4379
931.207	4101
931.311	4093
931.415	4013
931.519	3930
931.623	3934
