Data from glass_V78500241_1546.txt Node
Date: Wed Sep 01 19:25:13 CST 2021
User: usil
Spectrometer: V785-0024
Trigger mode: 0
Integration Time (sec): 4.000000E-1
Scans to average: 1
Nonlinearity correction enabled: false
Boxcar width: 0
Storing dark spectrum: false
XAxis mode: Wavelengths
Number of Pixels in Spectrum: 1024
>>>>>Begin Spectral Data<<<<<
801.071	3720
801.214	3778
801.356	3705
801.499	3713
801.641	3755
801.783	3751
801.926	3846
802.068	3812
802.211	3861
802.353	3827
802.496	3846
802.638	3857
802.78	3846
802.923	3907
803.065	3880
803.208	3873
803.35	3861
803.492	3896
803.635	3922
803.777	3797
803.919	3896
804.061	4124
804.204	3949
804.346	3930
804.488	3945
804.63	4051
804.773	3983
804.915	4021
805.057	4162
805.199	4063
805.341	4116
805.483	4181
805.626	4082
805.768	4101
805.91	4158
806.052	4249
806.194	4215
806.336	4402
806.478	4223
806.62	4135
806.762	4215
806.904	4280
807.046	4367
807.188	4177
807.33	4139
807.472	4246
807.614	4185
807.756	4276
807.898	4238
808.04	4200
808.182	4291
808.324	4322
808.465	4367
808.607	4417
808.749	4466
808.891	4466
809.033	4516
809.174	4390
809.316	4242
809.458	4223
809.6	4143
809.741	4135
809.883	4120
810.025	4181
810.166	4211
810.308	4238
810.45	4215
810.591	4230
810.733	4261
810.875	4542
811.016	4839
811.158	5140
811.299	5250
811.441	5269
811.582	5025
811.724	4675
811.865	4451
812.007	4470
812.148	4398
812.29	4459
812.431	4402
812.573	4386
812.714	4371
812.855	4432
812.997	4440
813.138	4478
813.279	4390
813.421	4398
813.562	4413
813.703	4337
813.845	4325
813.986	4272
814.127	4185
814.268	4238
814.41	4310
814.551	4257
814.692	4276
814.833	4253
814.974	4287
815.115	4337
815.256	4249
815.397	4219
815.539	4284
815.68	4177
815.821	4200
815.962	4352
816.103	4268
816.244	4249
816.385	4200
816.526	4211
816.666	4219
816.807	4128
816.948	4200
817.089	4192
817.23	4128
817.371	4109
817.512	4036
817.653	4055
817.793	4059
817.934	4051
818.075	4063
818.216	4101
818.356	4067
818.497	3994
818.638	3941
818.778	3892
818.919	3880
819.06	3846
819.2	3937
819.341	3899
819.481	3831
819.622	3884
819.762	3983
819.903	3922
820.043	3850
820.184	3846
820.324	3835
820.465	3911
820.605	3846
820.746	3869
820.886	3884
821.026	3922
821.167	3915
821.307	3972
821.447	3960
821.588	3945
821.728	3937
821.868	3888
822.008	3846
822.149	3896
822.289	3896
822.429	3774
822.569	3728
822.709	3797
822.849	3709
822.99	3720
823.13	3747
823.27	3793
823.41	3736
823.55	3720
823.69	3751
823.83	3709
823.97	3713
824.11	3637
824.25	3610
824.389	3648
824.529	3686
824.669	3591
824.809	3682
824.949	3709
825.089	3713
825.228	3663
825.368	3587
825.508	3553
825.648	3587
825.787	3618
825.927	3625
826.067	3682
826.206	3701
826.346	3785
826.485	3850
826.625	3823
826.765	3956
826.904	3850
827.044	3595
827.183	3507
827.323	3450
827.462	3526
827.601	3477
827.741	3435
827.88	3424
828.02	3386
828.159	3431
828.298	3481
828.437	3519
828.577	3462
828.716	3606
828.855	3450
828.994	3424
829.134	3374
829.273	3363
829.412	3336
829.551	3310
829.69	3389
829.829	3458
829.968	3496
830.107	3466
830.246	3450
830.385	3370
830.524	3370
830.663	3283
830.802	3275
830.941	3203
831.08	3211
831.219	3275
831.357	3214
831.496	3378
831.635	3241
831.774	3207
831.913	3180
832.051	3127
832.19	3146
832.329	3214
832.467	3142
832.606	3127
832.744	3173
832.883	3199
833.022	3173
833.16	3294
833.299	3260
833.437	3348
833.576	3344
833.714	3405
833.852	3439
833.991	3409
834.129	3500
834.267	3416
834.406	3389
834.544	3454
834.682	3389
834.821	3367
834.959	3606
835.097	3466
835.235	3542
835.373	3534
835.511	3439
835.65	3439
835.788	3473
835.926	3386
836.064	3412
836.202	3405
836.34	3610
836.478	3599
836.615	3534
836.753	3622
836.891	3629
837.029	3610
837.167	3599
837.305	3568
837.443	3534
837.58	3496
837.718	3584
837.856	3545
837.993	3564
838.131	3606
838.269	3557
838.406	3564
838.544	3584
838.681	3485
838.819	3488
838.956	3374
839.094	3412
839.231	3412
839.369	3523
839.506	3694
839.643	3629
839.781	3473
839.918	3458
840.055	3534
840.193	3515
840.33	3515
840.467	3572
840.604	3576
840.742	3831
840.879	3580
841.016	3561
841.153	3606
841.29	3770
841.427	3747
841.564	3751
841.701	3766
841.838	3740
841.975	3675
842.112	3724
842.249	3629
842.385	3671
842.522	3827
842.659	3686
842.796	3713
842.933	3675
843.069	3713
843.206	3766
843.343	3819
843.479	3751
843.616	3823
843.752	3690
843.889	3698
844.025	3869
844.162	3717
844.298	3808
844.435	3800
844.571	3797
844.708	3873
844.844	3960
844.98	4021
845.117	4025
845.253	3892
845.389	3884
845.525	3949
845.661	3979
845.798	3930
845.934	4013
846.07	3979
846.206	4059
846.342	4124
846.478	4090
846.614	3975
846.75	3937
846.886	3968
847.022	3975
847.158	3983
847.294	4017
847.429	4048
847.565	3979
847.701	4223
847.837	3896
847.972	3857
848.108	3964
848.244	3941
848.379	3873
848.515	3808
848.65	3793
848.786	3850
848.921	3842
849.057	3930
849.192	3918
849.328	3915
849.463	3926
849.598	3854
849.734	3880
849.869	3873
850.004	3816
850.14	3793
850.275	3797
850.41	3751
850.545	3781
850.68	3797
850.815	3774
850.95	3804
851.085	3975
851.22	3861
851.355	3781
851.49	3766
851.625	3781
851.76	3797
851.895	3728
852.03	3713
852.165	3770
852.299	3846
852.434	3930
852.569	3888
852.703	3896
852.838	3945
852.973	4010
853.107	4013
853.242	3892
853.376	3857
853.511	3732
853.645	3823
853.78	3998
853.914	3915
854.048	3896
854.183	3869
854.317	3960
854.451	4082
854.585	3960
854.72	3972
854.854	4067
854.988	3934
855.122	3979
855.256	3903
855.39	4006
855.524	4120
855.658	4124
855.792	4120
855.926	4124
856.06	4177
856.194	4207
856.327	4200
856.461	4188
856.595	4135
856.729	4196
856.862	4265
856.996	4268
857.13	4303
857.263	4329
857.397	4344
857.53	4246
857.664	4341
857.797	4402
857.931	4424
858.064	4379
858.197	4485
858.331	4409
858.464	4367
858.597	4348
858.731	4447
858.864	4497
858.997	4474
859.13	4493
859.263	4542
859.396	4542
859.529	4508
859.662	4550
859.795	4569
859.928	4580
860.061	4721
860.194	4679
860.327	4656
860.46	4630
860.592	4717
860.725	4729
860.858	4763
860.99	4660
861.123	4656
861.256	4694
861.388	4839
861.521	5539
861.653	4733
861.786	4691
861.918	4763
862.05	4748
862.183	4828
862.315	4908
862.447	4946
862.58	4862
862.712	4847
862.844	4790
862.976	4847
863.108	4850
863.24	5235
863.372	4835
863.504	4900
863.636	4915
863.768	4923
863.9	4927
864.032	4896
864.164	4934
864.296	5025
864.428	5102
864.559	5098
864.691	5124
864.823	5102
864.954	5121
865.086	5136
865.217	5113
865.349	5105
865.48	5155
865.612	5132
865.743	5307
865.875	5174
866.006	5216
866.137	5246
866.269	5155
866.4	5220
866.531	5220
866.662	5273
866.793	5277
866.924	5242
867.055	5387
867.186	5311
867.317	5318
867.448	5368
867.579	5364
867.71	5387
867.841	5353
867.972	5478
868.103	5455
868.233	5497
868.364	5497
868.495	5547
868.625	5649
868.756	5798
868.886	5691
869.017	5695
869.147	5874
869.278	5870
869.408	5813
869.539	5779
869.669	5889
869.799	5897
869.929	5965
870.06	6045
870.19	6163
870.32	6205
870.45	6277
870.58	6338
870.71	6460
870.84	6452
870.97	6448
871.1	6498
871.23	6658
871.36	6681
871.489	6650
871.619	6707
871.749	6795
871.879	6863
872.008	6970
872.138	6981
872.267	7042
872.397	6977
872.526	7072
872.656	7072
872.785	7149
872.915	7415
873.044	7548
873.173	7525
873.303	7636
873.432	7731
873.561	7902
873.69	7917
873.819	7963
873.948	8142
874.077	8259
874.206	8275
874.335	8431
874.464	8640
874.593	8796
874.722	8952
874.851	9135
874.979	9233
875.108	9370
875.237	9332
875.365	9469
875.494	9622
875.623	9854
875.751	9880
875.88	10010
876.008	10154
876.136	10265
876.265	10554
876.393	10702
876.521	10733
876.65	10831
876.778	10858
876.906	10850
877.034	10949
877.162	11105
877.29	11166
877.418	11337
877.546	11284
877.674	11436
877.802	11520
877.93	11539
878.058	11577
878.185	11642
878.313	11634
878.441	11703
878.568	11714
878.696	11817
878.824	11882
878.951	12022
879.079	12007
879.206	12110
879.333	12076
879.461	11931
879.588	12106
879.715	12110
879.842	12201
879.97	12136
880.097	11832
880.224	11870
880.351	11939
880.478	11958
880.605	11840
880.732	11843
880.859	12076
880.986	11775
881.112	11901
881.239	11722
881.366	11615
881.493	11619
881.619	11589
881.746	11577
881.872	11528
881.999	11543
882.125	11512
882.252	11520
882.378	11444
882.505	11592
882.631	11368
882.757	11318
882.883	11307
883.01	11170
883.136	11201
883.262	11143
883.388	11018
883.514	11189
883.64	11143
883.766	11075
883.892	11003
884.018	10987
884.143	11033
884.269	11178
884.395	10858
884.52	10801
884.646	10748
884.772	10744
884.897	10725
885.023	10717
885.148	10714
885.274	10763
885.399	10698
885.524	10630
885.65	10660
885.775	10607
885.9	10573
886.025	10675
886.15	10512
886.275	10478
886.4	10363
886.525	10371
886.65	10344
886.775	10344
886.9	10523
887.025	10493
887.149	10379
887.274	10200
887.399	10200
887.523	10162
887.648	10147
887.773	10135
887.897	10265
888.021	10261
888.146	10143
888.27	10215
888.395	10249
888.519	10257
888.643	10253
888.767	10238
888.891	10074
889.015	10032
889.139	10040
889.263	9998
889.387	10112
889.511	10120
889.635	10112
889.759	9998
889.883	9956
890.006	9979
890.13	10158
890.254	9915
890.377	9998
890.501	9793
890.624	9926
890.748	9998
890.871	9869
890.995	9770
891.118	9694
891.241	9732
891.364	9709
891.488	9819
891.611	9728
891.734	9743
891.857	9747
891.98	9766
892.103	9789
892.226	9724
892.349	9648
892.471	9504
892.594	9549
892.717	9606
892.839	9576
892.962	9671
893.085	9660
893.207	9633
893.33	9523
893.452	9450
893.575	9709
893.697	9538
893.819	9561
893.941	9545
894.064	9599
894.186	9412
894.308	9359
894.43	9557
894.552	9557
894.674	9564
894.796	9351
894.918	9298
895.04	9317
895.161	9363
895.283	9370
895.405	9332
895.526	9272
895.648	9260
895.769	9245
895.891	9279
896.012	9310
896.134	9203
896.255	9154
896.376	9070
896.498	9211
896.619	9195
896.74	9070
896.861	9097
896.982	9230
897.103	9306
897.224	9100
897.345	9066
897.466	8956
897.587	9013
897.708	9081
897.828	9009
897.949	8941
898.07	8883
898.19	8925
898.311	8975
898.431	8914
898.552	8929
898.672	8929
898.792	8963
898.913	8948
899.033	8777
899.153	8762
899.273	8762
899.393	8739
899.513	8750
899.633	8781
899.753	8766
899.873	8705
899.993	8724
900.113	8663
900.232	8735
900.352	8644
900.472	8552
900.591	8617
900.711	8587
900.83	8492
900.95	8686
901.069	8640
901.189	8621
901.308	8366
901.427	8381
901.546	8442
901.665	8457
901.784	8473
901.904	8404
902.023	8366
902.141	8259
902.26	8202
902.379	8301
902.498	8256
902.617	8168
902.735	8298
902.854	8313
902.973	8305
903.091	8172
903.21	8153
903.328	8145
903.446	8149
903.565	8065
903.683	8103
903.801	8046
903.919	8157
904.038	8195
904.156	7986
904.274	8134
904.392	8001
904.51	8035
904.627	8069
904.745	8077
904.863	8065
904.981	7871
905.098	7814
905.216	7845
905.334	7879
905.451	7917
905.569	7906
905.686	7883
905.803	7917
905.921	7776
906.038	7830
906.155	7799
906.272	7723
906.389	7689
906.506	7700
906.623	7582
906.74	7590
906.857	7529
906.974	7601
907.091	7601
907.208	7731
907.324	7666
907.441	7651
907.557	7499
907.674	7388
907.79	7415
907.907	7400
908.023	7365
908.139	7407
908.256	7407
908.372	7392
908.488	7316
908.604	7282
908.72	7149
908.836	7312
908.952	7209
909.068	7225
909.184	7350
909.3	7240
909.415	7274
909.531	7282
909.647	7187
909.762	7149
909.878	7042
909.993	7126
910.108	7110
910.224	7076
910.339	7091
910.454	7053
910.57	7057
910.685	6951
910.8	7122
910.915	7209
911.03	7012
911.145	6856
911.259	6867
911.374	6905
911.489	6798
911.604	6806
911.718	6768
911.833	6703
911.947	6654
912.062	6623
912.176	6719
912.291	6726
912.405	6707
912.519	6840
912.633	6863
912.748	6776
912.862	6673
912.976	6551
913.09	6544
913.204	6589
913.318	6612
913.431	6707
913.545	6726
913.659	6681
913.772	6601
913.886	6551
914	6528
914.113	6604
914.226	6623
914.34	6635
914.453	6532
914.566	6601
914.68	6536
914.793	6547
914.906	6414
915.019	6418
915.132	6342
915.245	6433
915.358	6388
915.47	6410
915.583	6494
915.696	6471
915.809	6582
915.921	6582
916.034	6460
916.146	6441
916.259	6376
916.371	6521
916.483	6437
916.595	6376
916.708	6350
916.82	6372
916.932	6346
917.044	6350
917.156	6429
917.268	6285
917.38	6350
917.491	6315
917.603	6331
917.715	6429
917.826	6410
917.938	6331
918.049	6292
918.161	6357
918.272	6403
918.384	6456
918.495	6315
918.606	6254
918.717	6232
918.828	6273
918.939	6327
919.05	6186
919.161	6277
919.272	6117
919.383	6152
919.494	6308
919.604	6410
919.715	6228
919.826	6266
919.936	6224
920.047	6270
920.157	6224
920.267	6426
920.378	6346
920.488	6262
920.598	6467
920.708	6502
920.818	6429
920.928	6483
921.038	6601
921.148	6570
921.258	6311
921.368	6304
921.477	6194
921.587	6197
921.697	6117
921.806	6197
921.916	6098
922.025	6015
922.134	5912
922.244	5916
922.353	5939
922.462	5851
922.571	5821
922.68	5665
922.789	5684
922.898	5726
923.007	5630
923.116	5657
923.224	5703
923.333	5623
923.442	5627
923.55	5543
923.659	5596
923.767	5608
923.876	5535
923.984	5627
924.092	5528
924.201	5570
924.309	5562
924.417	5535
924.525	5478
924.633	5516
924.741	6121
924.849	5368
924.956	5505
925.064	5357
925.172	5318
925.279	5315
925.387	5292
925.494	5307
925.602	5383
925.709	5368
925.816	5284
925.924	5303
926.031	5379
926.138	5265
926.245	5372
926.352	5181
926.459	5303
926.566	5357
926.673	5155
926.779	5162
926.886	5147
926.993	5037
927.099	5018
927.206	5052
927.312	4930
927.419	5025
927.525	5014
927.631	5018
927.737	4896
927.843	4835
927.95	4801
928.056	4839
928.162	4835
928.267	4870
928.373	5334
928.479	4854
928.585	4714
928.69	4771
928.796	4786
928.901	4702
929.007	4569
929.112	4672
929.218	4607
929.323	4599
929.428	4538
929.533	4691
929.638	4519
929.743	4535
929.848	4535
929.953	4500
930.058	4466
930.163	4337
930.267	4360
930.372	4432
930.477	4272
930.581	4451
930.685	4348
930.79	4253
930.894	4276
930.998	4261
931.103	4390
931.207	4147
931.311	4078
931.415	4021
931.519	3964
931.623	3964
