Data from glass_V78500241_233.txt Node
Date: Wed Sep 01 19:16:06 CST 2021
User: usil
Spectrometer: V785-0024
Trigger mode: 0
Integration Time (sec): 4.000000E-1
Scans to average: 1
Nonlinearity correction enabled: false
Boxcar width: 0
Storing dark spectrum: false
XAxis mode: Wavelengths
Number of Pixels in Spectrum: 1024
>>>>>Begin Spectral Data<<<<<
801.071	3743
801.214	3736
801.356	3720
801.499	3770
801.641	3751
801.783	3781
801.926	3884
802.068	3861
802.211	3899
802.353	3934
802.496	3865
802.638	3876
802.78	3941
802.923	3934
803.065	3926
803.208	3857
803.35	3880
803.492	3888
803.635	3884
803.777	3816
803.919	3934
804.061	4173
804.204	3964
804.346	3964
804.488	3930
804.63	4071
804.773	3979
804.915	3994
805.057	4128
805.199	4040
805.341	4109
805.483	4135
805.626	4158
805.768	4116
805.91	4227
806.052	4230
806.194	4234
806.336	4386
806.478	4215
806.62	4169
806.762	4246
806.904	4253
807.046	4299
807.188	4261
807.33	4211
807.472	4303
807.614	4196
807.756	4287
807.898	4253
808.04	4223
808.182	4284
808.324	4356
808.465	4375
808.607	4504
808.749	4432
808.891	4535
809.033	4504
809.174	4421
809.316	4268
809.458	4257
809.6	4177
809.741	4150
809.883	4169
810.025	4242
810.166	4219
810.308	4227
810.45	4227
810.591	4234
810.733	4291
810.875	4546
811.016	4854
811.158	5151
811.299	5250
811.441	5311
811.582	5083
811.724	4733
811.865	4447
812.007	4455
812.148	4443
812.29	4440
812.431	4432
812.573	4386
812.714	4375
812.855	4417
812.997	4462
813.138	4451
813.279	4436
813.421	4424
813.562	4363
813.703	4325
813.845	4333
813.986	4268
814.127	4272
814.268	4257
814.41	4322
814.551	4227
814.692	4322
814.833	4287
814.974	4295
815.115	4413
815.256	4246
815.397	4246
815.539	4246
815.68	4246
815.821	4261
815.962	4291
816.103	4329
816.244	4261
816.385	4253
816.526	4287
816.666	4181
816.807	4135
816.948	4192
817.089	4166
817.23	4131
817.371	4101
817.512	4071
817.653	4071
817.793	4044
817.934	4067
818.075	4143
818.216	4082
818.356	4105
818.497	3960
818.638	3926
818.778	3937
818.919	3884
819.06	3861
819.2	3896
819.341	3880
819.481	3854
819.622	3918
819.762	4048
819.903	3960
820.043	3884
820.184	3827
820.324	3857
820.465	3884
820.605	3873
820.746	3869
820.886	3800
821.026	3930
821.167	3956
821.307	3994
821.447	3998
821.588	3892
821.728	3945
821.868	3975
822.008	3880
822.149	3926
822.289	3972
822.429	3835
822.569	3785
822.709	3850
822.849	3755
822.99	3709
823.13	3766
823.27	3808
823.41	3747
823.55	3720
823.69	3736
823.83	3740
823.97	3724
824.11	3660
824.25	3610
824.389	3679
824.529	3663
824.669	3625
824.809	3747
824.949	3732
825.089	3766
825.228	3720
825.368	3591
825.508	3587
825.648	3610
825.787	3610
825.927	3652
826.067	3667
826.206	3660
826.346	3800
826.485	3888
826.625	3861
826.765	3979
826.904	3857
827.044	3663
827.183	3507
827.323	3450
827.462	3492
827.601	3458
827.741	3477
827.88	3473
828.02	3393
828.159	3450
828.298	3481
828.437	3538
828.577	3485
828.716	3595
828.855	3515
828.994	3389
829.134	3393
829.273	3409
829.412	3370
829.551	3363
829.69	3382
829.829	3447
829.968	3568
830.107	3469
830.246	3466
830.385	3428
830.524	3424
830.663	3332
830.802	3279
830.941	3199
831.08	3230
831.219	3313
831.357	3272
831.496	3409
831.635	3230
831.774	3245
831.913	3203
832.051	3138
832.19	3138
832.329	3207
832.467	3157
832.606	3104
832.744	3135
832.883	3188
833.022	3233
833.16	3241
833.299	3275
833.437	3336
833.576	3389
833.714	3420
833.852	3462
833.991	3435
834.129	3477
834.267	3450
834.406	3374
834.544	3439
834.682	3420
834.821	3435
834.959	3595
835.097	3424
835.235	3526
835.373	3538
835.511	3576
835.65	3466
835.788	3504
835.926	3431
836.064	3412
836.202	3428
836.34	3542
836.478	3652
836.615	3580
836.753	3637
836.891	3660
837.029	3641
837.167	3656
837.305	3564
837.443	3599
837.58	3504
837.718	3587
837.856	3564
837.993	3542
838.131	3591
838.269	3587
838.406	3618
838.544	3610
838.681	3481
838.819	3485
838.956	3401
839.094	3439
839.231	3462
839.369	3545
839.506	3732
839.643	3648
839.781	3511
839.918	3496
840.055	3557
840.193	3519
840.33	3542
840.467	3587
840.604	3629
840.742	3865
840.879	3564
841.016	3584
841.153	3618
841.29	3816
841.427	3759
841.564	3743
841.701	3755
841.838	3701
841.975	3709
842.112	3728
842.249	3595
842.385	3667
842.522	3827
842.659	3713
842.796	3637
842.933	3717
843.069	3709
843.206	3747
843.343	3827
843.479	3819
843.616	3835
843.752	3694
843.889	3694
844.025	3865
844.162	3747
844.298	3907
844.435	3774
844.571	3781
844.708	3930
844.844	3979
844.98	3979
845.117	4044
845.253	3953
845.389	3915
845.525	3960
845.661	3968
845.798	3953
845.934	4055
846.07	3975
846.206	4067
846.342	4124
846.478	4055
846.614	3975
846.75	3953
846.886	3953
847.022	4048
847.158	3994
847.294	4029
847.429	4032
847.565	4048
847.701	4325
847.837	3915
847.972	3861
848.108	3998
848.244	3991
848.379	3861
848.515	3816
848.65	3865
848.786	3823
848.921	3903
849.057	3918
849.192	3960
849.328	3949
849.463	3918
849.598	3854
849.734	3884
849.869	3835
850.004	3831
850.14	3827
850.275	3774
850.41	3751
850.545	3762
850.68	3766
850.815	3857
850.95	3770
851.085	3941
851.22	3876
851.355	3838
851.49	3865
851.625	3831
851.76	3816
851.895	3743
852.03	3740
852.165	3835
852.299	3873
852.434	3911
852.569	3888
852.703	3892
852.838	3964
852.973	4040
853.107	3998
853.242	3880
853.376	3873
853.511	3823
853.645	3884
853.78	3979
853.914	3911
854.048	3926
854.183	3869
854.317	4025
854.451	4082
854.585	3994
854.72	3972
854.854	4055
854.988	3979
855.122	4040
855.256	3934
855.39	4048
855.524	4181
855.658	4105
855.792	4154
855.926	4166
856.06	4204
856.194	4261
856.327	4158
856.461	4097
856.595	4150
856.729	4211
856.862	4257
856.996	4268
857.13	4352
857.263	4352
857.397	4356
857.53	4280
857.664	4386
857.797	4413
857.931	4440
858.064	4413
858.197	4451
858.331	4421
858.464	4386
858.597	4360
858.731	4455
858.864	4474
858.997	4436
859.13	4546
859.263	4554
859.396	4592
859.529	4542
859.662	4542
859.795	4519
859.928	4588
860.061	4706
860.194	4729
860.327	4668
860.46	4649
860.592	4793
860.725	4759
860.858	4786
860.99	4679
861.123	4679
861.256	4744
861.388	4740
861.521	5376
861.653	4702
861.786	4721
861.918	4744
862.05	4820
862.183	4908
862.315	4961
862.447	4961
862.58	4911
862.712	4816
862.844	4767
862.976	4889
863.108	4930
863.24	5174
863.372	4877
863.504	4904
863.636	4873
863.768	4991
863.9	4991
864.032	4968
864.164	4961
864.296	5064
864.428	5151
864.559	5159
864.691	5117
864.823	5132
864.954	5117
865.086	5151
865.217	5105
865.349	5109
865.48	5178
865.612	5193
865.743	5246
865.875	5208
866.006	5166
866.137	5235
866.269	5231
866.4	5265
866.531	5330
866.662	5269
866.793	5307
866.924	5311
867.055	5345
867.186	5330
867.317	5353
867.448	5345
867.579	5364
867.71	5379
867.841	5391
867.972	5459
868.103	5417
868.233	5528
868.364	5490
868.495	5581
868.625	5642
868.756	5828
868.886	5680
869.017	5748
869.147	5920
869.278	5901
869.408	5863
869.539	5840
869.669	5942
869.799	5908
869.929	5958
870.06	6011
870.19	6167
870.32	6216
870.45	6262
870.58	6353
870.71	6433
870.84	6479
870.97	6433
871.1	6494
871.23	6601
871.36	6745
871.489	6681
871.619	6760
871.749	6779
871.879	6852
872.008	7027
872.138	6966
872.267	7019
872.397	7000
872.526	7034
872.656	7129
872.785	7202
872.915	7343
873.044	7525
873.173	7502
873.303	7628
873.432	7723
873.561	7837
873.69	7921
873.819	8088
873.948	8244
874.077	8187
874.206	8358
874.335	8400
874.464	8678
874.593	8823
874.722	8891
874.851	9119
874.979	9199
875.108	9359
875.237	9439
875.365	9523
875.494	9652
875.623	9831
875.751	9857
875.88	10040
876.008	10116
876.136	10272
876.265	10538
876.393	10725
876.521	10767
876.65	10790
876.778	10919
876.906	10915
877.034	11003
877.162	11128
877.29	11124
877.418	11273
877.546	11341
877.674	11410
877.802	11448
877.93	11535
878.058	11600
878.185	11467
878.313	11733
878.441	11760
878.568	11649
878.696	11794
878.824	11847
878.951	11988
879.079	12030
879.206	12083
879.333	11984
879.461	11984
879.588	12136
879.715	12152
879.842	12262
879.97	12026
880.097	11988
880.224	11885
880.351	11851
880.478	11908
880.605	11908
880.732	11756
880.859	12091
880.986	11779
881.112	11878
881.239	11722
881.366	11707
881.493	11600
881.619	11592
881.746	11577
881.872	11497
881.999	11600
882.125	11467
882.252	11573
882.378	11444
882.505	11551
882.631	11398
882.757	11296
882.883	11303
883.01	11254
883.136	11212
883.262	11071
883.388	11105
883.514	11136
883.64	11162
883.766	11174
883.892	11056
884.018	11094
884.143	11045
884.269	11166
884.395	10862
884.52	10805
884.646	10824
884.772	10694
884.897	10626
885.023	10717
885.148	10790
885.274	10748
885.399	10691
885.524	10694
885.65	10668
885.775	10607
885.9	10584
886.025	10641
886.15	10554
886.275	10478
886.4	10402
886.525	10470
886.65	10386
886.775	10303
886.9	10497
887.025	10542
887.149	10398
887.274	10310
887.399	10196
887.523	10223
887.648	10177
887.773	10188
887.897	10276
888.021	10246
888.146	10158
888.27	10295
888.395	10211
888.519	10177
888.643	10192
888.767	10253
888.891	10086
889.015	10002
889.139	10086
889.263	9953
889.387	10154
889.511	10097
889.635	10048
889.759	9846
889.883	9998
890.006	10059
890.13	10105
890.254	9918
890.377	10021
890.501	9869
890.624	9915
890.748	9937
890.871	9823
890.995	9804
891.118	9728
891.241	9789
891.364	9770
891.488	9842
891.611	9743
891.734	9823
891.857	9846
891.98	9736
892.103	9774
892.226	9781
892.349	9736
892.471	9557
892.594	9591
892.717	9637
892.839	9610
892.962	9599
893.085	9637
893.207	9610
893.33	9530
893.452	9519
893.575	9633
893.697	9549
893.819	9637
893.941	9618
894.064	9526
894.186	9454
894.308	9424
894.43	9519
894.552	9618
894.674	9576
894.796	9340
894.918	9416
895.04	9397
895.161	9431
895.283	9317
895.405	9283
895.526	9332
895.648	9241
895.769	9329
895.891	9306
896.012	9264
896.134	9214
896.255	9192
896.376	9142
896.498	9112
896.619	9112
896.74	9055
896.861	9032
896.982	9310
897.103	9317
897.224	9165
897.345	9089
897.466	9043
897.587	9070
897.708	9066
897.828	9036
897.949	8929
898.07	8872
898.19	8861
898.311	8967
898.431	8979
898.552	8960
898.672	9009
898.792	8956
898.913	8941
899.033	8811
899.153	8800
899.273	8655
899.393	8762
899.513	8792
899.633	8777
899.753	8705
899.873	8743
899.993	8697
900.113	8727
900.232	8686
900.352	8735
900.472	8659
900.591	8507
900.711	8564
900.83	8564
900.95	8727
901.069	8686
901.189	8590
901.308	8442
901.427	8332
901.546	8438
901.665	8412
901.784	8495
901.904	8404
902.023	8320
902.141	8244
902.26	8267
902.379	8279
902.498	8282
902.617	8176
902.735	8279
902.854	8347
902.973	8233
903.091	8183
903.21	8214
903.328	8100
903.446	8115
903.565	8077
903.683	8107
903.801	8092
903.919	8161
904.038	8157
904.156	8084
904.274	8073
904.392	8084
904.51	8065
904.627	8054
904.745	8103
904.863	8119
904.981	7925
905.098	7898
905.216	7925
905.334	7913
905.451	7902
905.569	7917
905.686	7921
905.803	7944
905.921	7784
906.038	7997
906.155	7833
906.272	7765
906.389	7769
906.506	7708
906.623	7609
906.74	7609
906.857	7502
906.974	7636
907.091	7765
907.208	7712
907.324	7636
907.441	7712
907.557	7510
907.674	7460
907.79	7472
907.907	7460
908.023	7468
908.139	7476
908.256	7327
908.372	7396
908.488	7392
908.604	7308
908.72	7236
908.836	7259
908.952	7285
909.068	7289
909.184	7312
909.3	7259
909.415	7206
909.531	7289
909.647	7129
909.762	7122
909.878	7076
909.993	7114
910.108	7110
910.224	7072
910.339	7175
910.454	7034
910.57	7004
910.685	6943
910.8	7198
910.915	7069
911.03	7031
911.145	6856
911.259	6901
911.374	6875
911.489	6901
911.604	6875
911.718	6730
911.833	6722
911.947	6646
912.062	6604
912.176	6722
912.291	6764
912.405	6673
912.519	6806
912.633	6840
912.748	6719
912.862	6719
912.976	6662
913.09	6536
913.204	6570
913.318	6604
913.431	6627
913.545	6677
913.659	6734
913.772	6650
913.886	6593
914	6563
914.113	6620
914.226	6593
914.34	6608
914.453	6479
914.566	6582
914.68	6570
914.793	6532
914.906	6467
915.019	6414
915.132	6369
915.245	6441
915.358	6460
915.47	6380
915.583	6521
915.696	6498
915.809	6464
915.921	6604
916.034	6388
916.146	6475
916.259	6429
916.371	6502
916.483	6509
916.595	6372
916.708	6456
916.82	6418
916.932	6376
917.044	6445
917.156	6380
917.268	6357
917.38	6331
917.491	6323
917.603	6350
917.715	6380
917.826	6399
917.938	6357
918.049	6182
918.161	6315
918.272	6429
918.384	6475
918.495	6327
918.606	6228
918.717	6163
918.828	6254
918.939	6304
919.05	6243
919.161	6251
919.272	6136
919.383	6144
919.494	6338
919.604	6422
919.715	6372
919.826	6239
919.936	6304
920.047	6414
920.157	6285
920.267	6448
920.378	6372
920.488	6361
920.598	6490
920.708	6642
920.818	6467
920.928	6502
921.038	6570
921.148	6608
921.258	6338
921.368	6319
921.477	6201
921.587	6178
921.697	6114
921.806	6228
921.916	6106
922.025	5958
922.134	5954
922.244	5908
922.353	5973
922.462	5870
922.571	5790
922.68	5729
922.789	5691
922.898	5745
923.007	5657
923.116	5688
923.224	5653
923.333	5665
923.442	5634
923.55	5539
923.659	5581
923.767	5592
923.876	5535
923.984	5562
924.092	5528
924.201	5623
924.309	5532
924.417	5577
924.525	5539
924.633	5512
924.741	6327
924.849	5398
924.956	5490
925.064	5398
925.172	5349
925.279	5280
925.387	5417
925.494	5368
925.602	5463
925.709	5372
925.816	5307
925.924	5345
926.031	5337
926.138	5318
926.245	5330
926.352	5235
926.459	5349
926.566	5379
926.673	5208
926.779	5166
926.886	5102
926.993	5045
927.099	5022
927.206	5018
927.312	4961
927.419	5083
927.525	4976
927.631	4995
927.737	4881
927.843	4896
927.95	4809
928.056	4854
928.162	4828
928.267	4870
928.373	5318
928.479	4843
928.585	4675
928.69	4786
928.796	4786
928.901	4717
929.007	4637
929.112	4660
929.218	4683
929.323	4603
929.428	4592
929.533	4653
929.638	4531
929.743	4546
929.848	4592
929.953	4558
930.058	4459
930.163	4295
930.267	4356
930.372	4485
930.477	4318
930.581	4466
930.685	4367
930.79	4284
930.894	4337
930.998	4234
931.103	4421
931.207	4128
931.311	4067
931.415	4082
931.519	3964
931.623	3949
