Data from glass_V78500241_2831.txt Node
Date: Wed Sep 01 19:34:07 CST 2021
User: usil
Spectrometer: V785-0024
Trigger mode: 0
Integration Time (sec): 4.000000E-1
Scans to average: 1
Nonlinearity correction enabled: false
Boxcar width: 0
Storing dark spectrum: false
XAxis mode: Wavelengths
Number of Pixels in Spectrum: 1024
>>>>>Begin Spectral Data<<<<<
801.071	3747
801.214	3724
801.356	3694
801.499	3743
801.641	3690
801.783	3766
801.926	3804
802.068	3766
802.211	3823
802.353	3869
802.496	3835
802.638	3846
802.78	3899
802.923	3915
803.065	3930
803.208	3808
803.35	3892
803.492	3838
803.635	3926
803.777	3778
803.919	3831
804.061	4143
804.204	3941
804.346	3926
804.488	3903
804.63	4021
804.773	3930
804.915	4036
805.057	4112
805.199	4029
805.341	4055
805.483	4086
805.626	4093
805.768	4048
805.91	4211
806.052	4234
806.194	4192
806.336	4306
806.478	4207
806.62	4158
806.762	4131
806.904	4204
807.046	4306
807.188	4169
807.33	4158
807.472	4211
807.614	4211
807.756	4261
807.898	4162
808.04	4192
808.182	4272
808.324	4303
808.465	4325
808.607	4459
808.749	4413
808.891	4440
809.033	4459
809.174	4390
809.316	4261
809.458	4207
809.6	4109
809.741	4097
809.883	4147
810.025	4185
810.166	4169
810.308	4211
810.45	4223
810.591	4230
810.733	4234
810.875	4535
811.016	4793
811.158	5105
811.299	5277
811.441	5280
811.582	5056
811.724	4687
811.865	4443
812.007	4424
812.148	4386
812.29	4409
812.431	4356
812.573	4398
812.714	4360
812.855	4375
812.997	4363
813.138	4432
813.279	4375
813.421	4337
813.562	4333
813.703	4268
813.845	4306
813.986	4242
814.127	4211
814.268	4261
814.41	4276
814.551	4219
814.692	4291
814.833	4261
814.974	4284
815.115	4303
815.256	4238
815.397	4234
815.539	4268
815.68	4181
815.821	4181
815.962	4291
816.103	4303
816.244	4219
816.385	4211
816.526	4291
816.666	4196
816.807	4044
816.948	4223
817.089	4162
817.23	4120
817.371	4086
817.512	4051
817.653	4055
817.793	4002
817.934	4036
818.075	4071
818.216	4082
818.356	4044
818.497	3956
818.638	3907
818.778	3922
818.919	3846
819.06	3842
819.2	3846
819.341	3846
819.481	3827
819.622	3918
819.762	4029
819.903	3922
820.043	3892
820.184	3838
820.324	3827
820.465	3857
820.605	3827
820.746	3831
820.886	3812
821.026	3911
821.167	3896
821.307	3937
821.447	3968
821.588	3915
821.728	3941
821.868	3926
822.008	3827
822.149	3922
822.289	3953
822.429	3740
822.569	3732
822.709	3759
822.849	3728
822.99	3690
823.13	3751
823.27	3755
823.41	3732
823.55	3682
823.69	3732
823.83	3713
823.97	3663
824.11	3561
824.25	3587
824.389	3629
824.529	3629
824.669	3625
824.809	3720
824.949	3705
825.089	3717
825.228	3686
825.368	3564
825.508	3553
825.648	3564
825.787	3614
825.927	3622
826.067	3629
826.206	3633
826.346	3720
826.485	3819
826.625	3850
826.765	3899
826.904	3827
827.044	3610
827.183	3492
827.323	3443
827.462	3458
827.601	3412
827.741	3435
827.88	3420
828.02	3363
828.159	3397
828.298	3450
828.437	3504
828.577	3420
828.716	3587
828.855	3435
828.994	3363
829.134	3382
829.273	3340
829.412	3332
829.551	3321
829.69	3359
829.829	3409
829.968	3462
830.107	3424
830.246	3420
830.385	3382
830.524	3386
830.663	3275
830.802	3264
830.941	3192
831.08	3154
831.219	3260
831.357	3207
831.496	3393
831.635	3237
831.774	3169
831.913	3184
832.051	3085
832.19	3123
832.329	3165
832.467	3085
832.606	3100
832.744	3138
832.883	3157
833.022	3192
833.16	3256
833.299	3249
833.437	3283
833.576	3317
833.714	3412
833.852	3428
833.991	3454
834.129	3462
834.267	3450
834.406	3382
834.544	3386
834.682	3412
834.821	3397
834.959	3572
835.097	3389
835.235	3485
835.373	3443
835.511	3488
835.65	3420
835.788	3443
835.926	3344
836.064	3344
836.202	3370
836.34	3584
836.478	3606
836.615	3549
836.753	3561
836.891	3595
837.029	3576
837.167	3557
837.305	3526
837.443	3519
837.58	3485
837.718	3564
837.856	3511
837.993	3530
838.131	3610
838.269	3557
838.406	3561
838.544	3580
838.681	3420
838.819	3447
838.956	3359
839.094	3374
839.231	3439
839.369	3519
839.506	3713
839.643	3603
839.781	3500
839.918	3439
840.055	3549
840.193	3557
840.33	3496
840.467	3530
840.604	3595
840.742	3812
840.879	3564
841.016	3469
841.153	3603
841.29	3732
841.427	3701
841.564	3675
841.701	3709
841.838	3679
841.975	3641
842.112	3709
842.249	3625
842.385	3644
842.522	3797
842.659	3682
842.796	3652
842.933	3705
843.069	3644
843.206	3698
843.343	3793
843.479	3800
843.616	3762
843.752	3671
843.889	3679
844.025	3842
844.162	3705
844.298	3835
844.435	3774
844.571	3762
844.708	3896
844.844	4006
844.98	4013
845.117	4002
845.253	3918
845.389	3915
845.525	3960
845.661	3975
845.798	3907
845.934	3994
846.07	3945
846.206	4055
846.342	4074
846.478	4010
846.614	3930
846.75	3915
846.886	3892
847.022	4021
847.158	3934
847.294	3983
847.429	4021
847.565	3953
847.701	4211
847.837	3888
847.972	3838
848.108	3987
848.244	3956
848.379	3812
848.515	3751
848.65	3778
848.786	3808
848.921	3842
849.057	3930
849.192	3911
849.328	3884
849.463	3865
849.598	3857
849.734	3831
849.869	3804
850.004	3781
850.14	3778
850.275	3793
850.41	3698
850.545	3766
850.68	3766
850.815	3751
850.95	3743
851.085	3922
851.22	3857
851.355	3823
851.49	3819
851.625	3755
851.76	3759
851.895	3743
852.03	3682
852.165	3770
852.299	3835
852.434	3884
852.569	3842
852.703	3838
852.838	3922
852.973	4029
853.107	3994
853.242	3850
853.376	3865
853.511	3762
853.645	3808
853.78	3956
853.914	3918
854.048	3861
854.183	3896
854.317	3918
854.451	4048
854.585	3918
854.72	3918
854.854	4021
854.988	3918
855.122	3968
855.256	3884
855.39	3960
855.524	4093
855.658	4097
855.792	4086
855.926	4097
856.06	4135
856.194	4169
856.327	4139
856.461	4150
856.595	4120
856.729	4215
856.862	4242
856.996	4227
857.13	4306
857.263	4265
857.397	4322
857.53	4230
857.664	4344
857.797	4348
857.931	4421
858.064	4344
858.197	4432
858.331	4390
858.464	4363
858.597	4314
858.731	4413
858.864	4432
858.997	4436
859.13	4504
859.263	4519
859.396	4489
859.529	4497
859.662	4516
859.795	4478
859.928	4569
860.061	4649
860.194	4698
860.327	4637
860.46	4622
860.592	4740
860.725	4729
860.858	4778
860.99	4679
861.123	4668
861.256	4675
861.388	4763
861.521	5273
861.653	4774
861.786	4679
861.918	4710
862.05	4733
862.183	4786
862.315	4850
862.447	4934
862.58	4858
862.712	4828
862.844	4748
862.976	4892
863.108	4835
863.24	5090
863.372	4820
863.504	4881
863.636	4881
863.768	4965
863.9	4968
864.032	4900
864.164	4949
864.296	5029
864.428	5083
864.559	5060
864.691	5079
864.823	5045
864.954	5094
865.086	5121
865.217	5075
865.349	5090
865.48	5151
865.612	5216
865.743	5273
865.875	5181
866.006	5155
866.137	5246
866.269	5193
866.4	5201
866.531	5178
866.662	5223
866.793	5254
866.924	5284
867.055	5330
867.186	5280
867.317	5326
867.448	5299
867.579	5349
867.71	5372
867.841	5383
867.972	5440
868.103	5410
868.233	5486
868.364	5486
868.495	5528
868.625	5649
868.756	5733
868.886	5718
869.017	5767
869.147	5889
869.278	5824
869.408	5859
869.539	5805
869.669	5923
869.799	5882
869.929	5950
870.06	6019
870.19	6136
870.32	6125
870.45	6205
870.58	6292
870.71	6460
870.84	6456
870.97	6414
871.1	6422
871.23	6635
871.36	6604
871.489	6608
871.619	6738
871.749	6768
871.879	6852
872.008	6947
872.138	7000
872.267	6954
872.397	6973
872.526	7000
872.656	7103
872.785	7175
872.915	7388
873.044	7472
873.173	7548
873.303	7605
873.432	7738
873.561	7807
873.69	7909
873.819	7993
873.948	8084
874.077	8237
874.206	8305
874.335	8412
874.464	8640
874.593	8891
874.722	8834
874.851	9108
874.979	9138
875.108	9348
875.237	9401
875.365	9450
875.494	9606
875.623	9838
875.751	9835
875.88	10128
876.008	10143
876.136	10234
876.265	10535
876.393	10626
876.521	10725
876.65	10797
876.778	10904
876.906	10919
877.034	10968
877.162	11041
877.29	11105
877.418	11227
877.546	11353
877.674	11387
877.802	11467
877.93	11486
878.058	11551
878.185	11520
878.313	11646
878.441	11733
878.568	11729
878.696	11908
878.824	11927
878.951	11996
879.079	11904
879.206	12041
879.333	12030
879.461	12083
879.588	12060
879.715	11992
879.842	12159
879.97	12091
880.097	11836
880.224	11863
880.351	11824
880.478	11897
880.605	11851
880.732	11821
880.859	11999
880.986	11733
881.112	11885
881.239	11665
881.366	11672
881.493	11532
881.619	11444
881.746	11589
881.872	11505
881.999	11634
882.125	11490
882.252	11486
882.378	11478
882.505	11459
882.631	11311
882.757	11250
882.883	11345
883.01	11254
883.136	11220
883.262	11109
883.388	10995
883.514	11227
883.64	11136
883.766	11064
883.892	10980
884.018	10858
884.143	11025
884.269	11045
884.395	10771
884.52	10752
884.646	10714
884.772	10698
884.897	10675
885.023	10694
885.148	10759
885.274	10698
885.399	10698
885.524	10565
885.65	10569
885.775	10573
885.9	10573
886.025	10580
886.15	10542
886.275	10424
886.4	10344
886.525	10394
886.65	10348
886.775	10348
886.9	10405
887.025	10474
887.149	10284
887.274	10261
887.399	10196
887.523	10112
887.648	10090
887.773	10143
887.897	10223
888.021	10257
888.146	10131
888.27	10272
888.395	10139
888.519	10204
888.643	10109
888.767	10120
888.891	10021
889.015	9937
889.139	10093
889.263	9956
889.387	10017
889.511	10139
889.635	10067
889.759	9926
889.883	10010
890.006	9918
890.13	10048
890.254	9827
890.377	9991
890.501	9876
890.624	9804
890.748	9876
890.871	9694
890.995	9694
891.118	9698
891.241	9743
891.364	9740
891.488	9930
891.611	9797
891.734	9701
891.857	9679
891.98	9686
892.103	9709
892.226	9705
892.349	9633
892.471	9515
892.594	9584
892.717	9587
892.839	9591
892.962	9564
893.085	9652
893.207	9477
893.33	9492
893.452	9549
893.575	9599
893.697	9485
893.819	9641
893.941	9610
894.064	9564
894.186	9378
894.308	9393
894.43	9534
894.552	9580
894.674	9462
894.796	9382
894.918	9325
895.04	9291
895.161	9389
895.283	9325
895.405	9272
895.526	9260
895.648	9150
895.769	9241
895.891	9275
896.012	9359
896.134	9173
896.255	9214
896.376	9138
896.498	9112
896.619	9077
896.74	9058
896.861	9108
896.982	9230
897.103	9260
897.224	9173
897.345	9070
897.466	8982
897.587	9017
897.708	9043
897.828	9028
897.949	8967
898.07	8838
898.19	8941
898.311	8952
898.431	8933
898.552	8925
898.672	8967
898.792	8876
898.913	8876
899.033	8781
899.153	8674
899.273	8678
899.393	8682
899.513	8754
899.633	8743
899.753	8712
899.873	8686
899.993	8743
900.113	8674
900.232	8705
900.352	8663
900.472	8667
900.591	8552
900.711	8575
900.83	8480
900.95	8636
901.069	8629
901.189	8526
901.308	8404
901.427	8313
901.546	8427
901.665	8473
901.784	8476
901.904	8358
902.023	8358
902.141	8229
902.26	8168
902.379	8271
902.498	8195
902.617	8168
902.735	8279
902.854	8271
902.973	8225
903.091	8103
903.21	8126
903.328	8164
903.446	8092
903.565	8092
903.683	8100
903.801	8081
903.919	8081
904.038	8145
904.156	8031
904.274	8069
904.392	8001
904.51	8031
904.627	8027
904.745	8092
904.863	8081
904.981	7902
905.098	7826
905.216	7795
905.334	7951
905.451	7833
905.569	7856
905.686	7902
905.803	7921
905.921	7746
906.038	7875
906.155	7689
906.272	7696
906.389	7639
906.506	7624
906.623	7578
906.74	7636
906.857	7510
906.974	7540
907.091	7655
907.208	7677
907.324	7647
907.441	7518
907.557	7407
907.674	7434
907.79	7346
907.907	7434
908.023	7434
908.139	7392
908.256	7331
908.372	7308
908.488	7339
908.604	7263
908.72	7225
908.836	7266
908.952	7255
909.068	7213
909.184	7278
909.3	7225
909.415	7225
909.531	7339
909.647	7042
909.762	7122
909.878	7091
909.993	7095
910.108	7080
910.224	7015
910.339	7015
910.454	6970
910.57	6970
910.685	6924
910.8	7126
910.915	7141
911.03	7084
911.145	6810
911.259	6852
911.374	6913
911.489	6802
911.604	6779
911.718	6711
911.833	6722
911.947	6623
912.062	6593
912.176	6688
912.291	6707
912.405	6719
912.519	6825
912.633	6878
912.748	6711
912.862	6646
912.976	6601
913.09	6506
913.204	6570
913.318	6582
913.431	6566
913.545	6662
913.659	6700
913.772	6620
913.886	6502
914	6513
914.113	6616
914.226	6658
914.34	6639
914.453	6509
914.566	6559
914.68	6517
914.793	6479
914.906	6475
915.019	6372
915.132	6311
915.245	6395
915.358	6445
915.47	6422
915.583	6456
915.696	6441
915.809	6494
915.921	6536
916.034	6380
916.146	6388
916.259	6361
916.371	6467
916.483	6494
916.595	6414
916.708	6437
916.82	6399
916.932	6369
917.044	6338
917.156	6361
917.268	6292
917.38	6281
917.491	6296
917.603	6334
917.715	6403
917.826	6422
917.938	6300
918.049	6243
918.161	6342
918.272	6452
918.384	6380
918.495	6323
918.606	6228
918.717	6224
918.828	6254
918.939	6220
919.05	6182
919.161	6220
919.272	6125
919.383	6148
919.494	6235
919.604	6365
919.715	6209
919.826	6220
919.936	6232
920.047	6270
920.157	6258
920.267	6414
920.378	6376
920.488	6281
920.598	6445
920.708	6551
920.818	6437
920.928	6475
921.038	6604
921.148	6559
921.258	6338
921.368	6285
921.477	6186
921.587	6186
921.697	6041
921.806	6182
921.916	6003
922.025	5950
922.134	5859
922.244	5866
922.353	5965
922.462	5844
922.571	5760
922.68	5668
922.789	5665
922.898	5729
923.007	5642
923.116	5634
923.224	5665
923.333	5680
923.442	5547
923.55	5592
923.659	5509
923.767	5528
923.876	5516
923.984	5581
924.092	5528
924.201	5520
924.309	5512
924.417	5501
924.525	5474
924.633	5478
924.741	6251
924.849	5387
924.956	5467
925.064	5364
925.172	5284
925.279	5303
925.387	5284
925.494	5303
925.602	5436
925.709	5364
925.816	5269
925.924	5288
926.031	5315
926.138	5269
926.245	5357
926.352	5128
926.459	5307
926.566	5318
926.673	5189
926.779	5071
926.886	5086
926.993	5022
927.099	4968
927.206	4991
927.312	4923
927.419	5014
927.525	4942
927.631	4904
927.737	4881
927.843	4839
927.95	4702
928.056	4824
928.162	4835
928.267	4786
928.373	5239
928.479	4816
928.585	4721
928.69	4767
928.796	4729
928.901	4733
929.007	4577
929.112	4649
929.218	4603
929.323	4626
929.428	4535
929.533	4656
929.638	4466
929.743	4535
929.848	4535
929.953	4516
930.058	4402
930.163	4284
930.267	4299
930.372	4371
930.477	4303
930.581	4459
930.685	4386
930.79	4181
930.894	4257
930.998	4238
931.103	4303
931.207	4135
931.311	4059
931.415	4101
931.519	3907
931.623	3896
