Data from glass_V78500241_2687.txt Node
Date: Wed Sep 01 19:33:07 CST 2021
User: usil
Spectrometer: V785-0024
Trigger mode: 0
Integration Time (sec): 4.000000E-1
Scans to average: 1
Nonlinearity correction enabled: false
Boxcar width: 0
Storing dark spectrum: false
XAxis mode: Wavelengths
Number of Pixels in Spectrum: 1024
>>>>>Begin Spectral Data<<<<<
801.071	3766
801.214	3713
801.356	3740
801.499	3728
801.641	3762
801.783	3766
801.926	3831
802.068	3827
802.211	3808
802.353	3892
802.496	3861
802.638	3873
802.78	3918
802.923	3926
803.065	3899
803.208	3831
803.35	3827
803.492	3873
803.635	3899
803.777	3770
803.919	3911
804.061	4147
804.204	3945
804.346	3926
804.488	3880
804.63	4040
804.773	3964
804.915	4006
805.057	4131
805.199	3968
805.341	4055
805.483	4082
805.626	4097
805.768	4078
805.91	4207
806.052	4234
806.194	4188
806.336	4337
806.478	4196
806.62	4158
806.762	4158
806.904	4242
807.046	4303
807.188	4211
807.33	4116
807.472	4219
807.614	4166
807.756	4230
807.898	4204
808.04	4215
808.182	4276
808.324	4325
808.465	4341
808.607	4481
808.749	4409
808.891	4474
809.033	4447
809.174	4371
809.316	4246
809.458	4303
809.6	4139
809.741	4154
809.883	4158
810.025	4207
810.166	4230
810.308	4177
810.45	4215
810.591	4200
810.733	4253
810.875	4538
811.016	4782
811.158	5140
811.299	5265
811.441	5231
811.582	5006
811.724	4656
811.865	4512
812.007	4421
812.148	4440
812.29	4478
812.431	4390
812.573	4424
812.714	4310
812.855	4394
812.997	4417
813.138	4462
813.279	4402
813.421	4398
813.562	4367
813.703	4329
813.845	4322
813.986	4261
814.127	4215
814.268	4238
814.41	4261
814.551	4261
814.692	4325
814.833	4261
814.974	4280
815.115	4329
815.256	4207
815.397	4204
815.539	4246
815.68	4196
815.821	4230
815.962	4287
816.103	4242
816.244	4257
816.385	4207
816.526	4246
816.666	4185
816.807	4097
816.948	4181
817.089	4131
817.23	4078
817.371	4002
817.512	4082
817.653	4090
817.793	4032
817.934	4010
818.075	4078
818.216	4048
818.356	4029
818.497	4013
818.638	3949
818.778	3941
818.919	3873
819.06	3907
819.2	3907
819.341	3888
819.481	3835
819.622	3934
819.762	4010
819.903	3941
820.043	3899
820.184	3838
820.324	3804
820.465	3884
820.605	3880
820.746	3827
820.886	3804
821.026	3896
821.167	3892
821.307	3945
821.447	3968
821.588	3922
821.728	3960
821.868	3915
822.008	3812
822.149	3892
822.289	3911
822.429	3781
822.569	3762
822.709	3759
822.849	3713
822.99	3743
823.13	3724
823.27	3785
823.41	3724
823.55	3728
823.69	3755
823.83	3686
823.97	3686
824.11	3545
824.25	3584
824.389	3637
824.529	3660
824.669	3633
824.809	3671
824.949	3698
825.089	3701
825.228	3656
825.368	3553
825.508	3564
825.648	3561
825.787	3610
825.927	3660
826.067	3606
826.206	3660
826.346	3759
826.485	3842
826.625	3865
826.765	3918
826.904	3816
827.044	3576
827.183	3523
827.323	3386
827.462	3500
827.601	3382
827.741	3450
827.88	3458
828.02	3370
828.159	3443
828.298	3481
828.437	3477
828.577	3469
828.716	3587
828.855	3466
828.994	3405
829.134	3329
829.273	3378
829.412	3340
829.551	3321
829.69	3348
829.829	3416
829.968	3492
830.107	3382
830.246	3450
830.385	3389
830.524	3370
830.663	3264
830.802	3256
830.941	3154
831.08	3199
831.219	3279
831.357	3264
831.496	3386
831.635	3222
831.774	3180
831.913	3180
832.051	3108
832.19	3104
832.329	3203
832.467	3154
832.606	3066
832.744	3154
832.883	3188
833.022	3169
833.16	3241
833.299	3268
833.437	3348
833.576	3321
833.714	3401
833.852	3447
833.991	3416
834.129	3450
834.267	3420
834.406	3389
834.544	3420
834.682	3420
834.821	3412
834.959	3587
835.097	3424
835.235	3511
835.373	3435
835.511	3492
835.65	3447
835.788	3511
835.926	3382
836.064	3359
836.202	3424
836.34	3530
836.478	3580
836.615	3523
836.753	3584
836.891	3622
837.029	3595
837.167	3595
837.305	3523
837.443	3534
837.58	3466
837.718	3564
837.856	3557
837.993	3492
838.131	3606
838.269	3591
838.406	3564
838.544	3561
838.681	3481
838.819	3439
838.956	3332
839.094	3363
839.231	3454
839.369	3542
839.506	3724
839.643	3606
839.781	3469
839.918	3458
840.055	3507
840.193	3504
840.33	3538
840.467	3564
840.604	3572
840.742	3827
840.879	3545
841.016	3542
841.153	3637
841.29	3732
841.427	3709
841.564	3686
841.701	3751
841.838	3660
841.975	3682
842.112	3694
842.249	3641
842.385	3614
842.522	3759
842.659	3660
842.796	3629
842.933	3694
843.069	3724
843.206	3686
843.343	3785
843.479	3762
843.616	3747
843.752	3675
843.889	3656
844.025	3827
844.162	3709
844.298	3846
844.435	3755
844.571	3759
844.708	3869
844.844	3949
844.98	4006
845.117	3972
845.253	3892
845.389	3899
845.525	3956
845.661	3911
845.798	3880
845.934	4010
846.07	3941
846.206	4063
846.342	4101
846.478	4025
846.614	3991
846.75	3930
846.886	3937
847.022	4025
847.158	3960
847.294	3964
847.429	3987
847.565	3972
847.701	4215
847.837	3865
847.972	3823
848.108	3918
848.244	3930
848.379	3835
848.515	3785
848.65	3831
848.786	3854
848.921	3857
849.057	3884
849.192	3945
849.328	3842
849.463	3884
849.598	3876
849.734	3899
849.869	3835
850.004	3736
850.14	3842
850.275	3774
850.41	3728
850.545	3736
850.68	3740
850.815	3743
850.95	3842
851.085	3926
851.22	3835
851.355	3816
851.49	3793
851.625	3781
851.76	3800
851.895	3720
852.03	3717
852.165	3781
852.299	3827
852.434	3857
852.569	3857
852.703	3854
852.838	3930
852.973	3975
853.107	3975
853.242	3918
853.376	3831
853.511	3778
853.645	3816
853.78	3975
853.914	3846
854.048	3884
854.183	3884
854.317	3922
854.451	4048
854.585	3884
854.72	3953
854.854	4002
854.988	3926
855.122	4013
855.256	3869
855.39	4010
855.524	4101
855.658	4055
855.792	4086
855.926	4105
856.06	4177
856.194	4219
856.327	4105
856.461	4185
856.595	4147
856.729	4181
856.862	4257
856.996	4215
857.13	4253
857.263	4329
857.397	4329
857.53	4230
857.664	4371
857.797	4367
857.931	4379
858.064	4348
858.197	4447
858.331	4402
858.464	4375
858.597	4314
858.731	4405
858.864	4447
858.997	4447
859.13	4535
859.263	4542
859.396	4493
859.529	4481
859.662	4508
859.795	4493
859.928	4611
860.061	4702
860.194	4721
860.327	4656
860.46	4649
860.592	4748
860.725	4714
860.858	4778
860.99	4668
861.123	4691
861.256	4710
861.388	4778
861.521	5318
861.653	4733
861.786	4675
861.918	4714
862.05	4793
862.183	4847
862.315	4854
862.447	4930
862.58	4919
862.712	4805
862.844	4736
862.976	4873
863.108	4911
863.24	5201
863.372	4805
863.504	4896
863.636	4885
863.768	4927
863.9	4984
864.032	4919
864.164	4927
864.296	4934
864.428	5090
864.559	5113
864.691	5124
864.823	5132
864.954	5128
865.086	5105
865.217	5121
865.349	5109
865.48	5151
865.612	5212
865.743	5277
865.875	5185
866.006	5162
866.137	5208
866.269	5261
866.4	5235
866.531	5212
866.662	5193
866.793	5326
866.924	5250
867.055	5273
867.186	5307
867.317	5345
867.448	5307
867.579	5379
867.71	5368
867.841	5326
867.972	5478
868.103	5463
868.233	5463
868.364	5467
868.495	5524
868.625	5653
868.756	5790
868.886	5638
869.017	5752
869.147	5802
869.278	5790
869.408	5840
869.539	5828
869.669	5923
869.799	5866
869.929	5988
870.06	6022
870.19	6182
870.32	6163
870.45	6270
870.58	6323
870.71	6395
870.84	6407
870.97	6388
871.1	6486
871.23	6631
871.36	6627
871.489	6673
871.619	6749
871.749	6814
871.879	6859
872.008	6951
872.138	6977
872.267	7008
872.397	6973
872.526	6981
872.656	7088
872.785	7137
872.915	7362
873.044	7521
873.173	7487
873.303	7639
873.432	7700
873.561	7864
873.69	7902
873.819	8005
873.948	8115
874.077	8263
874.206	8324
874.335	8434
874.464	8640
874.593	8750
874.722	9013
874.851	9146
874.979	9146
875.108	9351
875.237	9386
875.365	9488
875.494	9660
875.623	9869
875.751	9819
875.88	9964
876.008	10112
876.136	10219
876.265	10523
876.393	10778
876.521	10729
876.65	10782
876.778	10839
876.906	10919
877.034	10999
877.162	11109
877.29	11185
877.418	11246
877.546	11273
877.674	11406
877.802	11486
877.93	11558
878.058	11608
878.185	11642
878.313	11589
878.441	11688
878.568	11699
878.696	11813
878.824	11836
878.951	11908
879.079	11961
879.206	12068
879.333	12057
879.461	12003
879.588	12068
879.715	12083
879.842	12224
879.97	12011
880.097	11954
880.224	11908
880.351	11904
880.478	11805
880.605	11813
880.732	11859
880.859	12049
880.986	11828
881.112	11775
881.239	11707
881.366	11649
881.493	11710
881.619	11463
881.746	11570
881.872	11528
881.999	11444
882.125	11482
882.252	11528
882.378	11528
882.505	11535
882.631	11353
882.757	11284
882.883	11299
883.01	11242
883.136	11151
883.262	11208
883.388	11117
883.514	11227
883.64	11132
883.766	11075
883.892	10980
884.018	10995
884.143	10999
884.269	11010
884.395	10847
884.52	10828
884.646	10748
884.772	10634
884.897	10656
885.023	10683
885.148	10679
885.274	10805
885.399	10679
885.524	10637
885.65	10508
885.775	10573
885.9	10569
886.025	10596
886.15	10573
886.275	10417
886.4	10329
886.525	10402
886.65	10379
886.775	10360
886.9	10478
887.025	10561
887.149	10280
887.274	10173
887.399	10173
887.523	10128
887.648	10135
887.773	10147
887.897	10223
888.021	10227
888.146	10154
888.27	10227
888.395	10200
888.519	10223
888.643	10169
888.767	10192
888.891	10071
889.015	10002
889.139	10051
889.263	9979
889.387	9953
889.511	10147
889.635	10074
889.759	9899
889.883	10025
890.006	10029
890.13	10124
890.254	9873
890.377	9968
890.501	9827
890.624	9831
890.748	9915
890.871	9740
890.995	9724
891.118	9663
891.241	9755
891.364	9690
891.488	9819
891.611	9671
891.734	9755
891.857	9781
891.98	9606
892.103	9747
892.226	9797
892.349	9618
892.471	9500
892.594	9568
892.717	9675
892.839	9644
892.962	9580
893.085	9606
893.207	9564
893.33	9500
893.452	9561
893.575	9553
893.697	9462
893.819	9595
893.941	9603
894.064	9542
894.186	9439
894.308	9382
894.43	9454
894.552	9526
894.674	9523
894.796	9355
894.918	9389
895.04	9291
895.161	9332
895.283	9386
895.405	9302
895.526	9336
895.648	9214
895.769	9260
895.891	9184
896.012	9264
896.134	9154
896.255	9176
896.376	9146
896.498	9127
896.619	9112
896.74	9009
896.861	9036
896.982	9264
897.103	9283
897.224	9112
897.345	9032
897.466	8941
897.587	8990
897.708	9097
897.828	9017
897.949	8906
898.07	8925
898.19	8887
898.311	9020
898.431	8777
898.552	8876
898.672	8990
898.792	8960
898.913	8811
899.033	8807
899.153	8651
899.273	8602
899.393	8792
899.513	8682
899.633	8739
899.753	8716
899.873	8708
899.993	8701
900.113	8689
900.232	8773
900.352	8602
900.472	8594
900.591	8514
900.711	8488
900.83	8480
900.95	8625
901.069	8682
901.189	8556
901.308	8454
901.427	8301
901.546	8393
901.665	8461
901.784	8514
901.904	8355
902.023	8320
902.141	8176
902.26	8229
902.379	8237
902.498	8214
902.617	8286
902.735	8202
902.854	8279
902.973	8206
903.091	8130
903.21	8069
903.328	8183
903.446	8164
903.565	8050
903.683	8088
903.801	8107
903.919	8100
904.038	8107
904.156	8027
904.274	8039
904.392	8031
904.51	8039
904.627	8054
904.745	8043
904.863	8050
904.981	7921
905.098	7902
905.216	7875
905.334	7856
905.451	7917
905.569	7814
905.686	7871
905.803	7898
905.921	7799
906.038	7833
906.155	7761
906.272	7689
906.389	7708
906.506	7651
906.623	7620
906.74	7563
906.857	7537
906.974	7582
907.091	7639
907.208	7693
907.324	7594
907.441	7548
907.557	7441
907.674	7388
907.79	7343
907.907	7377
908.023	7422
908.139	7411
908.256	7335
908.372	7362
908.488	7327
908.604	7232
908.72	7209
908.836	7236
908.952	7259
909.068	7266
909.184	7293
909.3	7209
909.415	7289
909.531	7244
909.647	7080
909.762	7107
909.878	7091
909.993	7126
910.108	7072
910.224	7038
910.339	7076
910.454	7023
910.57	6962
910.685	6993
910.8	7118
910.915	7076
911.03	7038
911.145	6897
911.259	6875
911.374	6920
911.489	6768
911.604	6798
911.718	6684
911.833	6738
911.947	6688
912.062	6627
912.176	6654
912.291	6722
912.405	6768
912.519	6798
912.633	6852
912.748	6688
912.862	6673
912.976	6597
913.09	6532
913.204	6597
913.318	6570
913.431	6627
913.545	6681
913.659	6707
913.772	6608
913.886	6612
914	6551
914.113	6570
914.226	6582
914.34	6509
914.453	6456
914.566	6582
914.68	6559
914.793	6513
914.906	6433
915.019	6429
915.132	6380
915.245	6486
915.358	6433
915.47	6410
915.583	6467
915.696	6471
915.809	6532
915.921	6509
916.034	6437
916.146	6376
916.259	6365
916.371	6437
916.483	6426
916.595	6418
916.708	6448
916.82	6380
916.932	6365
917.044	6388
917.156	6388
917.268	6281
917.38	6319
917.491	6304
917.603	6239
917.715	6369
917.826	6467
917.938	6277
918.049	6228
918.161	6338
918.272	6407
918.384	6410
918.495	6315
918.606	6220
918.717	6205
918.828	6213
918.939	6300
919.05	6205
919.161	6232
919.272	6121
919.383	6121
919.494	6296
919.604	6445
919.715	6315
919.826	6182
919.936	6239
920.047	6334
920.157	6277
920.267	6361
920.378	6296
920.488	6247
920.598	6395
920.708	6547
920.818	6445
920.928	6395
921.038	6601
921.148	6585
921.258	6357
921.368	6201
921.477	6243
921.587	6140
921.697	6072
921.806	6140
921.916	6060
922.025	5958
922.134	5897
922.244	5847
922.353	5923
922.462	5813
922.571	5802
922.68	5699
922.789	5707
922.898	5722
923.007	5619
923.116	5688
923.224	5623
923.333	5672
923.442	5554
923.55	5520
923.659	5562
923.767	5630
923.876	5577
923.984	5581
924.092	5535
924.201	5551
924.309	5539
924.417	5535
924.525	5455
924.633	5505
924.741	6235
924.849	5414
924.956	5467
925.064	5296
925.172	5315
925.279	5318
925.387	5360
925.494	5261
925.602	5421
925.709	5337
925.816	5277
925.924	5341
926.031	5387
926.138	5322
926.245	5337
926.352	5216
926.459	5265
926.566	5303
926.673	5189
926.779	5090
926.886	5124
926.993	5003
927.099	5025
927.206	4949
927.312	4938
927.419	4984
927.525	4957
927.631	4968
927.737	4870
927.843	4812
927.95	4744
928.056	4831
928.162	4839
928.267	4828
928.373	5242
928.479	4870
928.585	4714
928.69	4744
928.796	4797
928.901	4721
929.007	4615
929.112	4706
929.218	4615
929.323	4580
929.428	4512
929.533	4645
929.638	4489
929.743	4500
929.848	4554
929.953	4497
930.058	4432
930.163	4348
930.267	4314
930.372	4402
930.477	4322
930.581	4432
930.685	4333
930.79	4265
930.894	4227
930.998	4242
931.103	4341
931.207	4078
931.311	4097
931.415	4048
931.519	3918
931.623	3972
