Data from glass_V78500241_1437.txt Node
Date: Wed Sep 01 19:24:27 CST 2021
User: usil
Spectrometer: V785-0024
Trigger mode: 0
Integration Time (sec): 4.000000E-1
Scans to average: 1
Nonlinearity correction enabled: false
Boxcar width: 0
Storing dark spectrum: false
XAxis mode: Wavelengths
Number of Pixels in Spectrum: 1024
>>>>>Begin Spectral Data<<<<<
801.071	3724
801.214	3785
801.356	3751
801.499	3747
801.641	3698
801.783	3766
801.926	3892
802.068	3861
802.211	3842
802.353	3869
802.496	3816
802.638	3880
802.78	3918
802.923	3911
803.065	3899
803.208	3857
803.35	3865
803.492	3884
803.635	3911
803.777	3823
803.919	3896
804.061	4128
804.204	3994
804.346	3907
804.488	3922
804.63	4021
804.773	3979
804.915	3998
805.057	4158
805.199	4071
805.341	4169
805.483	4120
805.626	4139
805.768	4120
805.91	4192
806.052	4246
806.194	4230
806.336	4325
806.478	4219
806.62	4177
806.762	4234
806.904	4310
807.046	4386
807.188	4249
807.33	4173
807.472	4223
807.614	4196
807.756	4284
807.898	4166
808.04	4238
808.182	4318
808.324	4341
808.465	4356
808.607	4481
808.749	4421
808.891	4428
809.033	4459
809.174	4424
809.316	4249
809.458	4238
809.6	4173
809.741	4169
809.883	4109
810.025	4200
810.166	4181
810.308	4219
810.45	4276
810.591	4261
810.733	4284
810.875	4535
811.016	4805
811.158	5162
811.299	5318
811.441	5288
811.582	5102
811.724	4660
811.865	4447
812.007	4497
812.148	4455
812.29	4405
812.431	4421
812.573	4390
812.714	4386
812.855	4459
812.997	4443
813.138	4497
813.279	4405
813.421	4363
813.562	4356
813.703	4322
813.845	4325
813.986	4287
814.127	4181
814.268	4272
814.41	4272
814.551	4268
814.692	4314
814.833	4238
814.974	4268
815.115	4344
815.256	4238
815.397	4246
815.539	4287
815.68	4253
815.821	4188
815.962	4337
816.103	4337
816.244	4261
816.385	4249
816.526	4314
816.666	4238
816.807	4143
816.948	4192
817.089	4181
817.23	4128
817.371	3994
817.512	4059
817.653	4071
817.793	4013
817.934	4036
818.075	4097
818.216	4051
818.356	4101
818.497	3998
818.638	3915
818.778	3949
818.919	3915
819.06	3869
819.2	3926
819.341	3857
819.481	3880
819.622	3918
819.762	4021
819.903	3964
820.043	3865
820.184	3838
820.324	3827
820.465	3899
820.605	3892
820.746	3888
820.886	3793
821.026	3930
821.167	3918
821.307	4017
821.447	3983
821.588	3964
821.728	3972
821.868	3907
822.008	3892
822.149	3884
822.289	3892
822.429	3785
822.569	3797
822.709	3823
822.849	3690
822.99	3732
823.13	3770
823.27	3797
823.41	3728
823.55	3751
823.69	3755
823.83	3740
823.97	3728
824.11	3614
824.25	3614
824.389	3622
824.529	3682
824.669	3671
824.809	3713
824.949	3785
825.089	3762
825.228	3641
825.368	3591
825.508	3553
825.648	3580
825.787	3572
825.927	3641
826.067	3618
826.206	3633
826.346	3759
826.485	3842
826.625	3869
826.765	3907
826.904	3831
827.044	3610
827.183	3561
827.323	3401
827.462	3507
827.601	3443
827.741	3393
827.88	3462
828.02	3389
828.159	3447
828.298	3496
828.437	3481
828.577	3488
828.716	3568
828.855	3507
828.994	3374
829.134	3374
829.273	3340
829.412	3348
829.551	3348
829.69	3386
829.829	3409
829.968	3561
830.107	3447
830.246	3439
830.385	3389
830.524	3340
830.663	3325
830.802	3264
830.941	3199
831.08	3169
831.219	3275
831.357	3233
831.496	3363
831.635	3245
831.774	3161
831.913	3211
832.051	3119
832.19	3146
832.329	3211
832.467	3154
832.606	3108
832.744	3207
832.883	3169
833.022	3218
833.16	3268
833.299	3294
833.437	3348
833.576	3367
833.714	3420
833.852	3458
833.991	3469
834.129	3454
834.267	3431
834.406	3389
834.544	3439
834.682	3428
834.821	3405
834.959	3553
835.097	3393
835.235	3523
835.373	3488
835.511	3473
835.65	3447
835.788	3504
835.926	3405
836.064	3409
836.202	3412
836.34	3580
836.478	3625
836.615	3553
836.753	3568
836.891	3625
837.029	3584
837.167	3576
837.305	3542
837.443	3507
837.58	3507
837.718	3584
837.856	3553
837.993	3511
838.131	3622
838.269	3564
838.406	3580
838.544	3568
838.681	3454
838.819	3485
838.956	3405
839.094	3389
839.231	3469
839.369	3534
839.506	3747
839.643	3633
839.781	3477
839.918	3462
840.055	3542
840.193	3519
840.33	3545
840.467	3526
840.604	3625
840.742	3819
840.879	3534
841.016	3576
841.153	3595
841.29	3770
841.427	3698
841.564	3720
841.701	3747
841.838	3671
841.975	3660
842.112	3720
842.249	3641
842.385	3648
842.522	3831
842.659	3694
842.796	3652
842.933	3701
843.069	3701
843.206	3713
843.343	3797
843.479	3781
843.616	3812
843.752	3701
843.889	3686
844.025	3854
844.162	3694
844.298	3838
844.435	3789
844.571	3793
844.708	3903
844.844	3991
844.98	3987
845.117	4010
845.253	3915
845.389	3941
845.525	3941
845.661	3991
845.798	3918
845.934	4021
846.07	3918
846.206	4059
846.342	4093
846.478	4059
846.614	3956
846.75	3926
846.886	3930
847.022	4040
847.158	4002
847.294	3998
847.429	4044
847.565	4002
847.701	4246
847.837	3907
847.972	3896
848.108	3972
848.244	3922
848.379	3846
848.515	3857
848.65	3850
848.786	3812
848.921	3861
849.057	3903
849.192	3949
849.328	3880
849.463	3911
849.598	3880
849.734	3819
849.869	3850
850.004	3789
850.14	3838
850.275	3766
850.41	3770
850.545	3762
850.68	3766
850.815	3793
850.95	3835
851.085	3941
851.22	3884
851.355	3869
851.49	3793
851.625	3781
851.76	3823
851.895	3778
852.03	3720
852.165	3819
852.299	3812
852.434	3915
852.569	3838
852.703	3899
852.838	3907
852.973	4017
853.107	4029
853.242	3865
853.376	3888
853.511	3747
853.645	3804
853.78	4032
853.914	3930
854.048	3884
854.183	3880
854.317	3968
854.451	4074
854.585	3983
854.72	3968
854.854	4055
854.988	3934
855.122	3998
855.256	3926
855.39	4002
855.524	4090
855.658	4101
855.792	4135
855.926	4112
856.06	4204
856.194	4185
856.327	4200
856.461	4055
856.595	4169
856.729	4177
856.862	4284
856.996	4253
857.13	4303
857.263	4325
857.397	4379
857.53	4322
857.664	4363
857.797	4402
857.931	4405
858.064	4421
858.197	4485
858.331	4413
858.464	4383
858.597	4367
858.731	4428
858.864	4462
858.997	4413
859.13	4573
859.263	4592
859.396	4607
859.529	4497
859.662	4554
859.795	4508
859.928	4592
860.061	4656
860.194	4759
860.327	4653
860.46	4653
860.592	4740
860.725	4675
860.858	4812
860.99	4694
861.123	4710
861.256	4691
861.388	4763
861.521	5330
861.653	4649
861.786	4714
861.918	4771
862.05	4786
862.183	4828
862.315	4858
862.447	4938
862.58	4870
862.712	4805
862.844	4774
862.976	4831
863.108	4854
863.24	5185
863.372	4870
863.504	4938
863.636	4915
863.768	4980
863.9	4965
864.032	4946
864.164	4942
864.296	5033
864.428	5067
864.559	5102
864.691	5147
864.823	5140
864.954	5079
865.086	5185
865.217	5083
865.349	5113
865.48	5178
865.612	5220
865.743	5261
865.875	5265
866.006	5227
866.137	5223
866.269	5181
866.4	5261
866.531	5273
866.662	5201
866.793	5345
866.924	5303
867.055	5364
867.186	5357
867.317	5315
867.448	5334
867.579	5398
867.71	5322
867.841	5406
867.972	5490
868.103	5486
868.233	5501
868.364	5482
868.495	5528
868.625	5668
868.756	5786
868.886	5695
869.017	5741
869.147	5790
869.278	5836
869.408	5817
869.539	5836
869.669	5908
869.799	5973
869.929	5980
870.06	6015
870.19	6251
870.32	6133
870.45	6247
870.58	6365
870.71	6467
870.84	6475
870.97	6429
871.1	6429
871.23	6700
871.36	6692
871.489	6654
871.619	6741
871.749	6787
871.879	6859
872.008	7027
872.138	6996
872.267	7031
872.397	7053
872.526	7019
872.656	7099
872.785	7209
872.915	7396
873.044	7491
873.173	7499
873.303	7658
873.432	7734
873.561	7875
873.69	7890
873.819	7974
873.948	8073
874.077	8214
874.206	8358
874.335	8450
874.464	8659
874.593	8830
874.722	8906
874.851	9119
874.979	9230
875.108	9355
875.237	9428
875.365	9397
875.494	9580
875.623	9854
875.751	9846
875.88	9991
876.008	10128
876.136	10238
876.265	10424
876.393	10645
876.521	10774
876.65	10911
876.778	10885
876.906	10881
877.034	10938
877.162	11094
877.29	11086
877.418	11326
877.546	11315
877.674	11429
877.802	11414
877.93	11543
878.058	11566
878.185	11524
878.313	11581
878.441	11695
878.568	11729
878.696	11767
878.824	11813
878.951	11931
879.079	12011
879.206	12133
879.333	12140
879.461	11999
879.588	12083
879.715	12026
879.842	12148
879.97	12026
880.097	11893
880.224	11889
880.351	11855
880.478	11866
880.605	11828
880.732	11851
880.859	12019
880.986	11813
881.112	11878
881.239	11668
881.366	11695
881.493	11577
881.619	11573
881.746	11562
881.872	11577
881.999	11486
882.125	11493
882.252	11543
882.378	11554
882.505	11615
882.631	11391
882.757	11250
882.883	11383
883.01	11277
883.136	11189
883.262	11208
883.388	11086
883.514	11132
883.64	11109
883.766	11102
883.892	11018
884.018	10999
884.143	11083
884.269	11113
884.395	10812
884.52	10740
884.646	10763
884.772	10672
884.897	10683
885.023	10630
885.148	10721
885.274	10797
885.399	10683
885.524	10645
885.65	10565
885.775	10607
885.9	10615
886.025	10546
886.15	10641
886.275	10417
886.4	10352
886.525	10405
886.65	10436
886.775	10325
886.9	10504
887.025	10527
887.149	10276
887.274	10230
887.399	10154
887.523	10147
887.648	10120
887.773	10082
887.897	10192
888.021	10185
888.146	10120
888.27	10166
888.395	10242
888.519	10192
888.643	10185
888.767	10097
888.891	10074
889.015	10090
889.139	10021
889.263	9983
889.387	10021
889.511	10135
889.635	10029
889.759	9937
889.883	10006
890.006	9998
890.13	10109
890.254	9960
890.377	9930
890.501	9831
890.624	9846
890.748	9854
890.871	9838
890.995	9865
891.118	9724
891.241	9740
891.364	9778
891.488	9797
891.611	9648
891.734	9701
891.857	9766
891.98	9720
892.103	9766
892.226	9690
892.349	9641
892.471	9507
892.594	9587
892.717	9625
892.839	9603
892.962	9606
893.085	9652
893.207	9599
893.33	9515
893.452	9488
893.575	9614
893.697	9580
893.819	9614
893.941	9580
894.064	9648
894.186	9378
894.308	9420
894.43	9572
894.552	9553
894.674	9496
894.796	9348
894.918	9363
895.04	9351
895.161	9439
895.283	9412
895.405	9176
895.526	9268
895.648	9264
895.769	9287
895.891	9279
896.012	9294
896.134	9199
896.255	9127
896.376	9089
896.498	9039
896.619	9097
896.74	9062
896.861	9138
896.982	9272
897.103	9336
897.224	9188
897.345	9077
897.466	9055
897.587	9036
897.708	9108
897.828	9005
897.949	9020
898.07	8902
898.19	8887
898.311	8967
898.431	8864
898.552	8880
898.672	9077
898.792	8948
898.913	8880
899.033	8800
899.153	8701
899.273	8674
899.393	8712
899.513	8746
899.633	8682
899.753	8735
899.873	8712
899.993	8830
900.113	8746
900.232	8693
900.352	8697
900.472	8613
900.591	8549
900.711	8606
900.83	8545
900.95	8663
901.069	8758
901.189	8583
901.308	8473
901.427	8396
901.546	8393
901.665	8480
901.784	8473
901.904	8385
902.023	8339
902.141	8233
902.26	8244
902.379	8282
902.498	8210
902.617	8259
902.735	8263
902.854	8320
902.973	8248
903.091	8088
903.21	8123
903.328	8111
903.446	8103
903.565	8111
903.683	8157
903.801	8043
903.919	8153
904.038	8119
904.156	7997
904.274	8092
904.392	8001
904.51	8012
904.627	8077
904.745	8027
904.863	8119
904.981	7909
905.098	7852
905.216	7932
905.334	7970
905.451	7841
905.569	7860
905.686	7921
905.803	7883
905.921	7689
906.038	7868
906.155	7818
906.272	7723
906.389	7738
906.506	7639
906.623	7685
906.74	7601
906.857	7575
906.974	7578
907.091	7639
907.208	7685
907.324	7605
907.441	7586
907.557	7480
907.674	7445
907.79	7396
907.907	7460
908.023	7438
908.139	7388
908.256	7369
908.372	7388
908.488	7403
908.604	7194
908.72	7247
908.836	7308
908.952	7209
909.068	7270
909.184	7263
909.3	7244
909.415	7316
909.531	7247
909.647	7187
909.762	7091
909.878	7088
909.993	7137
910.108	7114
910.224	7095
910.339	7149
910.454	7080
910.57	6989
910.685	6928
910.8	7156
910.915	7076
911.03	7027
911.145	6814
911.259	6844
911.374	6833
911.489	6818
911.604	6837
911.718	6802
911.833	6791
911.947	6627
912.062	6631
912.176	6665
912.291	6738
912.405	6688
912.519	6783
912.633	6818
912.748	6688
912.862	6673
912.976	6585
913.09	6547
913.204	6601
913.318	6536
913.431	6684
913.545	6688
913.659	6665
913.772	6669
913.886	6490
914	6532
914.113	6620
914.226	6612
914.34	6582
914.453	6521
914.566	6585
914.68	6551
914.793	6517
914.906	6426
915.019	6403
915.132	6418
915.245	6334
915.358	6384
915.47	6437
915.583	6433
915.696	6494
915.809	6506
915.921	6513
916.034	6426
916.146	6357
916.259	6456
916.371	6445
916.483	6441
916.595	6353
916.708	6437
916.82	6380
916.932	6388
917.044	6464
917.156	6403
917.268	6300
917.38	6319
917.491	6342
917.603	6342
917.715	6365
917.826	6433
917.938	6327
918.049	6201
918.161	6292
918.272	6475
918.384	6422
918.495	6372
918.606	6285
918.717	6190
918.828	6346
918.939	6266
919.05	6190
919.161	6266
919.272	6155
919.383	6129
919.494	6327
919.604	6410
919.715	6273
919.826	6201
919.936	6247
920.047	6304
920.157	6258
920.267	6467
920.378	6357
920.488	6311
920.598	6460
920.708	6551
920.818	6441
920.928	6441
921.038	6547
921.148	6559
921.258	6300
921.368	6315
921.477	6243
921.587	6182
921.697	6091
921.806	6171
921.916	6110
922.025	5973
922.134	5878
922.244	5863
922.353	5950
922.462	5885
922.571	5821
922.68	5691
922.789	5707
922.898	5745
923.007	5600
923.116	5699
923.224	5665
923.333	5688
923.442	5596
923.55	5512
923.659	5596
923.767	5638
923.876	5532
923.984	5585
924.092	5532
924.201	5566
924.309	5539
924.417	5551
924.525	5471
924.633	5505
924.741	6064
924.849	5417
924.956	5448
925.064	5315
925.172	5258
925.279	5284
925.387	5353
925.494	5353
925.602	5444
925.709	5368
925.816	5299
925.924	5269
926.031	5349
926.138	5299
926.245	5318
926.352	5197
926.459	5296
926.566	5330
926.673	5181
926.779	5162
926.886	5094
926.993	4995
927.099	4976
927.206	5010
927.312	5045
927.419	4999
927.525	4927
927.631	4972
927.737	4896
927.843	4854
927.95	4744
928.056	4820
928.162	4809
928.267	4877
928.373	5277
928.479	4839
928.585	4656
928.69	4843
928.796	4778
928.901	4656
929.007	4588
929.112	4637
929.218	4618
929.323	4599
929.428	4584
929.533	4656
929.638	4508
929.743	4531
929.848	4546
929.953	4512
930.058	4436
930.163	4306
930.267	4352
930.372	4443
930.477	4295
930.581	4470
930.685	4402
930.79	4276
930.894	4344
930.998	4249
931.103	4424
931.207	4135
931.311	4071
931.415	4029
931.519	3953
931.623	3907
