Data from glass_V78500241_2896.txt Node
Date: Wed Sep 01 19:34:34 CST 2021
User: usil
Spectrometer: V785-0024
Trigger mode: 0
Integration Time (sec): 4.000000E-1
Scans to average: 1
Nonlinearity correction enabled: false
Boxcar width: 0
Storing dark spectrum: false
XAxis mode: Wavelengths
Number of Pixels in Spectrum: 1024
>>>>>Begin Spectral Data<<<<<
801.071	3751
801.214	3701
801.356	3701
801.499	3743
801.641	3709
801.783	3740
801.926	3812
802.068	3857
802.211	3812
802.353	3876
802.496	3827
802.638	3884
802.78	3876
802.923	3869
803.065	3835
803.208	3816
803.35	3850
803.492	3854
803.635	3903
803.777	3778
803.919	3892
804.061	4139
804.204	3960
804.346	3888
804.488	3892
804.63	3991
804.773	3956
804.915	4017
805.057	4116
805.199	4010
805.341	4071
805.483	4147
805.626	4101
805.768	4090
805.91	4124
806.052	4227
806.194	4192
806.336	4337
806.478	4185
806.62	4173
806.762	4101
806.904	4223
807.046	4325
807.188	4207
807.33	4207
807.472	4196
807.614	4185
807.756	4215
807.898	4185
808.04	4188
808.182	4257
808.324	4337
808.465	4329
808.607	4417
808.749	4451
808.891	4428
809.033	4455
809.174	4402
809.316	4246
809.458	4177
809.6	4112
809.741	4109
809.883	4112
810.025	4192
810.166	4162
810.308	4177
810.45	4223
810.591	4227
810.733	4268
810.875	4531
811.016	4786
811.158	5064
811.299	5239
811.441	5280
811.582	5052
811.724	4672
811.865	4500
812.007	4424
812.148	4432
812.29	4375
812.431	4356
812.573	4367
812.714	4318
812.855	4390
812.997	4363
813.138	4447
813.279	4386
813.421	4375
813.562	4348
813.703	4314
813.845	4322
813.986	4253
814.127	4204
814.268	4276
814.41	4280
814.551	4261
814.692	4303
814.833	4204
814.974	4253
815.115	4344
815.256	4238
815.397	4200
815.539	4242
815.68	4207
815.821	4181
815.962	4276
816.103	4257
816.244	4227
816.385	4177
816.526	4215
816.666	4204
816.807	4097
816.948	4135
817.089	4112
817.23	4082
817.371	3975
817.512	4040
817.653	4082
817.793	3998
817.934	4025
818.075	4097
818.216	4051
818.356	3983
818.497	3960
818.638	3915
818.778	3876
818.919	3876
819.06	3827
819.2	3865
819.341	3896
819.481	3804
819.622	3953
819.762	3983
819.903	3922
820.043	3827
820.184	3816
820.324	3827
820.465	3842
820.605	3835
820.746	3827
820.886	3789
821.026	3937
821.167	3888
821.307	3960
821.447	3903
821.588	3915
821.728	3926
821.868	3911
822.008	3880
822.149	3869
822.289	3846
822.429	3751
822.569	3720
822.709	3793
822.849	3671
822.99	3656
823.13	3709
823.27	3774
823.41	3663
823.55	3667
823.69	3679
823.83	3686
823.97	3599
824.11	3606
824.25	3603
824.389	3564
824.529	3637
824.669	3599
824.809	3648
824.949	3717
825.089	3705
825.228	3660
825.368	3553
825.508	3568
825.648	3561
825.787	3564
825.927	3599
826.067	3603
826.206	3625
826.346	3755
826.485	3812
826.625	3819
826.765	3899
826.904	3816
827.044	3599
827.183	3500
827.323	3409
827.462	3443
827.601	3405
827.741	3447
827.88	3401
828.02	3363
828.159	3401
828.298	3469
828.437	3511
828.577	3439
828.716	3534
828.855	3435
828.994	3355
829.134	3321
829.273	3367
829.412	3344
829.551	3325
829.69	3313
829.829	3389
829.968	3545
830.107	3416
830.246	3424
830.385	3355
830.524	3329
830.663	3302
830.802	3218
830.941	3188
831.08	3165
831.219	3237
831.357	3306
831.496	3393
831.635	3241
831.774	3180
831.913	3192
832.051	3093
832.19	3135
832.329	3180
832.467	3138
832.606	3081
832.744	3123
832.883	3211
833.022	3154
833.16	3230
833.299	3298
833.437	3298
833.576	3374
833.714	3401
833.852	3458
833.991	3412
834.129	3420
834.267	3405
834.406	3386
834.544	3386
834.682	3409
834.821	3397
834.959	3557
835.097	3405
835.235	3485
835.373	3435
835.511	3477
835.65	3439
835.788	3523
835.926	3367
836.064	3367
836.202	3412
836.34	3545
836.478	3606
836.615	3515
836.753	3542
836.891	3644
837.029	3584
837.167	3530
837.305	3515
837.443	3507
837.58	3500
837.718	3580
837.856	3515
837.993	3504
838.131	3542
838.269	3580
838.406	3549
838.544	3564
838.681	3439
838.819	3469
838.956	3363
839.094	3363
839.231	3454
839.369	3492
839.506	3728
839.643	3614
839.781	3439
839.918	3454
840.055	3496
840.193	3519
840.33	3477
840.467	3564
840.604	3542
840.742	3793
840.879	3507
841.016	3515
841.153	3534
841.29	3732
841.427	3690
841.564	3698
841.701	3743
841.838	3660
841.975	3652
842.112	3690
842.249	3629
842.385	3629
842.522	3819
842.659	3648
842.796	3660
842.933	3660
843.069	3694
843.206	3713
843.343	3759
843.479	3747
843.616	3804
843.752	3629
843.889	3663
844.025	3804
844.162	3694
844.298	3808
844.435	3778
844.571	3747
844.708	3888
844.844	3968
844.98	4025
845.117	4044
845.253	3918
845.389	3884
845.525	3956
845.661	3892
845.798	3899
845.934	3960
846.07	3953
846.206	4006
846.342	4124
846.478	4071
846.614	3934
846.75	3907
846.886	3899
847.022	3998
847.158	3972
847.294	4017
847.429	4002
847.565	3937
847.701	4242
847.837	3861
847.972	3838
848.108	3979
848.244	3899
848.379	3854
848.515	3778
848.65	3774
848.786	3804
848.921	3819
849.057	3903
849.192	3899
849.328	3903
849.463	3899
849.598	3876
849.734	3838
849.869	3778
850.004	3770
850.14	3854
850.275	3770
850.41	3740
850.545	3774
850.68	3759
850.815	3804
850.95	3759
851.085	3888
851.22	3838
851.355	3831
851.49	3724
851.625	3774
851.76	3789
851.895	3694
852.03	3698
852.165	3759
852.299	3838
852.434	3896
852.569	3816
852.703	3804
852.838	3922
852.973	3972
853.107	3972
853.242	3857
853.376	3857
853.511	3709
853.645	3766
853.78	3998
853.914	3869
854.048	3846
854.183	3842
854.317	3930
854.451	4025
854.585	3949
854.72	3899
854.854	4006
854.988	3896
855.122	3953
855.256	3926
855.39	4010
855.524	4036
855.658	4074
855.792	4063
855.926	4143
856.06	4177
856.194	4169
856.327	4090
856.461	4078
856.595	4120
856.729	4116
856.862	4253
856.996	4223
857.13	4322
857.263	4272
857.397	4329
857.53	4287
857.664	4329
857.797	4363
857.931	4409
858.064	4413
858.197	4455
858.331	4341
858.464	4405
858.597	4333
858.731	4363
858.864	4421
858.997	4421
859.13	4451
859.263	4538
859.396	4535
859.529	4493
859.662	4470
859.795	4462
859.928	4565
860.061	4656
860.194	4702
860.327	4660
860.46	4660
860.592	4668
860.725	4721
860.858	4763
860.99	4698
861.123	4634
861.256	4683
861.388	4748
861.521	5387
861.653	4740
861.786	4702
861.918	4691
862.05	4733
862.183	4801
862.315	4858
862.447	4873
862.58	4839
862.712	4828
862.844	4786
862.976	4896
863.108	4847
863.24	5159
863.372	4839
863.504	4877
863.636	4850
863.768	4946
863.9	4930
864.032	4892
864.164	4862
864.296	4961
864.428	5048
864.559	5014
864.691	5075
864.823	5079
864.954	5083
865.086	5155
865.217	5128
865.349	5056
865.48	5113
865.612	5159
865.743	5254
865.875	5197
866.006	5197
866.137	5201
866.269	5242
866.4	5258
866.531	5235
866.662	5216
866.793	5288
866.924	5258
867.055	5299
867.186	5334
867.317	5258
867.448	5280
867.579	5341
867.71	5372
867.841	5341
867.972	5429
868.103	5471
868.233	5433
868.364	5471
868.495	5497
868.625	5634
868.756	5752
868.886	5665
869.017	5767
869.147	5832
869.278	5783
869.408	5817
869.539	5718
869.669	5901
869.799	5863
869.929	5996
870.06	5973
870.19	6136
870.32	6163
870.45	6216
870.58	6327
870.71	6380
870.84	6448
870.97	6418
871.1	6399
871.23	6623
871.36	6627
871.489	6627
871.619	6688
871.749	6787
871.879	6848
872.008	6939
872.138	7008
872.267	6962
872.397	6932
872.526	6970
872.656	7038
872.785	7149
872.915	7373
873.044	7491
873.173	7480
873.303	7636
873.432	7708
873.561	7849
873.69	7894
873.819	7997
873.948	8157
874.077	8206
874.206	8271
874.335	8419
874.464	8636
874.593	8788
874.722	8944
874.851	9055
874.979	9207
875.108	9325
875.237	9412
875.365	9401
875.494	9641
875.623	9816
875.751	9804
875.88	9953
876.008	10063
876.136	10291
876.265	10527
876.393	10626
876.521	10698
876.65	10786
876.778	10740
876.906	10915
877.034	10968
877.162	10984
877.29	11075
877.418	11254
877.546	11341
877.674	11330
877.802	11482
877.93	11520
878.058	11505
878.185	11547
878.313	11608
878.441	11737
878.568	11623
878.696	11646
878.824	11836
878.951	11855
879.079	11942
879.206	12019
879.333	11958
879.461	11939
879.588	12049
879.715	12079
879.842	12178
879.97	12091
880.097	11870
880.224	11866
880.351	11817
880.478	11809
880.605	11771
880.732	11809
880.859	11942
880.986	11783
881.112	11828
881.239	11684
881.366	11649
881.493	11619
881.619	11493
881.746	11516
881.872	11505
881.999	11509
882.125	11516
882.252	11611
882.378	11482
882.505	11478
882.631	11368
882.757	11254
882.883	11296
883.01	11239
883.136	11174
883.262	11079
883.388	11033
883.514	11147
883.64	11143
883.766	11079
883.892	10980
884.018	10961
884.143	10984
884.269	11079
884.395	10892
884.52	10744
884.646	10702
884.772	10641
884.897	10649
885.023	10653
885.148	10649
885.274	10649
885.399	10683
885.524	10550
885.65	10596
885.775	10565
885.9	10481
886.025	10500
886.15	10542
886.275	10413
886.4	10382
886.525	10402
886.65	10398
886.775	10306
886.9	10451
887.025	10462
887.149	10306
887.274	10261
887.399	10147
887.523	10173
887.648	10109
887.773	10120
887.897	10196
888.021	10158
888.146	10090
888.27	10150
888.395	10196
888.519	10082
888.643	10166
888.767	10097
888.891	10055
889.015	9937
889.139	10021
889.263	9964
889.387	10017
889.511	10131
889.635	10010
889.759	9918
889.883	9922
890.006	9922
890.13	10071
890.254	9857
890.377	9861
890.501	9797
890.624	9934
890.748	9789
890.871	9755
890.995	9751
891.118	9629
891.241	9671
891.364	9709
891.488	9846
891.611	9694
891.734	9698
891.857	9755
891.98	9724
892.103	9751
892.226	9701
892.349	9633
892.471	9450
892.594	9507
892.717	9576
892.839	9530
892.962	9614
893.085	9564
893.207	9534
893.33	9431
893.452	9473
893.575	9466
893.697	9477
893.819	9595
893.941	9515
894.064	9511
894.186	9397
894.308	9363
894.43	9515
894.552	9545
894.674	9447
894.796	9363
894.918	9336
895.04	9310
895.161	9313
895.283	9302
895.405	9230
895.526	9214
895.648	9180
895.769	9283
895.891	9268
896.012	9272
896.134	9264
896.255	9157
896.376	9093
896.498	9131
896.619	9112
896.74	9055
896.861	9097
896.982	9233
897.103	9195
897.224	9169
897.345	9039
897.466	8979
897.587	8944
897.708	8998
897.828	9039
897.949	8902
898.07	8853
898.19	8906
898.311	8910
898.431	8842
898.552	8891
898.672	8956
898.792	8853
898.913	8868
899.033	8766
899.153	8781
899.273	8632
899.393	8678
899.513	8781
899.633	8720
899.753	8731
899.873	8659
899.993	8712
900.113	8686
900.232	8743
900.352	8708
900.472	8625
900.591	8511
900.711	8583
900.83	8571
900.95	8640
901.069	8678
901.189	8476
901.308	8408
901.427	8370
901.546	8404
901.665	8457
901.784	8385
901.904	8366
902.023	8298
902.141	8248
902.26	8130
902.379	8214
902.498	8199
902.617	8138
902.735	8275
902.854	8259
902.973	8225
903.091	8149
903.21	8138
903.328	8115
903.446	8065
903.565	8096
903.683	8088
903.801	8046
903.919	8088
904.038	8062
904.156	8005
904.274	8103
904.392	7963
904.51	8058
904.627	8012
904.745	8046
904.863	8077
904.981	7879
905.098	7890
905.216	7887
905.334	7822
905.451	7833
905.569	7811
905.686	7898
905.803	7849
905.921	7761
906.038	7902
906.155	7788
906.272	7670
906.389	7761
906.506	7605
906.623	7533
906.74	7567
906.857	7571
906.974	7502
907.091	7677
907.208	7712
907.324	7624
907.441	7518
907.557	7369
907.674	7483
907.79	7320
907.907	7350
908.023	7426
908.139	7457
908.256	7343
908.372	7392
908.488	7297
908.604	7213
908.72	7187
908.836	7217
908.952	7183
909.068	7240
909.184	7285
909.3	7240
909.415	7251
909.531	7236
909.647	7114
909.762	7008
909.878	7061
909.993	7126
910.108	7095
910.224	7080
910.339	7019
910.454	6985
910.57	6932
910.685	6951
910.8	7137
910.915	7008
911.03	6996
911.145	6856
911.259	6909
911.374	6878
911.489	6810
911.604	6776
911.718	6703
911.833	6700
911.947	6608
912.062	6623
912.176	6684
912.291	6662
912.405	6662
912.519	6726
912.633	6779
912.748	6772
912.862	6677
912.976	6551
913.09	6525
913.204	6536
913.318	6551
913.431	6707
913.545	6658
913.659	6684
913.772	6650
913.886	6464
914	6574
914.113	6585
914.226	6627
914.34	6563
914.453	6441
914.566	6513
914.68	6486
914.793	6525
914.906	6388
915.019	6327
915.132	6334
915.245	6422
915.358	6475
915.47	6391
915.583	6384
915.696	6414
915.809	6426
915.921	6467
916.034	6376
916.146	6437
916.259	6327
916.371	6395
916.483	6441
916.595	6331
916.708	6422
916.82	6429
916.932	6384
917.044	6380
917.156	6327
917.268	6289
917.38	6357
917.491	6277
917.603	6281
917.715	6304
917.826	6445
917.938	6338
918.049	6228
918.161	6327
918.272	6456
918.384	6410
918.495	6285
918.606	6266
918.717	6175
918.828	6281
918.939	6205
919.05	6159
919.161	6220
919.272	6114
919.383	6167
919.494	6216
919.604	6357
919.715	6251
919.826	6182
919.936	6235
920.047	6243
920.157	6254
920.267	6422
920.378	6270
920.488	6277
920.598	6403
920.708	6547
920.818	6437
920.928	6399
921.038	6585
921.148	6597
921.258	6342
921.368	6205
921.477	6197
921.587	6133
921.697	6087
921.806	6121
921.916	6068
922.025	5923
922.134	5870
922.244	5817
922.353	5954
922.462	5832
922.571	5764
922.68	5676
922.789	5611
922.898	5710
923.007	5665
923.116	5672
923.224	5638
923.333	5619
923.442	5535
923.55	5539
923.659	5581
923.767	5604
923.876	5539
923.984	5543
924.092	5505
924.201	5570
924.309	5505
924.417	5516
924.525	5501
924.633	5436
924.741	6091
924.849	5330
924.956	5417
925.064	5357
925.172	5258
925.279	5303
925.387	5387
925.494	5364
925.602	5444
925.709	5391
925.816	5220
925.924	5292
926.031	5387
926.138	5299
926.245	5315
926.352	5197
926.459	5296
926.566	5326
926.673	5170
926.779	5109
926.886	5067
926.993	4968
927.099	4991
927.206	4968
927.312	4976
927.419	4968
927.525	4980
927.631	4980
927.737	4843
927.843	4828
927.95	4744
928.056	4805
928.162	4774
928.267	4881
928.373	5315
928.479	4812
928.585	4668
928.69	4752
928.796	4763
928.901	4603
929.007	4577
929.112	4679
929.218	4592
929.323	4615
929.428	4489
929.533	4641
929.638	4462
929.743	4504
929.848	4512
929.953	4451
930.058	4428
930.163	4356
930.267	4352
930.372	4409
930.477	4284
930.581	4409
930.685	4291
930.79	4211
930.894	4249
930.998	4272
931.103	4383
931.207	4105
931.311	4086
931.415	3991
931.519	3903
931.623	3903
