Data from glass_V78500241_180.txt Node
Date: Wed Sep 01 19:15:44 CST 2021
User: usil
Spectrometer: V785-0024
Trigger mode: 0
Integration Time (sec): 4.000000E-1
Scans to average: 1
Nonlinearity correction enabled: false
Boxcar width: 0
Storing dark spectrum: false
XAxis mode: Wavelengths
Number of Pixels in Spectrum: 1024
>>>>>Begin Spectral Data<<<<<
801.071	3751
801.214	3770
801.356	3740
801.499	3759
801.641	3732
801.783	3778
801.926	3850
802.068	3846
802.211	3903
802.353	3915
802.496	3873
802.638	3926
802.78	3926
802.923	3937
803.065	3903
803.208	3873
803.35	3941
803.492	3911
803.635	3941
803.777	3789
803.919	3888
804.061	4181
804.204	3960
804.346	3987
804.488	3918
804.63	4032
804.773	3994
804.915	4074
805.057	4169
805.199	4109
805.341	4131
805.483	4173
805.626	4139
805.768	4124
805.91	4230
806.052	4249
806.194	4185
806.336	4398
806.478	4207
806.62	4219
806.762	4215
806.904	4318
807.046	4322
807.188	4242
807.33	4204
807.472	4238
807.614	4219
807.756	4322
807.898	4219
808.04	4238
808.182	4287
808.324	4333
808.465	4402
808.607	4451
808.749	4451
808.891	4485
809.033	4500
809.174	4421
809.316	4280
809.458	4265
809.6	4188
809.741	4147
809.883	4166
810.025	4257
810.166	4261
810.308	4280
810.45	4276
810.591	4253
810.733	4318
810.875	4474
811.016	4831
811.158	5117
811.299	5288
811.441	5292
811.582	5094
811.724	4744
811.865	4474
812.007	4516
812.148	4421
812.29	4466
812.431	4424
812.573	4405
812.714	4325
812.855	4390
812.997	4447
813.138	4493
813.279	4455
813.421	4344
813.562	4428
813.703	4318
813.845	4352
813.986	4268
814.127	4272
814.268	4314
814.41	4322
814.551	4261
814.692	4367
814.833	4318
814.974	4337
815.115	4356
815.256	4257
815.397	4253
815.539	4257
815.68	4200
815.821	4215
815.962	4318
816.103	4337
816.244	4253
816.385	4246
816.526	4280
816.666	4234
816.807	4105
816.948	4219
817.089	4177
817.23	4154
817.371	4090
817.512	4139
817.653	4086
817.793	4090
817.934	4071
818.075	4120
818.216	4093
818.356	4105
818.497	3991
818.638	3903
818.778	3949
818.919	3888
819.06	3937
819.2	3907
819.341	3865
819.481	3880
819.622	3930
819.762	4055
819.903	3987
820.043	3873
820.184	3831
820.324	3865
820.465	3880
820.605	3846
820.746	3888
820.886	3823
821.026	3991
821.167	3880
821.307	4025
821.447	4029
821.588	4021
821.728	3964
821.868	3956
822.008	3907
822.149	3922
822.289	3941
822.429	3823
822.569	3781
822.709	3819
822.849	3690
822.99	3759
823.13	3797
823.27	3831
823.41	3751
823.55	3751
823.69	3728
823.83	3755
823.97	3728
824.11	3633
824.25	3629
824.389	3660
824.529	3679
824.669	3663
824.809	3762
824.949	3797
825.089	3774
825.228	3728
825.368	3603
825.508	3584
825.648	3557
825.787	3591
825.927	3724
826.067	3660
826.206	3717
826.346	3762
826.485	3850
826.625	3892
826.765	3972
826.904	3857
827.044	3614
827.183	3530
827.323	3450
827.462	3496
827.601	3435
827.741	3454
827.88	3496
828.02	3382
828.159	3443
828.298	3477
828.437	3580
828.577	3496
828.716	3644
828.855	3534
828.994	3405
829.134	3397
829.273	3439
829.412	3363
829.551	3348
829.69	3374
829.829	3443
829.968	3511
830.107	3458
830.246	3477
830.385	3393
830.524	3367
830.663	3348
830.802	3241
830.941	3245
831.08	3192
831.219	3272
831.357	3291
831.496	3409
831.635	3237
831.774	3173
831.913	3180
832.051	3176
832.19	3176
832.329	3230
832.467	3169
832.606	3184
832.744	3188
832.883	3233
833.022	3237
833.16	3291
833.299	3291
833.437	3374
833.576	3386
833.714	3447
833.852	3469
833.991	3405
834.129	3473
834.267	3435
834.406	3431
834.544	3412
834.682	3420
834.821	3409
834.959	3568
835.097	3431
835.235	3564
835.373	3477
835.511	3473
835.65	3477
835.788	3492
835.926	3412
836.064	3397
836.202	3397
836.34	3580
836.478	3629
836.615	3542
836.753	3610
836.891	3686
837.029	3576
837.167	3641
837.305	3591
837.443	3561
837.58	3534
837.718	3606
837.856	3595
837.993	3553
838.131	3568
838.269	3637
838.406	3625
838.544	3587
838.681	3439
838.819	3473
838.956	3363
839.094	3378
839.231	3431
839.369	3530
839.506	3755
839.643	3686
839.781	3500
839.918	3424
840.055	3557
840.193	3545
840.33	3549
840.467	3568
840.604	3572
840.742	3838
840.879	3584
841.016	3584
841.153	3614
841.29	3797
841.427	3762
841.564	3724
841.701	3770
841.838	3732
841.975	3690
842.112	3740
842.249	3629
842.385	3660
842.522	3861
842.659	3690
842.796	3701
842.933	3675
843.069	3698
843.206	3709
843.343	3797
843.479	3793
843.616	3838
843.752	3686
843.889	3724
844.025	3831
844.162	3747
844.298	3831
844.435	3823
844.571	3797
844.708	3896
844.844	4010
844.98	4040
845.117	4032
845.253	3960
845.389	3903
845.525	3975
845.661	4010
845.798	3907
845.934	4006
846.07	3918
846.206	4097
846.342	4131
846.478	4074
846.614	3998
846.75	3960
846.886	3945
847.022	4078
847.158	3991
847.294	3949
847.429	4025
847.565	4002
847.701	4253
847.837	3896
847.972	3876
848.108	3975
848.244	4013
848.379	3857
848.515	3850
848.65	3842
848.786	3797
848.921	3876
849.057	3915
849.192	3945
849.328	3926
849.463	3945
849.598	3903
849.734	3922
849.869	3842
850.004	3835
850.14	3835
850.275	3755
850.41	3751
850.545	3740
850.68	3781
850.815	3808
850.95	3797
851.085	3945
851.22	3861
851.355	3842
851.49	3804
851.625	3835
851.76	3831
851.895	3740
852.03	3747
852.165	3823
852.299	3873
852.434	3915
852.569	3876
852.703	3896
852.838	3964
852.973	4051
853.107	4013
853.242	3918
853.376	3857
853.511	3789
853.645	3838
853.78	3991
853.914	3930
854.048	3880
854.183	3899
854.317	3915
854.451	4067
854.585	3964
854.72	3968
854.854	4029
854.988	3918
855.122	3994
855.256	3937
855.39	4013
855.524	4147
855.658	4086
855.792	4135
855.926	4147
856.06	4246
856.194	4234
856.327	4154
856.461	4101
856.595	4173
856.729	4177
856.862	4291
856.996	4242
857.13	4299
857.263	4318
857.397	4375
857.53	4318
857.664	4375
857.797	4443
857.931	4398
858.064	4417
858.197	4493
858.331	4436
858.464	4375
858.597	4375
858.731	4443
858.864	4459
858.997	4508
859.13	4546
859.263	4554
859.396	4599
859.529	4538
859.662	4573
859.795	4558
859.928	4618
860.061	4729
860.194	4755
860.327	4698
860.46	4664
860.592	4733
860.725	4786
860.858	4748
860.99	4656
861.123	4694
861.256	4679
861.388	4809
861.521	5444
861.653	4752
861.786	4729
861.918	4721
862.05	4755
862.183	4862
862.315	4889
862.447	4957
862.58	4877
862.712	4763
862.844	4790
862.976	4885
863.108	4858
863.24	5258
863.372	4843
863.504	4862
863.636	4904
863.768	4961
863.9	4957
864.032	4980
864.164	4942
864.296	5045
864.428	5037
864.559	5117
864.691	5128
864.823	5162
864.954	5086
865.086	5155
865.217	5102
865.349	5155
865.48	5155
865.612	5162
865.743	5265
865.875	5197
866.006	5204
866.137	5227
866.269	5288
866.4	5250
866.531	5235
866.662	5273
866.793	5341
866.924	5318
867.055	5364
867.186	5360
867.317	5296
867.448	5315
867.579	5421
867.71	5349
867.841	5379
867.972	5459
868.103	5452
868.233	5512
868.364	5543
868.495	5581
868.625	5714
868.756	5722
868.886	5623
869.017	5733
869.147	5878
869.278	5950
869.408	5809
869.539	5851
869.669	5908
869.799	5916
869.929	5984
870.06	6003
870.19	6178
870.32	6190
870.45	6266
870.58	6342
870.71	6433
870.84	6467
870.97	6452
871.1	6452
871.23	6635
871.36	6798
871.489	6722
871.619	6719
871.749	6814
871.879	6867
872.008	7023
872.138	6939
872.267	7015
872.397	6989
872.526	7099
872.656	7129
872.785	7187
872.915	7445
873.044	7525
873.173	7518
873.303	7670
873.432	7731
873.561	7936
873.69	7928
873.819	8027
873.948	8240
874.077	8259
874.206	8393
874.335	8476
874.464	8644
874.593	8895
874.722	9009
874.851	9146
874.979	9283
875.108	9363
875.237	9447
875.365	9469
875.494	9629
875.623	9774
875.751	9838
875.88	10002
876.008	10120
876.136	10207
876.265	10523
876.393	10634
876.521	10721
876.65	10801
876.778	10862
876.906	10896
877.034	11048
877.162	11113
877.29	11102
877.418	11288
877.546	11334
877.674	11509
877.802	11482
877.93	11524
878.058	11570
878.185	11501
878.313	11691
878.441	11722
878.568	11661
878.696	11764
878.824	11889
878.951	11927
879.079	12030
879.206	12243
879.333	12083
879.461	11988
879.588	12079
879.715	12045
879.842	12232
879.97	12125
880.097	12003
880.224	11912
880.351	11855
880.478	11977
880.605	11904
880.732	11863
880.859	12015
880.986	11756
881.112	11859
881.239	11748
881.366	11634
881.493	11642
881.619	11589
881.746	11596
881.872	11608
881.999	11558
882.125	11505
882.252	11573
882.378	11493
882.505	11585
882.631	11360
882.757	11288
882.883	11322
883.01	11280
883.136	11178
883.262	11056
883.388	11102
883.514	11136
883.64	11181
883.766	11151
883.892	10991
884.018	11113
884.143	11052
884.269	11117
884.395	10782
884.52	10801
884.646	10816
884.772	10767
884.897	10634
885.023	10740
885.148	10778
885.274	10805
885.399	10763
885.524	10554
885.65	10550
885.775	10641
885.9	10561
886.025	10641
886.15	10561
886.275	10436
886.4	10390
886.525	10382
886.65	10432
886.775	10371
886.9	10443
887.025	10519
887.149	10310
887.274	10299
887.399	10295
887.523	10238
887.648	10109
887.773	10109
887.897	10196
888.021	10257
888.146	10097
888.27	10291
888.395	10242
888.519	10238
888.643	10169
888.767	10207
888.891	10078
889.015	10013
889.139	10078
889.263	9937
889.387	10082
889.511	10169
889.635	10082
889.759	9972
889.883	10036
890.006	9960
890.13	10112
890.254	10002
890.377	9937
890.501	9865
890.624	9937
890.748	9880
890.871	9770
890.995	9808
891.118	9648
891.241	9751
891.364	9743
891.488	9842
891.611	9671
891.734	9736
891.857	9819
891.98	9720
892.103	9838
892.226	9751
892.349	9690
892.471	9545
892.594	9644
892.717	9682
892.839	9603
892.962	9618
893.085	9698
893.207	9542
893.33	9511
893.452	9549
893.575	9701
893.697	9454
893.819	9606
893.941	9610
894.064	9587
894.186	9412
894.308	9397
894.43	9545
894.552	9576
894.674	9523
894.796	9329
894.918	9431
895.04	9351
895.161	9386
895.283	9340
895.405	9230
895.526	9275
895.648	9241
895.769	9340
895.891	9241
896.012	9260
896.134	9256
896.255	9249
896.376	9192
896.498	9135
896.619	9135
896.74	9058
896.861	9169
896.982	9279
897.103	9294
897.224	9237
897.345	9119
897.466	8986
897.587	9062
897.708	9108
897.828	9028
897.949	8941
898.07	8902
898.19	8902
898.311	9085
898.431	8929
898.552	8971
898.672	8990
898.792	8982
898.913	8883
899.033	8785
899.153	8720
899.273	8659
899.393	8746
899.513	8762
899.633	8689
899.753	8769
899.873	8777
899.993	8830
900.113	8766
900.232	8697
900.352	8651
900.472	8659
900.591	8640
900.711	8644
900.83	8613
900.95	8682
901.069	8746
901.189	8575
901.308	8385
901.427	8415
901.546	8415
901.665	8450
901.784	8571
901.904	8343
902.023	8465
902.141	8301
902.26	8126
902.379	8294
902.498	8180
902.617	8279
902.735	8332
902.854	8259
902.973	8282
903.091	8130
903.21	8176
903.328	8142
903.446	8073
903.565	8043
903.683	8092
903.801	8134
903.919	8168
904.038	8096
904.156	8043
904.274	8119
904.392	8016
904.51	8103
904.627	8058
904.745	8123
904.863	8134
904.981	7921
905.098	7875
905.216	7852
905.334	7940
905.451	7970
905.569	7879
905.686	7947
905.803	7906
905.921	7883
906.038	7875
906.155	7753
906.272	7704
906.389	7757
906.506	7670
906.623	7647
906.74	7624
906.857	7533
906.974	7590
907.091	7757
907.208	7761
907.324	7616
907.441	7537
907.557	7449
907.674	7480
907.79	7422
907.907	7472
908.023	7468
908.139	7491
908.256	7377
908.372	7411
908.488	7358
908.604	7327
908.72	7263
908.836	7289
908.952	7232
909.068	7278
909.184	7270
909.3	7225
909.415	7331
909.531	7263
909.647	7126
909.762	7088
909.878	7122
909.993	7103
910.108	7088
910.224	7065
910.339	7122
910.454	7004
910.57	6939
910.685	6977
910.8	7206
910.915	7122
911.03	7019
911.145	6897
911.259	6890
911.374	6875
911.489	6802
911.604	6795
911.718	6768
911.833	6703
911.947	6669
912.062	6639
912.176	6734
912.291	6692
912.405	6665
912.519	6840
912.633	6856
912.748	6738
912.862	6741
912.976	6620
913.09	6547
913.204	6593
913.318	6620
913.431	6684
913.545	6654
913.659	6741
913.772	6623
913.886	6566
914	6574
914.113	6620
914.226	6646
914.34	6608
914.453	6483
914.566	6635
914.68	6544
914.793	6525
914.906	6448
915.019	6437
915.132	6372
915.245	6391
915.358	6403
915.47	6513
915.583	6456
915.696	6467
915.809	6608
915.921	6517
916.034	6407
916.146	6414
916.259	6452
916.371	6460
916.483	6464
916.595	6414
916.708	6426
916.82	6403
916.932	6380
917.044	6403
917.156	6407
917.268	6334
917.38	6395
917.491	6353
917.603	6384
917.715	6433
917.826	6433
917.938	6376
918.049	6235
918.161	6285
918.272	6426
918.384	6433
918.495	6285
918.606	6243
918.717	6289
918.828	6266
918.939	6224
919.05	6159
919.161	6289
919.272	6186
919.383	6159
919.494	6239
919.604	6395
919.715	6311
919.826	6277
919.936	6262
920.047	6304
920.157	6315
920.267	6399
920.378	6369
920.488	6304
920.598	6441
920.708	6570
920.818	6479
920.928	6429
921.038	6616
921.148	6650
921.258	6369
921.368	6319
921.477	6178
921.587	6186
921.697	6121
921.806	6190
921.916	6057
922.025	5999
922.134	5988
922.244	5893
922.353	5931
922.462	5908
922.571	5786
922.68	5737
922.789	5665
922.898	5710
923.007	5703
923.116	5707
923.224	5680
923.333	5691
923.442	5608
923.55	5600
923.659	5547
923.767	5668
923.876	5474
923.984	5615
924.092	5535
924.201	5554
924.309	5596
924.417	5589
924.525	5478
924.633	5486
924.741	6140
924.849	5402
924.956	5467
925.064	5364
925.172	5273
925.279	5299
925.387	5372
925.494	5345
925.602	5414
925.709	5387
925.816	5292
925.924	5360
926.031	5345
926.138	5322
926.245	5330
926.352	5250
926.459	5337
926.566	5368
926.673	5231
926.779	5201
926.886	5136
926.993	4999
927.099	4991
927.206	4972
927.312	4934
927.419	5022
927.525	5010
927.631	5022
927.737	4911
927.843	4930
927.95	4801
928.056	4831
928.162	4885
928.267	4797
928.373	5303
928.479	4839
928.585	4694
928.69	4831
928.796	4786
928.901	4694
929.007	4641
929.112	4714
929.218	4653
929.323	4611
929.428	4577
929.533	4649
929.638	4538
929.743	4546
929.848	4580
929.953	4519
930.058	4459
930.163	4363
930.267	4341
930.372	4405
930.477	4337
930.581	4523
930.685	4360
930.79	4276
930.894	4299
930.998	4284
931.103	4379
931.207	4181
931.311	4150
931.415	4067
931.519	3960
931.623	3937
