Data from glass_V78500241_1672.txt Node
Date: Wed Sep 01 19:26:05 CST 2021
User: usil
Spectrometer: V785-0024
Trigger mode: 0
Integration Time (sec): 4.000000E-1
Scans to average: 1
Nonlinearity correction enabled: false
Boxcar width: 0
Storing dark spectrum: false
XAxis mode: Wavelengths
Number of Pixels in Spectrum: 1024
>>>>>Begin Spectral Data<<<<<
801.071	3736
801.214	3800
801.356	3728
801.499	3724
801.641	3740
801.783	3751
801.926	3888
802.068	3800
802.211	3857
802.353	3907
802.496	3857
802.638	3857
802.78	3915
802.923	3907
803.065	3873
803.208	3876
803.35	3835
803.492	3903
803.635	3892
803.777	3766
803.919	3903
804.061	4101
804.204	3979
804.346	3953
804.488	3960
804.63	4059
804.773	3964
804.915	3998
805.057	4135
805.199	4040
805.341	4097
805.483	4131
805.626	4139
805.768	4135
805.91	4249
806.052	4242
806.194	4185
806.336	4310
806.478	4169
806.62	4166
806.762	4169
806.904	4249
807.046	4348
807.188	4227
807.33	4158
807.472	4173
807.614	4219
807.756	4295
807.898	4238
808.04	4253
808.182	4306
808.324	4314
808.465	4371
808.607	4493
808.749	4481
808.891	4443
809.033	4481
809.174	4398
809.316	4268
809.458	4230
809.6	4120
809.741	4166
809.883	4181
810.025	4173
810.166	4192
810.308	4227
810.45	4295
810.591	4246
810.733	4306
810.875	4508
811.016	4812
811.158	5147
811.299	5261
811.441	5341
811.582	5098
811.724	4691
811.865	4516
812.007	4451
812.148	4470
812.29	4428
812.431	4383
812.573	4405
812.714	4360
812.855	4402
812.997	4379
813.138	4489
813.279	4428
813.421	4337
813.562	4375
813.703	4333
813.845	4322
813.986	4238
814.127	4249
814.268	4299
814.41	4287
814.551	4253
814.692	4337
814.833	4265
814.974	4322
815.115	4363
815.256	4223
815.397	4261
815.539	4238
815.68	4185
815.821	4196
815.962	4306
816.103	4272
816.244	4181
816.385	4242
816.526	4284
816.666	4188
816.807	4093
816.948	4211
817.089	4181
817.23	4158
817.371	4044
817.512	4017
817.653	4082
817.793	4029
817.934	4013
818.075	4124
818.216	4071
818.356	4055
818.497	3953
818.638	3880
818.778	3896
818.919	3892
819.06	3884
819.2	3922
819.341	3892
819.481	3819
819.622	3854
819.762	4013
819.903	3934
820.043	3861
820.184	3842
820.324	3823
820.465	3857
820.605	3869
820.746	3896
820.886	3823
821.026	3941
821.167	3930
821.307	3983
821.447	4013
821.588	3964
821.728	3964
821.868	3934
822.008	3892
822.149	3899
822.289	3922
822.429	3808
822.569	3743
822.709	3831
822.849	3682
822.99	3709
823.13	3736
823.27	3766
823.41	3701
823.55	3747
823.69	3717
823.83	3720
823.97	3660
824.11	3587
824.25	3618
824.389	3644
824.529	3690
824.669	3660
824.809	3736
824.949	3743
825.089	3705
825.228	3709
825.368	3580
825.508	3538
825.648	3557
825.787	3610
825.927	3633
826.067	3591
826.206	3648
826.346	3766
826.485	3831
826.625	3823
826.765	3941
826.904	3816
827.044	3580
827.183	3504
827.323	3454
827.462	3481
827.601	3443
827.741	3397
827.88	3462
828.02	3393
828.159	3416
828.298	3481
828.437	3515
828.577	3488
828.716	3587
828.855	3507
828.994	3393
829.134	3355
829.273	3409
829.412	3386
829.551	3367
829.69	3359
829.829	3424
829.968	3496
830.107	3443
830.246	3412
830.385	3405
830.524	3367
830.663	3291
830.802	3275
830.941	3154
831.08	3188
831.219	3279
831.357	3222
831.496	3370
831.635	3272
831.774	3195
831.913	3268
832.051	3108
832.19	3176
832.329	3237
832.467	3131
832.606	3104
832.744	3157
832.883	3176
833.022	3211
833.16	3211
833.299	3329
833.437	3325
833.576	3393
833.714	3416
833.852	3443
833.991	3481
834.129	3477
834.267	3454
834.406	3359
834.544	3466
834.682	3428
834.821	3412
834.959	3549
835.097	3420
835.235	3515
835.373	3496
835.511	3515
835.65	3462
835.788	3496
835.926	3386
836.064	3386
836.202	3424
836.34	3584
836.478	3622
836.615	3549
836.753	3584
836.891	3644
837.029	3580
837.167	3606
837.305	3591
837.443	3519
837.58	3466
837.718	3587
837.856	3523
837.993	3549
838.131	3606
838.269	3625
838.406	3564
838.544	3591
838.681	3473
838.819	3466
838.956	3359
839.094	3389
839.231	3466
839.369	3526
839.506	3690
839.643	3663
839.781	3488
839.918	3428
840.055	3557
840.193	3542
840.33	3511
840.467	3534
840.604	3610
840.742	3827
840.879	3545
841.016	3576
841.153	3572
841.29	3743
841.427	3705
841.564	3736
841.701	3778
841.838	3671
841.975	3690
842.112	3743
842.249	3595
842.385	3629
842.522	3804
842.659	3709
842.796	3682
842.933	3717
843.069	3671
843.206	3728
843.343	3816
843.479	3781
843.616	3835
843.752	3690
843.889	3686
844.025	3865
844.162	3660
844.298	3827
844.435	3781
844.571	3816
844.708	3911
844.844	3956
844.98	3991
845.117	3975
845.253	3926
845.389	3915
845.525	3964
845.661	3945
845.798	3911
845.934	4044
846.07	3953
846.206	4051
846.342	4078
846.478	4040
846.614	3945
846.75	3949
846.886	3918
847.022	4010
847.158	3941
847.294	4010
847.429	4021
847.565	4048
847.701	4211
847.837	3903
847.972	3911
848.108	3972
848.244	3960
848.379	3827
848.515	3861
848.65	3778
848.786	3808
848.921	3846
849.057	3903
849.192	3930
849.328	3930
849.463	3903
849.598	3892
849.734	3823
849.869	3842
850.004	3755
850.14	3827
850.275	3793
850.41	3743
850.545	3759
850.68	3812
850.815	3785
850.95	3816
851.085	3911
851.22	3850
851.355	3819
851.49	3762
851.625	3789
851.76	3770
851.895	3698
852.03	3701
852.165	3797
852.299	3846
852.434	3884
852.569	3861
852.703	3873
852.838	3934
852.973	4040
853.107	4010
853.242	3869
853.376	3819
853.511	3778
853.645	3831
853.78	3968
853.914	3873
854.048	3857
854.183	3876
854.317	3926
854.451	4093
854.585	3964
854.72	3945
854.854	4032
854.988	3907
855.122	3983
855.256	3888
855.39	3991
855.524	4101
855.658	4086
855.792	4086
855.926	4116
856.06	4143
856.194	4215
856.327	4128
856.461	4139
856.595	4086
856.729	4166
856.862	4322
856.996	4230
857.13	4287
857.263	4303
857.397	4383
857.53	4268
857.664	4356
857.797	4413
857.931	4386
858.064	4413
858.197	4489
858.331	4341
858.464	4413
858.597	4344
858.731	4466
858.864	4440
858.997	4474
859.13	4546
859.263	4531
859.396	4588
859.529	4497
859.662	4538
859.795	4500
859.928	4592
860.061	4706
860.194	4744
860.327	4668
860.46	4637
860.592	4740
860.725	4706
860.858	4774
860.99	4702
861.123	4733
861.256	4702
861.388	4736
861.521	5474
861.653	4744
861.786	4714
861.918	4748
862.05	4831
862.183	4816
862.315	4896
862.447	4949
862.58	4976
862.712	4763
862.844	4763
862.976	4854
863.108	4881
863.24	5250
863.372	4847
863.504	4915
863.636	4854
863.768	4938
863.9	4938
864.032	4965
864.164	4991
864.296	5022
864.428	5098
864.559	5098
864.691	5136
864.823	5166
864.954	5094
865.086	5109
865.217	5128
865.349	5166
865.48	5159
865.612	5170
865.743	5296
865.875	5231
866.006	5162
866.137	5239
866.269	5227
866.4	5231
866.531	5242
866.662	5235
866.793	5261
866.924	5280
867.055	5376
867.186	5349
867.317	5337
867.448	5269
867.579	5436
867.71	5360
867.841	5414
867.972	5501
868.103	5429
868.233	5452
868.364	5501
868.495	5497
868.625	5608
868.756	5779
868.886	5684
869.017	5726
869.147	5855
869.278	5870
869.408	5771
869.539	5855
869.669	5893
869.799	5912
869.929	5927
870.06	6030
870.19	6182
870.32	6171
870.45	6292
870.58	6372
870.71	6403
870.84	6437
870.97	6471
871.1	6452
871.23	6646
871.36	6684
871.489	6692
871.619	6726
871.749	6806
871.879	6821
872.008	6947
872.138	7000
872.267	6977
872.397	6996
872.526	6981
872.656	7057
872.785	7183
872.915	7384
873.044	7483
873.173	7582
873.303	7624
873.432	7769
873.561	7837
873.69	7932
873.819	8020
873.948	8100
874.077	8225
874.206	8256
874.335	8461
874.464	8670
874.593	8845
874.722	8921
874.851	9211
874.979	9249
875.108	9359
875.237	9416
875.365	9431
875.494	9614
875.623	9838
875.751	9838
875.88	10051
876.008	10105
876.136	10280
876.265	10561
876.393	10721
876.521	10763
876.65	10706
876.778	10854
876.906	10908
877.034	11075
877.162	11052
877.29	11227
877.418	11254
877.546	11364
877.674	11436
877.802	11417
877.93	11509
878.058	11611
878.185	11570
878.313	11657
878.441	11699
878.568	11684
878.696	11745
878.824	11866
878.951	11897
879.079	11961
879.206	12121
879.333	12003
879.461	11893
879.588	12079
879.715	11988
879.842	12262
879.97	12083
880.097	11843
880.224	11775
880.351	11828
880.478	11870
880.605	11786
880.732	11726
880.859	12019
880.986	11783
881.112	11813
881.239	11726
881.366	11608
881.493	11642
881.619	11581
881.746	11535
881.872	11455
881.999	11585
882.125	11509
882.252	11623
882.378	11490
882.505	11570
882.631	11406
882.757	11376
882.883	11334
883.01	11242
883.136	11155
883.262	11136
883.388	11132
883.514	11239
883.64	11143
883.766	11014
883.892	11098
884.018	11025
884.143	11052
884.269	11052
884.395	10759
884.52	10801
884.646	10816
884.772	10786
884.897	10634
885.023	10698
885.148	10774
885.274	10752
885.399	10702
885.524	10607
885.65	10497
885.775	10538
885.9	10580
886.025	10527
886.15	10493
886.275	10481
886.4	10413
886.525	10447
886.65	10348
886.775	10360
886.9	10459
887.025	10580
887.149	10379
887.274	10192
887.399	10158
887.523	10291
887.648	10124
887.773	10131
887.897	10192
888.021	10242
888.146	10135
888.27	10253
888.395	10238
888.519	10181
888.643	10139
888.767	10185
888.891	10059
889.015	10059
889.139	10128
889.263	9911
889.387	10044
889.511	10131
889.635	10044
889.759	9915
889.883	9979
890.006	9930
890.13	10044
890.254	9915
890.377	10013
890.501	9846
890.624	9835
890.748	9876
890.871	9789
890.995	9785
891.118	9705
891.241	9762
891.364	9720
891.488	9831
891.611	9751
891.734	9686
891.857	9728
891.98	9717
892.103	9751
892.226	9701
892.349	9603
892.471	9511
892.594	9625
892.717	9644
892.839	9564
892.962	9671
893.085	9675
893.207	9679
893.33	9584
893.452	9572
893.575	9523
893.697	9469
893.819	9553
893.941	9606
894.064	9599
894.186	9443
894.308	9424
894.43	9466
894.552	9534
894.674	9549
894.796	9382
894.918	9424
895.04	9344
895.161	9416
895.283	9378
895.405	9207
895.526	9222
895.648	9218
895.769	9268
895.891	9272
896.012	9226
896.134	9230
896.255	9222
896.376	9074
896.498	9222
896.619	9180
896.74	9047
896.861	9100
896.982	9214
897.103	9275
897.224	9214
897.345	9112
897.466	9020
897.587	9047
897.708	9123
897.828	9135
897.949	8914
898.07	8834
898.19	8944
898.311	9032
898.431	8895
898.552	8933
898.672	8979
898.792	8952
898.913	8937
899.033	8830
899.153	8731
899.273	8667
899.393	8678
899.513	8792
899.633	8686
899.753	8701
899.873	8712
899.993	8727
900.113	8701
900.232	8708
900.352	8731
900.472	8610
900.591	8537
900.711	8670
900.83	8590
900.95	8648
901.069	8659
901.189	8552
901.308	8438
901.427	8396
901.546	8434
901.665	8431
901.784	8469
901.904	8400
902.023	8279
902.141	8214
902.26	8221
902.379	8290
902.498	8229
902.617	8187
902.735	8339
902.854	8252
902.973	8279
903.091	8103
903.21	8123
903.328	8195
903.446	8100
903.565	8115
903.683	8153
903.801	8103
903.919	8107
904.038	8149
904.156	7982
904.274	8123
904.392	7997
904.51	8001
904.627	8024
904.745	8111
904.863	8119
904.981	7883
905.098	7913
905.216	7879
905.334	7814
905.451	7898
905.569	7883
905.686	7925
905.803	7917
905.921	7776
906.038	7830
906.155	7727
906.272	7742
906.389	7723
906.506	7624
906.623	7636
906.74	7677
906.857	7552
906.974	7556
907.091	7685
907.208	7769
907.324	7609
907.441	7586
907.557	7449
907.674	7388
907.79	7365
907.907	7468
908.023	7487
908.139	7464
908.256	7449
908.372	7381
908.488	7350
908.604	7266
908.72	7297
908.836	7206
908.952	7278
909.068	7278
909.184	7289
909.3	7244
909.415	7308
909.531	7297
909.647	7110
909.762	7091
909.878	7110
909.993	7145
910.108	7034
910.224	7133
910.339	7080
910.454	7046
910.57	6970
910.685	7034
910.8	7175
910.915	7099
911.03	7042
911.145	6856
911.259	6901
911.374	6875
911.489	6859
911.604	6840
911.718	6692
911.833	6681
911.947	6650
912.062	6646
912.176	6703
912.291	6726
912.405	6738
912.519	6798
912.633	6791
912.748	6719
912.862	6772
912.976	6654
913.09	6559
913.204	6570
913.318	6582
913.431	6631
913.545	6654
913.659	6688
913.772	6627
913.886	6612
914	6536
914.113	6627
914.226	6574
914.34	6627
914.453	6479
914.566	6555
914.68	6547
914.793	6578
914.906	6384
915.019	6407
915.132	6357
915.245	6388
915.358	6422
915.47	6490
915.583	6422
915.696	6498
915.809	6589
915.921	6521
916.034	6426
916.146	6437
916.259	6369
916.371	6479
916.483	6521
916.595	6311
916.708	6353
916.82	6410
916.932	6426
917.044	6395
917.156	6376
917.268	6308
917.38	6372
917.491	6338
917.603	6323
917.715	6365
917.826	6376
917.938	6342
918.049	6239
918.161	6323
918.272	6464
918.384	6456
918.495	6292
918.606	6338
918.717	6155
918.828	6311
918.939	6300
919.05	6197
919.161	6319
919.272	6133
919.383	6163
919.494	6308
919.604	6372
919.715	6300
919.826	6251
919.936	6281
920.047	6342
920.157	6258
920.267	6441
920.378	6304
920.488	6304
920.598	6483
920.708	6513
920.818	6483
920.928	6460
921.038	6601
921.148	6555
921.258	6361
921.368	6243
921.477	6289
921.587	6178
921.697	6045
921.806	6190
921.916	6083
922.025	5958
922.134	5916
922.244	5874
922.353	5897
922.462	5828
922.571	5775
922.68	5665
922.789	5680
922.898	5722
923.007	5604
923.116	5767
923.224	5657
923.333	5649
923.442	5551
923.55	5497
923.659	5623
923.767	5592
923.876	5551
923.984	5608
924.092	5474
924.201	5535
924.309	5524
924.417	5532
924.525	5474
924.633	5486
924.741	6243
924.849	5330
924.956	5493
925.064	5311
925.172	5307
925.279	5376
925.387	5349
925.494	5326
925.602	5368
925.709	5387
925.816	5242
925.924	5307
926.031	5387
926.138	5265
926.245	5376
926.352	5250
926.459	5334
926.566	5318
926.673	5170
926.779	5181
926.886	5124
926.993	5037
927.099	5006
927.206	4984
927.312	4995
927.419	5048
927.525	4949
927.631	5025
927.737	4904
927.843	4866
927.95	4809
928.056	4824
928.162	4790
928.267	4892
928.373	5315
928.479	4873
928.585	4694
928.69	4752
928.796	4805
928.901	4691
929.007	4611
929.112	4710
929.218	4607
929.323	4550
929.428	4580
929.533	4710
929.638	4535
929.743	4519
929.848	4558
929.953	4535
930.058	4462
930.163	4314
930.267	4291
930.372	4371
930.477	4303
930.581	4405
930.685	4405
930.79	4230
930.894	4303
930.998	4249
931.103	4383
931.207	4128
931.311	4093
931.415	4036
931.519	3934
931.623	3922
