Data from glass_V78500241_400.txt Node
Date: Wed Sep 01 19:17:16 CST 2021
User: usil
Spectrometer: V785-0024
Trigger mode: 0
Integration Time (sec): 4.000000E-1
Scans to average: 1
Nonlinearity correction enabled: false
Boxcar width: 0
Storing dark spectrum: false
XAxis mode: Wavelengths
Number of Pixels in Spectrum: 1024
>>>>>Begin Spectral Data<<<<<
801.071	3720
801.214	3797
801.356	3770
801.499	3766
801.641	3728
801.783	3789
801.926	3835
802.068	3850
802.211	3884
802.353	3888
802.496	3850
802.638	3880
802.78	3930
802.923	3979
803.065	3892
803.208	3865
803.35	3892
803.492	3945
803.635	3949
803.777	3797
803.919	3911
804.061	4169
804.204	3994
804.346	3979
804.488	3945
804.63	4055
804.773	3979
804.915	4078
805.057	4196
805.199	4032
805.341	4120
805.483	4185
805.626	4120
805.768	4120
805.91	4200
806.052	4268
806.194	4234
806.336	4402
806.478	4253
806.62	4204
806.762	4204
806.904	4284
807.046	4337
807.188	4238
807.33	4227
807.472	4299
807.614	4200
807.756	4287
807.898	4200
808.04	4230
808.182	4284
808.324	4295
808.465	4421
808.607	4478
808.749	4428
808.891	4481
809.033	4504
809.174	4383
809.316	4318
809.458	4272
809.6	4147
809.741	4177
809.883	4192
810.025	4227
810.166	4227
810.308	4204
810.45	4253
810.591	4253
810.733	4299
810.875	4489
811.016	4885
811.158	5113
811.299	5322
811.441	5326
811.582	5045
811.724	4759
811.865	4523
812.007	4474
812.148	4451
812.29	4470
812.431	4428
812.573	4405
812.714	4394
812.855	4390
812.997	4390
813.138	4542
813.279	4466
813.421	4470
813.562	4356
813.703	4371
813.845	4386
813.986	4249
814.127	4291
814.268	4253
814.41	4322
814.551	4329
814.692	4337
814.833	4284
814.974	4276
815.115	4318
815.256	4230
815.397	4272
815.539	4246
815.68	4181
815.821	4200
815.962	4291
816.103	4329
816.244	4249
816.385	4219
816.526	4295
816.666	4204
816.807	4093
816.948	4196
817.089	4200
817.23	4082
817.371	4059
817.512	4067
817.653	4074
817.793	4044
817.934	4086
818.075	4131
818.216	4131
818.356	4097
818.497	4013
818.638	3899
818.778	3903
818.919	3911
819.06	3918
819.2	3979
819.341	3846
819.481	3857
819.622	3922
819.762	4067
819.903	3956
820.043	3876
820.184	3842
820.324	3857
820.465	3953
820.605	3899
820.746	3846
820.886	3835
821.026	3911
821.167	3934
821.307	4010
821.447	3991
821.588	3979
821.728	3941
821.868	3937
822.008	3865
822.149	3911
822.289	3956
822.429	3804
822.569	3785
822.709	3838
822.849	3766
822.99	3713
823.13	3770
823.27	3819
823.41	3667
823.55	3781
823.69	3724
823.83	3743
823.97	3690
824.11	3656
824.25	3618
824.389	3675
824.529	3656
824.669	3660
824.809	3751
824.949	3751
825.089	3797
825.228	3709
825.368	3606
825.508	3610
825.648	3591
825.787	3614
825.927	3698
826.067	3644
826.206	3663
826.346	3781
826.485	3816
826.625	3873
826.765	3934
826.904	3838
827.044	3622
827.183	3580
827.323	3462
827.462	3458
827.601	3435
827.741	3458
827.88	3458
828.02	3405
828.159	3401
828.298	3481
828.437	3526
828.577	3469
828.716	3603
828.855	3504
828.994	3378
829.134	3359
829.273	3386
829.412	3370
829.551	3386
829.69	3435
829.829	3458
829.968	3549
830.107	3462
830.246	3507
830.385	3397
830.524	3344
830.663	3340
830.802	3268
830.941	3226
831.08	3207
831.219	3256
831.357	3302
831.496	3393
831.635	3253
831.774	3199
831.913	3226
832.051	3119
832.19	3184
832.329	3203
832.467	3161
832.606	3112
832.744	3180
832.883	3195
833.022	3233
833.16	3249
833.299	3294
833.437	3336
833.576	3348
833.714	3393
833.852	3454
833.991	3424
834.129	3488
834.267	3439
834.406	3428
834.544	3409
834.682	3454
834.821	3428
834.959	3580
835.097	3420
835.235	3584
835.373	3504
835.511	3481
835.65	3458
835.788	3469
835.926	3424
836.064	3363
836.202	3424
836.34	3530
836.478	3682
836.615	3553
836.753	3633
836.891	3656
837.029	3656
837.167	3667
837.305	3580
837.443	3549
837.58	3507
837.718	3599
837.856	3591
837.993	3553
838.131	3641
838.269	3603
838.406	3633
838.544	3591
838.681	3496
838.819	3504
838.956	3409
839.094	3382
839.231	3488
839.369	3561
839.506	3747
839.643	3637
839.781	3526
839.918	3473
840.055	3523
840.193	3549
840.33	3561
840.467	3580
840.604	3641
840.742	3785
840.879	3606
841.016	3545
841.153	3637
841.29	3781
841.427	3778
841.564	3698
841.701	3759
841.838	3709
841.975	3728
842.112	3755
842.249	3641
842.385	3599
842.522	3903
842.659	3705
842.796	3671
842.933	3743
843.069	3694
843.206	3728
843.343	3819
843.479	3793
843.616	3835
843.752	3694
843.889	3690
844.025	3861
844.162	3709
844.298	3903
844.435	3831
844.571	3797
844.708	3953
844.844	4010
844.98	4032
845.117	4040
845.253	3956
845.389	3903
845.525	3975
845.661	3964
845.798	3930
845.934	4017
846.07	3953
846.206	4048
846.342	4128
846.478	4074
846.614	4021
846.75	3964
846.886	3926
847.022	4029
847.158	4002
847.294	4002
847.429	4048
847.565	4013
847.701	4268
847.837	3926
847.972	3846
848.108	3987
848.244	4010
848.379	3842
848.515	3797
848.65	3804
848.786	3838
848.921	3903
849.057	3903
849.192	3941
849.328	3926
849.463	3911
849.598	3934
849.734	3903
849.869	3835
850.004	3789
850.14	3880
850.275	3819
850.41	3774
850.545	3747
850.68	3827
850.815	3846
850.95	3838
851.085	3911
851.22	3892
851.355	3842
851.49	3797
851.625	3846
851.76	3800
851.895	3751
852.03	3736
852.165	3831
852.299	3842
852.434	3918
852.569	3850
852.703	3854
852.838	3956
852.973	4013
853.107	4036
853.242	3918
853.376	3819
853.511	3770
853.645	3869
853.78	3983
853.914	3918
854.048	3884
854.183	3861
854.317	3945
854.451	4105
854.585	3964
854.72	3945
854.854	4032
854.988	3953
855.122	3994
855.256	3899
855.39	4040
855.524	4135
855.658	4097
855.792	4093
855.926	4078
856.06	4173
856.194	4234
856.327	4166
856.461	4143
856.595	4147
856.729	4181
856.862	4291
856.996	4284
857.13	4299
857.263	4360
857.397	4329
857.53	4303
857.664	4417
857.797	4413
857.931	4459
858.064	4402
858.197	4447
858.331	4402
858.464	4348
858.597	4344
858.731	4409
858.864	4485
858.997	4443
859.13	4519
859.263	4531
859.396	4580
859.529	4546
859.662	4519
859.795	4497
859.928	4592
860.061	4710
860.194	4759
860.327	4649
860.46	4649
860.592	4797
860.725	4767
860.858	4793
860.99	4683
861.123	4706
861.256	4714
861.388	4790
861.521	5410
861.653	4733
861.786	4736
861.918	4755
862.05	4801
862.183	4835
862.315	4885
862.447	4911
862.58	4957
862.712	4828
862.844	4740
862.976	4908
863.108	4870
863.24	5269
863.372	4881
863.504	4881
863.636	4904
863.768	5010
863.9	4984
864.032	4900
864.164	4987
864.296	5060
864.428	5086
864.559	5105
864.691	5109
864.823	5124
864.954	5124
865.086	5109
865.217	5140
865.349	5098
865.48	5159
865.612	5189
865.743	5265
865.875	5220
866.006	5185
866.137	5212
866.269	5239
866.4	5261
866.531	5235
866.662	5223
866.793	5204
866.924	5273
867.055	5360
867.186	5318
867.317	5364
867.448	5341
867.579	5372
867.71	5387
867.841	5414
867.972	5452
868.103	5505
868.233	5573
868.364	5478
868.495	5558
868.625	5638
868.756	5828
868.886	5665
869.017	5805
869.147	5824
869.278	5885
869.408	5817
869.539	5828
869.669	5935
869.799	5973
869.929	5992
870.06	6045
870.19	6129
870.32	6216
870.45	6273
870.58	6361
870.71	6456
870.84	6437
870.97	6388
871.1	6437
871.23	6654
871.36	6711
871.489	6662
871.619	6764
871.749	6791
871.879	6920
872.008	6977
872.138	7008
872.267	7069
872.397	6981
872.526	7110
872.656	7103
872.785	7312
872.915	7392
873.044	7571
873.173	7578
873.303	7639
873.432	7731
873.561	7944
873.69	7883
873.819	8024
873.948	8164
874.077	8244
874.206	8309
874.335	8404
874.464	8636
874.593	8887
874.722	8944
874.851	9154
874.979	9272
875.108	9370
875.237	9435
875.365	9443
875.494	9671
875.623	9759
875.751	9816
875.88	9987
876.008	10169
876.136	10341
876.265	10481
876.393	10740
876.521	10774
876.65	10805
876.778	10835
876.906	10885
877.034	11025
877.162	11113
877.29	11136
877.418	11311
877.546	11425
877.674	11429
877.802	11551
877.93	11589
878.058	11551
878.185	11532
878.313	11699
878.441	11703
878.568	11710
878.696	11813
878.824	11809
878.951	12007
879.079	11996
879.206	12247
879.333	11988
879.461	11923
879.588	12106
879.715	12068
879.842	12232
879.97	12114
880.097	11893
880.224	11840
880.351	11920
880.478	11821
880.605	11897
880.732	11813
880.859	11946
880.986	11843
881.112	11897
881.239	11843
881.366	11737
881.493	11547
881.619	11558
881.746	11577
881.872	11566
881.999	11539
882.125	11448
882.252	11444
882.378	11478
882.505	11551
882.631	11417
882.757	11345
882.883	11356
883.01	11239
883.136	11159
883.262	11109
883.388	11113
883.514	11212
883.64	11227
883.766	11109
883.892	10980
884.018	10946
884.143	11064
884.269	11075
884.395	10820
884.52	10812
884.646	10748
884.772	10679
884.897	10782
885.023	10679
885.148	10710
885.274	10771
885.399	10725
885.524	10660
885.65	10611
885.775	10588
885.9	10580
886.025	10626
886.15	10535
886.275	10535
886.4	10470
886.525	10424
886.65	10405
886.775	10348
886.9	10424
887.025	10531
887.149	10409
887.274	10268
887.399	10234
887.523	10173
887.648	10147
887.773	10185
887.897	10295
888.021	10238
888.146	10109
888.27	10227
888.395	10242
888.519	10188
888.643	10162
888.767	10196
888.891	10078
889.015	9972
889.139	10112
889.263	10051
889.387	10017
889.511	10048
889.635	10032
889.759	9945
889.883	9945
890.006	9968
890.13	10093
890.254	9991
890.377	10017
890.501	9781
890.624	9854
890.748	9907
890.871	9827
890.995	9804
891.118	9728
891.241	9812
891.364	9724
891.488	9755
891.611	9698
891.734	9724
891.857	9785
891.98	9728
892.103	9724
892.226	9743
892.349	9667
892.471	9458
892.594	9663
892.717	9660
892.839	9644
892.962	9637
893.085	9682
893.207	9610
893.33	9599
893.452	9557
893.575	9648
893.697	9557
893.819	9618
893.941	9724
894.064	9652
894.186	9416
894.308	9302
894.43	9519
894.552	9564
894.674	9496
894.796	9397
894.918	9378
895.04	9332
895.161	9359
895.283	9332
895.405	9237
895.526	9313
895.648	9169
895.769	9207
895.891	9188
896.012	9329
896.134	9260
896.255	9146
896.376	9131
896.498	9112
896.619	9039
896.74	9070
896.861	9131
896.982	9268
897.103	9291
897.224	9165
897.345	9058
897.466	9032
897.587	9001
897.708	9138
897.828	8986
897.949	8933
898.07	8921
898.19	9020
898.311	9070
898.431	8864
898.552	8933
898.672	8963
898.792	8994
898.913	8918
899.033	8815
899.153	8766
899.273	8648
899.393	8724
899.513	8693
899.633	8705
899.753	8769
899.873	8750
899.993	8781
900.113	8701
900.232	8663
900.352	8727
900.472	8571
900.591	8568
900.711	8590
900.83	8556
900.95	8667
901.069	8659
901.189	8552
901.308	8446
901.427	8404
901.546	8396
901.665	8434
901.784	8533
901.904	8339
902.023	8358
902.141	8206
902.26	8286
902.379	8332
902.498	8248
902.617	8282
902.735	8313
902.854	8328
902.973	8286
903.091	8161
903.21	8214
903.328	8210
903.446	8142
903.565	8107
903.683	8065
903.801	8111
903.919	8142
904.038	8149
904.156	7970
904.274	8100
904.392	7989
904.51	8043
904.627	8020
904.745	8134
904.863	8157
904.981	7879
905.098	7902
905.216	7868
905.334	7921
905.451	7928
905.569	7967
905.686	7898
905.803	7909
905.921	7738
906.038	7837
906.155	7818
906.272	7719
906.389	7795
906.506	7712
906.623	7628
906.74	7693
906.857	7521
906.974	7571
907.091	7685
907.208	7742
907.324	7636
907.441	7605
907.557	7468
907.674	7487
907.79	7381
907.907	7422
908.023	7396
908.139	7445
908.256	7396
908.372	7384
908.488	7346
908.604	7270
908.72	7228
908.836	7331
908.952	7293
909.068	7251
909.184	7270
909.3	7251
909.415	7335
909.531	7297
909.647	7118
909.762	7091
909.878	7126
909.993	7141
910.108	7141
910.224	7145
910.339	7118
910.454	7103
910.57	6970
910.685	7008
910.8	7168
910.915	7088
911.03	7019
911.145	6951
911.259	6905
911.374	6894
911.489	6852
911.604	6825
911.718	6757
911.833	6673
911.947	6707
912.062	6616
912.176	6711
912.291	6696
912.405	6677
912.519	6856
912.633	6859
912.748	6692
912.862	6715
912.976	6604
913.09	6559
913.204	6623
913.318	6658
913.431	6658
913.545	6688
913.659	6658
913.772	6658
913.886	6582
914	6559
914.113	6620
914.226	6639
914.34	6658
914.453	6528
914.566	6601
914.68	6532
914.793	6547
914.906	6407
915.019	6410
915.132	6338
915.245	6471
915.358	6506
915.47	6445
915.583	6456
915.696	6464
915.809	6525
915.921	6490
916.034	6410
916.146	6456
916.259	6414
916.371	6498
916.483	6464
916.595	6410
916.708	6475
916.82	6399
916.932	6418
917.044	6426
917.156	6422
917.268	6369
917.38	6327
917.491	6350
917.603	6407
917.715	6334
917.826	6429
917.938	6300
918.049	6243
918.161	6388
918.272	6429
918.384	6460
918.495	6418
918.606	6311
918.717	6201
918.828	6273
918.939	6266
919.05	6213
919.161	6376
919.272	6140
919.383	6155
919.494	6266
919.604	6445
919.715	6300
919.826	6228
919.936	6273
920.047	6395
920.157	6277
920.267	6433
920.378	6369
920.488	6308
920.598	6441
920.708	6555
920.818	6475
920.928	6502
921.038	6650
921.148	6566
921.258	6365
921.368	6285
921.477	6258
921.587	6186
921.697	6125
921.806	6197
921.916	6102
922.025	5958
922.134	5969
922.244	5859
922.353	5969
922.462	5836
922.571	5783
922.68	5722
922.789	5699
922.898	5688
923.007	5691
923.116	5726
923.224	5657
923.333	5638
923.442	5592
923.55	5611
923.659	5585
923.767	5630
923.876	5562
923.984	5604
924.092	5528
924.201	5573
924.309	5551
924.417	5505
924.525	5516
924.633	5497
924.741	6254
924.849	5444
924.956	5459
925.064	5395
925.172	5299
925.279	5334
925.387	5395
925.494	5326
925.602	5490
925.709	5372
925.816	5322
925.924	5315
926.031	5357
926.138	5284
926.245	5334
926.352	5246
926.459	5368
926.566	5334
926.673	5273
926.779	5174
926.886	5113
926.993	5037
927.099	5071
927.206	5018
927.312	4953
927.419	5029
927.525	5014
927.631	4957
927.737	4873
927.843	4889
927.95	4793
928.056	4828
928.162	4862
928.267	4831
928.373	5269
928.479	4885
928.585	4698
928.69	4774
928.796	4767
928.901	4721
929.007	4653
929.112	4717
929.218	4630
929.323	4607
929.428	4538
929.533	4687
929.638	4500
929.743	4561
929.848	4580
929.953	4531
930.058	4447
930.163	4348
930.267	4314
930.372	4451
930.477	4268
930.581	4497
930.685	4379
930.79	4215
930.894	4299
930.998	4234
931.103	4356
931.207	4154
931.311	4074
931.415	4078
931.519	3922
931.623	3979
