Data from glass_V78500241_1222.txt Node
Date: Wed Sep 01 19:22:58 CST 2021
User: usil
Spectrometer: V785-0024
Trigger mode: 0
Integration Time (sec): 4.000000E-1
Scans to average: 1
Nonlinearity correction enabled: false
Boxcar width: 0
Storing dark spectrum: false
XAxis mode: Wavelengths
Number of Pixels in Spectrum: 1024
>>>>>Begin Spectral Data<<<<<
801.071	3740
801.214	3747
801.356	3728
801.499	3759
801.641	3778
801.783	3838
801.926	3884
802.068	3838
802.211	3896
802.353	3911
802.496	3846
802.638	3873
802.78	3922
802.923	3941
803.065	3884
803.208	3888
803.35	3892
803.492	3873
803.635	3880
803.777	3819
803.919	3949
804.061	4185
804.204	3983
804.346	3960
804.488	3892
804.63	4063
804.773	3991
804.915	4048
805.057	4120
805.199	4025
805.341	4055
805.483	4143
805.626	4135
805.768	4147
805.91	4219
806.052	4249
806.194	4204
806.336	4390
806.478	4219
806.62	4177
806.762	4192
806.904	4265
807.046	4318
807.188	4242
807.33	4150
807.472	4287
807.614	4188
807.756	4268
807.898	4246
808.04	4238
808.182	4325
808.324	4367
808.465	4405
808.607	4485
808.749	4459
808.891	4432
809.033	4512
809.174	4390
809.316	4276
809.458	4249
809.6	4128
809.741	4162
809.883	4105
810.025	4249
810.166	4242
810.308	4276
810.45	4261
810.591	4227
810.733	4306
810.875	4508
811.016	4839
811.158	5109
811.299	5246
811.441	5269
811.582	5102
811.724	4691
811.865	4455
812.007	4493
812.148	4390
812.29	4413
812.431	4443
812.573	4394
812.714	4398
812.855	4428
812.997	4352
813.138	4481
813.279	4462
813.421	4402
813.562	4424
813.703	4341
813.845	4318
813.986	4249
814.127	4200
814.268	4295
814.41	4284
814.551	4253
814.692	4337
814.833	4234
814.974	4291
815.115	4367
815.256	4284
815.397	4234
815.539	4253
815.68	4196
815.821	4196
815.962	4348
816.103	4367
816.244	4268
816.385	4219
816.526	4261
816.666	4154
816.807	4120
816.948	4173
817.089	4173
817.23	4112
817.371	4063
817.512	4055
817.653	4101
817.793	3994
817.934	4124
818.075	4082
818.216	4067
818.356	4063
818.497	4025
818.638	3911
818.778	3903
818.919	3880
819.06	3838
819.2	3945
819.341	3854
819.481	3865
819.622	3899
819.762	3972
819.903	3953
820.043	3865
820.184	3819
820.324	3838
820.465	3907
820.605	3827
820.746	3857
820.886	3785
821.026	3975
821.167	3922
821.307	3987
821.447	4017
821.588	3983
821.728	3987
821.868	3949
822.008	3896
822.149	3934
822.289	3911
822.429	3781
822.569	3778
822.709	3743
822.849	3759
822.99	3701
823.13	3770
823.27	3785
823.41	3743
823.55	3762
823.69	3709
823.83	3766
823.97	3717
824.11	3625
824.25	3614
824.389	3671
824.529	3652
824.669	3671
824.809	3743
824.949	3808
825.089	3713
825.228	3686
825.368	3606
825.508	3545
825.648	3572
825.787	3648
825.927	3625
826.067	3610
826.206	3682
826.346	3835
826.485	3850
826.625	3903
826.765	3949
826.904	3823
827.044	3587
827.183	3557
827.323	3428
827.462	3507
827.601	3435
827.741	3420
827.88	3450
828.02	3386
828.159	3401
828.298	3507
828.437	3515
828.577	3473
828.716	3618
828.855	3496
828.994	3397
829.134	3401
829.273	3374
829.412	3325
829.551	3340
829.69	3370
829.829	3428
829.968	3553
830.107	3477
830.246	3488
830.385	3397
830.524	3355
830.663	3340
830.802	3214
830.941	3180
831.08	3207
831.219	3283
831.357	3283
831.496	3389
831.635	3207
831.774	3188
831.913	3218
832.051	3127
832.19	3157
832.329	3241
832.467	3138
832.606	3100
832.744	3176
832.883	3176
833.022	3207
833.16	3291
833.299	3310
833.437	3348
833.576	3389
833.714	3397
833.852	3401
833.991	3401
834.129	3473
834.267	3454
834.406	3374
834.544	3466
834.682	3450
834.821	3405
834.959	3545
835.097	3447
835.235	3545
835.373	3450
835.511	3496
835.65	3454
835.788	3466
835.926	3435
836.064	3374
836.202	3428
836.34	3526
836.478	3599
836.615	3507
836.753	3603
836.891	3671
837.029	3633
837.167	3622
837.305	3542
837.443	3526
837.58	3523
837.718	3595
837.856	3534
837.993	3545
838.131	3603
838.269	3591
838.406	3576
838.544	3568
838.681	3504
838.819	3386
838.956	3431
839.094	3374
839.231	3462
839.369	3515
839.506	3732
839.643	3660
839.781	3511
839.918	3496
840.055	3545
840.193	3584
840.33	3507
840.467	3580
840.604	3622
840.742	3789
840.879	3553
841.016	3568
841.153	3637
841.29	3740
841.427	3759
841.564	3720
841.701	3743
841.838	3679
841.975	3698
842.112	3705
842.249	3648
842.385	3637
842.522	3808
842.659	3720
842.796	3701
842.933	3732
843.069	3705
843.206	3724
843.343	3819
843.479	3816
843.616	3827
843.752	3686
843.889	3690
844.025	3835
844.162	3690
844.298	3835
844.435	3747
844.571	3789
844.708	3926
844.844	3994
844.98	3998
845.117	4032
845.253	3922
845.389	3926
845.525	3937
845.661	3975
845.798	3873
845.934	3998
846.07	3994
846.206	4063
846.342	4112
846.478	4055
846.614	3975
846.75	3941
846.886	3888
847.022	4032
847.158	3991
847.294	4055
847.429	4059
847.565	4025
847.701	4223
847.837	3884
847.972	3850
848.108	3987
848.244	3972
848.379	3903
848.515	3838
848.65	3793
848.786	3850
848.921	3865
849.057	3975
849.192	3922
849.328	3922
849.463	3945
849.598	3899
849.734	3876
849.869	3835
850.004	3800
850.14	3808
850.275	3793
850.41	3751
850.545	3736
850.68	3743
850.815	3800
850.95	3789
851.085	3964
851.22	3876
851.355	3838
851.49	3797
851.625	3804
851.76	3846
851.895	3743
852.03	3720
852.165	3831
852.299	3873
852.434	3861
852.569	3880
852.703	3857
852.838	3922
852.973	3991
853.107	3979
853.242	3888
853.376	3873
853.511	3778
853.645	3838
853.78	4013
853.914	3960
854.048	3861
854.183	3899
854.317	3972
854.451	4078
854.585	3949
854.72	3941
854.854	4010
854.988	3922
855.122	4010
855.256	3956
855.39	4044
855.524	4097
855.658	4086
855.792	4078
855.926	4131
856.06	4166
856.194	4158
856.327	4154
856.461	4135
856.595	4154
856.729	4169
856.862	4284
856.996	4257
857.13	4344
857.263	4337
857.397	4367
857.53	4314
857.664	4352
857.797	4409
857.931	4405
858.064	4375
858.197	4485
858.331	4379
858.464	4363
858.597	4363
858.731	4466
858.864	4394
858.997	4424
859.13	4500
859.263	4554
859.396	4611
859.529	4546
859.662	4523
859.795	4516
859.928	4618
860.061	4675
860.194	4740
860.327	4664
860.46	4675
860.592	4706
860.725	4778
860.858	4725
860.99	4672
861.123	4748
861.256	4668
861.388	4790
861.521	5254
861.653	4740
861.786	4694
861.918	4729
862.05	4774
862.183	4866
862.315	4927
862.447	4919
862.58	4885
862.712	4820
862.844	4809
862.976	4873
863.108	4858
863.24	5121
863.372	4828
863.504	4911
863.636	4934
863.768	4987
863.9	4957
864.032	4911
864.164	4976
864.296	5083
864.428	5102
864.559	5117
864.691	5109
864.823	5185
864.954	5132
865.086	5147
865.217	5128
865.349	5105
865.48	5162
865.612	5223
865.743	5345
865.875	5227
866.006	5181
866.137	5288
866.269	5223
866.4	5220
866.531	5250
866.662	5223
866.793	5307
866.924	5288
867.055	5402
867.186	5372
867.317	5337
867.448	5303
867.579	5406
867.71	5406
867.841	5395
867.972	5425
868.103	5471
868.233	5474
868.364	5478
868.495	5558
868.625	5676
868.756	5775
868.886	5676
869.017	5748
869.147	5847
869.278	5866
869.408	5828
869.539	5813
869.669	5893
869.799	5980
869.929	6034
870.06	6038
870.19	6216
870.32	6205
870.45	6224
870.58	6338
870.71	6407
870.84	6528
870.97	6391
871.1	6467
871.23	6646
871.36	6734
871.489	6654
871.619	6707
871.749	6776
871.879	6833
872.008	6970
872.138	6973
872.267	7031
872.397	6973
872.526	7038
872.656	7122
872.785	7198
872.915	7441
873.044	7510
873.173	7590
873.303	7632
873.432	7814
873.561	7875
873.69	7894
873.819	8054
873.948	8126
874.077	8263
874.206	8343
874.335	8385
874.464	8587
874.593	8902
874.722	8925
874.851	9188
874.979	9230
875.108	9306
875.237	9458
875.365	9458
875.494	9663
875.623	9827
875.751	9827
875.88	10006
876.008	10128
876.136	10284
876.265	10550
876.393	10675
876.521	10717
876.65	10820
876.778	10938
876.906	10885
877.034	10984
877.162	11109
877.29	11216
877.418	11383
877.546	11433
877.674	11425
877.802	11524
877.93	11463
878.058	11577
878.185	11562
878.313	11688
878.441	11794
878.568	11672
878.696	11855
878.824	11882
878.951	11866
879.079	12030
879.206	12117
879.333	12053
879.461	11999
879.588	12144
879.715	12068
879.842	12209
879.97	12007
880.097	11908
880.224	11946
880.351	11904
880.478	11863
880.605	11923
880.732	11843
880.859	12072
880.986	11836
881.112	11783
881.239	11775
881.366	11611
881.493	11688
881.619	11589
881.746	11558
881.872	11539
881.999	11493
882.125	11459
882.252	11630
882.378	11539
882.505	11573
882.631	11277
882.757	11292
882.883	11364
883.01	11239
883.136	11098
883.262	11147
883.388	11083
883.514	11273
883.64	11155
883.766	11102
883.892	11014
884.018	11037
884.143	11117
884.269	11121
884.395	10858
884.52	10767
884.646	10774
884.772	10759
884.897	10626
885.023	10744
885.148	10740
885.274	10809
885.399	10618
885.524	10615
885.65	10649
885.775	10554
885.9	10634
886.025	10637
886.15	10596
886.275	10500
886.4	10375
886.525	10459
886.65	10356
886.775	10382
886.9	10455
887.025	10478
887.149	10436
887.274	10276
887.399	10238
887.523	10181
887.648	10143
887.773	10196
887.897	10325
888.021	10242
888.146	10105
888.27	10177
888.395	10219
888.519	10162
888.643	10169
888.767	10116
888.891	10173
889.015	10044
889.139	10025
889.263	9983
889.387	10029
889.511	10059
889.635	10124
889.759	10021
889.883	9945
890.006	9987
890.13	10124
890.254	9979
890.377	9953
890.501	9831
890.624	9850
890.748	9884
890.871	9838
890.995	9770
891.118	9709
891.241	9781
891.364	9804
891.488	9816
891.611	9789
891.734	9740
891.857	9812
891.98	9694
892.103	9717
892.226	9732
892.349	9686
892.471	9534
892.594	9625
892.717	9614
892.839	9576
892.962	9610
893.085	9603
893.207	9557
893.33	9500
893.452	9523
893.575	9576
893.697	9450
893.819	9648
893.941	9671
894.064	9641
894.186	9428
894.308	9443
894.43	9564
894.552	9549
894.674	9519
894.796	9382
894.918	9321
895.04	9313
895.161	9393
895.283	9344
895.405	9233
895.526	9253
895.648	9199
895.769	9306
895.891	9332
896.012	9272
896.134	9207
896.255	9135
896.376	9123
896.498	9188
896.619	9184
896.74	9051
896.861	9150
896.982	9245
897.103	9378
897.224	9173
897.345	9100
897.466	8998
897.587	9062
897.708	9066
897.828	9047
897.949	9020
898.07	8891
898.19	8941
898.311	9051
898.431	8853
898.552	8979
898.672	8921
898.792	8971
898.913	8895
899.033	8826
899.153	8853
899.273	8674
899.393	8746
899.513	8750
899.633	8773
899.753	8689
899.873	8735
899.993	8746
900.113	8659
900.232	8716
900.352	8663
900.472	8613
900.591	8568
900.711	8648
900.83	8507
900.95	8651
901.069	8640
901.189	8590
901.308	8362
901.427	8400
901.546	8408
901.665	8507
901.784	8556
901.904	8404
902.023	8381
902.141	8252
902.26	8244
902.379	8301
902.498	8161
902.617	8199
902.735	8267
902.854	8263
902.973	8294
903.091	8134
903.21	8157
903.328	8168
903.446	8111
903.565	8130
903.683	8130
903.801	8100
903.919	8149
904.038	8142
904.156	8024
904.274	8126
904.392	7997
904.51	8058
904.627	7989
904.745	8126
904.863	8050
904.981	7917
905.098	7909
905.216	7860
905.334	7955
905.451	7852
905.569	7814
905.686	7951
905.803	7868
905.921	7769
906.038	7902
906.155	7814
906.272	7674
906.389	7780
906.506	7700
906.623	7670
906.74	7613
906.857	7525
906.974	7597
907.091	7704
907.208	7712
907.324	7636
907.441	7556
907.557	7502
907.674	7411
907.79	7362
907.907	7449
908.023	7430
908.139	7441
908.256	7388
908.372	7445
908.488	7270
908.604	7305
908.72	7263
908.836	7270
908.952	7282
909.068	7270
909.184	7331
909.3	7236
909.415	7312
909.531	7270
909.647	7171
909.762	7088
909.878	7107
909.993	7164
910.108	7099
910.224	7095
910.339	7149
910.454	7061
910.57	7031
910.685	6958
910.8	7145
910.915	7118
911.03	6981
911.145	6916
911.259	6859
911.374	6939
911.489	6947
911.604	6810
911.718	6677
911.833	6798
911.947	6681
912.062	6631
912.176	6707
912.291	6692
912.405	6734
912.519	6848
912.633	6825
912.748	6757
912.862	6688
912.976	6623
913.09	6536
913.204	6578
913.318	6627
913.431	6696
913.545	6665
913.659	6768
913.772	6635
913.886	6593
914	6547
914.113	6654
914.226	6650
914.34	6616
914.453	6582
914.566	6639
914.68	6521
914.793	6544
914.906	6410
915.019	6399
915.132	6399
915.245	6456
915.358	6460
915.47	6475
915.583	6456
915.696	6517
915.809	6585
915.921	6566
916.034	6384
916.146	6410
916.259	6403
916.371	6502
916.483	6460
916.595	6369
916.708	6437
916.82	6410
916.932	6395
917.044	6384
917.156	6441
917.268	6327
917.38	6376
917.491	6327
917.603	6384
917.715	6380
917.826	6426
917.938	6384
918.049	6254
918.161	6361
918.272	6395
918.384	6407
918.495	6300
918.606	6243
918.717	6243
918.828	6239
918.939	6232
919.05	6194
919.161	6296
919.272	6159
919.383	6209
919.494	6292
919.604	6399
919.715	6228
919.826	6163
919.936	6262
920.047	6315
920.157	6319
920.267	6422
920.378	6338
920.488	6285
920.598	6437
920.708	6525
920.818	6467
920.928	6479
921.038	6597
921.148	6574
921.258	6365
921.368	6296
921.477	6190
921.587	6220
921.697	6117
921.806	6167
921.916	6114
922.025	5923
922.134	5931
922.244	5878
922.353	5935
922.462	5851
922.571	5836
922.68	5726
922.789	5668
922.898	5726
923.007	5672
923.116	5684
923.224	5714
923.333	5726
923.442	5600
923.55	5562
923.659	5577
923.767	5596
923.876	5562
923.984	5703
924.092	5493
924.201	5581
924.309	5573
924.417	5554
924.525	5482
924.633	5520
924.741	6289
924.849	5372
924.956	5493
925.064	5341
925.172	5330
925.279	5330
925.387	5372
925.494	5330
925.602	5436
925.709	5425
925.816	5299
925.924	5345
926.031	5368
926.138	5330
926.245	5353
926.352	5231
926.459	5387
926.566	5341
926.673	5250
926.779	5117
926.886	5155
926.993	5029
927.099	5056
927.206	4999
927.312	4942
927.419	5045
927.525	4987
927.631	5010
927.737	4949
927.843	4919
927.95	4793
928.056	4854
928.162	4858
928.267	4885
928.373	5326
928.479	4858
928.585	4656
928.69	4763
928.796	4786
928.901	4721
929.007	4599
929.112	4687
929.218	4672
929.323	4618
929.428	4535
929.533	4664
929.638	4508
929.743	4588
929.848	4596
929.953	4531
930.058	4459
930.163	4337
930.267	4341
930.372	4413
930.477	4299
930.581	4485
930.685	4375
930.79	4253
930.894	4322
930.998	4234
931.103	4424
931.207	4139
931.311	4131
931.415	3994
931.519	3899
931.623	3972
