Data from glass_V78500241_2516.txt Node
Date: Wed Sep 01 19:31:56 CST 2021
User: usil
Spectrometer: V785-0024
Trigger mode: 0
Integration Time (sec): 4.000000E-1
Scans to average: 1
Nonlinearity correction enabled: false
Boxcar width: 0
Storing dark spectrum: false
XAxis mode: Wavelengths
Number of Pixels in Spectrum: 1024
>>>>>Begin Spectral Data<<<<<
801.071	3705
801.214	3762
801.356	3671
801.499	3705
801.641	3736
801.783	3800
801.926	3876
802.068	3835
802.211	3850
802.353	3835
802.496	3854
802.638	3854
802.78	3865
802.923	3926
803.065	3907
803.208	3823
803.35	3838
803.492	3831
803.635	3899
803.777	3800
803.919	3831
804.061	4143
804.204	3945
804.346	3960
804.488	3922
804.63	4044
804.773	3975
804.915	3994
805.057	4131
805.199	3987
805.341	4059
805.483	4116
805.626	4128
805.768	4090
805.91	4173
806.052	4219
806.194	4181
806.336	4409
806.478	4200
806.62	4207
806.762	4207
806.904	4265
807.046	4360
807.188	4227
807.33	4177
807.472	4219
807.614	4173
807.756	4280
807.898	4284
808.04	4196
808.182	4257
808.324	4287
808.465	4348
808.607	4466
808.749	4466
808.891	4470
809.033	4459
809.174	4440
809.316	4234
809.458	4219
809.6	4128
809.741	4120
809.883	4082
810.025	4200
810.166	4211
810.308	4238
810.45	4230
810.591	4253
810.733	4265
810.875	4516
811.016	4820
811.158	5086
811.299	5250
811.441	5265
811.582	5025
811.724	4736
811.865	4455
812.007	4447
812.148	4424
812.29	4360
812.431	4390
812.573	4360
812.714	4367
812.855	4405
812.997	4386
813.138	4474
813.279	4417
813.421	4348
813.562	4379
813.703	4329
813.845	4337
813.986	4246
814.127	4246
814.268	4287
814.41	4291
814.551	4253
814.692	4329
814.833	4249
814.974	4295
815.115	4344
815.256	4280
815.397	4257
815.539	4242
815.68	4230
815.821	4181
815.962	4333
816.103	4276
816.244	4234
816.385	4234
816.526	4291
816.666	4204
816.807	4109
816.948	4135
817.089	4192
817.23	4135
817.371	4063
817.512	4074
817.653	4044
817.793	4010
817.934	4067
818.075	4105
818.216	4048
818.356	4044
818.497	4017
818.638	3896
818.778	3880
818.919	3876
819.06	3892
819.2	3911
819.341	3835
819.481	3812
819.622	3869
819.762	3941
819.903	3956
820.043	3816
820.184	3835
820.324	3835
820.465	3892
820.605	3819
820.746	3869
820.886	3800
821.026	3911
821.167	3903
821.307	3956
821.447	4002
821.588	3907
821.728	3956
821.868	3934
822.008	3869
822.149	3854
822.289	3861
822.429	3804
822.569	3713
822.709	3804
822.849	3701
822.99	3747
823.13	3701
823.27	3762
823.41	3701
823.55	3751
823.69	3713
823.83	3759
823.97	3648
824.11	3606
824.25	3625
824.389	3641
824.529	3644
824.669	3648
824.809	3698
824.949	3743
825.089	3720
825.228	3709
825.368	3576
825.508	3549
825.648	3553
825.787	3606
825.927	3637
826.067	3625
826.206	3656
826.346	3770
826.485	3835
826.625	3838
826.765	3903
826.904	3797
827.044	3641
827.183	3549
827.323	3454
827.462	3443
827.601	3439
827.741	3431
827.88	3462
828.02	3378
828.159	3462
828.298	3424
828.437	3496
828.577	3466
828.716	3545
828.855	3485
828.994	3359
829.134	3374
829.273	3397
829.412	3340
829.551	3287
829.69	3359
829.829	3382
829.968	3492
830.107	3412
830.246	3447
830.385	3389
830.524	3355
830.663	3279
830.802	3253
830.941	3154
831.08	3176
831.219	3287
831.357	3222
831.496	3374
831.635	3199
831.774	3184
831.913	3161
832.051	3097
832.19	3135
832.329	3214
832.467	3135
832.606	3085
832.744	3146
832.883	3154
833.022	3150
833.16	3253
833.299	3310
833.437	3275
833.576	3363
833.714	3382
833.852	3466
833.991	3416
834.129	3416
834.267	3424
834.406	3401
834.544	3382
834.682	3386
834.821	3416
834.959	3568
835.097	3435
835.235	3530
835.373	3469
835.511	3485
835.65	3462
835.788	3458
835.926	3378
836.064	3382
836.202	3386
836.34	3549
836.478	3599
836.615	3530
836.753	3576
836.891	3622
837.029	3633
837.167	3610
837.305	3572
837.443	3538
837.58	3523
837.718	3576
837.856	3538
837.993	3454
838.131	3614
838.269	3614
838.406	3572
838.544	3542
838.681	3450
838.819	3462
838.956	3378
839.094	3374
839.231	3466
839.369	3500
839.506	3751
839.643	3599
839.781	3492
839.918	3435
840.055	3534
840.193	3526
840.33	3526
840.467	3549
840.604	3538
840.742	3781
840.879	3519
841.016	3576
841.153	3561
841.29	3751
841.427	3686
841.564	3675
841.701	3736
841.838	3720
841.975	3686
842.112	3690
842.249	3606
842.385	3641
842.522	3778
842.659	3698
842.796	3679
842.933	3736
843.069	3679
843.206	3705
843.343	3800
843.479	3740
843.616	3827
843.752	3656
843.889	3637
844.025	3781
844.162	3713
844.298	3842
844.435	3770
844.571	3770
844.708	3876
844.844	4032
844.98	4002
845.117	3972
845.253	3937
845.389	3857
845.525	3945
845.661	3937
845.798	3930
845.934	4017
846.07	3968
846.206	4051
846.342	4120
846.478	4048
846.614	3987
846.75	3915
846.886	3930
847.022	4048
847.158	3953
847.294	3991
847.429	4010
847.565	3998
847.701	4219
847.837	3850
847.972	3854
848.108	3934
848.244	3937
848.379	3835
848.515	3793
848.65	3800
848.786	3854
848.921	3850
849.057	3922
849.192	3926
849.328	3854
849.463	3903
849.598	3903
849.734	3854
849.869	3816
850.004	3797
850.14	3816
850.275	3747
850.41	3732
850.545	3713
850.68	3743
850.815	3774
850.95	3747
851.085	3880
851.22	3842
851.355	3835
851.49	3804
851.625	3808
851.76	3812
851.895	3755
852.03	3743
852.165	3804
852.299	3842
852.434	3854
852.569	3835
852.703	3888
852.838	3930
852.973	3968
853.107	3937
853.242	3857
853.376	3835
853.511	3743
853.645	3789
853.78	3934
853.914	3838
854.048	3876
854.183	3869
854.317	3934
854.451	4036
854.585	3922
854.72	3941
854.854	4010
854.988	3945
855.122	3998
855.256	3903
855.39	3964
855.524	4101
855.658	4090
855.792	4093
855.926	4093
856.06	4143
856.194	4181
856.327	4112
856.461	4128
856.595	4162
856.729	4166
856.862	4253
856.996	4204
857.13	4299
857.263	4344
857.397	4360
857.53	4276
857.664	4322
857.797	4383
857.931	4409
858.064	4440
858.197	4440
858.331	4440
858.464	4367
858.597	4322
858.731	4447
858.864	4451
858.997	4428
859.13	4497
859.263	4565
859.396	4596
859.529	4500
859.662	4531
859.795	4504
859.928	4580
860.061	4714
860.194	4721
860.327	4668
860.46	4615
860.592	4672
860.725	4752
860.858	4744
860.99	4630
861.123	4637
861.256	4683
861.388	4744
861.521	5391
861.653	4763
861.786	4675
861.918	4687
862.05	4740
862.183	4828
862.315	4835
862.447	4930
862.58	4896
862.712	4801
862.844	4759
862.976	4850
863.108	4828
863.24	5166
863.372	4797
863.504	4889
863.636	4911
863.768	4949
863.9	4953
864.032	4881
864.164	4961
864.296	5022
864.428	5071
864.559	5113
864.691	5132
864.823	5098
864.954	5136
865.086	5109
865.217	5056
865.349	5094
865.48	5113
865.612	5185
865.743	5265
865.875	5220
866.006	5170
866.137	5239
866.269	5223
866.4	5246
866.531	5212
866.662	5216
866.793	5258
866.924	5280
867.055	5334
867.186	5284
867.317	5345
867.448	5277
867.579	5364
867.71	5383
867.841	5383
867.972	5391
868.103	5497
868.233	5478
868.364	5501
868.495	5482
868.625	5684
868.756	5779
868.886	5668
869.017	5710
869.147	5832
869.278	5897
869.408	5805
869.539	5821
869.669	5904
869.799	5882
869.929	5927
870.06	6057
870.19	6182
870.32	6194
870.45	6251
870.58	6311
870.71	6365
870.84	6433
870.97	6399
871.1	6426
871.23	6608
871.36	6658
871.489	6654
871.619	6741
871.749	6806
871.879	6810
872.008	6989
872.138	6924
872.267	6947
872.397	6962
872.526	7053
872.656	7141
872.785	7221
872.915	7339
873.044	7506
873.173	7556
873.303	7601
873.432	7727
873.561	7860
873.69	7906
873.819	7959
873.948	8149
874.077	8259
874.206	8275
874.335	8446
874.464	8651
874.593	8876
874.722	8895
874.851	9150
874.979	9237
875.108	9363
875.237	9416
875.365	9462
875.494	9682
875.623	9816
875.751	9793
875.88	10040
876.008	10147
876.136	10215
876.265	10481
876.393	10698
876.521	10672
876.65	10786
876.778	10885
876.906	10835
877.034	11022
877.162	11277
877.29	11147
877.418	11284
877.546	11345
877.674	11410
877.802	11539
877.93	11448
878.058	11505
878.185	11463
878.313	11684
878.441	11748
878.568	11627
878.696	11802
878.824	11824
878.951	11878
879.079	11984
879.206	12011
879.333	12091
879.461	11958
879.588	12049
879.715	12163
879.842	12175
879.97	12072
880.097	11920
880.224	11813
880.351	11847
880.478	11866
880.605	11764
880.732	11840
880.859	11973
880.986	11786
881.112	11794
881.239	11661
881.366	11573
881.493	11638
881.619	11551
881.746	11573
881.872	11497
881.999	11463
882.125	11474
882.252	11547
882.378	11486
882.505	11471
882.631	11383
882.757	11273
882.883	11296
883.01	11220
883.136	11197
883.262	11102
883.388	11178
883.514	11193
883.64	11117
883.766	11124
883.892	10976
884.018	11025
884.143	11033
884.269	11128
884.395	10824
884.52	10793
884.646	10782
884.772	10679
884.897	10668
885.023	10660
885.148	10649
885.274	10790
885.399	10615
885.524	10561
885.65	10538
885.775	10588
885.9	10580
886.025	10558
886.15	10558
886.275	10451
886.4	10344
886.525	10421
886.65	10405
886.775	10348
886.9	10424
887.025	10531
887.149	10287
887.274	10215
887.399	10188
887.523	10124
887.648	10188
887.773	10112
887.897	10280
888.021	10215
888.146	10067
888.27	10215
888.395	10154
888.519	10158
888.643	10188
888.767	10192
888.891	10097
889.015	10078
889.139	10131
889.263	9945
889.387	10010
889.511	10086
889.635	10059
889.759	9918
889.883	9987
890.006	10044
890.13	10032
890.254	9979
890.377	10006
890.501	9876
890.624	9888
890.748	9915
890.871	9774
890.995	9755
891.118	9740
891.241	9759
891.364	9701
891.488	9842
891.611	9774
891.734	9720
891.857	9686
891.98	9701
892.103	9724
892.226	9694
892.349	9663
892.471	9469
892.594	9603
892.717	9564
892.839	9519
892.962	9599
893.085	9599
893.207	9603
893.33	9443
893.452	9504
893.575	9595
893.697	9523
893.819	9606
893.941	9580
894.064	9606
894.186	9359
894.308	9355
894.43	9530
894.552	9606
894.674	9530
894.796	9294
894.918	9416
895.04	9321
895.161	9294
895.283	9332
895.405	9203
895.526	9241
895.648	9241
895.769	9188
895.891	9157
896.012	9298
896.134	9199
896.255	9154
896.376	9066
896.498	9154
896.619	9184
896.74	9055
896.861	9108
896.982	9279
897.103	9260
897.224	9154
897.345	9161
897.466	9024
897.587	8986
897.708	9005
897.828	9055
897.949	8941
898.07	8834
898.19	8868
898.311	9001
898.431	8823
898.552	8952
898.672	8967
898.792	8872
898.913	8921
899.033	8758
899.153	8766
899.273	8659
899.393	8720
899.513	8773
899.633	8678
899.753	8701
899.873	8716
899.993	8735
900.113	8739
900.232	8724
900.352	8701
900.472	8629
900.591	8514
900.711	8617
900.83	8537
900.95	8708
901.069	8674
901.189	8514
901.308	8385
901.427	8355
901.546	8427
901.665	8492
901.784	8400
901.904	8404
902.023	8317
902.141	8195
902.26	8206
902.379	8237
902.498	8111
902.617	8210
902.735	8362
902.854	8317
902.973	8317
903.091	8077
903.21	8016
903.328	8161
903.446	8069
903.565	8054
903.683	8096
903.801	8008
903.919	8161
904.038	8027
904.156	7967
904.274	8054
904.392	8005
904.51	7967
904.627	7986
904.745	8054
904.863	8107
904.981	7986
905.098	7902
905.216	7890
905.334	7917
905.451	7856
905.569	7856
905.686	7871
905.803	7814
905.921	7753
906.038	7818
906.155	7753
906.272	7757
906.389	7734
906.506	7628
906.623	7624
906.74	7521
906.857	7533
906.974	7552
907.091	7734
907.208	7647
907.324	7605
907.441	7525
907.557	7426
907.674	7464
907.79	7358
907.907	7430
908.023	7506
908.139	7438
908.256	7392
908.372	7343
908.488	7343
908.604	7244
908.72	7282
908.836	7270
908.952	7232
909.068	7240
909.184	7221
909.3	7244
909.415	7289
909.531	7266
909.647	7137
909.762	7133
909.878	7088
909.993	7110
910.108	7065
910.224	7095
910.339	7145
910.454	7126
910.57	6954
910.685	6909
910.8	7187
910.915	7084
911.03	6993
911.145	6878
911.259	6916
911.374	6958
911.489	6795
911.604	6829
911.718	6753
911.833	6726
911.947	6627
912.062	6616
912.176	6692
912.291	6688
912.405	6730
912.519	6738
912.633	6818
912.748	6707
912.862	6681
912.976	6578
913.09	6525
913.204	6578
913.318	6608
913.431	6650
913.545	6665
913.659	6696
913.772	6612
913.886	6631
914	6528
914.113	6597
914.226	6631
914.34	6551
914.453	6509
914.566	6589
914.68	6540
914.793	6479
914.906	6403
915.019	6357
915.132	6369
915.245	6311
915.358	6418
915.47	6414
915.583	6414
915.696	6456
915.809	6551
915.921	6532
916.034	6437
916.146	6418
916.259	6357
916.371	6456
916.483	6429
916.595	6414
916.708	6448
916.82	6391
916.932	6391
917.044	6361
917.156	6429
917.268	6380
917.38	6281
917.491	6277
917.603	6327
917.715	6311
917.826	6342
917.938	6338
918.049	6235
918.161	6308
918.272	6384
918.384	6388
918.495	6361
918.606	6262
918.717	6144
918.828	6201
918.939	6239
919.05	6178
919.161	6216
919.272	6133
919.383	6140
919.494	6315
919.604	6369
919.715	6228
919.826	6186
919.936	6292
920.047	6292
920.157	6220
920.267	6414
920.378	6315
920.488	6292
920.598	6433
920.708	6563
920.818	6445
920.928	6426
921.038	6578
921.148	6570
921.258	6410
921.368	6300
921.477	6235
921.587	6148
921.697	6030
921.806	6190
921.916	6034
922.025	5969
922.134	5920
922.244	5904
922.353	5958
922.462	5851
922.571	5779
922.68	5767
922.789	5668
922.898	5634
923.007	5611
923.116	5676
923.224	5630
923.333	5657
923.442	5619
923.55	5589
923.659	5600
923.767	5615
923.876	5573
923.984	5570
924.092	5509
924.201	5547
924.309	5539
924.417	5543
924.525	5459
924.633	5452
924.741	6277
924.849	5330
924.956	5497
925.064	5341
925.172	5326
925.279	5307
925.387	5341
925.494	5307
925.602	5414
925.709	5372
925.816	5273
925.924	5318
926.031	5353
926.138	5261
926.245	5307
926.352	5220
926.459	5318
926.566	5299
926.673	5178
926.779	5155
926.886	5075
926.993	5022
927.099	4972
927.206	4919
927.312	4942
927.419	4946
927.525	4961
927.631	4995
927.737	4934
927.843	4850
927.95	4767
928.056	4797
928.162	4809
928.267	4854
928.373	5246
928.479	4858
928.585	4679
928.69	4748
928.796	4744
928.901	4691
929.007	4569
929.112	4664
929.218	4637
929.323	4611
929.428	4523
929.533	4710
929.638	4527
929.743	4504
929.848	4519
929.953	4466
930.058	4474
930.163	4348
930.267	4303
930.372	4417
930.477	4329
930.581	4424
930.685	4344
930.79	4253
930.894	4249
930.998	4215
931.103	4383
931.207	4109
931.311	4120
931.415	4067
931.519	3941
931.623	3941
