Data from glass_V78500241_91.txt Node
Date: Wed Sep 01 19:15:07 CST 2021
User: usil
Spectrometer: V785-0024
Trigger mode: 0
Integration Time (sec): 4.000000E-1
Scans to average: 1
Nonlinearity correction enabled: false
Boxcar width: 0
Storing dark spectrum: false
XAxis mode: Wavelengths
Number of Pixels in Spectrum: 1024
>>>>>Begin Spectral Data<<<<<
801.071	3762
801.214	3766
801.356	3690
801.499	3732
801.641	3740
801.783	3808
801.926	3880
802.068	3869
802.211	3861
802.353	3873
802.496	3861
802.638	3884
802.78	3930
802.923	3968
803.065	3949
803.208	3854
803.35	3861
803.492	3930
803.635	3918
803.777	3835
803.919	3907
804.061	4200
804.204	3991
804.346	3968
804.488	3960
804.63	4051
804.773	4013
804.915	4032
805.057	4162
805.199	4071
805.341	4120
805.483	4154
805.626	4112
805.768	4116
805.91	4196
806.052	4268
806.194	4169
806.336	4383
806.478	4192
806.62	4230
806.762	4204
806.904	4265
807.046	4367
807.188	4192
807.33	4173
807.472	4246
807.614	4242
807.756	4215
807.898	4211
808.04	4204
808.182	4310
808.324	4333
808.465	4352
808.607	4459
808.749	4504
808.891	4443
809.033	4504
809.174	4451
809.316	4299
809.458	4227
809.6	4143
809.741	4169
809.883	4162
810.025	4261
810.166	4227
810.308	4207
810.45	4246
810.591	4246
810.733	4299
810.875	4577
811.016	4809
811.158	5143
811.299	5258
811.441	5341
811.582	5132
811.724	4736
811.865	4497
812.007	4493
812.148	4432
812.29	4424
812.431	4413
812.573	4386
812.714	4402
812.855	4428
812.997	4455
813.138	4512
813.279	4440
813.421	4413
813.562	4421
813.703	4344
813.845	4363
813.986	4257
814.127	4234
814.268	4257
814.41	4329
814.551	4238
814.692	4337
814.833	4344
814.974	4303
815.115	4322
815.256	4276
815.397	4299
815.539	4280
815.68	4227
815.821	4230
815.962	4341
816.103	4280
816.244	4265
816.385	4204
816.526	4257
816.666	4223
816.807	4086
816.948	4207
817.089	4204
817.23	4078
817.371	4044
817.512	4074
817.653	4109
817.793	4051
817.934	4048
818.075	4101
818.216	4135
818.356	4086
818.497	4006
818.638	3953
818.778	3941
818.919	3880
819.06	3911
819.2	3922
819.341	3838
819.481	3850
819.622	3918
819.762	4040
819.903	3975
820.043	3873
820.184	3861
820.324	3842
820.465	3915
820.605	3876
820.746	3907
820.886	3850
821.026	3979
821.167	3964
821.307	3991
821.447	4017
821.588	3937
821.728	4002
821.868	3998
822.008	3915
822.149	3934
822.289	3918
822.429	3781
822.569	3789
822.709	3816
822.849	3698
822.99	3698
823.13	3781
823.27	3804
823.41	3743
823.55	3789
823.69	3728
823.83	3751
823.97	3713
824.11	3656
824.25	3618
824.389	3633
824.529	3694
824.669	3637
824.809	3740
824.949	3743
825.089	3770
825.228	3701
825.368	3648
825.508	3587
825.648	3576
825.787	3663
825.927	3644
826.067	3671
826.206	3694
826.346	3759
826.485	3850
826.625	3846
826.765	3956
826.904	3804
827.044	3644
827.183	3568
827.323	3473
827.462	3500
827.601	3439
827.741	3405
827.88	3481
828.02	3355
828.159	3447
828.298	3507
828.437	3557
828.577	3500
828.716	3606
828.855	3492
828.994	3374
829.134	3412
829.273	3382
829.412	3389
829.551	3325
829.69	3382
829.829	3431
829.968	3545
830.107	3458
830.246	3473
830.385	3393
830.524	3393
830.663	3302
830.802	3310
830.941	3233
831.08	3226
831.219	3275
831.357	3287
831.496	3397
831.635	3241
831.774	3211
831.913	3237
832.051	3161
832.19	3146
832.329	3214
832.467	3173
832.606	3131
832.744	3176
832.883	3211
833.022	3214
833.16	3275
833.299	3260
833.437	3359
833.576	3378
833.714	3397
833.852	3504
833.991	3462
834.129	3488
834.267	3431
834.406	3416
834.544	3450
834.682	3481
834.821	3405
834.959	3584
835.097	3412
835.235	3576
835.373	3488
835.511	3477
835.65	3477
835.788	3500
835.926	3416
836.064	3386
836.202	3450
836.34	3557
836.478	3641
836.615	3545
836.753	3610
836.891	3641
837.029	3644
837.167	3599
837.305	3557
837.443	3523
837.58	3542
837.718	3614
837.856	3530
837.993	3549
838.131	3625
838.269	3580
838.406	3603
838.544	3576
838.681	3485
838.819	3469
838.956	3382
839.094	3466
839.231	3473
839.369	3534
839.506	3789
839.643	3629
839.781	3523
839.918	3504
840.055	3561
840.193	3572
840.33	3545
840.467	3591
840.604	3606
840.742	3804
840.879	3576
841.016	3572
841.153	3610
841.29	3736
841.427	3755
841.564	3717
841.701	3740
841.838	3732
841.975	3713
842.112	3724
842.249	3622
842.385	3618
842.522	3854
842.659	3740
842.796	3701
842.933	3724
843.069	3720
843.206	3740
843.343	3800
843.479	3789
843.616	3857
843.752	3709
843.889	3720
844.025	3865
844.162	3724
844.298	3842
844.435	3778
844.571	3774
844.708	3945
844.844	4017
844.98	4002
845.117	4025
845.253	3896
845.389	3918
845.525	3998
845.661	3987
845.798	3945
845.934	4078
846.07	3975
846.206	4105
846.342	4162
846.478	4078
846.614	3994
846.75	3991
846.886	3930
847.022	4078
847.158	3979
847.294	4036
847.429	3998
847.565	4021
847.701	4242
847.837	3926
847.972	3854
848.108	4025
848.244	4006
848.379	3903
848.515	3846
848.65	3800
848.786	3876
848.921	3842
849.057	3979
849.192	3953
849.328	3918
849.463	3899
849.598	3865
849.734	3854
849.869	3842
850.004	3808
850.14	3838
850.275	3823
850.41	3740
850.545	3774
850.68	3812
850.815	3835
850.95	3808
851.085	3975
851.22	3899
851.355	3823
851.49	3797
851.625	3800
851.76	3827
851.895	3778
852.03	3770
852.165	3838
852.299	3865
852.434	3949
852.569	3873
852.703	3888
852.838	3918
852.973	4002
853.107	3994
853.242	3911
853.376	3842
853.511	3762
853.645	3823
853.78	4025
853.914	3903
854.048	3934
854.183	3903
854.317	3994
854.451	4105
854.585	3975
854.72	3907
854.854	4097
854.988	3934
855.122	4029
855.256	3918
855.39	4071
855.524	4128
855.658	4090
855.792	4116
855.926	4154
856.06	4188
856.194	4188
856.327	4116
856.461	4154
856.595	4177
856.729	4207
856.862	4318
856.996	4268
857.13	4325
857.263	4325
857.397	4409
857.53	4306
857.664	4344
857.797	4424
857.931	4405
858.064	4413
858.197	4470
858.331	4367
858.464	4459
858.597	4333
858.731	4424
858.864	4466
858.997	4474
859.13	4516
859.263	4561
859.396	4603
859.529	4554
859.662	4538
859.795	4577
859.928	4656
860.061	4721
860.194	4740
860.327	4660
860.46	4660
860.592	4744
860.725	4774
860.858	4870
860.99	4683
861.123	4691
861.256	4744
861.388	4797
861.521	5543
861.653	4706
861.786	4721
861.918	4782
862.05	4816
862.183	4847
862.315	4911
862.447	4923
862.58	4896
862.712	4862
862.844	4805
862.976	4892
863.108	4877
863.24	5284
863.372	4847
863.504	4938
863.636	4927
863.768	4961
863.9	4957
864.032	4946
864.164	5022
864.296	5037
864.428	5090
864.559	5109
864.691	5064
864.823	5136
864.954	5102
865.086	5105
865.217	5143
865.349	5113
865.48	5185
865.612	5246
865.743	5326
865.875	5220
866.006	5220
866.137	5280
866.269	5227
866.4	5292
866.531	5261
866.662	5261
866.793	5296
866.924	5318
867.055	5414
867.186	5337
867.317	5349
867.448	5307
867.579	5337
867.71	5376
867.841	5398
867.972	5452
868.103	5463
868.233	5444
868.364	5528
868.495	5543
868.625	5680
868.756	5813
868.886	5729
869.017	5695
869.147	5851
869.278	5844
869.408	5813
869.539	5851
869.669	5973
869.799	5935
869.929	5969
870.06	6022
870.19	6228
870.32	6190
870.45	6311
870.58	6327
870.71	6506
870.84	6502
870.97	6422
871.1	6456
871.23	6696
871.36	6642
871.489	6745
871.619	6741
871.749	6806
871.879	6916
872.008	6951
872.138	6973
872.267	7031
872.397	7015
872.526	7072
872.656	7126
872.785	7228
872.915	7362
873.044	7548
873.173	7552
873.303	7647
873.432	7734
873.561	7902
873.69	7928
873.819	8046
873.948	8221
874.077	8252
874.206	8389
874.335	8484
874.464	8659
874.593	8899
874.722	8960
874.851	9119
874.979	9272
875.108	9393
875.237	9454
875.365	9462
875.494	9644
875.623	9789
875.751	9831
875.88	9994
876.008	10185
876.136	10341
876.265	10561
876.393	10717
876.521	10763
876.65	10793
876.778	10831
876.906	10946
877.034	10961
877.162	11079
877.29	11124
877.418	11353
877.546	11356
877.674	11478
877.802	11516
877.93	11524
878.058	11562
878.185	11657
878.313	11752
878.441	11676
878.568	11676
878.696	11771
878.824	11843
878.951	11935
879.079	12060
879.206	12152
879.333	12087
879.461	12041
879.588	12072
879.715	12098
879.842	12270
879.97	12083
880.097	11969
880.224	11897
880.351	11866
880.478	11920
880.605	11916
880.732	11794
880.859	12038
880.986	11805
881.112	11870
881.239	11794
881.366	11646
881.493	11604
881.619	11573
881.746	11615
881.872	11551
881.999	11581
882.125	11482
882.252	11589
882.378	11509
882.505	11573
882.631	11345
882.757	11292
882.883	11303
883.01	11330
883.136	11174
883.262	11140
883.388	11048
883.514	11174
883.64	11178
883.766	11102
883.892	10991
884.018	11006
884.143	11037
884.269	11067
884.395	10797
884.52	10797
884.646	10771
884.772	10721
884.897	10634
885.023	10729
885.148	10668
885.274	10824
885.399	10580
885.524	10565
885.65	10569
885.775	10664
885.9	10584
886.025	10584
886.15	10554
886.275	10542
886.4	10386
886.525	10417
886.65	10360
886.775	10382
886.9	10500
887.025	10607
887.149	10398
887.274	10219
887.399	10215
887.523	10169
887.648	10196
887.773	10055
887.897	10238
888.021	10261
888.146	10101
888.27	10215
888.395	10306
888.519	10124
888.643	10211
888.767	10166
888.891	10101
889.015	9994
889.139	10071
889.263	10044
889.387	10078
889.511	10230
889.635	10097
889.759	9895
889.883	10017
890.006	9975
890.13	10219
890.254	9968
890.377	10021
890.501	9846
890.624	9918
890.748	9907
890.871	9838
890.995	9781
891.118	9774
891.241	9759
891.364	9759
891.488	9816
891.611	9728
891.734	9755
891.857	9770
891.98	9736
892.103	9743
892.226	9709
892.349	9698
892.471	9614
892.594	9545
892.717	9629
892.839	9648
892.962	9682
893.085	9656
893.207	9591
893.33	9523
893.452	9587
893.575	9591
893.697	9515
893.819	9553
893.941	9743
894.064	9625
894.186	9428
894.308	9450
894.43	9557
894.552	9614
894.674	9557
894.796	9348
894.918	9439
895.04	9294
895.161	9401
895.283	9405
895.405	9253
895.526	9382
895.648	9207
895.769	9249
895.891	9241
896.012	9287
896.134	9214
896.255	9180
896.376	9195
896.498	9146
896.619	9207
896.74	9097
896.861	9119
896.982	9283
897.103	9287
897.224	9180
897.345	9104
897.466	9009
897.587	9055
897.708	9165
897.828	9039
897.949	8937
898.07	8819
898.19	8982
898.311	8971
898.431	8872
898.552	8944
898.672	8994
898.792	8948
898.913	8906
899.033	8842
899.153	8735
899.273	8724
899.393	8739
899.513	8796
899.633	8754
899.753	8735
899.873	8735
899.993	8720
900.113	8644
900.232	8785
900.352	8682
900.472	8575
900.591	8632
900.711	8587
900.83	8549
900.95	8693
901.069	8754
901.189	8560
901.308	8446
901.427	8484
901.546	8450
901.665	8484
901.784	8473
901.904	8400
902.023	8343
902.141	8240
902.26	8191
902.379	8221
902.498	8172
902.617	8240
902.735	8294
902.854	8313
902.973	8267
903.091	8130
903.21	8103
903.328	8134
903.446	8024
903.565	8157
903.683	7997
903.801	8073
903.919	8134
904.038	8111
904.156	8107
904.274	8100
904.392	8081
904.51	8062
904.627	8065
904.745	8096
904.863	8126
904.981	7883
905.098	7951
905.216	7849
905.334	7898
905.451	7913
905.569	7898
905.686	7959
905.803	7913
905.921	7776
906.038	7909
906.155	7837
906.272	7750
906.389	7727
906.506	7696
906.623	7674
906.74	7594
906.857	7594
906.974	7563
907.091	7681
907.208	7776
907.324	7624
907.441	7609
907.557	7449
907.674	7426
907.79	7457
907.907	7438
908.023	7480
908.139	7422
908.256	7381
908.372	7369
908.488	7350
908.604	7285
908.72	7285
908.836	7278
908.952	7255
909.068	7255
909.184	7255
909.3	7305
909.415	7297
909.531	7247
909.647	7190
909.762	7171
909.878	7114
909.993	7179
910.108	7114
910.224	7190
910.339	7137
910.454	7065
910.57	7050
910.685	6954
910.8	7213
910.915	7141
911.03	7034
911.145	6962
911.259	6886
911.374	6916
911.489	6821
911.604	6753
911.718	6764
911.833	6726
911.947	6730
912.062	6601
912.176	6665
912.291	6692
912.405	6688
912.519	6833
912.633	6818
912.748	6749
912.862	6722
912.976	6650
913.09	6532
913.204	6665
913.318	6574
913.431	6684
913.545	6623
913.659	6802
913.772	6684
913.886	6563
914	6582
914.113	6665
914.226	6665
914.34	6677
914.453	6498
914.566	6620
914.68	6494
914.793	6570
914.906	6384
915.019	6418
915.132	6300
915.245	6384
915.358	6433
915.47	6452
915.583	6460
915.696	6460
915.809	6547
915.921	6589
916.034	6407
916.146	6433
916.259	6361
916.371	6486
916.483	6490
916.595	6403
916.708	6395
916.82	6391
916.932	6357
917.044	6391
917.156	6441
917.268	6334
917.38	6388
917.491	6338
917.603	6361
917.715	6376
917.826	6490
917.938	6369
918.049	6262
918.161	6323
918.272	6456
918.384	6410
918.495	6403
918.606	6262
918.717	6224
918.828	6232
918.939	6304
919.05	6254
919.161	6296
919.272	6133
919.383	6201
919.494	6338
919.604	6506
919.715	6296
919.826	6251
919.936	6266
920.047	6372
920.157	6319
920.267	6471
920.378	6334
920.488	6391
920.598	6502
920.708	6601
920.818	6525
920.928	6467
921.038	6582
921.148	6620
921.258	6346
921.368	6388
921.477	6220
921.587	6209
921.697	6095
921.806	6152
921.916	6098
922.025	6022
922.134	5961
922.244	5950
922.353	5958
922.462	5855
922.571	5794
922.68	5748
922.789	5707
922.898	5722
923.007	5634
923.116	5699
923.224	5707
923.333	5661
923.442	5642
923.55	5589
923.659	5615
923.767	5649
923.876	5589
923.984	5596
924.092	5509
924.201	5608
924.309	5596
924.417	5570
924.525	5512
924.633	5535
924.741	6292
924.849	5341
924.956	5478
925.064	5402
925.172	5311
925.279	5254
925.387	5341
925.494	5364
925.602	5436
925.709	5398
925.816	5292
925.924	5315
926.031	5337
926.138	5288
926.245	5353
926.352	5239
926.459	5357
926.566	5318
926.673	5204
926.779	5151
926.886	5128
926.993	5006
927.099	5086
927.206	4987
927.312	4968
927.419	5071
927.525	5003
927.631	5071
927.737	4934
927.843	4881
927.95	4774
928.056	4828
928.162	4858
928.267	4934
928.373	5376
928.479	4854
928.585	4687
928.69	4767
928.796	4816
928.901	4698
929.007	4615
929.112	4710
929.218	4653
929.323	4626
929.428	4558
929.533	4672
929.638	4538
929.743	4569
929.848	4550
929.953	4565
930.058	4466
930.163	4341
930.267	4371
930.372	4436
930.477	4318
930.581	4508
930.685	4417
930.79	4249
930.894	4299
930.998	4253
931.103	4440
931.207	4147
931.311	4071
931.415	4021
931.519	3953
931.623	3956
