Data from glass_V78500241_2474.txt Node
Date: Wed Sep 01 19:31:39 CST 2021
User: usil
Spectrometer: V785-0024
Trigger mode: 0
Integration Time (sec): 4.000000E-1
Scans to average: 1
Nonlinearity correction enabled: false
Boxcar width: 0
Storing dark spectrum: false
XAxis mode: Wavelengths
Number of Pixels in Spectrum: 1024
>>>>>Begin Spectral Data<<<<<
801.071	3724
801.214	3743
801.356	3743
801.499	3720
801.641	3705
801.783	3728
801.926	3827
802.068	3789
802.211	3888
802.353	3838
802.496	3892
802.638	3865
802.78	3873
802.923	3934
803.065	3903
803.208	3865
803.35	3861
803.492	3930
803.635	3869
803.777	3846
803.919	3911
804.061	4169
804.204	3937
804.346	3937
804.488	3945
804.63	4044
804.773	3994
804.915	4010
805.057	4173
805.199	4006
805.341	4090
805.483	4105
805.626	4143
805.768	4093
805.91	4230
806.052	4215
806.194	4143
806.336	4337
806.478	4173
806.62	4150
806.762	4150
806.904	4211
807.046	4329
807.188	4192
807.33	4185
807.472	4227
807.614	4147
807.756	4265
807.898	4207
808.04	4238
808.182	4253
808.324	4318
808.465	4360
808.607	4470
808.749	4443
808.891	4436
809.033	4504
809.174	4417
809.316	4291
809.458	4284
809.6	4154
809.741	4166
809.883	4147
810.025	4211
810.166	4181
810.308	4162
810.45	4284
810.591	4188
810.733	4318
810.875	4512
811.016	4755
811.158	5128
811.299	5303
811.441	5311
811.582	5064
811.724	4778
811.865	4462
812.007	4432
812.148	4451
812.29	4417
812.431	4405
812.573	4386
812.714	4344
812.855	4394
812.997	4405
813.138	4451
813.279	4451
813.421	4394
813.562	4383
813.703	4356
813.845	4306
813.986	4257
814.127	4211
814.268	4219
814.41	4325
814.551	4196
814.692	4314
814.833	4219
814.974	4249
815.115	4303
815.256	4230
815.397	4230
815.539	4227
815.68	4181
815.821	4207
815.962	4310
816.103	4268
816.244	4261
816.385	4223
816.526	4223
816.666	4207
816.807	4097
816.948	4181
817.089	4162
817.23	4120
817.371	4017
817.512	4021
817.653	4067
817.793	4021
817.934	3998
818.075	4120
818.216	4101
818.356	4082
818.497	3964
818.638	3892
818.778	3880
818.919	3865
819.06	3819
819.2	3930
819.341	3880
819.481	3888
819.622	3903
819.762	3983
819.903	3953
820.043	3850
820.184	3800
820.324	3846
820.465	3911
820.605	3876
820.746	3869
820.886	3797
821.026	3926
821.167	3926
821.307	3953
821.447	3994
821.588	3945
821.728	3960
821.868	3915
822.008	3789
822.149	3918
822.289	3922
822.429	3778
822.569	3770
822.709	3770
822.849	3660
822.99	3728
823.13	3766
823.27	3736
823.41	3694
823.55	3724
823.69	3728
823.83	3717
823.97	3652
824.11	3580
824.25	3576
824.389	3633
824.529	3663
824.669	3682
824.809	3667
824.949	3747
825.089	3740
825.228	3679
825.368	3545
825.508	3538
825.648	3564
825.787	3610
825.927	3625
826.067	3603
826.206	3675
826.346	3747
826.485	3770
826.625	3861
826.765	3926
826.904	3816
827.044	3587
827.183	3526
827.323	3424
827.462	3447
827.601	3450
827.741	3401
827.88	3454
828.02	3367
828.159	3454
828.298	3500
828.437	3519
828.577	3496
828.716	3561
828.855	3458
828.994	3405
829.134	3363
829.273	3405
829.412	3302
829.551	3329
829.69	3329
829.829	3435
829.968	3523
830.107	3450
830.246	3458
830.385	3367
830.524	3325
830.663	3298
830.802	3226
830.941	3230
831.08	3176
831.219	3294
831.357	3256
831.496	3382
831.635	3226
831.774	3161
831.913	3173
832.051	3089
832.19	3146
832.329	3214
832.467	3131
832.606	3104
832.744	3154
832.883	3207
833.022	3176
833.16	3249
833.299	3241
833.437	3336
833.576	3348
833.714	3416
833.852	3405
833.991	3466
834.129	3477
834.267	3431
834.406	3420
834.544	3447
834.682	3412
834.821	3389
834.959	3576
835.097	3424
835.235	3519
835.373	3473
835.511	3530
835.65	3469
835.788	3504
835.926	3389
836.064	3382
836.202	3397
836.34	3572
836.478	3580
836.615	3500
836.753	3568
836.891	3652
837.029	3614
837.167	3568
837.305	3526
837.443	3526
837.58	3504
837.718	3603
837.856	3545
837.993	3545
838.131	3591
838.269	3542
838.406	3553
838.544	3576
838.681	3443
838.819	3466
838.956	3363
839.094	3412
839.231	3428
839.369	3473
839.506	3724
839.643	3637
839.781	3492
839.918	3424
840.055	3473
840.193	3507
840.33	3530
840.467	3530
840.604	3580
840.742	3797
840.879	3564
841.016	3538
841.153	3549
841.29	3709
841.427	3698
841.564	3686
841.701	3732
841.838	3686
841.975	3629
842.112	3709
842.249	3591
842.385	3679
842.522	3800
842.659	3686
842.796	3648
842.933	3671
843.069	3675
843.206	3682
843.343	3789
843.479	3812
843.616	3778
843.752	3656
843.889	3690
844.025	3831
844.162	3728
844.298	3816
844.435	3774
844.571	3751
844.708	3907
844.844	3991
844.98	4044
845.117	3987
845.253	3865
845.389	3873
845.525	3930
845.661	4013
845.798	3941
845.934	3994
846.07	3953
846.206	4025
846.342	4074
846.478	4067
846.614	3956
846.75	3949
846.886	3926
847.022	4032
847.158	3937
847.294	3972
847.429	4002
847.565	3964
847.701	4234
847.837	3865
847.972	3850
848.108	3945
848.244	3994
848.379	3865
848.515	3781
848.65	3793
848.786	3842
848.921	3873
849.057	3899
849.192	3941
849.328	3869
849.463	3922
849.598	3869
849.734	3838
849.869	3850
850.004	3808
850.14	3797
850.275	3827
850.41	3705
850.545	3759
850.68	3770
850.815	3720
850.95	3808
851.085	3941
851.22	3854
851.355	3827
851.49	3785
851.625	3789
851.76	3789
851.895	3770
852.03	3759
852.165	3812
852.299	3857
852.434	3896
852.569	3812
852.703	3888
852.838	3926
852.973	3975
853.107	3953
853.242	3911
853.376	3762
853.511	3766
853.645	3808
853.78	3968
853.914	3865
854.048	3880
854.183	3854
854.317	3960
854.451	4059
854.585	3941
854.72	3991
854.854	4044
854.988	3949
855.122	3979
855.256	3911
855.39	4044
855.524	4097
855.658	4082
855.792	4093
855.926	4162
856.06	4158
856.194	4173
856.327	4158
856.461	4116
856.595	4131
856.729	4112
856.862	4219
856.996	4276
857.13	4268
857.263	4318
857.397	4344
857.53	4246
857.664	4356
857.797	4360
857.931	4383
858.064	4398
858.197	4455
858.331	4436
858.464	4356
858.597	4363
858.731	4459
858.864	4447
858.997	4455
859.13	4542
859.263	4527
859.396	4596
859.529	4523
859.662	4523
859.795	4569
859.928	4558
860.061	4694
860.194	4733
860.327	4653
860.46	4618
860.592	4694
860.725	4748
860.858	4797
860.99	4687
861.123	4641
861.256	4683
861.388	4744
861.521	5520
861.653	4736
861.786	4683
861.918	4717
862.05	4774
862.183	4816
862.315	4843
862.447	4930
862.58	4831
862.712	4824
862.844	4767
862.976	4866
863.108	4862
863.24	5227
863.372	4839
863.504	4923
863.636	4923
863.768	4999
863.9	4976
864.032	4881
864.164	4904
864.296	4995
864.428	5064
864.559	5132
864.691	5064
864.823	5147
864.954	5090
865.086	5083
865.217	5124
865.349	5075
865.48	5094
865.612	5159
865.743	5292
865.875	5235
866.006	5178
866.137	5231
866.269	5185
866.4	5269
866.531	5242
866.662	5231
866.793	5216
866.924	5288
867.055	5376
867.186	5360
867.317	5303
867.448	5299
867.579	5368
867.71	5372
867.841	5357
867.972	5471
868.103	5490
868.233	5410
868.364	5493
868.495	5482
868.625	5623
868.756	5764
868.886	5634
869.017	5722
869.147	5813
869.278	5824
869.408	5813
869.539	5836
869.669	5904
869.799	5863
869.929	6011
870.06	5988
870.19	6213
870.32	6197
870.45	6247
870.58	6319
870.71	6445
870.84	6486
870.97	6399
871.1	6464
871.23	6658
871.36	6616
871.489	6627
871.619	6764
871.749	6791
871.879	6818
872.008	6932
872.138	6985
872.267	7000
872.397	6977
872.526	7080
872.656	7053
872.785	7190
872.915	7339
873.044	7441
873.173	7578
873.303	7666
873.432	7731
873.561	7845
873.69	7906
873.819	7963
873.948	8157
874.077	8259
874.206	8347
874.335	8415
874.464	8629
874.593	8807
874.722	8861
874.851	9116
874.979	9249
875.108	9386
875.237	9412
875.365	9420
875.494	9618
875.623	9789
875.751	9800
875.88	10048
876.008	10090
876.136	10306
876.265	10500
876.393	10740
876.521	10771
876.65	10847
876.778	10946
876.906	10850
877.034	11041
877.162	11071
877.29	11170
877.418	11227
877.546	11376
877.674	11440
877.802	11455
877.93	11463
878.058	11516
878.185	11478
878.313	11638
878.441	11786
878.568	11657
878.696	11798
878.824	11870
878.951	11885
879.079	11969
879.206	12129
879.333	12064
879.461	11950
879.588	12045
879.715	12175
879.842	12239
879.97	12083
880.097	11927
880.224	11908
880.351	11885
880.478	11950
880.605	11897
880.732	11840
880.859	11977
880.986	11805
881.112	11836
881.239	11729
881.366	11665
881.493	11630
881.619	11452
881.746	11551
881.872	11596
881.999	11467
882.125	11474
882.252	11566
882.378	11459
882.505	11551
882.631	11273
882.757	11261
882.883	11318
883.01	11201
883.136	11189
883.262	11132
883.388	11083
883.514	11166
883.64	11132
883.766	11174
883.892	10968
884.018	10987
884.143	10991
884.269	11071
884.395	10847
884.52	10809
884.646	10847
884.772	10687
884.897	10694
885.023	10660
885.148	10691
885.274	10793
885.399	10664
885.524	10599
885.65	10531
885.775	10641
885.9	10611
886.025	10626
886.15	10500
886.275	10371
886.4	10394
886.525	10443
886.65	10310
886.775	10310
886.9	10462
887.025	10580
887.149	10295
887.274	10223
887.399	10287
887.523	10124
887.648	10116
887.773	10071
887.897	10253
888.021	10238
888.146	10166
888.27	10234
888.395	10227
888.519	10162
888.643	10188
888.767	10196
888.891	10116
889.015	9972
889.139	9949
889.263	9975
889.387	10055
889.511	10017
889.635	10055
889.759	9979
889.883	9895
890.006	9983
890.13	10071
890.254	9888
890.377	9941
890.501	9873
890.624	9854
890.748	9865
890.871	9797
890.995	9766
891.118	9732
891.241	9804
891.364	9717
891.488	9804
891.611	9736
891.734	9736
891.857	9770
891.98	9686
892.103	9717
892.226	9698
892.349	9652
892.471	9504
892.594	9557
892.717	9584
892.839	9557
892.962	9614
893.085	9629
893.207	9530
893.33	9500
893.452	9526
893.575	9587
893.697	9485
893.819	9568
893.941	9610
894.064	9618
894.186	9545
894.308	9401
894.43	9500
894.552	9511
894.674	9526
894.796	9302
894.918	9386
895.04	9401
895.161	9382
895.283	9378
895.405	9226
895.526	9260
895.648	9176
895.769	9165
895.891	9218
896.012	9329
896.134	9173
896.255	9154
896.376	9180
896.498	9116
896.619	9058
896.74	9070
896.861	9116
896.982	9218
897.103	9332
897.224	9157
897.345	9062
897.466	8998
897.587	8982
897.708	9104
897.828	8998
897.949	8910
898.07	8834
898.19	8910
898.311	8982
898.431	8861
898.552	8906
898.672	8963
898.792	8929
898.913	8891
899.033	8838
899.153	8773
899.273	8663
899.393	8674
899.513	8735
899.633	8701
899.753	8735
899.873	8697
899.993	8735
900.113	8674
900.232	8659
900.352	8556
900.472	8632
900.591	8552
900.711	8571
900.83	8511
900.95	8674
901.069	8697
901.189	8560
901.308	8446
901.427	8374
901.546	8408
901.665	8465
901.784	8549
901.904	8412
902.023	8298
902.141	8225
902.26	8225
902.379	8309
902.498	8138
902.617	8233
902.735	8355
902.854	8309
902.973	8248
903.091	8157
903.21	8119
903.328	8084
903.446	8031
903.565	8092
903.683	8054
903.801	8043
903.919	8138
904.038	8153
904.156	8005
904.274	8043
904.392	8058
904.51	8024
904.627	8043
904.745	8103
904.863	8050
904.981	7871
905.098	7841
905.216	7830
905.334	7883
905.451	7894
905.569	7849
905.686	7894
905.803	7906
905.921	7784
906.038	7833
906.155	7757
906.272	7636
906.389	7689
906.506	7609
906.623	7567
906.74	7632
906.857	7563
906.974	7544
907.091	7677
907.208	7719
907.324	7613
907.441	7582
907.557	7483
907.674	7445
907.79	7369
907.907	7373
908.023	7426
908.139	7453
908.256	7400
908.372	7384
908.488	7384
908.604	7297
908.72	7225
908.836	7251
908.952	7251
909.068	7225
909.184	7289
909.3	7217
909.415	7324
909.531	7255
909.647	7057
909.762	7168
909.878	7046
909.993	7122
910.108	7091
910.224	7088
910.339	7065
910.454	7057
910.57	7008
910.685	6943
910.8	7152
910.915	7027
911.03	7004
911.145	6886
911.259	6875
911.374	6905
911.489	6764
911.604	6829
911.718	6703
911.833	6730
911.947	6692
912.062	6574
912.176	6726
912.291	6696
912.405	6639
912.519	6821
912.633	6871
912.748	6688
912.862	6669
912.976	6608
913.09	6532
913.204	6589
913.318	6585
913.431	6681
913.545	6734
913.659	6734
913.772	6582
913.886	6578
914	6494
914.113	6604
914.226	6658
914.34	6574
914.453	6456
914.566	6574
914.68	6490
914.793	6525
914.906	6380
915.019	6376
915.132	6311
915.245	6395
915.358	6460
915.47	6448
915.583	6479
915.696	6448
915.809	6517
915.921	6509
916.034	6395
916.146	6414
916.259	6361
916.371	6414
916.483	6422
916.595	6407
916.708	6384
916.82	6372
916.932	6338
917.044	6388
917.156	6452
917.268	6365
917.38	6376
917.491	6304
917.603	6315
917.715	6414
917.826	6372
917.938	6289
918.049	6220
918.161	6323
918.272	6414
918.384	6407
918.495	6315
918.606	6273
918.717	6232
918.828	6224
918.939	6258
919.05	6182
919.161	6292
919.272	6079
919.383	6152
919.494	6277
919.604	6388
919.715	6270
919.826	6235
919.936	6209
920.047	6311
920.157	6292
920.267	6467
920.378	6285
920.488	6273
920.598	6513
920.708	6521
920.818	6410
920.928	6441
921.038	6616
921.148	6563
921.258	6327
921.368	6331
921.477	6178
921.587	6205
921.697	6129
921.806	6182
921.916	6114
922.025	5942
922.134	5916
922.244	5889
922.353	5878
922.462	5855
922.571	5794
922.68	5688
922.789	5688
922.898	5737
923.007	5646
923.116	5737
923.224	5676
923.333	5684
923.442	5577
923.55	5528
923.659	5543
923.767	5623
923.876	5539
923.984	5611
924.092	5512
924.201	5619
924.309	5558
924.417	5539
924.525	5444
924.633	5524
924.741	6167
924.849	5322
924.956	5440
925.064	5357
925.172	5299
925.279	5307
925.387	5345
925.494	5345
925.602	5448
925.709	5433
925.816	5277
925.924	5315
926.031	5303
926.138	5288
926.245	5353
926.352	5185
926.459	5311
926.566	5337
926.673	5170
926.779	5132
926.886	5105
926.993	4995
927.099	4957
927.206	4961
927.312	4915
927.419	4980
927.525	4987
927.631	5025
927.737	4866
927.843	4824
927.95	4755
928.056	4835
928.162	4748
928.267	4835
928.373	5227
928.479	4831
928.585	4645
928.69	4767
928.796	4736
928.901	4641
929.007	4622
929.112	4645
929.218	4599
929.323	4618
929.428	4596
929.533	4687
929.638	4538
929.743	4459
929.848	4588
929.953	4451
930.058	4485
930.163	4299
930.267	4348
930.372	4398
930.477	4257
930.581	4447
930.685	4341
930.79	4230
930.894	4306
930.998	4223
931.103	4428
931.207	4116
931.311	4055
931.415	4032
931.519	3934
931.623	3884
