Data from glass_V78500241_2731.txt Node
Date: Wed Sep 01 19:33:25 CST 2021
User: usil
Spectrometer: V785-0024
Trigger mode: 0
Integration Time (sec): 4.000000E-1
Scans to average: 1
Nonlinearity correction enabled: false
Boxcar width: 0
Storing dark spectrum: false
XAxis mode: Wavelengths
Number of Pixels in Spectrum: 1024
>>>>>Begin Spectral Data<<<<<
801.071	3743
801.214	3713
801.356	3701
801.499	3740
801.641	3694
801.783	3766
801.926	3854
802.068	3850
802.211	3880
802.353	3850
802.496	3819
802.638	3846
802.78	3876
802.923	3926
803.065	3884
803.208	3831
803.35	3812
803.492	3907
803.635	3884
803.777	3762
803.919	3884
804.061	4131
804.204	3922
804.346	3945
804.488	3930
804.63	4013
804.773	3972
804.915	4006
805.057	4090
805.199	4006
805.341	4074
805.483	4139
805.626	4109
805.768	4090
805.91	4177
806.052	4204
806.194	4246
806.336	4299
806.478	4253
806.62	4177
806.762	4200
806.904	4207
807.046	4318
807.188	4223
807.33	4162
807.472	4200
807.614	4131
807.756	4238
807.898	4196
808.04	4169
808.182	4314
808.324	4344
808.465	4367
808.607	4470
808.749	4417
808.891	4424
809.033	4455
809.174	4394
809.316	4242
809.458	4242
809.6	4135
809.741	4131
809.883	4109
810.025	4158
810.166	4238
810.308	4211
810.45	4238
810.591	4207
810.733	4257
810.875	4485
811.016	4824
811.158	5105
811.299	5239
811.441	5258
811.582	5060
811.724	4687
811.865	4462
812.007	4455
812.148	4413
812.29	4413
812.431	4379
812.573	4333
812.714	4310
812.855	4379
812.997	4398
813.138	4447
813.279	4402
813.421	4348
813.562	4341
813.703	4303
813.845	4314
813.986	4261
814.127	4234
814.268	4257
814.41	4268
814.551	4303
814.692	4318
814.833	4211
814.974	4272
815.115	4352
815.256	4188
815.397	4204
815.539	4257
815.68	4181
815.821	4230
815.962	4306
816.103	4284
816.244	4215
816.385	4230
816.526	4249
816.666	4219
816.807	4105
816.948	4181
817.089	4120
817.23	4074
817.371	4059
817.512	4032
817.653	4090
817.793	4044
817.934	3998
818.075	4090
818.216	4036
818.356	4044
818.497	3960
818.638	3892
818.778	3922
818.919	3888
819.06	3838
819.2	3865
819.341	3835
819.481	3789
819.622	3926
819.762	4040
819.903	3911
820.043	3880
820.184	3812
820.324	3797
820.465	3850
820.605	3846
820.746	3896
820.886	3812
821.026	3918
821.167	3915
821.307	3934
821.447	4010
821.588	3915
821.728	3983
821.868	3899
822.008	3835
822.149	3876
822.289	3907
822.429	3759
822.569	3740
822.709	3778
822.849	3690
822.99	3717
823.13	3747
823.27	3747
823.41	3701
823.55	3728
823.69	3671
823.83	3724
823.97	3663
824.11	3538
824.25	3580
824.389	3557
824.529	3675
824.669	3622
824.809	3679
824.949	3736
825.089	3701
825.228	3667
825.368	3511
825.508	3572
825.648	3587
825.787	3603
825.927	3618
826.067	3561
826.206	3675
826.346	3770
826.485	3835
826.625	3846
826.765	3911
826.904	3880
827.044	3595
827.183	3523
827.323	3428
827.462	3454
827.601	3428
827.741	3378
827.88	3416
828.02	3351
828.159	3431
828.298	3431
828.437	3545
828.577	3488
828.716	3606
828.855	3428
828.994	3355
829.134	3351
829.273	3332
829.412	3321
829.551	3291
829.69	3367
829.829	3409
829.968	3523
830.107	3431
830.246	3367
830.385	3363
830.524	3332
830.663	3298
830.802	3222
830.941	3157
831.08	3188
831.219	3264
831.357	3237
831.496	3397
831.635	3230
831.774	3180
831.913	3184
832.051	3123
832.19	3131
832.329	3241
832.467	3138
832.606	3108
832.744	3157
832.883	3169
833.022	3195
833.16	3214
833.299	3294
833.437	3317
833.576	3340
833.714	3325
833.852	3424
833.991	3443
834.129	3416
834.267	3435
834.406	3363
834.544	3416
834.682	3431
834.821	3405
834.959	3564
835.097	3401
835.235	3515
835.373	3473
835.511	3462
835.65	3420
835.788	3477
835.926	3363
836.064	3401
836.202	3370
836.34	3576
836.478	3595
836.615	3542
836.753	3568
836.891	3652
837.029	3591
837.167	3553
837.305	3545
837.443	3553
837.58	3500
837.718	3595
837.856	3538
837.993	3534
838.131	3603
838.269	3526
838.406	3587
838.544	3507
838.681	3477
838.819	3401
838.956	3374
839.094	3397
839.231	3431
839.369	3492
839.506	3705
839.643	3652
839.781	3458
839.918	3420
840.055	3534
840.193	3504
840.33	3526
840.467	3553
840.604	3625
840.742	3778
840.879	3534
841.016	3561
841.153	3595
841.29	3743
841.427	3698
841.564	3682
841.701	3766
841.838	3675
841.975	3663
842.112	3717
842.249	3625
842.385	3610
842.522	3781
842.659	3660
842.796	3663
842.933	3728
843.069	3644
843.206	3663
843.343	3800
843.479	3720
843.616	3747
843.752	3667
843.889	3637
844.025	3842
844.162	3724
844.298	3827
844.435	3736
844.571	3747
844.708	3857
844.844	3987
844.98	3994
845.117	3975
845.253	3888
845.389	3884
845.525	3953
845.661	3934
845.798	3926
845.934	3994
846.07	3949
846.206	4067
846.342	4120
846.478	4048
846.614	3975
846.75	3884
846.886	3892
847.022	4021
847.158	3949
847.294	4002
847.429	4040
847.565	3983
847.701	4261
847.837	3857
847.972	3827
848.108	3975
848.244	3956
848.379	3842
848.515	3823
848.65	3823
848.786	3831
848.921	3873
849.057	3888
849.192	3915
849.328	3911
849.463	3876
849.598	3831
849.734	3842
849.869	3831
850.004	3785
850.14	3800
850.275	3743
850.41	3766
850.545	3762
850.68	3747
850.815	3743
850.95	3770
851.085	3888
851.22	3838
851.355	3835
851.49	3778
851.625	3778
851.76	3808
851.895	3686
852.03	3724
852.165	3800
852.299	3823
852.434	3896
852.569	3827
852.703	3865
852.838	3899
852.973	4017
853.107	3994
853.242	3888
853.376	3842
853.511	3774
853.645	3812
853.78	3945
853.914	3911
854.048	3888
854.183	3873
854.317	3926
854.451	4055
854.585	3930
854.72	3964
854.854	4013
854.988	3922
855.122	3937
855.256	3915
855.39	3968
855.524	4044
855.658	4074
855.792	4093
855.926	4131
856.06	4177
856.194	4181
856.327	4124
856.461	4120
856.595	4177
856.729	4143
856.862	4272
856.996	4234
857.13	4253
857.263	4303
857.397	4318
857.53	4287
857.664	4325
857.797	4348
857.931	4363
858.064	4390
858.197	4447
858.331	4375
858.464	4394
858.597	4329
858.731	4447
858.864	4398
858.997	4413
859.13	4500
859.263	4531
859.396	4527
859.529	4497
859.662	4531
859.795	4504
859.928	4565
860.061	4721
860.194	4672
860.327	4622
860.46	4618
860.592	4698
860.725	4706
860.858	4771
860.99	4714
861.123	4637
861.256	4672
861.388	4755
861.521	5254
861.653	4649
861.786	4691
861.918	4733
862.05	4771
862.183	4843
862.315	4892
862.447	4881
862.58	4778
862.712	4790
862.844	4725
862.976	4805
863.108	4812
863.24	5220
863.372	4801
863.504	4877
863.636	4824
863.768	4949
863.9	4934
864.032	4915
864.164	4949
864.296	4987
864.428	5052
864.559	5018
864.691	5105
864.823	5071
864.954	5124
865.086	5140
865.217	5109
865.349	5086
865.48	5162
865.612	5212
865.743	5326
865.875	5193
866.006	5174
866.137	5235
866.269	5155
866.4	5193
866.531	5197
866.662	5216
866.793	5288
866.924	5273
867.055	5322
867.186	5318
867.317	5341
867.448	5353
867.579	5391
867.71	5349
867.841	5395
867.972	5471
868.103	5406
868.233	5463
868.364	5486
868.495	5585
868.625	5672
868.756	5783
868.886	5630
869.017	5714
869.147	5851
869.278	5859
869.408	5798
869.539	5790
869.669	5942
869.799	5885
869.929	5973
870.06	5988
870.19	6152
870.32	6190
870.45	6277
870.58	6308
870.71	6395
870.84	6494
870.97	6414
871.1	6452
871.23	6623
871.36	6719
871.489	6608
871.619	6681
871.749	6814
871.879	6856
872.008	6958
872.138	6943
872.267	6996
872.397	6985
872.526	7038
872.656	7072
872.785	7202
872.915	7384
873.044	7495
873.173	7540
873.303	7677
873.432	7731
873.561	7833
873.69	7852
873.819	8005
873.948	8233
874.077	8172
874.206	8309
874.335	8393
874.464	8552
874.593	8773
874.722	8849
874.851	9032
874.979	9222
875.108	9340
875.237	9408
875.365	9439
875.494	9629
875.623	9819
875.751	9812
875.88	9880
876.008	10169
876.136	10337
876.265	10424
876.393	10683
876.521	10710
876.65	10714
876.778	10877
876.906	10900
877.034	10900
877.162	11075
877.29	11083
877.418	11280
877.546	11391
877.674	11417
877.802	11440
877.93	11520
878.058	11585
878.185	11554
878.313	11581
878.441	11676
878.568	11672
878.696	11718
878.824	11859
878.951	11950
879.079	11996
879.206	12114
879.333	12072
879.461	11916
879.588	12045
879.715	12053
879.842	12163
879.97	12038
880.097	11912
880.224	11840
880.351	11855
880.478	11882
880.605	11832
880.732	11843
880.859	12053
880.986	11809
881.112	11863
881.239	11767
881.366	11615
881.493	11562
881.619	11570
881.746	11668
881.872	11512
881.999	11482
882.125	11455
882.252	11524
882.378	11433
882.505	11551
882.631	11383
882.757	11311
882.883	11303
883.01	11265
883.136	11151
883.262	11083
883.388	11178
883.514	11166
883.64	11155
883.766	11136
883.892	10930
884.018	11003
884.143	11025
884.269	11105
884.395	10816
884.52	10759
884.646	10801
884.772	10710
884.897	10626
885.023	10672
885.148	10694
885.274	10694
885.399	10664
885.524	10630
885.65	10656
885.775	10519
885.9	10653
886.025	10573
886.15	10478
886.275	10455
886.4	10363
886.525	10421
886.65	10295
886.775	10303
886.9	10447
887.025	10546
887.149	10314
887.274	10112
887.399	10219
887.523	10162
887.648	10154
887.773	10143
887.897	10177
888.021	10158
888.146	10074
888.27	10177
888.395	10181
888.519	10173
888.643	10162
888.767	10219
888.891	10013
889.015	9975
889.139	10116
889.263	10051
889.387	10071
889.511	10074
889.635	10002
889.759	10002
889.883	9956
890.006	10006
890.13	10067
890.254	9960
890.377	10036
890.501	9838
890.624	9842
890.748	9888
890.871	9778
890.995	9740
891.118	9732
891.241	9720
891.364	9740
891.488	9823
891.611	9747
891.734	9747
891.857	9755
891.98	9709
892.103	9747
892.226	9660
892.349	9618
892.471	9534
892.594	9545
892.717	9564
892.839	9549
892.962	9637
893.085	9751
893.207	9580
893.33	9500
893.452	9519
893.575	9633
893.697	9469
893.819	9553
893.941	9644
894.064	9591
894.186	9408
894.308	9389
894.43	9469
894.552	9538
894.674	9526
894.796	9382
894.918	9367
895.04	9332
895.161	9397
895.283	9340
895.405	9264
895.526	9157
895.648	9233
895.769	9291
895.891	9256
896.012	9192
896.134	9214
896.255	9176
896.376	9089
896.498	9138
896.619	9138
896.74	8990
896.861	9104
896.982	9237
897.103	9268
897.224	9093
897.345	9089
897.466	9005
897.587	8998
897.708	9047
897.828	9036
897.949	8937
898.07	8876
898.19	8902
898.311	8944
898.431	8948
898.552	8899
898.672	8967
898.792	8971
898.913	8853
899.033	8743
899.153	8746
899.273	8640
899.393	8640
899.513	8716
899.633	8678
899.753	8644
899.873	8686
899.993	8754
900.113	8678
900.232	8655
900.352	8629
900.472	8583
900.591	8492
900.711	8579
900.83	8503
900.95	8583
901.069	8731
901.189	8522
901.308	8434
901.427	8320
901.546	8438
901.665	8446
901.784	8473
901.904	8419
902.023	8313
902.141	8210
902.26	8225
902.379	8240
902.498	8161
902.617	8210
902.735	8244
902.854	8271
902.973	8210
903.091	8115
903.21	8103
903.328	8176
903.446	8123
903.565	8016
903.683	8107
903.801	8020
903.919	8088
904.038	8107
904.156	8043
904.274	8081
904.392	7978
904.51	7997
904.627	8043
904.745	8046
904.863	8092
904.981	7875
905.098	7807
905.216	7799
905.334	7921
905.451	7849
905.569	7818
905.686	7936
905.803	7906
905.921	7792
906.038	7883
906.155	7803
906.272	7715
906.389	7662
906.506	7616
906.623	7620
906.74	7563
906.857	7525
906.974	7525
907.091	7674
907.208	7700
907.324	7636
907.441	7548
907.557	7445
907.674	7419
907.79	7308
907.907	7426
908.023	7407
908.139	7396
908.256	7270
908.372	7331
908.488	7335
908.604	7259
908.72	7251
908.836	7221
908.952	7152
909.068	7278
909.184	7278
909.3	7221
909.415	7247
909.531	7274
909.647	7095
909.762	7126
909.878	7057
909.993	7084
910.108	7038
910.224	7046
910.339	7160
910.454	7057
910.57	6985
910.685	6951
910.8	7221
910.915	7099
911.03	6973
911.145	6890
911.259	6798
911.374	6863
911.489	6806
911.604	6779
911.718	6681
911.833	6719
911.947	6627
912.062	6578
912.176	6639
912.291	6707
912.405	6669
912.519	6764
912.633	6798
912.748	6688
912.862	6646
912.976	6597
913.09	6452
913.204	6521
913.318	6612
913.431	6662
913.545	6707
913.659	6658
913.772	6631
913.886	6551
914	6464
914.113	6570
914.226	6582
914.34	6589
914.453	6540
914.566	6585
914.68	6517
914.793	6532
914.906	6429
915.019	6338
915.132	6342
915.245	6452
915.358	6479
915.47	6399
915.583	6448
915.696	6452
915.809	6467
915.921	6460
916.034	6376
916.146	6422
916.259	6365
916.371	6422
916.483	6441
916.595	6391
916.708	6414
916.82	6399
916.932	6410
917.044	6334
917.156	6410
917.268	6331
917.38	6285
917.491	6235
917.603	6338
917.715	6304
917.826	6361
917.938	6270
918.049	6254
918.161	6285
918.272	6334
918.384	6376
918.495	6327
918.606	6251
918.717	6190
918.828	6243
918.939	6285
919.05	6213
919.161	6239
919.272	6076
919.383	6106
919.494	6254
919.604	6426
919.715	6254
919.826	6182
919.936	6205
920.047	6357
920.157	6232
920.267	6483
920.378	6319
920.488	6243
920.598	6452
920.708	6517
920.818	6471
920.928	6429
921.038	6642
921.148	6585
921.258	6350
921.368	6281
921.477	6186
921.587	6167
921.697	6072
921.806	6148
921.916	6076
922.025	5954
922.134	5923
922.244	5844
922.353	5942
922.462	5805
922.571	5771
922.68	5684
922.789	5676
922.898	5703
923.007	5688
923.116	5676
923.224	5623
923.333	5608
923.442	5558
923.55	5596
923.659	5581
923.767	5608
923.876	5512
923.984	5600
924.092	5493
924.201	5558
924.309	5490
924.417	5562
924.525	5509
924.633	5467
924.741	6220
924.849	5322
924.956	5471
925.064	5349
925.172	5303
925.279	5299
925.387	5292
925.494	5288
925.602	5402
925.709	5387
925.816	5239
925.924	5261
926.031	5345
926.138	5284
926.245	5223
926.352	5227
926.459	5299
926.566	5315
926.673	5185
926.779	5098
926.886	5075
926.993	4953
927.099	5033
927.206	4915
927.312	4961
927.419	4976
927.525	4942
927.631	4980
927.737	4908
927.843	4816
927.95	4774
928.056	4809
928.162	4820
928.267	4831
928.373	5326
928.479	4790
928.585	4645
928.69	4755
928.796	4740
928.901	4615
929.007	4611
929.112	4649
929.218	4611
929.323	4637
929.428	4622
929.533	4668
929.638	4512
929.743	4497
929.848	4527
929.953	4527
930.058	4405
930.163	4306
930.267	4337
930.372	4405
930.477	4318
930.581	4432
930.685	4344
930.79	4215
930.894	4291
930.998	4257
931.103	4367
931.207	4112
931.311	4109
931.415	4051
931.519	3903
931.623	3907
