Data from glass_V78500241_1400.txt Node
Date: Wed Sep 01 19:24:12 CST 2021
User: usil
Spectrometer: V785-0024
Trigger mode: 0
Integration Time (sec): 4.000000E-1
Scans to average: 1
Nonlinearity correction enabled: false
Boxcar width: 0
Storing dark spectrum: false
XAxis mode: Wavelengths
Number of Pixels in Spectrum: 1024
>>>>>Begin Spectral Data<<<<<
801.071	3728
801.214	3766
801.356	3705
801.499	3740
801.641	3732
801.783	3793
801.926	3892
802.068	3835
802.211	3873
802.353	3884
802.496	3873
802.638	3937
802.78	3949
802.923	3934
803.065	3911
803.208	3854
803.35	3892
803.492	3930
803.635	3941
803.777	3808
803.919	3903
804.061	4196
804.204	4002
804.346	3960
804.488	3926
804.63	4017
804.773	3922
804.915	3972
805.057	4128
805.199	4055
805.341	4135
805.483	4147
805.626	4128
805.768	4093
805.91	4185
806.052	4253
806.194	4227
806.336	4402
806.478	4253
806.62	4215
806.762	4200
806.904	4242
807.046	4261
807.188	4234
807.33	4158
807.472	4196
807.614	4211
807.756	4299
807.898	4230
808.04	4215
808.182	4318
808.324	4280
808.465	4367
808.607	4462
808.749	4428
808.891	4474
809.033	4500
809.174	4398
809.316	4242
809.458	4246
809.6	4154
809.741	4135
809.883	4154
810.025	4238
810.166	4223
810.308	4211
810.45	4253
810.591	4246
810.733	4284
810.875	4516
811.016	4862
811.158	5124
811.299	5280
811.441	5303
811.582	5045
811.724	4675
811.865	4512
812.007	4462
812.148	4466
812.29	4424
812.431	4402
812.573	4440
812.714	4417
812.855	4402
812.997	4413
813.138	4493
813.279	4424
813.421	4367
813.562	4375
813.703	4314
813.845	4341
813.986	4306
814.127	4234
814.268	4219
814.41	4249
814.551	4265
814.692	4352
814.833	4299
814.974	4299
815.115	4306
815.256	4242
815.397	4261
815.539	4291
815.68	4219
815.821	4223
815.962	4314
816.103	4280
816.244	4207
816.385	4204
816.526	4219
816.666	4200
816.807	4097
816.948	4219
817.089	4169
817.23	4139
817.371	4093
817.512	4029
817.653	4097
817.793	3991
817.934	4063
818.075	4105
818.216	4112
818.356	4120
818.497	4036
818.638	3945
818.778	3915
818.919	3880
819.06	3876
819.2	3941
819.341	3854
819.481	3838
819.622	3911
819.762	4021
819.903	3979
820.043	3873
820.184	3869
820.324	3831
820.465	3854
820.605	3861
820.746	3850
820.886	3797
821.026	3960
821.167	3949
821.307	4025
821.447	3964
821.588	4006
821.728	3964
821.868	3937
822.008	3861
822.149	3880
822.289	3960
822.429	3812
822.569	3755
822.709	3838
822.849	3679
822.99	3728
823.13	3759
823.27	3789
823.41	3717
823.55	3743
823.69	3720
823.83	3759
823.97	3679
824.11	3603
824.25	3614
824.389	3652
824.529	3694
824.669	3625
824.809	3709
824.949	3781
825.089	3728
825.228	3728
825.368	3595
825.508	3561
825.648	3564
825.787	3618
825.927	3633
826.067	3614
826.206	3671
826.346	3774
826.485	3823
826.625	3865
826.765	3915
826.904	3850
827.044	3587
827.183	3545
827.323	3447
827.462	3488
827.601	3389
827.741	3424
827.88	3431
828.02	3397
828.159	3469
828.298	3507
828.437	3488
828.577	3466
828.716	3603
828.855	3496
828.994	3416
829.134	3382
829.273	3359
829.412	3325
829.551	3329
829.69	3393
829.829	3428
829.968	3507
830.107	3405
830.246	3435
830.385	3401
830.524	3336
830.663	3279
830.802	3275
830.941	3195
831.08	3165
831.219	3291
831.357	3256
831.496	3382
831.635	3230
831.774	3211
831.913	3184
832.051	3123
832.19	3074
832.329	3264
832.467	3169
832.606	3097
832.744	3119
832.883	3184
833.022	3233
833.16	3287
833.299	3310
833.437	3374
833.576	3367
833.714	3332
833.852	3454
833.991	3431
834.129	3496
834.267	3454
834.406	3439
834.544	3443
834.682	3401
834.821	3416
834.959	3542
835.097	3466
835.235	3515
835.373	3511
835.511	3534
835.65	3473
835.788	3458
835.926	3397
836.064	3401
836.202	3397
836.34	3584
836.478	3591
836.615	3557
836.753	3591
836.891	3663
837.029	3599
837.167	3603
837.305	3576
837.443	3507
837.58	3492
837.718	3622
837.856	3580
837.993	3526
838.131	3610
838.269	3576
838.406	3576
838.544	3576
838.681	3485
838.819	3450
838.956	3412
839.094	3363
839.231	3439
839.369	3542
839.506	3743
839.643	3629
839.781	3511
839.918	3473
840.055	3538
840.193	3515
840.33	3523
840.467	3576
840.604	3606
840.742	3797
840.879	3526
841.016	3557
841.153	3587
841.29	3766
841.427	3720
841.564	3720
841.701	3743
841.838	3728
841.975	3686
842.112	3709
842.249	3644
842.385	3606
842.522	3816
842.659	3694
842.796	3652
842.933	3686
843.069	3724
843.206	3743
843.343	3789
843.479	3736
843.616	3838
843.752	3663
843.889	3705
844.025	3831
844.162	3747
844.298	3869
844.435	3816
844.571	3770
844.708	3850
844.844	3994
844.98	4071
845.117	4036
845.253	3918
845.389	3873
845.525	3972
845.661	3979
845.798	3918
845.934	4032
846.07	3972
846.206	4112
846.342	4105
846.478	4059
846.614	4002
846.75	3915
846.886	3892
847.022	4055
847.158	3979
847.294	4040
847.429	4029
847.565	4013
847.701	4272
847.837	3911
847.972	3854
848.108	3968
848.244	3975
848.379	3831
848.515	3804
848.65	3846
848.786	3831
848.921	3835
849.057	3930
849.192	3972
849.328	3945
849.463	3915
849.598	3869
849.734	3892
849.869	3857
850.004	3804
850.14	3842
850.275	3781
850.41	3781
850.545	3755
850.68	3797
850.815	3808
850.95	3819
851.085	3911
851.22	3892
851.355	3842
851.49	3770
851.625	3751
851.76	3800
851.895	3755
852.03	3743
852.165	3774
852.299	3884
852.434	3888
852.569	3857
852.703	3873
852.838	3918
852.973	3960
853.107	3991
853.242	3888
853.376	3816
853.511	3800
853.645	3865
853.78	3911
853.914	3918
854.048	3964
854.183	3865
854.317	3994
854.451	4090
854.585	3922
854.72	3979
854.854	4036
854.988	3953
855.122	4013
855.256	3934
855.39	4063
855.524	4078
855.658	4071
855.792	4120
855.926	4135
856.06	4173
856.194	4204
856.327	4112
856.461	4105
856.595	4162
856.729	4135
856.862	4276
856.996	4257
857.13	4280
857.263	4318
857.397	4398
857.53	4291
857.664	4363
857.797	4398
857.931	4390
858.064	4383
858.197	4478
858.331	4436
858.464	4375
858.597	4352
858.731	4383
858.864	4459
858.997	4447
859.13	4489
859.263	4538
859.396	4630
859.529	4493
859.662	4512
859.795	4504
859.928	4641
860.061	4714
860.194	4767
860.327	4649
860.46	4630
860.592	4733
860.725	4740
860.858	4755
860.99	4702
861.123	4694
861.256	4664
861.388	4824
861.521	5318
861.653	4740
861.786	4679
861.918	4782
862.05	4793
862.183	4805
862.315	4877
862.447	4892
862.58	4889
862.712	4816
862.844	4778
862.976	4843
863.108	4908
863.24	5181
863.372	4847
863.504	4900
863.636	4870
863.768	4938
863.9	5014
864.032	4904
864.164	4927
864.296	5037
864.428	5098
864.559	5067
864.691	5155
864.823	5140
864.954	5094
865.086	5166
865.217	5162
865.349	5067
865.48	5193
865.612	5174
865.743	5296
865.875	5178
866.006	5162
866.137	5212
866.269	5201
866.4	5273
866.531	5261
866.662	5201
866.793	5239
866.924	5258
867.055	5353
867.186	5360
867.317	5303
867.448	5349
867.579	5372
867.71	5372
867.841	5410
867.972	5455
868.103	5474
868.233	5478
868.364	5512
868.495	5562
868.625	5668
868.756	5760
868.886	5695
869.017	5741
869.147	5863
869.278	5821
869.408	5832
869.539	5874
869.669	5946
869.799	5885
869.929	5977
870.06	5977
870.19	6239
870.32	6175
870.45	6266
870.58	6304
870.71	6418
870.84	6513
870.97	6414
871.1	6471
871.23	6703
871.36	6646
871.489	6669
871.619	6783
871.749	6848
871.879	6859
872.008	7000
872.138	7015
872.267	6981
872.397	7027
872.526	7061
872.656	7137
872.785	7236
872.915	7445
873.044	7525
873.173	7533
873.303	7658
873.432	7723
873.561	7909
873.69	7921
873.819	8008
873.948	8107
874.077	8214
874.206	8355
874.335	8465
874.464	8636
874.593	8883
874.722	8891
874.851	9188
874.979	9245
875.108	9439
875.237	9447
875.365	9481
875.494	9660
875.623	9869
875.751	9842
875.88	9899
876.008	10139
876.136	10280
876.265	10561
876.393	10748
876.521	10710
876.65	10866
876.778	10915
876.906	10915
877.034	11033
877.162	11052
877.29	11155
877.418	11296
877.546	11307
877.674	11436
877.802	11448
877.93	11463
878.058	11581
878.185	11604
878.313	11657
878.441	11756
878.568	11608
878.696	11733
878.824	11874
878.951	11996
879.079	11999
879.206	12098
879.333	12053
879.461	11996
879.588	12068
879.715	12045
879.842	12300
879.97	12106
880.097	11908
880.224	11840
880.351	11866
880.478	11798
880.605	11878
880.732	11824
880.859	11855
880.986	11832
881.112	11882
881.239	11695
881.366	11691
881.493	11615
881.619	11535
881.746	11573
881.872	11543
881.999	11589
882.125	11478
882.252	11505
882.378	11524
882.505	11608
882.631	11414
882.757	11269
882.883	11303
883.01	11292
883.136	11170
883.262	11132
883.388	11079
883.514	11220
883.64	11102
883.766	11204
883.892	11003
884.018	10987
884.143	10976
884.269	11086
884.395	10847
884.52	10744
884.646	10752
884.772	10668
884.897	10660
885.023	10668
885.148	10714
885.274	10782
885.399	10752
885.524	10660
885.65	10672
885.775	10558
885.9	10489
886.025	10588
886.15	10504
886.275	10523
886.4	10394
886.525	10402
886.65	10341
886.775	10386
886.9	10497
887.025	10535
887.149	10322
887.274	10234
887.399	10211
887.523	10074
887.648	10188
887.773	10128
887.897	10287
888.021	10242
888.146	10143
888.27	10139
888.395	10223
888.519	10131
888.643	10215
888.767	10154
888.891	10082
889.015	9972
889.139	10059
889.263	9964
889.387	10154
889.511	10131
889.635	10093
889.759	9987
889.883	9960
890.006	9975
890.13	10101
890.254	9926
890.377	9895
890.501	9854
890.624	9869
890.748	9915
890.871	9778
890.995	9774
891.118	9709
891.241	9819
891.364	9823
891.488	9835
891.611	9713
891.734	9743
891.857	9774
891.98	9751
892.103	9846
892.226	9770
892.349	9644
892.471	9542
892.594	9622
892.717	9660
892.839	9545
892.962	9595
893.085	9675
893.207	9656
893.33	9523
893.452	9523
893.575	9534
893.697	9519
893.819	9736
893.941	9641
894.064	9504
894.186	9485
894.308	9386
894.43	9519
894.552	9564
894.674	9523
894.796	9367
894.918	9374
895.04	9367
895.161	9363
895.283	9370
895.405	9192
895.526	9291
895.648	9142
895.769	9230
895.891	9260
896.012	9329
896.134	9184
896.255	9176
896.376	9146
896.498	9131
896.619	9131
896.74	9176
896.861	9135
896.982	9241
897.103	9302
897.224	9207
897.345	9058
897.466	9062
897.587	9047
897.708	9081
897.828	9085
897.949	8982
898.07	8826
898.19	8876
898.311	8998
898.431	8842
898.552	8876
898.672	9017
898.792	8925
898.913	8880
899.033	8872
899.153	8697
899.273	8754
899.393	8701
899.513	8766
899.633	8727
899.753	8712
899.873	8788
899.993	8754
900.113	8689
900.232	8655
900.352	8663
900.472	8606
900.591	8571
900.711	8530
900.83	8488
900.95	8693
901.069	8674
901.189	8526
901.308	8393
901.427	8381
901.546	8499
901.665	8404
901.784	8518
901.904	8419
902.023	8301
902.141	8252
902.26	8225
902.379	8324
902.498	8183
902.617	8229
902.735	8263
902.854	8320
902.973	8298
903.091	8153
903.21	8176
903.328	8100
903.446	8145
903.565	8024
903.683	8069
903.801	8088
903.919	8107
904.038	8126
904.156	8001
904.274	8103
904.392	8020
904.51	8054
904.627	8054
904.745	8134
904.863	8081
904.981	7925
905.098	7894
905.216	7902
905.334	7906
905.451	7909
905.569	7982
905.686	7947
905.803	7887
905.921	7788
906.038	7921
906.155	7792
906.272	7696
906.389	7704
906.506	7647
906.623	7590
906.74	7628
906.857	7480
906.974	7582
907.091	7658
907.208	7685
907.324	7590
907.441	7605
907.557	7487
907.674	7464
907.79	7411
907.907	7396
908.023	7483
908.139	7407
908.256	7400
908.372	7381
908.488	7346
908.604	7305
908.72	7270
908.836	7282
908.952	7266
909.068	7202
909.184	7373
909.3	7301
909.415	7274
909.531	7259
909.647	7110
909.762	7110
909.878	7034
909.993	7126
910.108	7091
910.224	7031
910.339	7091
910.454	7042
910.57	7038
910.685	6996
910.8	7168
910.915	7015
911.03	7038
911.145	6840
911.259	6890
911.374	6920
911.489	6814
911.604	6810
911.718	6757
911.833	6734
911.947	6665
912.062	6601
912.176	6684
912.291	6738
912.405	6707
912.519	6837
912.633	6776
912.748	6772
912.862	6677
912.976	6620
913.09	6570
913.204	6597
913.318	6608
913.431	6650
913.545	6753
913.659	6700
913.772	6631
913.886	6582
914	6536
914.113	6692
914.226	6616
914.34	6642
914.453	6506
914.566	6650
914.68	6566
914.793	6582
914.906	6437
915.019	6338
915.132	6391
915.245	6407
915.358	6422
915.47	6506
915.583	6441
915.696	6433
915.809	6540
915.921	6532
916.034	6456
916.146	6372
916.259	6353
916.371	6475
916.483	6426
916.595	6426
916.708	6391
916.82	6384
916.932	6369
917.044	6388
917.156	6369
917.268	6361
917.38	6353
917.491	6338
917.603	6357
917.715	6391
917.826	6407
917.938	6384
918.049	6220
918.161	6319
918.272	6418
918.384	6429
918.495	6338
918.606	6285
918.717	6186
918.828	6311
918.939	6239
919.05	6201
919.161	6235
919.272	6144
919.383	6133
919.494	6319
919.604	6391
919.715	6319
919.826	6273
919.936	6273
920.047	6281
920.157	6273
920.267	6479
920.378	6365
920.488	6270
920.598	6448
920.708	6582
920.818	6460
920.928	6483
921.038	6555
921.148	6593
921.258	6350
921.368	6273
921.477	6220
921.587	6251
921.697	6095
921.806	6216
921.916	6064
922.025	5969
922.134	5931
922.244	5866
922.353	5999
922.462	5874
922.571	5783
922.68	5703
922.789	5672
922.898	5726
923.007	5619
923.116	5710
923.224	5661
923.333	5596
923.442	5608
923.55	5585
923.659	5581
923.767	5608
923.876	5596
923.984	5558
924.092	5444
924.201	5596
924.309	5562
924.417	5577
924.525	5505
924.633	5429
924.741	6266
924.849	5444
924.956	5501
925.064	5372
925.172	5299
925.279	5360
925.387	5391
925.494	5330
925.602	5398
925.709	5387
925.816	5299
925.924	5303
926.031	5357
926.138	5303
926.245	5318
926.352	5239
926.459	5273
926.566	5273
926.673	5185
926.779	5155
926.886	5124
926.993	4972
927.099	5056
927.206	4972
927.312	4957
927.419	5029
927.525	4957
927.631	4999
927.737	4870
927.843	4870
927.95	4736
928.056	4828
928.162	4801
928.267	4858
928.373	5246
928.479	4847
928.585	4672
928.69	4767
928.796	4797
928.901	4717
929.007	4622
929.112	4691
929.218	4653
929.323	4660
929.428	4577
929.533	4656
929.638	4478
929.743	4550
929.848	4569
929.953	4523
930.058	4428
930.163	4322
930.267	4341
930.372	4443
930.477	4291
930.581	4516
930.685	4390
930.79	4268
930.894	4272
930.998	4238
931.103	4390
931.207	4128
931.311	4093
931.415	4086
931.519	3903
931.623	3975
