Data from glass_V78500241_2223.txt Node
Date: Wed Sep 01 19:29:54 CST 2021
User: usil
Spectrometer: V785-0024
Trigger mode: 0
Integration Time (sec): 4.000000E-1
Scans to average: 1
Nonlinearity correction enabled: false
Boxcar width: 0
Storing dark spectrum: false
XAxis mode: Wavelengths
Number of Pixels in Spectrum: 1024
>>>>>Begin Spectral Data<<<<<
801.071	3717
801.214	3747
801.356	3705
801.499	3728
801.641	3724
801.783	3743
801.926	3835
802.068	3819
802.211	3857
802.353	3850
802.496	3823
802.638	3903
802.78	3918
802.923	3945
803.065	3854
803.208	3842
803.35	3911
803.492	3873
803.635	3911
803.777	3789
803.919	3869
804.061	4101
804.204	3915
804.346	3949
804.488	3918
804.63	4025
804.773	4006
804.915	4017
805.057	4120
805.199	4067
805.341	4078
805.483	4169
805.626	4154
805.768	4097
805.91	4150
806.052	4223
806.194	4162
806.336	4303
806.478	4200
806.62	4177
806.762	4211
806.904	4204
807.046	4333
807.188	4181
807.33	4196
807.472	4257
807.614	4234
807.756	4219
807.898	4261
808.04	4192
808.182	4272
808.324	4303
808.465	4383
808.607	4489
808.749	4459
808.891	4421
809.033	4451
809.174	4348
809.316	4257
809.458	4242
809.6	4185
809.741	4112
809.883	4158
810.025	4238
810.166	4215
810.308	4181
810.45	4211
810.591	4249
810.733	4238
810.875	4508
811.016	4767
811.158	5086
811.299	5204
811.441	5292
811.582	5140
811.724	4672
811.865	4470
812.007	4470
812.148	4440
812.29	4409
812.431	4451
812.573	4436
812.714	4386
812.855	4409
812.997	4398
813.138	4440
813.279	4409
813.421	4428
813.562	4383
813.703	4310
813.845	4329
813.986	4211
814.127	4169
814.268	4242
814.41	4299
814.551	4219
814.692	4333
814.833	4261
814.974	4287
815.115	4348
815.256	4204
815.397	4234
815.539	4234
815.68	4234
815.821	4238
815.962	4291
816.103	4295
816.244	4227
816.385	4227
816.526	4280
816.666	4265
816.807	4116
816.948	4158
817.089	4158
817.23	4112
817.371	4002
817.512	4017
817.653	4139
817.793	4021
817.934	4029
818.075	4063
818.216	4032
818.356	4097
818.497	3930
818.638	3926
818.778	3956
818.919	3850
819.06	3857
819.2	3922
819.341	3850
819.481	3812
819.622	3907
819.762	4036
819.903	3903
820.043	3854
820.184	3793
820.324	3812
820.465	3846
820.605	3823
820.746	3800
820.886	3770
821.026	3880
821.167	3876
821.307	3922
821.447	3979
821.588	3941
821.728	3930
821.868	3956
822.008	3869
822.149	3949
822.289	3888
822.429	3770
822.569	3789
822.709	3800
822.849	3682
822.99	3755
823.13	3751
823.27	3766
823.41	3686
823.55	3728
823.69	3717
823.83	3705
823.97	3637
824.11	3595
824.25	3610
824.389	3663
824.529	3671
824.669	3660
824.809	3690
824.949	3736
825.089	3717
825.228	3720
825.368	3557
825.508	3530
825.648	3542
825.787	3610
825.927	3614
826.067	3595
826.206	3667
826.346	3797
826.485	3804
826.625	3876
826.765	3941
826.904	3804
827.044	3584
827.183	3519
827.323	3397
827.462	3477
827.601	3447
827.741	3443
827.88	3447
828.02	3351
828.159	3405
828.298	3477
828.437	3511
828.577	3469
828.716	3603
828.855	3496
828.994	3378
829.134	3378
829.273	3367
829.412	3363
829.551	3329
829.69	3351
829.829	3443
829.968	3549
830.107	3420
830.246	3416
830.385	3393
830.524	3321
830.663	3336
830.802	3241
830.941	3180
831.08	3176
831.219	3241
831.357	3253
831.496	3389
831.635	3245
831.774	3199
831.913	3188
832.051	3119
832.19	3161
832.329	3222
832.467	3116
832.606	3097
832.744	3176
832.883	3192
833.022	3195
833.16	3268
833.299	3306
833.437	3355
833.576	3374
833.714	3378
833.852	3409
833.991	3458
834.129	3469
834.267	3428
834.406	3397
834.544	3405
834.682	3428
834.821	3439
834.959	3576
835.097	3412
835.235	3538
835.373	3496
835.511	3500
835.65	3412
835.788	3496
835.926	3355
836.064	3409
836.202	3389
836.34	3576
836.478	3599
836.615	3542
836.753	3576
836.891	3675
837.029	3572
837.167	3576
837.305	3542
837.443	3481
837.58	3496
837.718	3629
837.856	3519
837.993	3530
838.131	3606
838.269	3572
838.406	3553
838.544	3557
838.681	3431
838.819	3454
838.956	3359
839.094	3393
839.231	3431
839.369	3511
839.506	3781
839.643	3606
839.781	3496
839.918	3435
840.055	3523
840.193	3530
840.33	3530
840.467	3545
840.604	3595
840.742	3762
840.879	3523
841.016	3553
841.153	3595
841.29	3743
841.427	3709
841.564	3724
841.701	3762
841.838	3686
841.975	3656
842.112	3720
842.249	3648
842.385	3625
842.522	3827
842.659	3667
842.796	3625
842.933	3679
843.069	3671
843.206	3732
843.343	3812
843.479	3778
843.616	3816
843.752	3667
843.889	3667
844.025	3842
844.162	3713
844.298	3880
844.435	3778
844.571	3789
844.708	3930
844.844	3960
844.98	4021
845.117	4010
845.253	3926
845.389	3907
845.525	3960
845.661	4010
845.798	3941
845.934	3949
846.07	3922
846.206	4051
846.342	4173
846.478	4036
846.614	3937
846.75	3918
846.886	3945
847.022	4029
847.158	3987
847.294	4002
847.429	4017
847.565	3975
847.701	4238
847.837	3873
847.972	3888
848.108	3987
848.244	3903
848.379	3876
848.515	3842
848.65	3804
848.786	3827
848.921	3922
849.057	3880
849.192	3934
849.328	3876
849.463	3930
849.598	3888
849.734	3861
849.869	3804
850.004	3800
850.14	3831
850.275	3827
850.41	3732
850.545	3751
850.68	3781
850.815	3736
850.95	3823
851.085	3934
851.22	3865
851.355	3850
851.49	3793
851.625	3762
851.76	3793
851.895	3732
852.03	3736
852.165	3778
852.299	3808
852.434	3854
852.569	3846
852.703	3880
852.838	3903
852.973	3937
853.107	3972
853.242	3869
853.376	3812
853.511	3766
853.645	3800
853.78	3918
853.914	3907
854.048	3896
854.183	3869
854.317	3937
854.451	4055
854.585	3979
854.72	3945
854.854	4017
854.988	3934
855.122	4025
855.256	3930
855.39	4006
855.524	4097
855.658	4101
855.792	4086
855.926	4093
856.06	4158
856.194	4253
856.327	4116
856.461	4078
856.595	4116
856.729	4192
856.862	4227
856.996	4219
857.13	4310
857.263	4261
857.397	4363
857.53	4272
857.664	4344
857.797	4402
857.931	4413
858.064	4371
858.197	4493
858.331	4352
858.464	4375
858.597	4310
858.731	4390
858.864	4459
858.997	4455
859.13	4447
859.263	4584
859.396	4577
859.529	4516
859.662	4508
859.795	4504
859.928	4626
860.061	4691
860.194	4687
860.327	4691
860.46	4630
860.592	4702
860.725	4706
860.858	4805
860.99	4687
861.123	4733
861.256	4645
861.388	4748
861.521	5440
861.653	4767
861.786	4714
861.918	4771
862.05	4771
862.183	4843
862.315	4892
862.447	4923
862.58	4877
862.712	4805
862.844	4740
862.976	4881
863.108	4870
863.24	5181
863.372	4801
863.504	4873
863.636	4896
863.768	5014
863.9	4934
864.032	4889
864.164	4942
864.296	5003
864.428	5075
864.559	5029
864.691	5060
864.823	5155
864.954	5086
865.086	5098
865.217	5083
865.349	5124
865.48	5147
865.612	5162
865.743	5307
865.875	5185
866.006	5208
866.137	5212
866.269	5216
866.4	5220
866.531	5250
866.662	5246
866.793	5345
866.924	5322
867.055	5326
867.186	5357
867.317	5307
867.448	5349
867.579	5379
867.71	5345
867.841	5349
867.972	5478
868.103	5459
868.233	5474
868.364	5516
868.495	5532
868.625	5668
868.756	5821
868.886	5653
869.017	5752
869.147	5836
869.278	5844
869.408	5824
869.539	5840
869.669	5904
869.799	5901
869.929	5954
870.06	5980
870.19	6194
870.32	6159
870.45	6266
870.58	6323
870.71	6391
870.84	6448
870.97	6407
871.1	6365
871.23	6631
871.36	6722
871.489	6703
871.619	6745
871.749	6848
871.879	6878
872.008	7004
872.138	6928
872.267	6989
872.397	6989
872.526	7019
872.656	7042
872.785	7149
872.915	7388
873.044	7491
873.173	7540
873.303	7639
873.432	7693
873.561	7898
873.69	7951
873.819	7997
873.948	8176
874.077	8271
874.206	8282
874.335	8393
874.464	8651
874.593	8826
874.722	8880
874.851	9169
874.979	9230
875.108	9329
875.237	9378
875.365	9447
875.494	9599
875.623	9819
875.751	9895
875.88	9972
876.008	10185
876.136	10188
876.265	10542
876.393	10679
876.521	10653
876.65	10824
876.778	10820
876.906	10904
877.034	10965
877.162	11090
877.29	11227
877.418	11299
877.546	11296
877.674	11402
877.802	11467
877.93	11528
878.058	11516
878.185	11535
878.313	11665
878.441	11703
878.568	11684
878.696	11794
878.824	11828
878.951	11961
879.079	11973
879.206	12167
879.333	11958
879.461	12007
879.588	12064
879.715	12136
879.842	12224
879.97	12030
880.097	11843
880.224	11874
880.351	11836
880.478	11889
880.605	11798
880.732	11767
880.859	12011
880.986	11786
881.112	11798
881.239	11680
881.366	11653
881.493	11638
881.619	11592
881.746	11623
881.872	11547
881.999	11493
882.125	11459
882.252	11543
882.378	11410
882.505	11493
882.631	11322
882.757	11345
882.883	11337
883.01	11170
883.136	11181
883.262	11193
883.388	11083
883.514	11136
883.64	11147
883.766	11033
883.892	11052
884.018	11041
884.143	11056
884.269	11041
884.395	10877
884.52	10763
884.646	10767
884.772	10679
884.897	10679
885.023	10729
885.148	10706
885.274	10809
885.399	10694
885.524	10637
885.65	10546
885.775	10626
885.9	10542
886.025	10554
886.15	10611
886.275	10462
886.4	10424
886.525	10405
886.65	10325
886.775	10440
886.9	10459
887.025	10436
887.149	10291
887.274	10284
887.399	10196
887.523	10177
887.648	10200
887.773	10204
887.897	10253
888.021	10310
888.146	10021
888.27	10253
888.395	10196
888.519	10109
888.643	10158
888.767	10128
888.891	10010
889.015	10059
889.139	10204
889.263	9991
889.387	10048
889.511	10166
889.635	10097
889.759	9907
889.883	9968
890.006	10013
890.13	10055
890.254	9968
890.377	9945
890.501	9835
890.624	9922
890.748	9846
890.871	9819
890.995	9759
891.118	9648
891.241	9774
891.364	9717
891.488	9876
891.611	9762
891.734	9682
891.857	9736
891.98	9656
892.103	9812
892.226	9694
892.349	9667
892.471	9587
892.594	9641
892.717	9629
892.839	9568
892.962	9618
893.085	9633
893.207	9587
893.33	9447
893.452	9557
893.575	9568
893.697	9435
893.819	9595
893.941	9625
894.064	9606
894.186	9420
894.308	9431
894.43	9492
894.552	9572
894.674	9526
894.796	9294
894.918	9443
895.04	9306
895.161	9386
895.283	9351
895.405	9287
895.526	9253
895.648	9268
895.769	9207
895.891	9279
896.012	9237
896.134	9298
896.255	9214
896.376	9173
896.498	9081
896.619	9104
896.74	9066
896.861	9081
896.982	9287
897.103	9313
897.224	9169
897.345	9051
897.466	8986
897.587	8971
897.708	9093
897.828	9051
897.949	8982
898.07	8891
898.19	8906
898.311	9047
898.431	8857
898.552	8861
898.672	8998
898.792	8925
898.913	8883
899.033	8807
899.153	8712
899.273	8667
899.393	8716
899.513	8670
899.633	8754
899.753	8712
899.873	8682
899.993	8720
900.113	8705
900.232	8659
900.352	8644
900.472	8610
900.591	8579
900.711	8659
900.83	8598
900.95	8625
901.069	8629
901.189	8560
901.308	8503
901.427	8381
901.546	8358
901.665	8480
901.784	8427
901.904	8438
902.023	8271
902.141	8244
902.26	8191
902.379	8275
902.498	8206
902.617	8225
902.735	8259
902.854	8263
902.973	8225
903.091	8054
903.21	8123
903.328	8145
903.446	8100
903.565	8123
903.683	8062
903.801	8092
903.919	8134
904.038	8111
904.156	8062
904.274	8046
904.392	8005
904.51	7959
904.627	8012
904.745	8065
904.863	8130
904.981	8027
905.098	7830
905.216	7902
905.334	7917
905.451	7875
905.569	7879
905.686	7917
905.803	7913
905.921	7746
906.038	7875
906.155	7757
906.272	7738
906.389	7738
906.506	7670
906.623	7582
906.74	7613
906.857	7582
906.974	7578
907.091	7666
907.208	7662
907.324	7655
907.441	7567
907.557	7457
907.674	7457
907.79	7457
907.907	7377
908.023	7495
908.139	7365
908.256	7354
908.372	7293
908.488	7320
908.604	7255
908.72	7225
908.836	7198
908.952	7263
909.068	7282
909.184	7324
909.3	7202
909.415	7274
909.531	7232
909.647	7133
909.762	7122
909.878	7122
909.993	7065
910.108	7072
910.224	7053
910.339	7107
910.454	6977
910.57	6954
910.685	7000
910.8	7164
910.915	7088
911.03	7012
911.145	6897
911.259	6810
911.374	6867
911.489	6821
911.604	6772
911.718	6658
911.833	6715
911.947	6658
912.062	6601
912.176	6627
912.291	6719
912.405	6700
912.519	6821
912.633	6818
912.748	6730
912.862	6658
912.976	6650
913.09	6551
913.204	6608
913.318	6623
913.431	6696
913.545	6696
913.659	6684
913.772	6563
913.886	6593
914	6521
914.113	6570
914.226	6616
914.34	6608
914.453	6460
914.566	6623
914.68	6483
914.793	6448
914.906	6429
915.019	6448
915.132	6357
915.245	6410
915.358	6448
915.47	6517
915.583	6361
915.696	6471
915.809	6498
915.921	6528
916.034	6437
916.146	6410
916.259	6399
916.371	6475
916.483	6414
916.595	6369
916.708	6403
916.82	6353
916.932	6407
917.044	6372
917.156	6403
917.268	6285
917.38	6327
917.491	6323
917.603	6319
917.715	6395
917.826	6410
917.938	6308
918.049	6277
918.161	6380
918.272	6403
918.384	6422
918.495	6323
918.606	6273
918.717	6254
918.828	6270
918.939	6315
919.05	6152
919.161	6220
919.272	6167
919.383	6110
919.494	6270
919.604	6384
919.715	6331
919.826	6167
919.936	6220
920.047	6338
920.157	6277
920.267	6414
920.378	6304
920.488	6292
920.598	6441
920.708	6563
920.818	6418
920.928	6418
921.038	6604
921.148	6570
921.258	6338
921.368	6285
921.477	6152
921.587	6148
921.697	6057
921.806	6136
921.916	6087
922.025	5954
922.134	5901
922.244	5901
922.353	5965
922.462	5821
922.571	5817
922.68	5699
922.789	5703
922.898	5680
923.007	5661
923.116	5623
923.224	5691
923.333	5680
923.442	5581
923.55	5566
923.659	5551
923.767	5608
923.876	5562
923.984	5600
924.092	5474
924.201	5554
924.309	5554
924.417	5608
924.525	5486
924.633	5490
924.741	6251
924.849	5368
924.956	5539
925.064	5364
925.172	5284
925.279	5284
925.387	5353
925.494	5341
925.602	5425
925.709	5383
925.816	5235
925.924	5315
926.031	5345
926.138	5303
926.245	5330
926.352	5223
926.459	5299
926.566	5273
926.673	5181
926.779	5128
926.886	5102
926.993	4980
927.099	5003
927.206	4949
927.312	4957
927.419	4991
927.525	4961
927.631	4965
927.737	4900
927.843	4877
927.95	4759
928.056	4812
928.162	4797
928.267	4816
928.373	5353
928.479	4835
928.585	4721
928.69	4767
928.796	4752
928.901	4714
929.007	4558
929.112	4626
929.218	4656
929.323	4603
929.428	4573
929.533	4675
929.638	4474
929.743	4489
929.848	4512
929.953	4512
930.058	4447
930.163	4318
930.267	4306
930.372	4447
930.477	4291
930.581	4481
930.685	4352
930.79	4185
930.894	4284
930.998	4246
931.103	4394
931.207	4093
931.311	4055
931.415	4017
931.519	3945
931.623	3949
