Data from glass_V78500241_731.txt Node
Date: Wed Sep 01 19:19:34 CST 2021
User: usil
Spectrometer: V785-0024
Trigger mode: 0
Integration Time (sec): 4.000000E-1
Scans to average: 1
Nonlinearity correction enabled: false
Boxcar width: 0
Storing dark spectrum: false
XAxis mode: Wavelengths
Number of Pixels in Spectrum: 1024
>>>>>Begin Spectral Data<<<<<
801.071	3755
801.214	3759
801.356	3717
801.499	3778
801.641	3755
801.783	3789
801.926	3873
802.068	3816
802.211	3869
802.353	3888
802.496	3861
802.638	3854
802.78	3918
802.923	3934
803.065	3888
803.208	3861
803.35	3873
803.492	3918
803.635	3945
803.777	3755
803.919	3903
804.061	4143
804.204	3964
804.346	3979
804.488	3941
804.63	4025
804.773	4002
804.915	4048
805.057	4188
805.199	4017
805.341	4147
805.483	4112
805.626	4086
805.768	4143
805.91	4223
806.052	4238
806.194	4234
806.336	4363
806.478	4238
806.62	4181
806.762	4215
806.904	4219
807.046	4375
807.188	4211
807.33	4204
807.472	4272
807.614	4185
807.756	4280
807.898	4234
808.04	4215
808.182	4333
808.324	4310
808.465	4386
808.607	4474
808.749	4474
808.891	4459
809.033	4470
809.174	4409
809.316	4280
809.458	4272
809.6	4158
809.741	4116
809.883	4150
810.025	4188
810.166	4249
810.308	4211
810.45	4219
810.591	4173
810.733	4287
810.875	4535
811.016	4854
811.158	5140
811.299	5330
811.441	5315
811.582	5071
811.724	4744
811.865	4485
812.007	4466
812.148	4470
812.29	4428
812.431	4421
812.573	4367
812.714	4386
812.855	4481
812.997	4462
813.138	4500
813.279	4428
813.421	4383
813.562	4405
813.703	4322
813.845	4402
813.986	4265
814.127	4204
814.268	4287
814.41	4276
814.551	4291
814.692	4314
814.833	4314
814.974	4375
815.115	4367
815.256	4234
815.397	4265
815.539	4295
815.68	4230
815.821	4211
815.962	4371
816.103	4329
816.244	4261
816.385	4246
816.526	4363
816.666	4188
816.807	4139
816.948	4230
817.089	4162
817.23	4120
817.371	4093
817.512	4055
817.653	4090
817.793	4017
817.934	4036
818.075	4082
818.216	4105
818.356	4101
818.497	4021
818.638	3892
818.778	3888
818.919	3892
819.06	3865
819.2	3964
819.341	3838
819.481	3842
819.622	3911
819.762	4051
819.903	3987
820.043	3880
820.184	3827
820.324	3880
820.465	3903
820.605	3911
820.746	3876
820.886	3808
821.026	3945
821.167	3960
821.307	3972
821.447	3987
821.588	4032
821.728	3975
821.868	3956
822.008	3884
822.149	3930
822.289	3926
822.429	3793
822.569	3823
822.709	3819
822.849	3698
822.99	3747
823.13	3785
823.27	3755
823.41	3732
823.55	3732
823.69	3728
823.83	3781
823.97	3641
824.11	3591
824.25	3603
824.389	3648
824.529	3709
824.669	3652
824.809	3694
824.949	3755
825.089	3705
825.228	3724
825.368	3614
825.508	3572
825.648	3580
825.787	3599
825.927	3663
826.067	3648
826.206	3698
826.346	3823
826.485	3800
826.625	3896
826.765	3949
826.904	3865
827.044	3633
827.183	3564
827.323	3462
827.462	3488
827.601	3428
827.741	3443
827.88	3424
828.02	3370
828.159	3458
828.298	3488
828.437	3530
828.577	3481
828.716	3587
828.855	3504
828.994	3374
829.134	3348
829.273	3428
829.412	3378
829.551	3355
829.69	3363
829.829	3420
829.968	3557
830.107	3466
830.246	3443
830.385	3370
830.524	3367
830.663	3348
830.802	3283
830.941	3214
831.08	3188
831.219	3272
831.357	3317
831.496	3420
831.635	3230
831.774	3195
831.913	3214
832.051	3146
832.19	3184
832.329	3279
832.467	3146
832.606	3138
832.744	3138
832.883	3203
833.022	3192
833.16	3298
833.299	3325
833.437	3332
833.576	3355
833.714	3397
833.852	3439
833.991	3431
834.129	3500
834.267	3450
834.406	3420
834.544	3416
834.682	3424
834.821	3420
834.959	3629
835.097	3420
835.235	3564
835.373	3458
835.511	3519
835.65	3473
835.788	3500
835.926	3447
836.064	3401
836.202	3401
836.34	3580
836.478	3618
836.615	3564
836.753	3580
836.891	3694
837.029	3618
837.167	3610
837.305	3561
837.443	3576
837.58	3526
837.718	3587
837.856	3572
837.993	3542
838.131	3625
838.269	3587
838.406	3584
838.544	3568
838.681	3431
838.819	3462
838.956	3412
839.094	3374
839.231	3443
839.369	3564
839.506	3740
839.643	3656
839.781	3519
839.918	3458
840.055	3557
840.193	3526
840.33	3564
840.467	3580
840.604	3591
840.742	3793
840.879	3557
841.016	3561
841.153	3625
841.29	3766
841.427	3759
841.564	3705
841.701	3717
841.838	3679
841.975	3667
842.112	3675
842.249	3663
842.385	3622
842.522	3831
842.659	3686
842.796	3660
842.933	3709
843.069	3720
843.206	3705
843.343	3808
843.479	3762
843.616	3857
843.752	3717
843.889	3667
844.025	3831
844.162	3736
844.298	3884
844.435	3823
844.571	3827
844.708	3899
844.844	3979
844.98	4013
845.117	4067
845.253	3937
845.389	3934
845.525	3975
845.661	3979
845.798	3915
845.934	4017
846.07	3953
846.206	4086
846.342	4143
846.478	4086
846.614	3964
846.75	3941
846.886	3907
847.022	4025
847.158	4010
847.294	4063
847.429	3994
847.565	3972
847.701	4238
847.837	3907
847.972	3850
848.108	3983
848.244	3987
848.379	3857
848.515	3835
848.65	3869
848.786	3819
848.921	3827
849.057	3953
849.192	3975
849.328	3918
849.463	3903
849.598	3922
849.734	3850
849.869	3876
850.004	3759
850.14	3869
850.275	3793
850.41	3755
850.545	3751
850.68	3808
850.815	3854
850.95	3778
851.085	3922
851.22	3899
851.355	3827
851.49	3778
851.625	3797
851.76	3800
851.895	3728
852.03	3789
852.165	3789
852.299	3861
852.434	3899
852.569	3869
852.703	3884
852.838	3903
852.973	4032
853.107	3998
853.242	3926
853.376	3869
853.511	3789
853.645	3850
853.78	3968
853.914	3896
854.048	3903
854.183	3911
854.317	3983
854.451	4105
854.585	3941
854.72	3972
854.854	4048
854.988	3964
855.122	4044
855.256	3903
855.39	4048
855.524	4116
855.658	4131
855.792	4090
855.926	4154
856.06	4162
856.194	4219
856.327	4135
856.461	4185
856.595	4207
856.729	4188
856.862	4322
856.996	4253
857.13	4375
857.263	4386
857.397	4402
857.53	4310
857.664	4383
857.797	4436
857.931	4405
858.064	4398
858.197	4497
858.331	4394
858.464	4390
858.597	4337
858.731	4390
858.864	4504
858.997	4470
859.13	4554
859.263	4550
859.396	4656
859.529	4527
859.662	4554
859.795	4527
859.928	4626
860.061	4714
860.194	4767
860.327	4668
860.46	4649
860.592	4755
860.725	4763
860.858	4763
860.99	4752
861.123	4706
861.256	4702
861.388	4809
861.521	5398
861.653	4706
861.786	4759
861.918	4687
862.05	4816
862.183	4866
862.315	4908
862.447	4972
862.58	4930
862.712	4786
862.844	4763
862.976	4866
863.108	4904
863.24	5288
863.372	4831
863.504	4923
863.636	4889
863.768	4991
863.9	4980
864.032	4934
864.164	4991
864.296	5090
864.428	5121
864.559	5151
864.691	5151
864.823	5121
864.954	5067
865.086	5155
865.217	5090
865.349	5159
865.48	5178
865.612	5185
865.743	5299
865.875	5208
866.006	5216
866.137	5273
866.269	5284
866.4	5307
866.531	5220
866.662	5185
866.793	5311
866.924	5326
867.055	5364
867.186	5345
867.317	5410
867.448	5322
867.579	5398
867.71	5368
867.841	5372
867.972	5455
868.103	5467
868.233	5528
868.364	5452
868.495	5570
868.625	5733
868.756	5786
868.886	5741
869.017	5760
869.147	5866
869.278	5863
869.408	5840
869.539	5897
869.669	5889
869.799	5935
869.929	6003
870.06	6045
870.19	6167
870.32	6216
870.45	6258
870.58	6369
870.71	6414
870.84	6486
870.97	6410
871.1	6452
871.23	6669
871.36	6700
871.489	6593
871.619	6760
871.749	6844
871.879	6878
872.008	7034
872.138	7034
872.267	7027
872.397	7008
872.526	6993
872.656	7099
872.785	7240
872.915	7346
873.044	7548
873.173	7647
873.303	7624
873.432	7792
873.561	7849
873.69	7989
873.819	8024
873.948	8180
874.077	8237
874.206	8336
874.335	8423
874.464	8678
874.593	8887
874.722	8914
874.851	9108
874.979	9253
875.108	9416
875.237	9428
875.365	9545
875.494	9610
875.623	9876
875.751	9861
875.88	9994
876.008	10166
876.136	10272
876.265	10493
876.393	10721
876.521	10748
876.65	10801
876.778	10938
876.906	10949
877.034	11029
877.162	11006
877.29	11155
877.418	11311
877.546	11360
877.674	11493
877.802	11356
877.93	11611
878.058	11611
878.185	11684
878.313	11733
878.441	11748
878.568	11752
878.696	11729
878.824	11920
878.951	11920
879.079	11958
879.206	12064
879.333	12110
879.461	11999
879.588	12163
879.715	12049
879.842	12152
879.97	12007
880.097	11969
880.224	11920
880.351	11889
880.478	11897
880.605	11851
880.732	11779
880.859	11996
880.986	11851
881.112	11855
881.239	11779
881.366	11680
881.493	11600
881.619	11482
881.746	11680
881.872	11551
881.999	11463
882.125	11452
882.252	11539
882.378	11524
882.505	11566
882.631	11417
882.757	11322
882.883	11322
883.01	11364
883.136	11201
883.262	11151
883.388	11071
883.514	11189
883.64	11277
883.766	11022
883.892	11003
884.018	11056
884.143	11162
884.269	11094
884.395	10824
884.52	10816
884.646	10702
884.772	10683
884.897	10744
885.023	10694
885.148	10805
885.274	10820
885.399	10752
885.524	10618
885.65	10607
885.775	10596
885.9	10440
886.025	10664
886.15	10634
886.275	10497
886.4	10455
886.525	10375
886.65	10352
886.775	10405
886.9	10466
887.025	10527
887.149	10344
887.274	10246
887.399	10162
887.523	10238
887.648	10169
887.773	10116
887.897	10230
888.021	10272
888.146	10188
888.27	10268
888.395	10333
888.519	10230
888.643	10124
888.767	10265
888.891	10158
889.015	10063
889.139	10082
889.263	9956
889.387	10032
889.511	10078
889.635	10059
889.759	10010
889.883	9960
890.006	10002
890.13	10147
890.254	9930
890.377	9831
890.501	9915
890.624	9846
890.748	9884
890.871	9774
890.995	9694
891.118	9785
891.241	9785
891.364	9717
891.488	9781
891.611	9766
891.734	9762
891.857	9793
891.98	9713
892.103	9785
892.226	9778
892.349	9686
892.471	9485
892.594	9652
892.717	9576
892.839	9663
892.962	9637
893.085	9701
893.207	9576
893.33	9435
893.452	9576
893.575	9606
893.697	9477
893.819	9591
893.941	9610
894.064	9545
894.186	9428
894.308	9344
894.43	9488
894.552	9610
894.674	9526
894.796	9363
894.918	9420
895.04	9332
895.161	9397
895.283	9336
895.405	9287
895.526	9226
895.648	9317
895.769	9211
895.891	9233
896.012	9192
896.134	9260
896.255	9135
896.376	9150
896.498	9154
896.619	9070
896.74	9077
896.861	9104
896.982	9310
897.103	9291
897.224	9112
897.345	9062
897.466	9032
897.587	8982
897.708	9058
897.828	9108
897.949	8952
898.07	8899
898.19	8868
898.311	9066
898.431	8861
898.552	8933
898.672	9009
898.792	8960
898.913	8849
899.033	8849
899.153	8750
899.273	8644
899.393	8716
899.513	8788
899.633	8705
899.753	8754
899.873	8739
899.993	8716
900.113	8697
900.232	8689
900.352	8629
900.472	8644
900.591	8533
900.711	8564
900.83	8549
900.95	8697
901.069	8682
901.189	8552
901.308	8415
901.427	8434
901.546	8385
901.665	8446
901.784	8503
901.904	8374
902.023	8305
902.141	8317
902.26	8202
902.379	8256
902.498	8256
902.617	8225
902.735	8351
902.854	8256
902.973	8271
903.091	8149
903.21	8180
903.328	8218
903.446	8145
903.565	8180
903.683	8149
903.801	8084
903.919	8161
904.038	8126
904.156	8065
904.274	8100
904.392	7963
904.51	8138
904.627	8081
904.745	8062
904.863	8081
904.981	7982
905.098	7894
905.216	7940
905.334	7917
905.451	7997
905.569	7883
905.686	8005
905.803	7871
905.921	7799
906.038	7845
906.155	7792
906.272	7761
906.389	7746
906.506	7700
906.623	7578
906.74	7594
906.857	7552
906.974	7590
907.091	7712
907.208	7727
907.324	7651
907.441	7563
907.557	7419
907.674	7476
907.79	7491
907.907	7365
908.023	7472
908.139	7495
908.256	7388
908.372	7381
908.488	7381
908.604	7297
908.72	7247
908.836	7285
908.952	7282
909.068	7297
909.184	7343
909.3	7312
909.415	7285
909.531	7327
909.647	7141
909.762	7103
909.878	7160
909.993	7209
910.108	7149
910.224	7088
910.339	7198
910.454	7084
910.57	6989
910.685	6989
910.8	7190
910.915	7137
911.03	7012
911.145	6837
911.259	6863
911.374	6932
911.489	6852
911.604	6772
911.718	6711
911.833	6734
911.947	6642
912.062	6601
912.176	6738
912.291	6745
912.405	6719
912.519	6791
912.633	6806
912.748	6776
912.862	6719
912.976	6646
913.09	6555
913.204	6623
913.318	6566
913.431	6688
913.545	6646
913.659	6703
913.772	6677
913.886	6582
914	6589
914.113	6642
914.226	6677
914.34	6623
914.453	6506
914.566	6684
914.68	6566
914.793	6620
914.906	6448
915.019	6467
915.132	6346
915.245	6441
915.358	6437
915.47	6407
915.583	6445
915.696	6456
915.809	6532
915.921	6555
916.034	6437
916.146	6441
916.259	6410
916.371	6483
916.483	6494
916.595	6429
916.708	6437
916.82	6407
916.932	6388
917.044	6399
917.156	6422
917.268	6342
917.38	6296
917.491	6285
917.603	6357
917.715	6395
917.826	6403
917.938	6342
918.049	6232
918.161	6372
918.272	6361
918.384	6460
918.495	6361
918.606	6262
918.717	6186
918.828	6262
918.939	6262
919.05	6239
919.161	6239
919.272	6072
919.383	6152
919.494	6266
919.604	6418
919.715	6319
919.826	6251
919.936	6216
920.047	6357
920.157	6300
920.267	6391
920.378	6361
920.488	6232
920.598	6464
920.708	6532
920.818	6448
920.928	6475
921.038	6608
921.148	6566
921.258	6403
921.368	6334
921.477	6228
921.587	6159
921.697	6106
921.806	6140
921.916	6026
922.025	5996
922.134	5912
922.244	5912
922.353	5916
922.462	5855
922.571	5733
922.68	5748
922.789	5699
922.898	5756
923.007	5589
923.116	5741
923.224	5661
923.333	5707
923.442	5562
923.55	5600
923.659	5592
923.767	5619
923.876	5570
923.984	5638
924.092	5501
924.201	5554
924.309	5566
924.417	5528
924.525	5474
924.633	5486
924.741	6167
924.849	5417
924.956	5509
925.064	5379
925.172	5357
925.279	5284
925.387	5387
925.494	5303
925.602	5410
925.709	5398
925.816	5258
925.924	5337
926.031	5391
926.138	5318
926.245	5376
926.352	5235
926.459	5357
926.566	5360
926.673	5208
926.779	5189
926.886	5185
926.993	5086
927.099	5018
927.206	4934
927.312	4953
927.419	4987
927.525	5025
927.631	4976
927.737	4930
927.843	4866
927.95	4812
928.056	4812
928.162	4839
928.267	4877
928.373	5318
928.479	4892
928.585	4687
928.69	4771
928.796	4748
928.901	4714
929.007	4603
929.112	4694
929.218	4603
929.323	4584
929.428	4577
929.533	4694
929.638	4535
929.743	4565
929.848	4538
929.953	4580
930.058	4432
930.163	4344
930.267	4344
930.372	4466
930.477	4363
930.581	4462
930.685	4386
930.79	4227
930.894	4287
930.998	4261
931.103	4379
931.207	4135
931.311	4078
931.415	4093
931.519	3930
931.623	3937
