Data from glass_V78500241_384.txt Node
Date: Wed Sep 01 19:17:09 CST 2021
User: usil
Spectrometer: V785-0024
Trigger mode: 0
Integration Time (sec): 4.000000E-1
Scans to average: 1
Nonlinearity correction enabled: false
Boxcar width: 0
Storing dark spectrum: false
XAxis mode: Wavelengths
Number of Pixels in Spectrum: 1024
>>>>>Begin Spectral Data<<<<<
801.071	3778
801.214	3751
801.356	3690
801.499	3747
801.641	3732
801.783	3785
801.926	3850
802.068	3850
802.211	3884
802.353	3907
802.496	3854
802.638	3884
802.78	3880
802.923	3918
803.065	3918
803.208	3865
803.35	3899
803.492	3945
803.635	3949
803.777	3838
803.919	3903
804.061	4154
804.204	3949
804.346	3960
804.488	3918
804.63	4029
804.773	3979
804.915	4021
805.057	4192
805.199	3998
805.341	4112
805.483	4116
805.626	4158
805.768	4109
805.91	4227
806.052	4291
806.194	4249
806.336	4363
806.478	4246
806.62	4207
806.762	4230
806.904	4276
807.046	4360
807.188	4188
807.33	4135
807.472	4249
807.614	4219
807.756	4303
807.898	4310
808.04	4253
808.182	4295
808.324	4337
808.465	4424
808.607	4470
808.749	4459
808.891	4474
809.033	4508
809.174	4451
809.316	4291
809.458	4265
809.6	4169
809.741	4120
809.883	4150
810.025	4253
810.166	4215
810.308	4230
810.45	4291
810.591	4246
810.733	4238
810.875	4538
811.016	4824
811.158	5121
811.299	5277
811.441	5254
811.582	5090
811.724	4763
811.865	4466
812.007	4436
812.148	4409
812.29	4405
812.431	4417
812.573	4432
812.714	4443
812.855	4386
812.997	4443
813.138	4531
813.279	4466
813.421	4402
813.562	4405
813.703	4356
813.845	4356
813.986	4249
814.127	4227
814.268	4230
814.41	4333
814.551	4257
814.692	4325
814.833	4291
814.974	4268
815.115	4322
815.256	4272
815.397	4257
815.539	4211
815.68	4215
815.821	4238
815.962	4306
816.103	4276
816.244	4268
816.385	4223
816.526	4276
816.666	4211
816.807	4074
816.948	4181
817.089	4207
817.23	4105
817.371	4055
817.512	4071
817.653	4139
817.793	4010
817.934	4025
818.075	4112
818.216	4090
818.356	4109
818.497	4044
818.638	3934
818.778	3918
818.919	3884
819.06	3869
819.2	3930
819.341	3903
819.481	3896
819.622	3945
819.762	3994
819.903	3972
820.043	3865
820.184	3865
820.324	3819
820.465	3903
820.605	3861
820.746	3876
820.886	3781
821.026	3907
821.167	3968
821.307	3998
821.447	3964
821.588	3994
821.728	3953
821.868	3956
822.008	3899
822.149	3918
822.289	3934
822.429	3831
822.569	3804
822.709	3854
822.849	3705
822.99	3705
823.13	3819
823.27	3793
823.41	3701
823.55	3766
823.69	3698
823.83	3804
823.97	3686
824.11	3603
824.25	3614
824.389	3713
824.529	3701
824.669	3644
824.809	3717
824.949	3770
825.089	3713
825.228	3724
825.368	3622
825.508	3587
825.648	3576
825.787	3644
825.927	3625
826.067	3648
826.206	3644
826.346	3808
826.485	3896
826.625	3865
826.765	3941
826.904	3842
827.044	3629
827.183	3553
827.323	3473
827.462	3496
827.601	3469
827.741	3462
827.88	3488
828.02	3393
828.159	3481
828.298	3507
828.437	3542
828.577	3507
828.716	3622
828.855	3507
828.994	3397
829.134	3374
829.273	3405
829.412	3382
829.551	3344
829.69	3397
829.829	3443
829.968	3526
830.107	3424
830.246	3481
830.385	3393
830.524	3348
830.663	3291
830.802	3245
830.941	3195
831.08	3173
831.219	3260
831.357	3291
831.496	3439
831.635	3245
831.774	3211
831.913	3203
832.051	3195
832.19	3161
832.329	3218
832.467	3154
832.606	3119
832.744	3199
832.883	3214
833.022	3230
833.16	3298
833.299	3287
833.437	3325
833.576	3382
833.714	3416
833.852	3435
833.991	3469
834.129	3485
834.267	3485
834.406	3439
834.544	3424
834.682	3420
834.821	3409
834.959	3587
835.097	3424
835.235	3538
835.373	3462
835.511	3564
835.65	3477
835.788	3523
835.926	3389
836.064	3370
836.202	3393
836.34	3587
836.478	3622
836.615	3564
836.753	3618
836.891	3644
837.029	3682
837.167	3553
837.305	3576
837.443	3580
837.58	3507
837.718	3587
837.856	3572
837.993	3534
838.131	3603
838.269	3641
838.406	3606
838.544	3572
838.681	3504
838.819	3443
838.956	3359
839.094	3401
839.231	3466
839.369	3530
839.506	3766
839.643	3633
839.781	3492
839.918	3481
840.055	3538
840.193	3557
840.33	3538
840.467	3576
840.604	3603
840.742	3797
840.879	3549
841.016	3561
841.153	3572
841.29	3785
841.427	3743
841.564	3698
841.701	3766
841.838	3686
841.975	3709
842.112	3747
842.249	3652
842.385	3644
842.522	3804
842.659	3732
842.796	3686
842.933	3698
843.069	3728
843.206	3679
843.343	3827
843.479	3804
843.616	3838
843.752	3667
843.889	3709
844.025	3838
844.162	3694
844.298	3854
844.435	3774
844.571	3827
844.708	3930
844.844	4006
844.98	4025
845.117	4040
845.253	3922
845.389	3915
845.525	3979
845.661	4021
845.798	3949
845.934	4021
846.07	3979
846.206	4116
846.342	4124
846.478	4120
846.614	3972
846.75	3960
846.886	3956
847.022	4067
847.158	3972
847.294	3994
847.429	4044
847.565	4002
847.701	4238
847.837	3922
847.972	3861
848.108	3987
848.244	3998
848.379	3876
848.515	3812
848.65	3823
848.786	3873
848.921	3892
849.057	3937
849.192	3949
849.328	3888
849.463	3972
849.598	3880
849.734	3861
849.869	3816
850.004	3838
850.14	3816
850.275	3793
850.41	3781
850.545	3789
850.68	3781
850.815	3816
850.95	3747
851.085	3903
851.22	3876
851.355	3850
851.49	3816
851.625	3808
851.76	3793
851.895	3736
852.03	3728
852.165	3823
852.299	3865
852.434	3911
852.569	3865
852.703	3918
852.838	3991
852.973	3983
853.107	4032
853.242	3918
853.376	3915
853.511	3827
853.645	3854
853.78	4025
853.914	3888
854.048	3873
854.183	3876
854.317	3937
854.451	4051
854.585	3956
854.72	3937
854.854	4048
854.988	3930
855.122	4002
855.256	3964
855.39	4051
855.524	4169
855.658	4120
855.792	4120
855.926	4192
856.06	4169
856.194	4261
856.327	4238
856.461	4124
856.595	4169
856.729	4211
856.862	4333
856.996	4291
857.13	4318
857.263	4322
857.397	4386
857.53	4253
857.664	4402
857.797	4383
857.931	4405
858.064	4394
858.197	4485
858.331	4409
858.464	4394
858.597	4341
858.731	4424
858.864	4455
858.997	4485
859.13	4561
859.263	4569
859.396	4596
859.529	4569
859.662	4512
859.795	4504
859.928	4611
860.061	4710
860.194	4725
860.327	4656
860.46	4649
860.592	4755
860.725	4786
860.858	4797
860.99	4672
861.123	4683
861.256	4740
861.388	4782
861.521	5474
861.653	4721
861.786	4786
861.918	4740
862.05	4786
862.183	4896
862.315	4877
862.447	4949
862.58	4881
862.712	4763
862.844	4828
862.976	4885
863.108	4843
863.24	5284
863.372	4908
863.504	4911
863.636	4911
863.768	4961
863.9	4976
864.032	4972
864.164	4972
864.296	5006
864.428	5117
864.559	5117
864.691	5079
864.823	5143
864.954	5109
865.086	5185
865.217	5136
865.349	5113
865.48	5166
865.612	5201
865.743	5292
865.875	5170
866.006	5201
866.137	5277
866.269	5296
866.4	5261
866.531	5227
866.662	5265
866.793	5284
866.924	5261
867.055	5353
867.186	5372
867.317	5330
867.448	5303
867.579	5368
867.71	5402
867.841	5353
867.972	5509
868.103	5452
868.233	5539
868.364	5524
868.495	5501
868.625	5688
868.756	5809
868.886	5661
869.017	5764
869.147	5878
869.278	5889
869.408	5866
869.539	5836
869.669	5920
869.799	5851
869.929	6034
870.06	5999
870.19	6178
870.32	6216
870.45	6270
870.58	6365
870.71	6441
870.84	6536
870.97	6418
871.1	6422
871.23	6631
871.36	6722
871.489	6681
871.619	6818
871.749	6768
871.879	6875
872.008	6993
872.138	6981
872.267	7019
872.397	6993
872.526	7069
872.656	7114
872.785	7187
872.915	7316
873.044	7480
873.173	7575
873.303	7674
873.432	7784
873.561	7879
873.69	7921
873.819	7986
873.948	8172
874.077	8244
874.206	8377
874.335	8461
874.464	8682
874.593	8872
874.722	8910
874.851	9138
874.979	9211
875.108	9378
875.237	9496
875.365	9507
875.494	9656
875.623	9884
875.751	9838
875.88	9987
876.008	10169
876.136	10276
876.265	10470
876.393	10637
876.521	10729
876.65	10820
876.778	10786
876.906	10869
877.034	10995
877.162	11128
877.29	11124
877.418	11318
877.546	11273
877.674	11452
877.802	11482
877.93	11433
878.058	11573
878.185	11543
878.313	11680
878.441	11790
878.568	11646
878.696	11813
878.824	11821
878.951	12136
879.079	12076
879.206	12182
879.333	12064
879.461	11984
879.588	12064
879.715	12106
879.842	12171
879.97	12068
880.097	11885
880.224	11908
880.351	11836
880.478	11775
880.605	11775
880.732	11745
880.859	11996
880.986	11783
881.112	11832
881.239	11726
881.366	11710
881.493	11589
881.619	11566
881.746	11634
881.872	11592
881.999	11459
882.125	11395
882.252	11486
882.378	11425
882.505	11592
882.631	11398
882.757	11337
882.883	11353
883.01	11265
883.136	11216
883.262	11086
883.388	11117
883.514	11136
883.64	11181
883.766	11105
883.892	11052
884.018	11056
884.143	11064
884.269	11090
884.395	10824
884.52	10771
884.646	10839
884.772	10725
884.897	10679
885.023	10702
885.148	10706
885.274	10740
885.399	10675
885.524	10660
885.65	10630
885.775	10645
885.9	10672
886.025	10615
886.15	10512
886.275	10554
886.4	10402
886.525	10413
886.65	10299
886.775	10371
886.9	10565
887.025	10569
887.149	10398
887.274	10291
887.399	10192
887.523	10139
887.648	10188
887.773	10120
887.897	10261
888.021	10196
888.146	10063
888.27	10227
888.395	10223
888.519	10230
888.643	10169
888.767	10181
888.891	10143
889.015	10025
889.139	10128
889.263	10029
889.387	10105
889.511	10093
889.635	10071
889.759	9953
889.883	9987
890.006	10021
890.13	10150
890.254	9975
890.377	9972
890.501	9873
890.624	9804
890.748	9850
890.871	9873
890.995	9766
891.118	9713
891.241	9728
891.364	9728
891.488	9884
891.611	9732
891.734	9774
891.857	9762
891.98	9728
892.103	9797
892.226	9759
892.349	9686
892.471	9519
892.594	9553
892.717	9732
892.839	9622
892.962	9671
893.085	9641
893.207	9477
893.33	9462
893.452	9557
893.575	9561
893.697	9545
893.819	9641
893.941	9625
894.064	9591
894.186	9530
894.308	9447
894.43	9545
894.552	9599
894.674	9492
894.796	9405
894.918	9397
895.04	9279
895.161	9428
895.283	9340
895.405	9256
895.526	9260
895.648	9272
895.769	9241
895.891	9264
896.012	9382
896.134	9256
896.255	9222
896.376	9195
896.498	9161
896.619	9211
896.74	9036
896.861	9070
896.982	9275
897.103	9256
897.224	9157
897.345	9077
897.466	8998
897.587	9055
897.708	9085
897.828	9089
897.949	8956
898.07	8857
898.19	8937
898.311	8979
898.431	8960
898.552	9001
898.672	9032
898.792	8933
898.913	8960
899.033	8823
899.153	8727
899.273	8663
899.393	8746
899.513	8785
899.633	8712
899.753	8739
899.873	8693
899.993	8754
900.113	8720
900.232	8743
900.352	8720
900.472	8644
900.591	8537
900.711	8587
900.83	8552
900.95	8602
901.069	8739
901.189	8606
901.308	8415
901.427	8415
901.546	8457
901.665	8488
901.784	8545
901.904	8377
902.023	8305
902.141	8218
902.26	8229
902.379	8271
902.498	8229
902.617	8237
902.735	8358
902.854	8309
902.973	8298
903.091	8172
903.21	8164
903.328	8275
903.446	8119
903.565	8020
903.683	8077
903.801	8054
903.919	8157
904.038	8111
904.156	8031
904.274	8096
904.392	8008
904.51	7974
904.627	8100
904.745	8096
904.863	8183
904.981	7940
905.098	7917
905.216	7887
905.334	7978
905.451	7963
905.569	7902
905.686	7925
905.803	7940
905.921	7776
906.038	7875
906.155	7719
906.272	7696
906.389	7700
906.506	7689
906.623	7616
906.74	7567
906.857	7556
906.974	7552
907.091	7727
907.208	7746
907.324	7674
907.441	7582
907.557	7529
907.674	7502
907.79	7457
907.907	7468
908.023	7487
908.139	7400
908.256	7419
908.372	7354
908.488	7373
908.604	7346
908.72	7263
908.836	7240
908.952	7236
909.068	7255
909.184	7251
909.3	7274
909.415	7320
909.531	7289
909.647	7114
909.762	7076
909.878	7107
909.993	7183
910.108	7126
910.224	7179
910.339	7042
910.454	7031
910.57	7004
910.685	7000
910.8	7129
910.915	7122
911.03	7000
911.145	6954
911.259	6863
911.374	6871
911.489	6871
911.604	6837
911.718	6722
911.833	6764
911.947	6623
912.062	6574
912.176	6681
912.291	6726
912.405	6673
912.519	6829
912.633	6821
912.748	6711
912.862	6688
912.976	6623
913.09	6509
913.204	6585
913.318	6574
913.431	6703
913.545	6654
913.659	6669
913.772	6616
913.886	6604
914	6551
914.113	6650
914.226	6681
914.34	6578
914.453	6475
914.566	6654
914.68	6601
914.793	6486
914.906	6403
915.019	6369
915.132	6331
915.245	6410
915.358	6502
915.47	6494
915.583	6506
915.696	6456
915.809	6506
915.921	6551
916.034	6426
916.146	6448
916.259	6410
916.371	6483
916.483	6452
916.595	6418
916.708	6445
916.82	6365
916.932	6391
917.044	6372
917.156	6395
917.268	6319
917.38	6357
917.491	6327
917.603	6361
917.715	6357
917.826	6361
917.938	6300
918.049	6220
918.161	6376
918.272	6414
918.384	6445
918.495	6357
918.606	6277
918.717	6171
918.828	6258
918.939	6254
919.05	6209
919.161	6266
919.272	6114
919.383	6155
919.494	6327
919.604	6445
919.715	6323
919.826	6258
919.936	6262
920.047	6232
920.157	6300
920.267	6437
920.378	6338
920.488	6308
920.598	6448
920.708	6623
920.818	6471
920.928	6490
921.038	6623
921.148	6597
921.258	6422
921.368	6243
921.477	6175
921.587	6243
921.697	6064
921.806	6201
921.916	6114
922.025	5942
922.134	5954
922.244	5916
922.353	5946
922.462	5904
922.571	5764
922.68	5737
922.789	5695
922.898	5722
923.007	5649
923.116	5710
923.224	5703
923.333	5695
923.442	5589
923.55	5623
923.659	5570
923.767	5672
923.876	5585
923.984	5653
924.092	5535
924.201	5570
924.309	5554
924.417	5558
924.525	5512
924.633	5490
924.741	6331
924.849	5330
924.956	5402
925.064	5280
925.172	5254
925.279	5341
925.387	5406
925.494	5349
925.602	5402
925.709	5379
925.816	5277
925.924	5311
926.031	5383
926.138	5303
926.245	5364
926.352	5227
926.459	5315
926.566	5322
926.673	5273
926.779	5136
926.886	5124
926.993	5056
927.099	5003
927.206	5022
927.312	5014
927.419	4999
927.525	4965
927.631	4991
927.737	4930
927.843	4828
927.95	4820
928.056	4847
928.162	4850
928.267	4858
928.373	5299
928.479	4919
928.585	4683
928.69	4782
928.796	4812
928.901	4706
929.007	4603
929.112	4679
929.218	4577
929.323	4618
929.428	4603
929.533	4649
929.638	4497
929.743	4565
929.848	4584
929.953	4516
930.058	4462
930.163	4337
930.267	4341
930.372	4462
930.477	4329
930.581	4493
930.685	4375
930.79	4306
930.894	4284
930.998	4246
931.103	4421
931.207	4124
931.311	4082
931.415	4048
931.519	3937
931.623	3934
