Data from glass_V78500241_1819.txt Node
Date: Wed Sep 01 19:27:06 CST 2021
User: usil
Spectrometer: V785-0024
Trigger mode: 0
Integration Time (sec): 4.000000E-1
Scans to average: 1
Nonlinearity correction enabled: false
Boxcar width: 0
Storing dark spectrum: false
XAxis mode: Wavelengths
Number of Pixels in Spectrum: 1024
>>>>>Begin Spectral Data<<<<<
801.071	3720
801.214	3732
801.356	3709
801.499	3774
801.641	3774
801.783	3797
801.926	3835
802.068	3823
802.211	3873
802.353	3873
802.496	3831
802.638	3861
802.78	3903
802.923	3915
803.065	3896
803.208	3869
803.35	3873
803.492	3934
803.635	3892
803.777	3789
803.919	3884
804.061	4192
804.204	3972
804.346	3994
804.488	3865
804.63	4010
804.773	3926
804.915	4017
805.057	4131
805.199	4059
805.341	4063
805.483	4101
805.626	4105
805.768	4124
805.91	4223
806.052	4234
806.194	4211
806.336	4325
806.478	4227
806.62	4166
806.762	4181
806.904	4227
807.046	4333
807.188	4188
807.33	4192
807.472	4242
807.614	4128
807.756	4280
807.898	4230
808.04	4223
808.182	4230
808.324	4341
808.465	4344
808.607	4478
808.749	4462
808.891	4417
809.033	4493
809.174	4398
809.316	4265
809.458	4276
809.6	4185
809.741	4143
809.883	4143
810.025	4246
810.166	4196
810.308	4249
810.45	4268
810.591	4230
810.733	4257
810.875	4459
811.016	4778
811.158	5109
811.299	5315
811.441	5303
811.582	5079
811.724	4675
811.865	4481
812.007	4504
812.148	4459
812.29	4417
812.431	4421
812.573	4432
812.714	4318
812.855	4428
812.997	4417
813.138	4478
813.279	4417
813.421	4375
813.562	4394
813.703	4322
813.845	4344
813.986	4242
814.127	4253
814.268	4261
814.41	4310
814.551	4253
814.692	4325
814.833	4291
814.974	4287
815.115	4367
815.256	4238
815.397	4234
815.539	4246
815.68	4169
815.821	4227
815.962	4341
816.103	4284
816.244	4253
816.385	4242
816.526	4276
816.666	4238
816.807	4051
816.948	4135
817.089	4166
817.23	4124
817.371	4071
817.512	4124
817.653	4090
817.793	4067
817.934	4063
818.075	4112
818.216	4124
818.356	4093
818.497	3964
818.638	3907
818.778	3899
818.919	3896
819.06	3880
819.2	3926
819.341	3835
819.481	3838
819.622	3896
819.762	4029
819.903	3949
820.043	3888
820.184	3819
820.324	3797
820.465	3873
820.605	3880
820.746	3880
820.886	3812
821.026	3918
821.167	3903
821.307	3949
821.447	4002
821.588	3922
821.728	3956
821.868	3945
822.008	3850
822.149	3892
822.289	3934
822.429	3766
822.569	3766
822.709	3816
822.849	3724
822.99	3690
823.13	3751
823.27	3781
823.41	3717
823.55	3690
823.69	3701
823.83	3713
823.97	3652
824.11	3599
824.25	3599
824.389	3629
824.529	3633
824.669	3633
824.809	3682
824.949	3774
825.089	3679
825.228	3671
825.368	3584
825.508	3576
825.648	3538
825.787	3606
825.927	3587
826.067	3618
826.206	3709
826.346	3781
826.485	3835
826.625	3884
826.765	3930
826.904	3812
827.044	3629
827.183	3538
827.323	3450
827.462	3500
827.601	3405
827.741	3428
827.88	3424
828.02	3359
828.159	3431
828.298	3504
828.437	3511
828.577	3477
828.716	3584
828.855	3557
828.994	3386
829.134	3370
829.273	3355
829.412	3389
829.551	3367
829.69	3370
829.829	3435
829.968	3545
830.107	3450
830.246	3416
830.385	3401
830.524	3363
830.663	3287
830.802	3268
830.941	3203
831.08	3165
831.219	3211
831.357	3256
831.496	3416
831.635	3230
831.774	3203
831.913	3195
832.051	3089
832.19	3154
832.329	3188
832.467	3138
832.606	3093
832.744	3135
832.883	3176
833.022	3211
833.16	3272
833.299	3332
833.437	3340
833.576	3340
833.714	3393
833.852	3412
833.991	3439
834.129	3485
834.267	3424
834.406	3374
834.544	3447
834.682	3389
834.821	3431
834.959	3580
835.097	3412
835.235	3504
835.373	3496
835.511	3488
835.65	3454
835.788	3466
835.926	3389
836.064	3389
836.202	3439
836.34	3587
836.478	3587
836.615	3511
836.753	3576
836.891	3629
837.029	3603
837.167	3606
837.305	3538
837.443	3511
837.58	3507
837.718	3618
837.856	3576
837.993	3572
838.131	3629
838.269	3584
838.406	3553
838.544	3542
838.681	3450
838.819	3412
838.956	3405
839.094	3412
839.231	3466
839.369	3549
839.506	3728
839.643	3625
839.781	3519
839.918	3469
840.055	3511
840.193	3519
840.33	3553
840.467	3584
840.604	3584
840.742	3823
840.879	3542
841.016	3545
841.153	3587
841.29	3774
841.427	3728
841.564	3720
841.701	3740
841.838	3682
841.975	3690
842.112	3759
842.249	3637
842.385	3622
842.522	3827
842.659	3701
842.796	3667
842.933	3713
843.069	3743
843.206	3690
843.343	3812
843.479	3797
843.616	3816
843.752	3671
843.889	3663
844.025	3842
844.162	3705
844.298	3850
844.435	3797
844.571	3751
844.708	3873
844.844	3968
844.98	4036
845.117	4074
845.253	3903
845.389	3903
845.525	3979
845.661	3975
845.798	3896
845.934	3972
846.07	3964
846.206	4086
846.342	4124
846.478	4067
846.614	3972
846.75	3903
846.886	3934
847.022	4044
847.158	3975
847.294	4017
847.429	4010
847.565	3972
847.701	4223
847.837	3876
847.972	3838
848.108	3968
848.244	3953
848.379	3865
848.515	3827
848.65	3850
848.786	3789
848.921	3831
849.057	3918
849.192	3979
849.328	3915
849.463	3869
849.598	3865
849.734	3934
849.869	3789
850.004	3812
850.14	3797
850.275	3747
850.41	3736
850.545	3762
850.68	3759
850.815	3785
850.95	3797
851.085	3930
851.22	3873
851.355	3800
851.49	3800
851.625	3774
851.76	3793
851.895	3705
852.03	3755
852.165	3762
852.299	3846
852.434	3884
852.569	3880
852.703	3918
852.838	3918
852.973	3991
853.107	3964
853.242	3873
853.376	3865
853.511	3732
853.645	3819
853.78	3941
853.914	3888
854.048	3911
854.183	3857
854.317	3934
854.451	4063
854.585	3964
854.72	3915
854.854	4036
854.988	3930
855.122	3968
855.256	3903
855.39	4021
855.524	4112
855.658	4128
855.792	4090
855.926	4124
856.06	4128
856.194	4219
856.327	4177
856.461	4124
856.595	4135
856.729	4139
856.862	4284
856.996	4280
857.13	4310
857.263	4322
857.397	4383
857.53	4265
857.664	4344
857.797	4417
857.931	4409
858.064	4394
858.197	4440
858.331	4405
858.464	4371
858.597	4405
858.731	4402
858.864	4519
858.997	4440
859.13	4470
859.263	4497
859.396	4538
859.529	4504
859.662	4527
859.795	4527
859.928	4561
860.061	4653
860.194	4714
860.327	4664
860.46	4687
860.592	4744
860.725	4767
860.858	4782
860.99	4687
861.123	4672
861.256	4702
861.388	4778
861.521	5398
861.653	4736
861.786	4729
861.918	4691
862.05	4816
862.183	4843
862.315	4900
862.447	4927
862.58	4904
862.712	4698
862.844	4748
862.976	4854
863.108	4831
863.24	5197
863.372	4816
863.504	4892
863.636	4873
863.768	4934
863.9	5003
864.032	4915
864.164	4881
864.296	5018
864.428	5102
864.559	5071
864.691	5041
864.823	5151
864.954	5086
865.086	5121
865.217	5117
865.349	5117
865.48	5105
865.612	5201
865.743	5284
865.875	5258
866.006	5170
866.137	5227
866.269	5258
866.4	5189
866.531	5201
866.662	5220
866.793	5258
866.924	5261
867.055	5311
867.186	5322
867.317	5376
867.448	5288
867.579	5387
867.71	5372
867.841	5326
867.972	5467
868.103	5493
868.233	5482
868.364	5554
868.495	5535
868.625	5646
868.756	5798
868.886	5630
869.017	5737
869.147	5901
869.278	5859
869.408	5805
869.539	5786
869.669	5870
869.799	5893
869.929	5965
870.06	5984
870.19	6182
870.32	6201
870.45	6262
870.58	6376
870.71	6384
870.84	6429
870.97	6399
871.1	6452
871.23	6620
871.36	6707
871.489	6631
871.619	6745
871.749	6818
871.879	6837
872.008	7004
872.138	7072
872.267	6993
872.397	7038
872.526	7038
872.656	7137
872.785	7240
872.915	7365
873.044	7502
873.173	7495
873.303	7643
873.432	7742
873.561	7833
873.69	7936
873.819	8001
873.948	8073
874.077	8206
874.206	8355
874.335	8503
874.464	8670
874.593	8891
874.722	8914
874.851	9112
874.979	9272
875.108	9389
875.237	9435
875.365	9435
875.494	9660
875.623	9857
875.751	9865
875.88	10036
876.008	10150
876.136	10287
876.265	10497
876.393	10577
876.521	10721
876.65	10809
876.778	10843
876.906	10911
877.034	10946
877.162	11143
877.29	11143
877.418	11307
877.546	11303
877.674	11448
877.802	11383
877.93	11429
878.058	11532
878.185	11634
878.313	11615
878.441	11805
878.568	11684
878.696	11767
878.824	11836
878.951	11973
879.079	12049
879.206	12057
879.333	12095
879.461	11958
879.588	12079
879.715	12045
879.842	12182
879.97	12003
880.097	11870
880.224	11866
880.351	11893
880.478	11923
880.605	11923
880.732	11855
880.859	12026
880.986	11866
881.112	11843
881.239	11657
881.366	11589
881.493	11627
881.619	11520
881.746	11535
881.872	11562
881.999	11539
882.125	11528
882.252	11562
882.378	11509
882.505	11585
882.631	11414
882.757	11288
882.883	11383
883.01	11166
883.136	11208
883.262	11155
883.388	11086
883.514	11189
883.64	11162
883.766	11170
883.892	11067
884.018	11014
884.143	11113
884.269	11109
884.395	10843
884.52	10767
884.646	10805
884.772	10774
884.897	10622
885.023	10630
885.148	10683
885.274	10748
885.399	10782
885.524	10637
885.65	10580
885.775	10538
885.9	10504
886.025	10577
886.15	10630
886.275	10466
886.4	10443
886.525	10398
886.65	10322
886.775	10325
886.9	10493
887.025	10611
887.149	10363
887.274	10215
887.399	10207
887.523	10192
887.648	10067
887.773	10196
887.897	10207
888.021	10200
888.146	10082
888.27	10261
888.395	10238
888.519	10181
888.643	10105
888.767	10166
888.891	10131
889.015	10002
889.139	10029
889.263	9983
889.387	10036
889.511	10112
889.635	10086
889.759	9949
889.883	9922
890.006	9949
890.13	10154
890.254	9972
890.377	9937
890.501	9911
890.624	9804
890.748	9907
890.871	9800
890.995	9759
891.118	9690
891.241	9736
891.364	9675
891.488	9804
891.611	9755
891.734	9770
891.857	9728
891.98	9701
892.103	9850
892.226	9713
892.349	9648
892.471	9485
892.594	9637
892.717	9644
892.839	9663
892.962	9625
893.085	9652
893.207	9538
893.33	9553
893.452	9488
893.575	9564
893.697	9496
893.819	9603
893.941	9622
894.064	9618
894.186	9424
894.308	9473
894.43	9557
894.552	9568
894.674	9481
894.796	9340
894.918	9431
895.04	9454
895.161	9462
895.283	9389
895.405	9199
895.526	9207
895.648	9195
895.769	9165
895.891	9241
896.012	9287
896.134	9279
896.255	9203
896.376	9119
896.498	9066
896.619	9123
896.74	9123
896.861	9150
896.982	9203
897.103	9310
897.224	9157
897.345	9062
897.466	9009
897.587	9032
897.708	9062
897.828	9032
897.949	8895
898.07	8887
898.19	8948
898.311	9032
898.431	8849
898.552	8921
898.672	8982
898.792	8963
898.913	8887
899.033	8823
899.153	8735
899.273	8663
899.393	8686
899.513	8743
899.633	8689
899.753	8750
899.873	8674
899.993	8796
900.113	8724
900.232	8754
900.352	8655
900.472	8587
900.591	8541
900.711	8549
900.83	8568
900.95	8678
901.069	8682
901.189	8659
901.308	8473
901.427	8374
901.546	8454
901.665	8492
901.784	8533
901.904	8412
902.023	8339
902.141	8248
902.26	8237
902.379	8298
902.498	8240
902.617	8221
902.735	8298
902.854	8290
902.973	8221
903.091	8123
903.21	8084
903.328	8180
903.446	8092
903.565	8020
903.683	8081
903.801	8005
903.919	8084
904.038	8081
904.156	8012
904.274	8100
904.392	7955
904.51	8001
904.627	8054
904.745	8073
904.863	8065
904.981	7997
905.098	7951
905.216	7871
905.334	7849
905.451	7875
905.569	7868
905.686	7932
905.803	7917
905.921	7792
906.038	7845
906.155	7772
906.272	7704
906.389	7670
906.506	7643
906.623	7632
906.74	7597
906.857	7559
906.974	7582
907.091	7666
907.208	7712
907.324	7590
907.441	7590
907.557	7487
907.674	7411
907.79	7346
907.907	7400
908.023	7491
908.139	7441
908.256	7396
908.372	7339
908.488	7369
908.604	7308
908.72	7202
908.836	7255
908.952	7236
909.068	7221
909.184	7354
909.3	7221
909.415	7320
909.531	7251
909.647	7080
909.762	7133
909.878	7046
909.993	7076
910.108	7061
910.224	7053
910.339	7118
910.454	6973
910.57	6947
910.685	6977
910.8	7198
910.915	7046
911.03	7027
911.145	6897
911.259	6943
911.374	6909
911.489	6844
911.604	6814
911.718	6722
911.833	6738
911.947	6665
912.062	6639
912.176	6715
912.291	6749
912.405	6703
912.519	6791
912.633	6779
912.748	6703
912.862	6692
912.976	6631
913.09	6517
913.204	6601
913.318	6642
913.431	6677
913.545	6696
913.659	6658
913.772	6700
913.886	6536
914	6532
914.113	6662
914.226	6616
914.34	6593
914.453	6471
914.566	6631
914.68	6498
914.793	6544
914.906	6418
915.019	6407
915.132	6418
915.245	6350
915.358	6403
915.47	6460
915.583	6437
915.696	6426
915.809	6585
915.921	6593
916.034	6407
916.146	6353
916.259	6456
916.371	6452
916.483	6380
916.595	6357
916.708	6460
916.82	6429
916.932	6414
917.044	6369
917.156	6380
917.268	6331
917.38	6331
917.491	6300
917.603	6350
917.715	6414
917.826	6418
917.938	6331
918.049	6216
918.161	6342
918.272	6429
918.384	6464
918.495	6388
918.606	6277
918.717	6270
918.828	6323
918.939	6304
919.05	6201
919.161	6216
919.272	6102
919.383	6194
919.494	6296
919.604	6490
919.715	6289
919.826	6175
919.936	6258
920.047	6388
920.157	6220
920.267	6483
920.378	6357
920.488	6311
920.598	6426
920.708	6521
920.818	6464
920.928	6452
921.038	6578
921.148	6536
921.258	6350
921.368	6350
921.477	6243
921.587	6175
921.697	6053
921.806	6205
921.916	6079
922.025	5935
922.134	5923
922.244	5889
922.353	5950
922.462	5840
922.571	5836
922.68	5729
922.789	5680
922.898	5703
923.007	5638
923.116	5672
923.224	5714
923.333	5638
923.442	5573
923.55	5570
923.659	5577
923.767	5604
923.876	5562
923.984	5604
924.092	5493
924.201	5490
924.309	5566
924.417	5581
924.525	5459
924.633	5505
924.741	6258
924.849	5322
924.956	5482
925.064	5425
925.172	5273
925.279	5345
925.387	5334
925.494	5360
925.602	5410
925.709	5387
925.816	5265
925.924	5292
926.031	5349
926.138	5299
926.245	5341
926.352	5227
926.459	5284
926.566	5349
926.673	5212
926.779	5189
926.886	5166
926.993	5045
927.099	5025
927.206	4965
927.312	4949
927.419	5037
927.525	4987
927.631	4968
927.737	4904
927.843	4862
927.95	4767
928.056	4866
928.162	4793
928.267	4850
928.373	5391
928.479	4858
928.585	4691
928.69	4771
928.796	4790
928.901	4675
929.007	4615
929.112	4710
929.218	4622
929.323	4622
929.428	4531
929.533	4679
929.638	4497
929.743	4546
929.848	4531
929.953	4542
930.058	4455
930.163	4356
930.267	4276
930.372	4379
930.477	4337
930.581	4481
930.685	4398
930.79	4246
930.894	4291
930.998	4238
931.103	4436
931.207	4128
931.311	4051
931.415	4051
931.519	3956
931.623	3930
