Data from glass_V78500241_1842.txt Node
Date: Wed Sep 01 19:27:16 CST 2021
User: usil
Spectrometer: V785-0024
Trigger mode: 0
Integration Time (sec): 4.000000E-1
Scans to average: 1
Nonlinearity correction enabled: false
Boxcar width: 0
Storing dark spectrum: false
XAxis mode: Wavelengths
Number of Pixels in Spectrum: 1024
>>>>>Begin Spectral Data<<<<<
801.071	3770
801.214	3778
801.356	3728
801.499	3732
801.641	3728
801.783	3785
801.926	3861
802.068	3896
802.211	3842
802.353	3880
802.496	3873
802.638	3865
802.78	3873
802.923	3949
803.065	3896
803.208	3808
803.35	3884
803.492	3911
803.635	3941
803.777	3774
803.919	3873
804.061	4173
804.204	3998
804.346	3930
804.488	3892
804.63	4036
804.773	3975
804.915	3998
805.057	4128
805.199	4036
805.341	4105
805.483	4090
805.626	4120
805.768	4105
805.91	4173
806.052	4215
806.194	4207
806.336	4341
806.478	4234
806.62	4207
806.762	4188
806.904	4242
807.046	4367
807.188	4207
807.33	4147
807.472	4211
807.614	4234
807.756	4276
807.898	4196
808.04	4249
808.182	4291
808.324	4280
808.465	4363
808.607	4478
808.749	4394
808.891	4440
809.033	4451
809.174	4352
809.316	4246
809.458	4246
809.6	4177
809.741	4158
809.883	4109
810.025	4215
810.166	4215
810.308	4238
810.45	4249
810.591	4261
810.733	4291
810.875	4481
811.016	4858
811.158	5105
811.299	5239
811.441	5227
811.582	5064
811.724	4721
811.865	4474
812.007	4447
812.148	4443
812.29	4402
812.431	4398
812.573	4379
812.714	4371
812.855	4424
812.997	4390
813.138	4481
813.279	4455
813.421	4379
813.562	4363
813.703	4360
813.845	4325
813.986	4219
814.127	4188
814.268	4272
814.41	4287
814.551	4234
814.692	4329
814.833	4249
814.974	4303
815.115	4325
815.256	4272
815.397	4196
815.539	4249
815.68	4188
815.821	4196
815.962	4276
816.103	4303
816.244	4230
816.385	4230
816.526	4287
816.666	4223
816.807	4128
816.948	4181
817.089	4154
817.23	4074
817.371	4059
817.512	4032
817.653	4063
817.793	4055
817.934	4025
818.075	4101
818.216	4143
818.356	4093
818.497	3941
818.638	3892
818.778	3915
818.919	3857
819.06	3880
819.2	3918
819.341	3857
819.481	3838
819.622	3918
819.762	4006
819.903	3949
820.043	3823
820.184	3831
820.324	3793
820.465	3869
820.605	3842
820.746	3861
820.886	3857
821.026	3930
821.167	3896
821.307	4013
821.447	3956
821.588	3953
821.728	3937
821.868	3922
822.008	3876
822.149	3896
822.289	3915
822.429	3804
822.569	3747
822.709	3812
822.849	3690
822.99	3732
823.13	3720
823.27	3797
823.41	3736
823.55	3759
823.69	3724
823.83	3732
823.97	3686
824.11	3591
824.25	3599
824.389	3625
824.529	3671
824.669	3587
824.809	3705
824.949	3709
825.089	3728
825.228	3694
825.368	3568
825.508	3553
825.648	3523
825.787	3580
825.927	3637
826.067	3587
826.206	3671
826.346	3770
826.485	3827
826.625	3854
826.765	3941
826.904	3823
827.044	3599
827.183	3485
827.323	3443
827.462	3481
827.601	3431
827.741	3443
827.88	3466
828.02	3363
828.159	3485
828.298	3469
828.437	3526
828.577	3462
828.716	3591
828.855	3511
828.994	3382
829.134	3370
829.273	3351
829.412	3325
829.551	3348
829.69	3355
829.829	3401
829.968	3500
830.107	3443
830.246	3401
830.385	3386
830.524	3374
830.663	3310
830.802	3211
830.941	3207
831.08	3249
831.219	3214
831.357	3260
831.496	3416
831.635	3211
831.774	3184
831.913	3237
832.051	3146
832.19	3116
832.329	3199
832.467	3135
832.606	3108
832.744	3180
832.883	3169
833.022	3226
833.16	3260
833.299	3313
833.437	3287
833.576	3351
833.714	3389
833.852	3424
833.991	3462
834.129	3466
834.267	3420
834.406	3397
834.544	3420
834.682	3409
834.821	3401
834.959	3557
835.097	3435
835.235	3526
835.373	3492
835.511	3519
835.65	3466
835.788	3485
835.926	3370
836.064	3355
836.202	3374
836.34	3572
836.478	3610
836.615	3530
836.753	3568
836.891	3652
837.029	3595
837.167	3584
837.305	3595
837.443	3545
837.58	3504
837.718	3606
837.856	3557
837.993	3561
838.131	3587
838.269	3576
838.406	3576
838.544	3599
838.681	3481
838.819	3469
838.956	3389
839.094	3348
839.231	3488
839.369	3511
839.506	3759
839.643	3629
839.781	3477
839.918	3450
840.055	3534
840.193	3523
840.33	3485
840.467	3576
840.604	3580
840.742	3789
840.879	3523
841.016	3542
841.153	3580
841.29	3770
841.427	3660
841.564	3705
841.701	3785
841.838	3720
841.975	3660
842.112	3759
842.249	3625
842.385	3603
842.522	3812
842.659	3671
842.796	3717
842.933	3728
843.069	3717
843.206	3675
843.343	3823
843.479	3781
843.616	3854
843.752	3701
843.889	3648
844.025	3789
844.162	3736
844.298	3884
844.435	3785
844.571	3819
844.708	3911
844.844	3998
844.98	4025
845.117	3987
845.253	3953
845.389	3899
845.525	3949
845.661	3941
845.798	3896
845.934	3991
846.07	3918
846.206	4101
846.342	4097
846.478	4051
846.614	3991
846.75	3960
846.886	3896
847.022	4048
847.158	3945
847.294	3994
847.429	3979
847.565	4025
847.701	4181
847.837	3876
847.972	3873
848.108	3987
848.244	4002
848.379	3838
848.515	3816
848.65	3778
848.786	3846
848.921	3861
849.057	3907
849.192	3983
849.328	3896
849.463	3922
849.598	3873
849.734	3804
849.869	3888
850.004	3785
850.14	3808
850.275	3770
850.41	3781
850.545	3800
850.68	3778
850.815	3785
850.95	3804
851.085	3926
851.22	3838
851.355	3846
851.49	3762
851.625	3759
851.76	3781
851.895	3724
852.03	3736
852.165	3800
852.299	3865
852.434	3907
852.569	3842
852.703	3884
852.838	3876
852.973	4040
853.107	3964
853.242	3892
853.376	3842
853.511	3751
853.645	3812
853.78	3994
853.914	3854
854.048	3869
854.183	3892
854.317	3972
854.451	3998
854.585	3941
854.72	3911
854.854	4036
854.988	3930
855.122	3983
855.256	3918
855.39	3983
855.524	4101
855.658	4055
855.792	4101
855.926	4169
856.06	4192
856.194	4188
856.327	4128
856.461	4101
856.595	4166
856.729	4169
856.862	4242
856.996	4265
857.13	4284
857.263	4299
857.397	4363
857.53	4352
857.664	4337
857.797	4333
857.931	4436
858.064	4379
858.197	4421
858.331	4405
858.464	4367
858.597	4333
858.731	4421
858.864	4421
858.997	4459
859.13	4493
859.263	4489
859.396	4569
859.529	4470
859.662	4573
859.795	4516
859.928	4611
860.061	4710
860.194	4710
860.327	4660
860.46	4630
860.592	4687
860.725	4694
860.858	4782
860.99	4691
861.123	4656
861.256	4687
861.388	4774
861.521	5341
861.653	4736
861.786	4691
861.918	4717
862.05	4809
862.183	4820
862.315	4850
862.447	4873
862.58	4854
862.712	4767
862.844	4752
862.976	4877
863.108	4892
863.24	5280
863.372	4843
863.504	4927
863.636	4877
863.768	4938
863.9	4915
864.032	4885
864.164	4961
864.296	5041
864.428	5083
864.559	5140
864.691	5136
864.823	5140
864.954	5098
865.086	5117
865.217	5128
865.349	5083
865.48	5170
865.612	5189
865.743	5296
865.875	5201
866.006	5185
866.137	5216
866.269	5208
866.4	5250
866.531	5208
866.662	5261
866.793	5185
866.924	5277
867.055	5353
867.186	5341
867.317	5307
867.448	5326
867.579	5387
867.71	5417
867.841	5410
867.972	5471
868.103	5471
868.233	5493
868.364	5505
868.495	5539
868.625	5634
868.756	5691
868.886	5627
869.017	5745
869.147	5878
869.278	5889
869.408	5764
869.539	5817
869.669	5961
869.799	5874
869.929	6007
870.06	6068
870.19	6247
870.32	6182
870.45	6254
870.58	6361
870.71	6475
870.84	6456
870.97	6338
871.1	6429
871.23	6612
871.36	6681
871.489	6642
871.619	6703
871.749	6810
871.879	6867
872.008	7004
872.138	6916
872.267	6943
872.397	6989
872.526	7046
872.656	7072
872.785	7263
872.915	7308
873.044	7502
873.173	7521
873.303	7655
873.432	7769
873.561	7894
873.69	7913
873.819	7989
873.948	8176
874.077	8263
874.206	8286
874.335	8408
874.464	8720
874.593	8876
874.722	8929
874.851	9135
874.979	9256
875.108	9367
875.237	9443
875.365	9374
875.494	9728
875.623	9842
875.751	9903
875.88	10006
876.008	10116
876.136	10280
876.265	10470
876.393	10755
876.521	10687
876.65	10824
876.778	10869
876.906	10847
877.034	11048
877.162	11132
877.29	11094
877.418	11273
877.546	11356
877.674	11478
877.802	11436
877.93	11509
878.058	11619
878.185	11649
878.313	11585
878.441	11718
878.568	11680
878.696	11817
878.824	11927
878.951	11935
879.079	11999
879.206	12159
879.333	11996
879.461	12034
879.588	12148
879.715	12095
879.842	12213
879.97	12064
880.097	11901
880.224	11889
880.351	11889
880.478	11821
880.605	11828
880.732	11824
880.859	11958
880.986	11828
881.112	11805
881.239	11688
881.366	11653
881.493	11562
881.619	11528
881.746	11539
881.872	11512
881.999	11509
882.125	11535
882.252	11566
882.378	11463
882.505	11615
882.631	11345
882.757	11349
882.883	11231
883.01	11220
883.136	11136
883.262	11143
883.388	11117
883.514	11174
883.64	11201
883.766	11128
883.892	10938
884.018	10987
884.143	11064
884.269	11121
884.395	10892
884.52	10729
884.646	10790
884.772	10675
884.897	10596
885.023	10630
885.148	10748
885.274	10843
885.399	10733
885.524	10580
885.65	10523
885.775	10607
885.9	10565
886.025	10550
886.15	10466
886.275	10474
886.4	10417
886.525	10489
886.65	10337
886.775	10242
886.9	10481
887.025	10466
887.149	10367
887.274	10227
887.399	10204
887.523	10105
887.648	10223
887.773	10128
887.897	10204
888.021	10249
888.146	10101
888.27	10204
888.395	10211
888.519	10188
888.643	10249
888.767	10150
888.891	10063
889.015	9991
889.139	10032
889.263	9983
889.387	10017
889.511	10093
889.635	10090
889.759	9915
889.883	10006
890.006	10059
890.13	10109
890.254	9983
890.377	9975
890.501	9857
890.624	9892
890.748	9903
890.871	9808
890.995	9736
891.118	9717
891.241	9686
891.364	9732
891.488	9816
891.611	9736
891.734	9740
891.857	9766
891.98	9667
892.103	9804
892.226	9698
892.349	9625
892.471	9504
892.594	9572
892.717	9629
892.839	9530
892.962	9633
893.085	9671
893.207	9564
893.33	9488
893.452	9466
893.575	9564
893.697	9595
893.819	9584
893.941	9663
894.064	9618
894.186	9428
894.308	9431
894.43	9511
894.552	9485
894.674	9526
894.796	9439
894.918	9408
895.04	9325
895.161	9332
895.283	9351
895.405	9272
895.526	9253
895.648	9226
895.769	9157
895.891	9146
896.012	9294
896.134	9207
896.255	9192
896.376	9188
896.498	9230
896.619	9058
896.74	9176
896.861	9070
896.982	9321
897.103	9313
897.224	9154
897.345	9028
897.466	8948
897.587	8960
897.708	9074
897.828	9043
897.949	8937
898.07	8941
898.19	8887
898.311	9028
898.431	8868
898.552	8914
898.672	8842
898.792	8883
898.913	8887
899.033	8800
899.153	8674
899.273	8636
899.393	8674
899.513	8781
899.633	8693
899.753	8754
899.873	8712
899.993	8720
900.113	8731
900.232	8689
900.352	8708
900.472	8640
900.591	8480
900.711	8575
900.83	8507
900.95	8724
901.069	8724
901.189	8590
901.308	8396
901.427	8381
901.546	8427
901.665	8465
901.784	8465
901.904	8263
902.023	8347
902.141	8214
902.26	8225
902.379	8328
902.498	8195
902.617	8240
902.735	8328
902.854	8305
902.973	8248
903.091	8119
903.21	8153
903.328	8153
903.446	8130
903.565	8077
903.683	8096
903.801	8058
903.919	8157
904.038	8111
904.156	7986
904.274	8115
904.392	8027
904.51	8046
904.627	8119
904.745	8035
904.863	8088
904.981	7932
905.098	7898
905.216	7879
905.334	7963
905.451	7875
905.569	7898
905.686	7963
905.803	7959
905.921	7753
906.038	7871
906.155	7742
906.272	7647
906.389	7708
906.506	7643
906.623	7632
906.74	7609
906.857	7590
906.974	7605
907.091	7681
907.208	7685
907.324	7658
907.441	7540
907.557	7434
907.674	7434
907.79	7362
907.907	7411
908.023	7396
908.139	7426
908.256	7331
908.372	7407
908.488	7373
908.604	7244
908.72	7206
908.836	7244
908.952	7259
909.068	7240
909.184	7282
909.3	7221
909.415	7274
909.531	7274
909.647	7137
909.762	7145
909.878	7099
909.993	7103
910.108	7133
910.224	7091
910.339	7122
910.454	7027
910.57	6962
910.685	6928
910.8	7183
910.915	7012
911.03	6989
911.145	6882
911.259	6878
911.374	6875
911.489	6806
911.604	6821
911.718	6684
911.833	6779
911.947	6700
912.062	6604
912.176	6707
912.291	6642
912.405	6646
912.519	6810
912.633	6783
912.748	6795
912.862	6730
912.976	6585
913.09	6506
913.204	6604
913.318	6589
913.431	6703
913.545	6669
913.659	6719
913.772	6639
913.886	6597
914	6578
914.113	6662
914.226	6574
914.34	6627
914.453	6490
914.566	6544
914.68	6521
914.793	6563
914.906	6418
915.019	6426
915.132	6365
915.245	6441
915.358	6448
915.47	6422
915.583	6445
915.696	6456
915.809	6490
915.921	6486
916.034	6372
916.146	6380
916.259	6399
916.371	6464
916.483	6426
916.595	6422
916.708	6315
916.82	6456
916.932	6365
917.044	6338
917.156	6410
917.268	6327
917.38	6323
917.491	6331
917.603	6292
917.715	6323
917.826	6426
917.938	6380
918.049	6243
918.161	6350
918.272	6437
918.384	6426
918.495	6365
918.606	6254
918.717	6205
918.828	6228
918.939	6323
919.05	6201
919.161	6262
919.272	6178
919.383	6110
919.494	6289
919.604	6448
919.715	6327
919.826	6201
919.936	6205
920.047	6327
920.157	6216
920.267	6464
920.378	6270
920.488	6243
920.598	6410
920.708	6502
920.818	6445
920.928	6452
921.038	6604
921.148	6597
921.258	6372
921.368	6331
921.477	6213
921.587	6201
921.697	6098
921.806	6163
921.916	6125
922.025	5958
922.134	5939
922.244	5874
922.353	5996
922.462	5893
922.571	5832
922.68	5680
922.789	5718
922.898	5733
923.007	5699
923.116	5726
923.224	5684
923.333	5630
923.442	5562
923.55	5573
923.659	5611
923.767	5619
923.876	5543
923.984	5562
924.092	5589
924.201	5535
924.309	5554
924.417	5581
924.525	5436
924.633	5490
924.741	6304
924.849	5368
924.956	5440
925.064	5315
925.172	5288
925.279	5273
925.387	5383
925.494	5387
925.602	5398
925.709	5334
925.816	5311
925.924	5223
926.031	5322
926.138	5303
926.245	5357
926.352	5216
926.459	5303
926.566	5311
926.673	5227
926.779	5121
926.886	5147
926.993	5064
927.099	5022
927.206	5014
927.312	4961
927.419	4987
927.525	4968
927.631	4991
927.737	4942
927.843	4919
927.95	4790
928.056	4850
928.162	4854
928.267	4847
928.373	5299
928.479	4847
928.585	4691
928.69	4767
928.796	4755
928.901	4649
929.007	4607
929.112	4668
929.218	4634
929.323	4634
929.428	4527
929.533	4653
929.638	4550
929.743	4519
929.848	4565
929.953	4500
930.058	4413
930.163	4276
930.267	4333
930.372	4459
930.477	4310
930.581	4462
930.685	4356
930.79	4257
930.894	4280
930.998	4249
931.103	4383
931.207	4086
931.311	4078
931.415	4051
931.519	3960
931.623	3926
