Data from glass_V78500241_453.txt Node
Date: Wed Sep 01 19:17:38 CST 2021
User: usil
Spectrometer: V785-0024
Trigger mode: 0
Integration Time (sec): 4.000000E-1
Scans to average: 1
Nonlinearity correction enabled: false
Boxcar width: 0
Storing dark spectrum: false
XAxis mode: Wavelengths
Number of Pixels in Spectrum: 1024
>>>>>Begin Spectral Data<<<<<
801.071	3755
801.214	3717
801.356	3709
801.499	3755
801.641	3808
801.783	3793
801.926	3816
802.068	3850
802.211	3865
802.353	3945
802.496	3842
802.638	3873
802.78	3922
802.923	3953
803.065	3911
803.208	3869
803.35	3861
803.492	3918
803.635	3941
803.777	3819
803.919	3945
804.061	4181
804.204	3987
804.346	3960
804.488	3941
804.63	4013
804.773	3972
804.915	3991
805.057	4154
805.199	4097
805.341	4074
805.483	4169
805.626	4120
805.768	4109
805.91	4219
806.052	4272
806.194	4177
806.336	4363
806.478	4223
806.62	4223
806.762	4173
806.904	4265
807.046	4363
807.188	4207
807.33	4169
807.472	4249
807.614	4242
807.756	4276
807.898	4196
808.04	4238
808.182	4291
808.324	4337
808.465	4363
808.607	4447
808.749	4459
808.891	4493
809.033	4523
809.174	4394
809.316	4249
809.458	4234
809.6	4120
809.741	4154
809.883	4166
810.025	4207
810.166	4207
810.308	4242
810.45	4314
810.591	4207
810.733	4284
810.875	4493
811.016	4847
811.158	5113
811.299	5250
811.441	5277
811.582	5113
811.724	4679
811.865	4481
812.007	4462
812.148	4440
812.29	4417
812.431	4413
812.573	4421
812.714	4390
812.855	4432
812.997	4493
813.138	4485
813.279	4409
813.421	4405
813.562	4390
813.703	4306
813.845	4367
813.986	4272
814.127	4230
814.268	4272
814.41	4287
814.551	4276
814.692	4325
814.833	4234
814.974	4325
815.115	4360
815.256	4314
815.397	4249
815.539	4227
815.68	4211
815.821	4219
815.962	4291
816.103	4287
816.244	4249
816.385	4215
816.526	4299
816.666	4242
816.807	4105
816.948	4177
817.089	4188
817.23	4128
817.371	4097
817.512	4097
817.653	4071
817.793	4093
817.934	4048
818.075	4128
818.216	4032
818.356	4067
818.497	4025
818.638	3926
818.778	3941
818.919	3880
819.06	3854
819.2	3922
819.341	3835
819.481	3846
819.622	3964
819.762	4021
819.903	3949
820.043	3892
820.184	3876
820.324	3857
820.465	3850
820.605	3827
820.746	3869
820.886	3857
821.026	3926
821.167	3937
821.307	4021
821.447	3991
821.588	3964
821.728	3937
821.868	3926
822.008	3949
822.149	3907
822.289	3979
822.429	3785
822.569	3747
822.709	3797
822.849	3740
822.99	3751
823.13	3774
823.27	3793
823.41	3717
823.55	3740
823.69	3740
823.83	3755
823.97	3740
824.11	3656
824.25	3606
824.389	3633
824.529	3679
824.669	3644
824.809	3755
824.949	3785
825.089	3728
825.228	3705
825.368	3618
825.508	3606
825.648	3603
825.787	3625
825.927	3633
826.067	3644
826.206	3709
826.346	3804
826.485	3842
826.625	3884
826.765	3937
826.904	3846
827.044	3622
827.183	3553
827.323	3424
827.462	3488
827.601	3485
827.741	3412
827.88	3496
828.02	3382
828.159	3435
828.298	3500
828.437	3523
828.577	3458
828.716	3644
828.855	3481
828.994	3409
829.134	3389
829.273	3424
829.412	3340
829.551	3370
829.69	3355
829.829	3416
829.968	3545
830.107	3462
830.246	3450
830.385	3382
830.524	3348
830.663	3321
830.802	3264
830.941	3241
831.08	3188
831.219	3233
831.357	3291
831.496	3401
831.635	3279
831.774	3195
831.913	3218
832.051	3108
832.19	3169
832.329	3199
832.467	3161
832.606	3100
832.744	3127
832.883	3157
833.022	3214
833.16	3241
833.299	3302
833.437	3332
833.576	3374
833.714	3416
833.852	3447
833.991	3454
834.129	3481
834.267	3469
834.406	3428
834.544	3473
834.682	3405
834.821	3412
834.959	3564
835.097	3447
835.235	3526
835.373	3488
835.511	3515
835.65	3466
835.788	3504
835.926	3439
836.064	3431
836.202	3431
836.34	3568
836.478	3595
836.615	3584
836.753	3622
836.891	3660
837.029	3614
837.167	3584
837.305	3587
837.443	3564
837.58	3530
837.718	3599
837.856	3564
837.993	3526
838.131	3591
838.269	3622
838.406	3614
838.544	3606
838.681	3481
838.819	3469
838.956	3386
839.094	3409
839.231	3477
839.369	3477
839.506	3766
839.643	3671
839.781	3496
839.918	3492
840.055	3538
840.193	3511
840.33	3557
840.467	3557
840.604	3648
840.742	3816
840.879	3568
841.016	3572
841.153	3587
841.29	3778
841.427	3682
841.564	3759
841.701	3781
841.838	3698
841.975	3701
842.112	3736
842.249	3652
842.385	3679
842.522	3831
842.659	3705
842.796	3682
842.933	3701
843.069	3720
843.206	3709
843.343	3835
843.479	3797
843.616	3838
843.752	3682
843.889	3709
844.025	3869
844.162	3740
844.298	3884
844.435	3808
844.571	3827
844.708	3880
844.844	4032
844.98	4044
845.117	4063
845.253	3934
845.389	3934
845.525	3975
845.661	3953
845.798	3960
845.934	4006
846.07	3937
846.206	4105
846.342	4120
846.478	4067
846.614	3994
846.75	3991
846.886	3888
847.022	4036
847.158	3983
847.294	4040
847.429	4059
847.565	3998
847.701	4246
847.837	3899
847.972	3911
848.108	4021
848.244	3975
848.379	3857
848.515	3827
848.65	3842
848.786	3838
848.921	3918
849.057	3918
849.192	3964
849.328	3987
849.463	3945
849.598	3903
849.734	3854
849.869	3842
850.004	3819
850.14	3819
850.275	3819
850.41	3732
850.545	3743
850.68	3808
850.815	3797
850.95	3793
851.085	3968
851.22	3812
851.355	3861
851.49	3831
851.625	3842
851.76	3774
851.895	3762
852.03	3774
852.165	3842
852.299	3861
852.434	3911
852.569	3899
852.703	3907
852.838	3953
852.973	4021
853.107	4006
853.242	3880
853.376	3850
853.511	3789
853.645	3854
853.78	3964
853.914	3926
854.048	3873
854.183	3911
854.317	3945
854.451	4059
854.585	3953
854.72	3915
854.854	4051
854.988	3911
855.122	4017
855.256	3922
855.39	3991
855.524	4109
855.658	4112
855.792	4090
855.926	4169
856.06	4166
856.194	4192
856.327	4147
856.461	4131
856.595	4173
856.729	4227
856.862	4314
856.996	4261
857.13	4322
857.263	4333
857.397	4360
857.53	4291
857.664	4367
857.797	4398
857.931	4413
858.064	4436
858.197	4432
858.331	4390
858.464	4371
858.597	4352
858.731	4436
858.864	4459
858.997	4466
859.13	4504
859.263	4527
859.396	4596
859.529	4531
859.662	4577
859.795	4558
859.928	4565
860.061	4748
860.194	4767
860.327	4683
860.46	4637
860.592	4759
860.725	4733
860.858	4774
860.99	4687
861.123	4733
861.256	4714
861.388	4763
861.521	5425
861.653	4744
861.786	4733
861.918	4790
862.05	4752
862.183	4866
862.315	4930
862.447	4957
862.58	4881
862.712	4782
862.844	4786
862.976	4896
863.108	4877
863.24	5178
863.372	4850
863.504	4915
863.636	4889
863.768	4995
863.9	4946
864.032	4972
864.164	4980
864.296	5006
864.428	5094
864.559	5132
864.691	5140
864.823	5128
864.954	5117
865.086	5140
865.217	5071
865.349	5124
865.48	5155
865.612	5204
865.743	5303
865.875	5216
866.006	5174
866.137	5280
866.269	5208
866.4	5254
866.531	5303
866.662	5246
866.793	5307
866.924	5284
867.055	5315
867.186	5311
867.317	5349
867.448	5330
867.579	5383
867.71	5337
867.841	5395
867.972	5421
868.103	5440
868.233	5448
868.364	5505
868.495	5589
868.625	5676
868.756	5741
868.886	5684
869.017	5756
869.147	5866
869.278	5866
869.408	5764
869.539	5851
869.669	5973
869.799	5958
869.929	5965
870.06	6064
870.19	6190
870.32	6216
870.45	6311
870.58	6334
870.71	6456
870.84	6490
870.97	6433
871.1	6410
871.23	6646
871.36	6722
871.489	6635
871.619	6791
871.749	6837
871.879	6920
872.008	7008
872.138	6970
872.267	6993
872.397	6977
872.526	7076
872.656	7076
872.785	7190
872.915	7403
873.044	7518
873.173	7556
873.303	7624
873.432	7708
873.561	7860
873.69	7959
873.819	7970
873.948	8202
874.077	8294
874.206	8263
874.335	8438
874.464	8693
874.593	8883
874.722	8937
874.851	9195
874.979	9310
875.108	9336
875.237	9462
875.365	9466
875.494	9637
875.623	9812
875.751	9850
875.88	10021
876.008	10158
876.136	10356
876.265	10538
876.393	10717
876.521	10725
876.65	10816
876.778	10877
876.906	10919
877.034	10934
877.162	11075
877.29	11109
877.418	11246
877.546	11334
877.674	11440
877.802	11516
877.93	11558
878.058	11501
878.185	11535
878.313	11630
878.441	11798
878.568	11722
878.696	11794
878.824	11901
878.951	12007
879.079	11988
879.206	12072
879.333	11973
879.461	12095
879.588	12060
879.715	12019
879.842	12232
879.97	12110
880.097	11878
880.224	11893
880.351	11931
880.478	11973
880.605	11893
880.732	11779
880.859	11988
880.986	11756
881.112	11783
881.239	11714
881.366	11676
881.493	11600
881.619	11649
881.746	11524
881.872	11520
881.999	11463
882.125	11547
882.252	11604
882.378	11512
882.505	11566
882.631	11395
882.757	11261
882.883	11311
883.01	11239
883.136	11117
883.262	11170
883.388	11136
883.514	11159
883.64	11151
883.766	11151
883.892	10961
884.018	10965
884.143	11029
884.269	11128
884.395	10809
884.52	10889
884.646	10782
884.772	10672
884.897	10706
885.023	10778
885.148	10683
885.274	10733
885.399	10755
885.524	10698
885.65	10596
885.775	10577
885.9	10497
886.025	10675
886.15	10504
886.275	10489
886.4	10382
886.525	10325
886.65	10398
886.775	10371
886.9	10489
887.025	10497
887.149	10337
887.274	10276
887.399	10246
887.523	10196
887.648	10078
887.773	10169
887.897	10204
888.021	10261
888.146	10120
888.27	10192
888.395	10188
888.519	10173
888.643	10185
888.767	10162
888.891	10025
889.015	9975
889.139	9983
889.263	9949
889.387	10101
889.511	10147
889.635	10036
889.759	9960
889.883	9972
890.006	10063
890.13	10150
890.254	9968
890.377	10006
890.501	9850
890.624	9842
890.748	9968
890.871	9720
890.995	9808
891.118	9766
891.241	9751
891.364	9747
891.488	9873
891.611	9785
891.734	9720
891.857	9732
891.98	9797
892.103	9701
892.226	9728
892.349	9682
892.471	9526
892.594	9614
892.717	9675
892.839	9576
892.962	9633
893.085	9610
893.207	9557
893.33	9538
893.452	9492
893.575	9564
893.697	9584
893.819	9633
893.941	9595
894.064	9622
894.186	9397
894.308	9439
894.43	9492
894.552	9545
894.674	9507
894.796	9363
894.918	9363
895.04	9386
895.161	9416
895.283	9367
895.405	9233
895.526	9329
895.648	9268
895.769	9268
895.891	9298
896.012	9348
896.134	9260
896.255	9165
896.376	9081
896.498	9112
896.619	9154
896.74	9058
896.861	9074
896.982	9283
897.103	9264
897.224	9188
897.345	9081
897.466	9020
897.587	9085
897.708	9074
897.828	9024
897.949	8971
898.07	8891
898.19	8914
898.311	8963
898.431	8952
898.552	8921
898.672	8994
898.792	9005
898.913	8921
899.033	8876
899.153	8773
899.273	8678
899.393	8705
899.513	8804
899.633	8735
899.753	8758
899.873	8731
899.993	8659
900.113	8724
900.232	8727
900.352	8670
900.472	8571
900.591	8560
900.711	8640
900.83	8495
900.95	8663
901.069	8724
901.189	8541
901.308	8522
901.427	8396
901.546	8431
901.665	8434
901.784	8511
901.904	8374
902.023	8351
902.141	8195
902.26	8218
902.379	8279
902.498	8233
902.617	8225
902.735	8351
902.854	8317
902.973	8244
903.091	8111
903.21	8138
903.328	8157
903.446	8115
903.565	8073
903.683	8103
903.801	8058
903.919	8138
904.038	8164
904.156	8016
904.274	8088
904.392	8005
904.51	8024
904.627	8024
904.745	8069
904.863	8084
904.981	7921
905.098	7890
905.216	7921
905.334	7902
905.451	7928
905.569	7913
905.686	7963
905.803	7951
905.921	7803
906.038	7856
906.155	7799
906.272	7715
906.389	7681
906.506	7647
906.623	7609
906.74	7651
906.857	7582
906.974	7613
907.091	7636
907.208	7708
907.324	7643
907.441	7636
907.557	7453
907.674	7460
907.79	7434
907.907	7472
908.023	7441
908.139	7460
908.256	7373
908.372	7392
908.488	7350
908.604	7346
908.72	7232
908.836	7335
908.952	7327
909.068	7324
909.184	7266
909.3	7221
909.415	7289
909.531	7278
909.647	7084
909.762	7129
909.878	7145
909.993	7164
910.108	7065
910.224	7126
910.339	7061
910.454	7031
910.57	7038
910.685	6962
910.8	7145
910.915	7160
911.03	7038
911.145	6981
911.259	6897
911.374	6909
911.489	6852
911.604	6791
911.718	6688
911.833	6772
911.947	6696
912.062	6608
912.176	6669
912.291	6688
912.405	6677
912.519	6837
912.633	6894
912.748	6715
912.862	6696
912.976	6612
913.09	6532
913.204	6631
913.318	6570
913.431	6696
913.545	6665
913.659	6734
913.772	6654
913.886	6589
914	6570
914.113	6642
914.226	6669
914.34	6570
914.453	6540
914.566	6616
914.68	6521
914.793	6532
914.906	6475
915.019	6437
915.132	6365
915.245	6433
915.358	6433
915.47	6521
915.583	6433
915.696	6506
915.809	6521
915.921	6547
916.034	6418
916.146	6418
916.259	6422
916.371	6490
916.483	6445
916.595	6407
916.708	6464
916.82	6418
916.932	6380
917.044	6391
917.156	6350
917.268	6334
917.38	6346
917.491	6334
917.603	6365
917.715	6422
917.826	6376
917.938	6331
918.049	6266
918.161	6338
918.272	6460
918.384	6456
918.495	6342
918.606	6266
918.717	6201
918.828	6273
918.939	6372
919.05	6220
919.161	6262
919.272	6079
919.383	6232
919.494	6273
919.604	6437
919.715	6289
919.826	6262
919.936	6281
920.047	6361
920.157	6304
920.267	6452
920.378	6357
920.488	6247
920.598	6441
920.708	6566
920.818	6422
920.928	6403
921.038	6601
921.148	6585
921.258	6346
921.368	6346
921.477	6239
921.587	6220
921.697	6022
921.806	6224
921.916	6045
922.025	5988
922.134	5889
922.244	5874
922.353	6049
922.462	5870
922.571	5775
922.68	5748
922.789	5657
922.898	5722
923.007	5646
923.116	5722
923.224	5714
923.333	5653
923.442	5630
923.55	5638
923.659	5592
923.767	5653
923.876	5490
923.984	5604
924.092	5577
924.201	5558
924.309	5577
924.417	5570
924.525	5528
924.633	5509
924.741	6258
924.849	5433
924.956	5474
925.064	5398
925.172	5326
925.279	5307
925.387	5436
925.494	5334
925.602	5383
925.709	5414
925.816	5334
925.924	5315
926.031	5341
926.138	5318
926.245	5299
926.352	5204
926.459	5345
926.566	5334
926.673	5223
926.779	5094
926.886	5128
926.993	5086
927.099	4965
927.206	4949
927.312	4953
927.419	5018
927.525	5006
927.631	5025
927.737	4873
927.843	4850
927.95	4790
928.056	4870
928.162	4847
928.267	4843
928.373	5288
928.479	4854
928.585	4660
928.69	4759
928.796	4752
928.901	4714
929.007	4546
929.112	4672
929.218	4656
929.323	4607
929.428	4596
929.533	4656
929.638	4558
929.743	4558
929.848	4577
929.953	4474
930.058	4447
930.163	4344
930.267	4405
930.372	4508
930.477	4303
930.581	4455
930.685	4344
930.79	4249
930.894	4272
930.998	4287
931.103	4371
931.207	4150
931.311	4105
931.415	4067
931.519	3953
931.623	3945
