Data from glass_V78500241_1050.txt Node
Date: Wed Sep 01 19:21:46 CST 2021
User: usil
Spectrometer: V785-0024
Trigger mode: 0
Integration Time (sec): 4.000000E-1
Scans to average: 1
Nonlinearity correction enabled: false
Boxcar width: 0
Storing dark spectrum: false
XAxis mode: Wavelengths
Number of Pixels in Spectrum: 1024
>>>>>Begin Spectral Data<<<<<
801.071	3713
801.214	3755
801.356	3717
801.499	3747
801.641	3705
801.783	3789
801.926	3876
802.068	3842
802.211	3861
802.353	3854
802.496	3797
802.638	3880
802.78	3888
802.923	3956
803.065	3911
803.208	3884
803.35	3876
803.492	3915
803.635	3930
803.777	3812
803.919	3922
804.061	4177
804.204	3949
804.346	3953
804.488	3907
804.63	4021
804.773	3964
804.915	3987
805.057	4166
805.199	4078
805.341	4143
805.483	4120
805.626	4120
805.768	4120
805.91	4261
806.052	4223
806.194	4234
806.336	4344
806.478	4238
806.62	4173
806.762	4143
806.904	4265
807.046	4371
807.188	4223
807.33	4162
807.472	4280
807.614	4215
807.756	4276
807.898	4242
808.04	4242
808.182	4268
808.324	4333
808.465	4371
808.607	4474
808.749	4470
808.891	4493
809.033	4584
809.174	4428
809.316	4318
809.458	4242
809.6	4162
809.741	4169
809.883	4143
810.025	4196
810.166	4234
810.308	4188
810.45	4249
810.591	4211
810.733	4325
810.875	4527
811.016	4858
811.158	5143
811.299	5280
811.441	5330
811.582	5098
811.724	4664
811.865	4497
812.007	4428
812.148	4451
812.29	4352
812.431	4405
812.573	4424
812.714	4363
812.855	4421
812.997	4459
813.138	4531
813.279	4417
813.421	4386
813.562	4363
813.703	4314
813.845	4409
813.986	4234
814.127	4227
814.268	4257
814.41	4299
814.551	4272
814.692	4325
814.833	4303
814.974	4268
815.115	4329
815.256	4261
815.397	4253
815.539	4257
815.68	4238
815.821	4215
815.962	4314
816.103	4318
816.244	4257
816.385	4181
816.526	4268
816.666	4215
816.807	4105
816.948	4169
817.089	4185
817.23	4093
817.371	4082
817.512	4036
817.653	4105
817.793	4044
817.934	4067
818.075	4139
818.216	4040
818.356	4082
818.497	4032
818.638	3937
818.778	3899
818.919	3884
819.06	3876
819.2	3907
819.341	3892
819.481	3865
819.622	3941
819.762	4032
819.903	3991
820.043	3865
820.184	3838
820.324	3857
820.465	3884
820.605	3930
820.746	3880
820.886	3808
821.026	3945
821.167	3934
821.307	3983
821.447	3960
821.588	3983
821.728	3979
821.868	3941
822.008	3876
822.149	3926
822.289	3911
822.429	3785
822.569	3762
822.709	3800
822.849	3732
822.99	3762
823.13	3778
823.27	3766
823.41	3713
823.55	3743
823.69	3743
823.83	3736
823.97	3656
824.11	3622
824.25	3553
824.389	3667
824.529	3720
824.669	3614
824.809	3755
824.949	3778
825.089	3724
825.228	3675
825.368	3614
825.508	3538
825.648	3564
825.787	3606
825.927	3625
826.067	3663
826.206	3667
826.346	3785
826.485	3823
826.625	3884
826.765	3941
826.904	3854
827.044	3622
827.183	3553
827.323	3450
827.462	3492
827.601	3428
827.741	3450
827.88	3477
828.02	3363
828.159	3443
828.298	3519
828.437	3511
828.577	3458
828.716	3606
828.855	3485
828.994	3412
829.134	3359
829.273	3405
829.412	3367
829.551	3336
829.69	3412
829.829	3443
829.968	3530
830.107	3450
830.246	3454
830.385	3389
830.524	3340
830.663	3321
830.802	3260
830.941	3207
831.08	3230
831.219	3275
831.357	3272
831.496	3401
831.635	3222
831.774	3233
831.913	3192
832.051	3150
832.19	3165
832.329	3207
832.467	3142
832.606	3108
832.744	3157
832.883	3237
833.022	3214
833.16	3253
833.299	3325
833.437	3336
833.576	3382
833.714	3420
833.852	3447
833.991	3435
834.129	3481
834.267	3435
834.406	3420
834.544	3397
834.682	3431
834.821	3412
834.959	3633
835.097	3462
835.235	3530
835.373	3488
835.511	3572
835.65	3507
835.788	3462
835.926	3424
836.064	3393
836.202	3416
836.34	3576
836.478	3637
836.615	3538
836.753	3576
836.891	3618
837.029	3622
837.167	3595
837.305	3591
837.443	3557
837.58	3526
837.718	3656
837.856	3587
837.993	3549
838.131	3614
838.269	3572
838.406	3568
838.544	3595
838.681	3561
838.819	3466
838.956	3382
839.094	3374
839.231	3481
839.369	3492
839.506	3728
839.643	3644
839.781	3492
839.918	3462
840.055	3519
840.193	3553
840.33	3500
840.467	3584
840.604	3538
840.742	3812
840.879	3538
841.016	3599
841.153	3614
841.29	3762
841.427	3694
841.564	3751
841.701	3766
841.838	3747
841.975	3667
842.112	3732
842.249	3644
842.385	3622
842.522	3827
842.659	3679
842.796	3671
842.933	3713
843.069	3679
843.206	3675
843.343	3797
843.479	3724
843.616	3869
843.752	3682
843.889	3698
844.025	3907
844.162	3740
844.298	3888
844.435	3781
844.571	3835
844.708	3915
844.844	3972
844.98	4010
845.117	3998
845.253	3998
845.389	3930
845.525	3949
845.661	3949
845.798	3915
845.934	4036
846.07	3941
846.206	4032
846.342	4074
846.478	4101
846.614	3975
846.75	3941
846.886	3922
847.022	4063
847.158	3987
847.294	3956
847.429	3994
847.565	3987
847.701	4227
847.837	3884
847.972	3934
848.108	4002
848.244	3994
848.379	3869
848.515	3831
848.65	3854
848.786	3861
848.921	3884
849.057	3918
849.192	3991
849.328	3937
849.463	3899
849.598	3892
849.734	3846
849.869	3827
850.004	3789
850.14	3804
850.275	3804
850.41	3759
850.545	3740
850.68	3819
850.815	3808
850.95	3781
851.085	3960
851.22	3880
851.355	3865
851.49	3800
851.625	3823
851.76	3793
851.895	3728
852.03	3709
852.165	3812
852.299	3857
852.434	3907
852.569	3838
852.703	3911
852.838	3926
852.973	3994
853.107	3998
853.242	3892
853.376	3831
853.511	3797
853.645	3854
853.78	3956
853.914	3907
854.048	3922
854.183	3880
854.317	3987
854.451	4101
854.585	3926
854.72	3979
854.854	4067
854.988	3979
855.122	4013
855.256	3918
855.39	4017
855.524	4116
855.658	4135
855.792	4067
855.926	4185
856.06	4166
856.194	4234
856.327	4120
856.461	4116
856.595	4147
856.729	4154
856.862	4246
856.996	4265
857.13	4390
857.263	4344
857.397	4367
857.53	4257
857.664	4379
857.797	4375
857.931	4470
858.064	4462
858.197	4478
858.331	4409
858.464	4413
858.597	4394
858.731	4447
858.864	4470
858.997	4485
859.13	4523
859.263	4542
859.396	4603
859.529	4516
859.662	4565
859.795	4550
859.928	4596
860.061	4675
860.194	4740
860.327	4675
860.46	4637
860.592	4816
860.725	4782
860.858	4778
860.99	4714
861.123	4653
861.256	4710
861.388	4767
861.521	5372
861.653	4767
861.786	4683
861.918	4774
862.05	4820
862.183	4870
862.315	4831
862.447	4946
862.58	4850
862.712	4797
862.844	4790
862.976	4885
863.108	4816
863.24	5280
863.372	4843
863.504	4881
863.636	4934
863.768	5010
863.9	4938
864.032	4919
864.164	4957
864.296	5033
864.428	5151
864.559	5079
864.691	5136
864.823	5174
864.954	5113
865.086	5204
865.217	5132
865.349	5121
865.48	5117
865.612	5166
865.743	5284
865.875	5201
866.006	5132
866.137	5204
866.269	5223
866.4	5280
866.531	5231
866.662	5212
866.793	5250
866.924	5284
867.055	5364
867.186	5349
867.317	5326
867.448	5288
867.579	5410
867.71	5345
867.841	5425
867.972	5436
868.103	5482
868.233	5501
868.364	5509
868.495	5589
868.625	5649
868.756	5779
868.886	5649
869.017	5790
869.147	5885
869.278	5878
869.408	5809
869.539	5817
869.669	5973
869.799	5965
869.929	6007
870.06	6034
870.19	6201
870.32	6262
870.45	6262
870.58	6441
870.71	6467
870.84	6460
870.97	6483
871.1	6441
871.23	6654
871.36	6745
871.489	6658
871.619	6726
871.749	6791
871.879	6924
872.008	6996
872.138	6932
872.267	7042
872.397	6943
872.526	7000
872.656	7122
872.785	7194
872.915	7365
873.044	7613
873.173	7567
873.303	7685
873.432	7681
873.561	7852
873.69	7986
873.819	8012
873.948	8225
874.077	8290
874.206	8351
874.335	8358
874.464	8667
874.593	8906
874.722	8952
874.851	9070
874.979	9298
875.108	9374
875.237	9454
875.365	9488
875.494	9663
875.623	9819
875.751	9819
875.88	10029
876.008	10215
876.136	10295
876.265	10558
876.393	10733
876.521	10729
876.65	10847
876.778	10896
876.906	10904
877.034	11025
877.162	11094
877.29	11208
877.418	11341
877.546	11398
877.674	11528
877.802	11444
877.93	11535
878.058	11520
878.185	11592
878.313	11809
878.441	11805
878.568	11680
878.696	11847
878.824	11901
878.951	11931
879.079	12114
879.206	12091
879.333	12110
879.461	11984
879.588	12095
879.715	12117
879.842	12323
879.97	12038
880.097	11840
880.224	11882
880.351	11893
880.478	11878
880.605	11878
880.732	11771
880.859	12011
880.986	11790
881.112	11866
881.239	11771
881.366	11718
881.493	11524
881.619	11623
881.746	11634
881.872	11524
881.999	11608
882.125	11474
882.252	11577
882.378	11478
882.505	11661
882.631	11410
882.757	11322
882.883	11322
883.01	11223
883.136	11166
883.262	11098
883.388	11071
883.514	11204
883.64	11170
883.766	11117
883.892	10965
884.018	11025
884.143	10984
884.269	11136
884.395	10824
884.52	10778
884.646	10866
884.772	10687
884.897	10702
885.023	10630
885.148	10733
885.274	10721
885.399	10702
885.524	10588
885.65	10561
885.775	10664
885.9	10542
886.025	10634
886.15	10649
886.275	10459
886.4	10432
886.525	10417
886.65	10306
886.775	10398
886.9	10535
887.025	10493
887.149	10360
887.274	10329
887.399	10253
887.523	10238
887.648	10196
887.773	10154
887.897	10238
888.021	10246
888.146	10097
888.27	10242
888.395	10310
888.519	10196
888.643	10150
888.767	10196
888.891	10116
889.015	10059
889.139	10067
889.263	9983
889.387	10036
889.511	10135
889.635	10059
889.759	10025
889.883	9964
890.006	10013
890.13	10116
890.254	9972
890.377	9956
890.501	9945
890.624	9808
890.748	9956
890.871	9842
890.995	9755
891.118	9675
891.241	9819
891.364	9705
891.488	9819
891.611	9755
891.734	9732
891.857	9766
891.98	9705
892.103	9812
892.226	9720
892.349	9682
892.471	9496
892.594	9599
892.717	9625
892.839	9561
892.962	9557
893.085	9667
893.207	9587
893.33	9561
893.452	9584
893.575	9637
893.697	9515
893.819	9603
893.941	9724
894.064	9584
894.186	9504
894.308	9389
894.43	9473
894.552	9576
894.674	9534
894.796	9424
894.918	9348
895.04	9374
895.161	9340
895.283	9412
895.405	9306
895.526	9226
895.648	9260
895.769	9249
895.891	9298
896.012	9310
896.134	9294
896.255	9249
896.376	9214
896.498	9150
896.619	9154
896.74	9077
896.861	9138
896.982	9214
897.103	9264
897.224	9222
897.345	9089
897.466	8963
897.587	9036
897.708	9146
897.828	9081
897.949	8956
898.07	8990
898.19	8933
898.311	8994
898.431	8944
898.552	8941
898.672	9005
898.792	9001
898.913	8967
899.033	8796
899.153	8815
899.273	8727
899.393	8754
899.513	8769
899.633	8735
899.753	8746
899.873	8701
899.993	8773
900.113	8697
900.232	8682
900.352	8629
900.472	8495
900.591	8556
900.711	8617
900.83	8556
900.95	8716
901.069	8648
901.189	8476
901.308	8514
901.427	8389
901.546	8389
901.665	8541
901.784	8492
901.904	8377
902.023	8358
902.141	8252
902.26	8244
902.379	8267
902.498	8202
902.617	8176
902.735	8248
902.854	8240
902.973	8328
903.091	8092
903.21	8126
903.328	8138
903.446	8134
903.565	8103
903.683	8058
903.801	8058
903.919	8134
904.038	8202
904.156	8092
904.274	8157
904.392	8008
904.51	8035
904.627	8062
904.745	8069
904.863	8119
904.981	7955
905.098	7913
905.216	7875
905.334	7932
905.451	7917
905.569	7856
905.686	7894
905.803	7909
905.921	7772
906.038	7814
906.155	7841
906.272	7693
906.389	7738
906.506	7719
906.623	7685
906.74	7613
906.857	7590
906.974	7559
907.091	7582
907.208	7723
907.324	7639
907.441	7594
907.557	7468
907.674	7491
907.79	7441
907.907	7422
908.023	7476
908.139	7449
908.256	7392
908.372	7441
908.488	7358
908.604	7274
908.72	7312
908.836	7232
908.952	7263
909.068	7259
909.184	7255
909.3	7247
909.415	7301
909.531	7278
909.647	7088
909.762	7160
909.878	7126
909.993	7114
910.108	7110
910.224	7080
910.339	7095
910.454	7057
910.57	7031
910.685	6977
910.8	7202
910.915	7103
911.03	7057
911.145	6939
911.259	6829
911.374	6916
911.489	6894
911.604	6818
911.718	6783
911.833	6768
911.947	6631
912.062	6582
912.176	6707
912.291	6760
912.405	6730
912.519	6829
912.633	6821
912.748	6688
912.862	6662
912.976	6639
913.09	6601
913.204	6612
913.318	6665
913.431	6715
913.545	6642
913.659	6757
913.772	6642
913.886	6608
914	6635
914.113	6665
914.226	6635
914.34	6593
914.453	6513
914.566	6593
914.68	6498
914.793	6582
914.906	6395
915.019	6422
915.132	6350
915.245	6475
915.358	6388
915.47	6437
915.583	6429
915.696	6456
915.809	6574
915.921	6536
916.034	6403
916.146	6437
916.259	6490
916.371	6494
916.483	6509
916.595	6445
916.708	6403
916.82	6426
916.932	6380
917.044	6410
917.156	6448
917.268	6323
917.38	6365
917.491	6346
917.603	6376
917.715	6361
917.826	6407
917.938	6331
918.049	6289
918.161	6350
918.272	6460
918.384	6448
918.495	6342
918.606	6258
918.717	6235
918.828	6224
918.939	6311
919.05	6197
919.161	6262
919.272	6114
919.383	6152
919.494	6292
919.604	6437
919.715	6292
919.826	6251
919.936	6270
920.047	6331
920.157	6239
920.267	6479
920.378	6346
920.488	6319
920.598	6460
920.708	6582
920.818	6509
920.928	6414
921.038	6601
921.148	6639
921.258	6391
921.368	6342
921.477	6243
921.587	6220
921.697	6159
921.806	6220
921.916	6106
922.025	5931
922.134	5958
922.244	5882
922.353	5954
922.462	5878
922.571	5847
922.68	5695
922.789	5646
922.898	5737
923.007	5691
923.116	5790
923.224	5668
923.333	5688
923.442	5608
923.55	5634
923.659	5524
923.767	5577
923.876	5554
923.984	5611
924.092	5539
924.201	5505
924.309	5596
924.417	5547
924.525	5501
924.633	5520
924.741	6289
924.849	5467
924.956	5505
925.064	5345
925.172	5288
925.279	5284
925.387	5334
925.494	5387
925.602	5406
925.709	5398
925.816	5315
925.924	5337
926.031	5372
926.138	5296
926.245	5376
926.352	5204
926.459	5307
926.566	5273
926.673	5181
926.779	5159
926.886	5124
926.993	4999
927.099	4987
927.206	4991
927.312	4972
927.419	5045
927.525	5033
927.631	5037
927.737	4877
927.843	4923
927.95	4755
928.056	4900
928.162	4778
928.267	4870
928.373	5387
928.479	4892
928.585	4706
928.69	4752
928.796	4793
928.901	4698
929.007	4615
929.112	4656
929.218	4694
929.323	4588
929.428	4531
929.533	4702
929.638	4546
929.743	4558
929.848	4607
929.953	4546
930.058	4451
930.163	4337
930.267	4367
930.372	4459
930.477	4284
930.581	4455
930.685	4371
930.79	4268
930.894	4280
930.998	4276
931.103	4417
931.207	4124
931.311	4051
931.415	4048
931.519	3903
931.623	3930
