Data from glass_V78500241_1926.txt Node
Date: Wed Sep 01 19:27:51 CST 2021
User: usil
Spectrometer: V785-0024
Trigger mode: 0
Integration Time (sec): 4.000000E-1
Scans to average: 1
Nonlinearity correction enabled: false
Boxcar width: 0
Storing dark spectrum: false
XAxis mode: Wavelengths
Number of Pixels in Spectrum: 1024
>>>>>Begin Spectral Data<<<<<
801.071	3740
801.214	3740
801.356	3709
801.499	3724
801.641	3705
801.783	3759
801.926	3880
802.068	3785
802.211	3876
802.353	3865
802.496	3808
802.638	3838
802.78	3918
802.923	3915
803.065	3896
803.208	3846
803.35	3846
803.492	3888
803.635	3941
803.777	3774
803.919	3892
804.061	4181
804.204	3941
804.346	3949
804.488	3941
804.63	4082
804.773	3968
804.915	4013
805.057	4150
805.199	4029
805.341	4051
805.483	4139
805.626	4112
805.768	4143
805.91	4185
806.052	4196
806.194	4150
806.336	4322
806.478	4215
806.62	4131
806.762	4169
806.904	4265
807.046	4287
807.188	4188
807.33	4215
807.472	4204
807.614	4230
807.756	4306
807.898	4192
808.04	4192
808.182	4299
808.324	4318
808.465	4413
808.607	4428
808.749	4436
808.891	4436
809.033	4459
809.174	4417
809.316	4253
809.458	4261
809.6	4177
809.741	4147
809.883	4154
810.025	4230
810.166	4192
810.308	4276
810.45	4261
810.591	4242
810.733	4280
810.875	4462
811.016	4778
811.158	5124
811.299	5258
811.441	5269
811.582	5071
811.724	4740
811.865	4428
812.007	4493
812.148	4485
812.29	4375
812.431	4443
812.573	4386
812.714	4367
812.855	4348
812.997	4405
813.138	4451
813.279	4402
813.421	4394
813.562	4363
813.703	4291
813.845	4337
813.986	4246
814.127	4223
814.268	4291
814.41	4299
814.551	4238
814.692	4322
814.833	4303
814.974	4303
815.115	4318
815.256	4238
815.397	4227
815.539	4227
815.68	4162
815.821	4223
815.962	4325
816.103	4287
816.244	4280
816.385	4261
816.526	4299
816.666	4207
816.807	4105
816.948	4192
817.089	4154
817.23	4101
817.371	4029
817.512	4021
817.653	4074
817.793	4036
817.934	4055
818.075	4055
818.216	4078
818.356	4025
818.497	3991
818.638	3937
818.778	3896
818.919	3869
819.06	3869
819.2	3937
819.341	3869
819.481	3823
819.622	3896
819.762	4044
819.903	3956
820.043	3857
820.184	3846
820.324	3857
820.465	3865
820.605	3876
820.746	3865
820.886	3793
821.026	3934
821.167	3922
821.307	3934
821.447	3979
821.588	3968
821.728	3960
821.868	3892
822.008	3869
822.149	3922
822.289	3941
822.429	3774
822.569	3800
822.709	3797
822.849	3656
822.99	3709
823.13	3766
823.27	3785
823.41	3724
823.55	3728
823.69	3694
823.83	3747
823.97	3637
824.11	3606
824.25	3591
824.389	3591
824.529	3667
824.669	3656
824.809	3701
824.949	3743
825.089	3766
825.228	3694
825.368	3614
825.508	3603
825.648	3545
825.787	3610
825.927	3648
826.067	3599
826.206	3648
826.346	3785
826.485	3823
826.625	3911
826.765	3960
826.904	3861
827.044	3606
827.183	3519
827.323	3405
827.462	3485
827.601	3443
827.741	3420
827.88	3439
828.02	3416
828.159	3428
828.298	3538
828.437	3504
828.577	3481
828.716	3618
828.855	3488
828.994	3386
829.134	3386
829.273	3401
829.412	3348
829.551	3291
829.69	3340
829.829	3393
829.968	3496
830.107	3450
830.246	3428
830.385	3363
830.524	3348
830.663	3310
830.802	3268
830.941	3211
831.08	3157
831.219	3230
831.357	3264
831.496	3428
831.635	3184
831.774	3195
831.913	3199
832.051	3119
832.19	3138
832.329	3226
832.467	3138
832.606	3112
832.744	3154
832.883	3176
833.022	3192
833.16	3211
833.299	3275
833.437	3325
833.576	3363
833.714	3374
833.852	3416
833.991	3443
834.129	3405
834.267	3416
834.406	3397
834.544	3443
834.682	3416
834.821	3393
834.959	3584
835.097	3397
835.235	3500
835.373	3549
835.511	3485
835.65	3485
835.788	3492
835.926	3416
836.064	3378
836.202	3409
836.34	3553
836.478	3625
836.615	3492
836.753	3576
836.891	3633
837.029	3629
837.167	3545
837.305	3561
837.443	3564
837.58	3496
837.718	3576
837.856	3587
837.993	3534
838.131	3595
838.269	3580
838.406	3538
838.544	3572
838.681	3466
838.819	3458
838.956	3386
839.094	3458
839.231	3382
839.369	3515
839.506	3728
839.643	3606
839.781	3500
839.918	3458
840.055	3530
840.193	3496
840.33	3481
840.467	3568
840.604	3599
840.742	3770
840.879	3542
841.016	3561
841.153	3568
841.29	3743
841.427	3717
841.564	3728
841.701	3736
841.838	3736
841.975	3705
842.112	3724
842.249	3622
842.385	3599
842.522	3812
842.659	3686
842.796	3641
842.933	3679
843.069	3667
843.206	3690
843.343	3778
843.479	3755
843.616	3835
843.752	3671
843.889	3717
844.025	3850
844.162	3713
844.298	3835
844.435	3770
844.571	3762
844.708	3880
844.844	3949
844.98	4013
845.117	4002
845.253	3937
845.389	3892
845.525	3968
845.661	3956
845.798	3922
845.934	3972
846.07	3941
846.206	4051
846.342	4128
846.478	4006
846.614	3968
846.75	3983
846.886	3907
847.022	4002
847.158	3998
847.294	3987
847.429	3953
847.565	3964
847.701	4211
847.837	3873
847.972	3819
848.108	3983
848.244	3964
848.379	3873
848.515	3827
848.65	3778
848.786	3854
848.921	3869
849.057	3934
849.192	3934
849.328	3915
849.463	3903
849.598	3918
849.734	3850
849.869	3800
850.004	3778
850.14	3816
850.275	3770
850.41	3709
850.545	3743
850.68	3827
850.815	3800
850.95	3823
851.085	3934
851.22	3816
851.355	3816
851.49	3785
851.625	3751
851.76	3785
851.895	3732
852.03	3728
852.165	3789
852.299	3812
852.434	3896
852.569	3869
852.703	3861
852.838	3930
852.973	3975
853.107	3998
853.242	3880
853.376	3892
853.511	3789
853.645	3835
853.78	3945
853.914	3903
854.048	3888
854.183	3842
854.317	3915
854.451	4063
854.585	3972
854.72	3941
854.854	4074
854.988	3926
855.122	3949
855.256	3918
855.39	4017
855.524	4116
855.658	4071
855.792	4078
855.926	4086
856.06	4169
856.194	4219
856.327	4128
856.461	4143
856.595	4120
856.729	4131
856.862	4299
856.996	4219
857.13	4310
857.263	4333
857.397	4386
857.53	4314
857.664	4329
857.797	4405
857.931	4409
858.064	4375
858.197	4478
858.331	4386
858.464	4379
858.597	4344
858.731	4447
858.864	4455
858.997	4447
859.13	4531
859.263	4512
859.396	4569
859.529	4519
859.662	4489
859.795	4462
859.928	4622
860.061	4729
860.194	4752
860.327	4668
860.46	4679
860.592	4687
860.725	4767
860.858	4782
860.99	4706
861.123	4714
861.256	4714
861.388	4771
861.521	5414
861.653	4744
861.786	4717
861.918	4729
862.05	4793
862.183	4835
862.315	4885
862.447	4919
862.58	4877
862.712	4812
862.844	4774
862.976	4870
863.108	4870
863.24	5166
863.372	4805
863.504	4866
863.636	4839
863.768	4923
863.9	4980
864.032	4934
864.164	4946
864.296	5006
864.428	5086
864.559	5105
864.691	5124
864.823	5136
864.954	5109
865.086	5090
865.217	5162
865.349	5094
865.48	5105
865.612	5162
865.743	5307
865.875	5201
866.006	5159
866.137	5231
866.269	5220
866.4	5185
866.531	5242
866.662	5303
866.793	5265
866.924	5303
867.055	5337
867.186	5318
867.317	5307
867.448	5296
867.579	5395
867.71	5349
867.841	5414
867.972	5425
868.103	5490
868.233	5440
868.364	5501
868.495	5486
868.625	5630
868.756	5802
868.886	5726
869.017	5752
869.147	5912
869.278	5874
869.408	5798
869.539	5817
869.669	5935
869.799	5935
869.929	6007
870.06	5958
870.19	6224
870.32	6182
870.45	6216
870.58	6323
870.71	6437
870.84	6433
870.97	6376
871.1	6388
871.23	6654
871.36	6639
871.489	6722
871.619	6779
871.749	6810
871.879	6833
872.008	6943
872.138	6920
872.267	6981
872.397	6966
872.526	6970
872.656	7031
872.785	7168
872.915	7388
873.044	7468
873.173	7537
873.303	7666
873.432	7700
873.561	7917
873.69	7978
873.819	8031
873.948	8176
874.077	8199
874.206	8313
874.335	8431
874.464	8648
874.593	8796
874.722	8883
874.851	9116
874.979	9256
875.108	9431
875.237	9397
875.365	9488
875.494	9663
875.623	9892
875.751	9827
875.88	9972
876.008	10169
876.136	10257
876.265	10481
876.393	10679
876.521	10729
876.65	10824
876.778	10847
876.906	10919
877.034	11109
877.162	11094
877.29	11083
877.418	11201
877.546	11421
877.674	11417
877.802	11383
877.93	11566
878.058	11520
878.185	11539
878.313	11661
878.441	11680
878.568	11577
878.696	11821
878.824	11764
878.951	11973
879.079	11942
879.206	12163
879.333	12072
879.461	11996
879.588	12117
879.715	12053
879.842	12228
879.97	12072
880.097	11942
880.224	11901
880.351	11927
880.478	11923
880.605	11859
880.732	11885
880.859	11992
880.986	11802
881.112	11843
881.239	11840
881.366	11748
881.493	11615
881.619	11497
881.746	11585
881.872	11474
881.999	11421
882.125	11444
882.252	11520
882.378	11463
882.505	11539
882.631	11349
882.757	11360
882.883	11284
883.01	11322
883.136	11201
883.262	11121
883.388	11090
883.514	11170
883.64	11132
883.766	11109
883.892	11067
884.018	10972
884.143	11064
884.269	11067
884.395	10850
884.52	10778
884.646	10805
884.772	10767
884.897	10603
885.023	10615
885.148	10687
885.274	10778
885.399	10675
885.524	10687
885.65	10554
885.775	10573
885.9	10561
886.025	10664
886.15	10489
886.275	10443
886.4	10382
886.525	10459
886.65	10402
886.775	10253
886.9	10512
887.025	10577
887.149	10287
887.274	10276
887.399	10211
887.523	10158
887.648	10139
887.773	10086
887.897	10230
888.021	10109
888.146	10131
888.27	10291
888.395	10196
888.519	10265
888.643	10158
888.767	10215
888.891	10051
889.015	10063
889.139	10067
889.263	9975
889.387	10067
889.511	10116
889.635	10048
889.759	9945
889.883	10010
890.006	10051
890.13	10082
890.254	9915
890.377	9949
890.501	9793
890.624	9873
890.748	9854
890.871	9835
890.995	9808
891.118	9709
891.241	9751
891.364	9720
891.488	9884
891.611	9709
891.734	9835
891.857	9770
891.98	9675
892.103	9774
892.226	9690
892.349	9675
892.471	9458
892.594	9591
892.717	9641
892.839	9633
892.962	9584
893.085	9644
893.207	9564
893.33	9538
893.452	9504
893.575	9576
893.697	9454
893.819	9603
893.941	9610
894.064	9561
894.186	9458
894.308	9473
894.43	9492
894.552	9595
894.674	9519
894.796	9386
894.918	9332
895.04	9389
895.161	9370
895.283	9370
895.405	9279
895.526	9264
895.648	9192
895.769	9226
895.891	9310
896.012	9222
896.134	9226
896.255	9195
896.376	9089
896.498	9108
896.619	9184
896.74	9066
896.861	9058
896.982	9279
897.103	9317
897.224	9203
897.345	9062
897.466	8986
897.587	9066
897.708	9047
897.828	9062
897.949	8971
898.07	8864
898.19	8921
898.311	8982
898.431	8929
898.552	8918
898.672	8971
898.792	9001
898.913	8902
899.033	8815
899.153	8739
899.273	8781
899.393	8735
899.513	8712
899.633	8727
899.753	8705
899.873	8689
899.993	8781
900.113	8655
900.232	8701
900.352	8640
900.472	8488
900.591	8530
900.711	8621
900.83	8564
900.95	8640
901.069	8674
901.189	8613
901.308	8415
901.427	8415
901.546	8469
901.665	8442
901.784	8533
901.904	8374
902.023	8393
902.141	8225
902.26	8183
902.379	8282
902.498	8164
902.617	8199
902.735	8381
902.854	8271
902.973	8229
903.091	8081
903.21	8214
903.328	8191
903.446	8115
903.565	8142
903.683	8077
903.801	8005
903.919	8130
904.038	8058
904.156	8020
904.274	8103
904.392	7963
904.51	7993
904.627	8054
904.745	8111
904.863	8081
904.981	7871
905.098	7856
905.216	7868
905.334	7913
905.451	7944
905.569	7803
905.686	7917
905.803	7830
905.921	7795
906.038	7833
906.155	7830
906.272	7753
906.389	7719
906.506	7605
906.623	7628
906.74	7571
906.857	7518
906.974	7514
907.091	7677
907.208	7769
907.324	7597
907.441	7571
907.557	7472
907.674	7476
907.79	7365
907.907	7350
908.023	7430
908.139	7415
908.256	7335
908.372	7396
908.488	7373
908.604	7213
908.72	7190
908.836	7236
908.952	7274
909.068	7247
909.184	7350
909.3	7244
909.415	7316
909.531	7259
909.647	7095
909.762	7080
909.878	7076
909.993	7103
910.108	7095
910.224	7031
910.339	7076
910.454	7019
910.57	6985
910.685	6916
910.8	7149
910.915	7114
911.03	7076
911.145	6928
911.259	6795
911.374	6863
911.489	6894
911.604	6810
911.718	6696
911.833	6768
911.947	6597
912.062	6563
912.176	6654
912.291	6719
912.405	6684
912.519	6814
912.633	6867
912.748	6673
912.862	6711
912.976	6673
913.09	6467
913.204	6623
913.318	6627
913.431	6654
913.545	6738
913.659	6646
913.772	6684
913.886	6528
914	6498
914.113	6582
914.226	6627
914.34	6589
914.453	6479
914.566	6559
914.68	6566
914.793	6490
914.906	6361
915.019	6437
915.132	6376
915.245	6467
915.358	6399
915.47	6475
915.583	6445
915.696	6502
915.809	6513
915.921	6521
916.034	6422
916.146	6403
916.259	6426
916.371	6479
916.483	6452
916.595	6338
916.708	6418
916.82	6353
916.932	6372
917.044	6380
917.156	6376
917.268	6319
917.38	6395
917.491	6334
917.603	6296
917.715	6376
917.826	6391
917.938	6304
918.049	6266
918.161	6304
918.272	6452
918.384	6467
918.495	6319
918.606	6262
918.717	6201
918.828	6232
918.939	6285
919.05	6171
919.161	6190
919.272	6091
919.383	6072
919.494	6285
919.604	6384
919.715	6331
919.826	6136
919.936	6243
920.047	6369
920.157	6258
920.267	6433
920.378	6331
920.488	6213
920.598	6460
920.708	6517
920.818	6452
920.928	6471
921.038	6620
921.148	6604
921.258	6319
921.368	6266
921.477	6190
921.587	6133
921.697	6114
921.806	6205
921.916	6064
922.025	5942
922.134	5851
922.244	5794
922.353	5923
922.462	5836
922.571	5756
922.68	5729
922.789	5703
922.898	5684
923.007	5627
923.116	5661
923.224	5703
923.333	5688
923.442	5558
923.55	5581
923.659	5589
923.767	5577
923.876	5463
923.984	5608
924.092	5520
924.201	5577
924.309	5551
924.417	5520
924.525	5463
924.633	5520
924.741	6228
924.849	5357
924.956	5501
925.064	5368
925.172	5334
925.279	5254
925.387	5341
925.494	5337
925.602	5387
925.709	5410
925.816	5296
925.924	5246
926.031	5337
926.138	5292
926.245	5296
926.352	5204
926.459	5349
926.566	5280
926.673	5208
926.779	5147
926.886	5147
926.993	5086
927.099	5045
927.206	5014
927.312	4946
927.419	5025
927.525	5022
927.631	4987
927.737	4896
927.843	4854
927.95	4809
928.056	4805
928.162	4839
928.267	4877
928.373	5334
928.479	4866
928.585	4679
928.69	4763
928.796	4774
928.901	4725
929.007	4584
929.112	4706
929.218	4622
929.323	4599
929.428	4596
929.533	4706
929.638	4519
929.743	4516
929.848	4527
929.953	4478
930.058	4440
930.163	4287
930.267	4318
930.372	4462
930.477	4310
930.581	4440
930.685	4344
930.79	4272
930.894	4295
930.998	4242
931.103	4379
931.207	4120
931.311	4101
931.415	4025
931.519	3903
931.623	3915
