Data from glass_V78500241_581.txt Node
Date: Wed Sep 01 19:18:31 CST 2021
User: usil
Spectrometer: V785-0024
Trigger mode: 0
Integration Time (sec): 4.000000E-1
Scans to average: 1
Nonlinearity correction enabled: false
Boxcar width: 0
Storing dark spectrum: false
XAxis mode: Wavelengths
Number of Pixels in Spectrum: 1024
>>>>>Begin Spectral Data<<<<<
801.071	3747
801.214	3766
801.356	3747
801.499	3755
801.641	3728
801.783	3781
801.926	3857
802.068	3827
802.211	3892
802.353	3903
802.496	3846
802.638	3930
802.78	3937
802.923	3972
803.065	3915
803.208	3816
803.35	3857
803.492	3911
803.635	3945
803.777	3789
803.919	3915
804.061	4158
804.204	3960
804.346	3953
804.488	3911
804.63	4086
804.773	3987
804.915	4059
805.057	4131
805.199	4116
805.341	4071
805.483	4147
805.626	4154
805.768	4135
805.91	4211
806.052	4276
806.194	4196
806.336	4348
806.478	4215
806.62	4196
806.762	4143
806.904	4253
807.046	4348
807.188	4238
807.33	4188
807.472	4276
807.614	4215
807.756	4261
807.898	4207
808.04	4249
808.182	4276
808.324	4287
808.465	4371
808.607	4500
808.749	4459
808.891	4493
809.033	4443
809.174	4398
809.316	4287
809.458	4253
809.6	4162
809.741	4181
809.883	4120
810.025	4253
810.166	4246
810.308	4204
810.45	4246
810.591	4211
810.733	4344
810.875	4538
811.016	4850
811.158	5166
811.299	5288
811.441	5288
811.582	5105
811.724	4702
811.865	4474
812.007	4485
812.148	4455
812.29	4428
812.431	4447
812.573	4451
812.714	4432
812.855	4451
812.997	4413
813.138	4481
813.279	4417
813.421	4390
813.562	4405
813.703	4348
813.845	4348
813.986	4268
814.127	4223
814.268	4287
814.41	4310
814.551	4318
814.692	4299
814.833	4287
814.974	4314
815.115	4310
815.256	4261
815.397	4291
815.539	4261
815.68	4234
815.821	4227
815.962	4333
816.103	4276
816.244	4246
816.385	4242
816.526	4318
816.666	4227
816.807	4116
816.948	4185
817.089	4181
817.23	4112
817.371	4044
817.512	4010
817.653	4086
817.793	4071
817.934	4082
818.075	4120
818.216	4147
818.356	4116
818.497	3991
818.638	3926
818.778	3926
818.919	3941
819.06	3854
819.2	3956
819.341	3888
819.481	3816
819.622	3941
819.762	4010
819.903	3972
820.043	3926
820.184	3892
820.324	3838
820.465	3899
820.605	3857
820.746	3934
820.886	3808
821.026	3922
821.167	3930
821.307	3968
821.447	4040
821.588	3968
821.728	3972
821.868	3991
822.008	3899
822.149	3956
822.289	3964
822.429	3816
822.569	3789
822.709	3789
822.849	3679
822.99	3762
823.13	3789
823.27	3789
823.41	3686
823.55	3736
823.69	3720
823.83	3736
823.97	3656
824.11	3595
824.25	3641
824.389	3698
824.529	3652
824.669	3667
824.809	3755
824.949	3740
825.089	3778
825.228	3713
825.368	3610
825.508	3625
825.648	3603
825.787	3663
825.927	3637
826.067	3625
826.206	3694
826.346	3793
826.485	3865
826.625	3854
826.765	3941
826.904	3808
827.044	3599
827.183	3542
827.323	3466
827.462	3511
827.601	3420
827.741	3435
827.88	3443
828.02	3386
828.159	3439
828.298	3504
828.437	3549
828.577	3462
828.716	3610
828.855	3500
828.994	3412
829.134	3439
829.273	3389
829.412	3382
829.551	3344
829.69	3405
829.829	3424
829.968	3576
830.107	3435
830.246	3435
830.385	3412
830.524	3359
830.663	3310
830.802	3272
830.941	3188
831.08	3180
831.219	3283
831.357	3287
831.496	3458
831.635	3249
831.774	3241
831.913	3192
832.051	3176
832.19	3169
832.329	3218
832.467	3104
832.606	3127
832.744	3184
832.883	3173
833.022	3214
833.16	3287
833.299	3321
833.437	3306
833.576	3367
833.714	3447
833.852	3386
833.991	3439
834.129	3473
834.267	3435
834.406	3405
834.544	3458
834.682	3424
834.821	3450
834.959	3538
835.097	3450
835.235	3542
835.373	3492
835.511	3485
835.65	3458
835.788	3511
835.926	3382
836.064	3416
836.202	3435
836.34	3572
836.478	3610
836.615	3545
836.753	3618
836.891	3720
837.029	3641
837.167	3641
837.305	3564
837.443	3504
837.58	3511
837.718	3584
837.856	3591
837.993	3519
838.131	3629
838.269	3576
838.406	3561
838.544	3561
838.681	3496
838.819	3454
838.956	3424
839.094	3428
839.231	3412
839.369	3526
839.506	3732
839.643	3701
839.781	3526
839.918	3481
840.055	3507
840.193	3526
840.33	3538
840.467	3568
840.604	3603
840.742	3827
840.879	3572
841.016	3545
841.153	3625
841.29	3762
841.427	3743
841.564	3728
841.701	3778
841.838	3701
841.975	3701
842.112	3762
842.249	3656
842.385	3625
842.522	3819
842.659	3682
842.796	3648
842.933	3698
843.069	3705
843.206	3671
843.343	3762
843.479	3766
843.616	3842
843.752	3671
843.889	3675
844.025	3846
844.162	3770
844.298	3838
844.435	3789
844.571	3789
844.708	3876
844.844	4029
844.98	4017
845.117	3991
845.253	3945
845.389	3880
845.525	3972
845.661	3956
845.798	3941
845.934	4006
846.07	3953
846.206	4109
846.342	4120
846.478	4082
846.614	3972
846.75	3941
846.886	3956
847.022	4044
847.158	4010
847.294	4044
847.429	4021
847.565	4013
847.701	4230
847.837	3892
847.972	3865
848.108	3968
848.244	3983
848.379	3888
848.515	3842
848.65	3861
848.786	3888
848.921	3884
849.057	3941
849.192	3934
849.328	3918
849.463	3949
849.598	3949
849.734	3838
849.869	3835
850.004	3793
850.14	3831
850.275	3804
850.41	3720
850.545	3751
850.68	3789
850.815	3800
850.95	3816
851.085	3956
851.22	3819
851.355	3842
851.49	3823
851.625	3808
851.76	3816
851.895	3732
852.03	3732
852.165	3781
852.299	3892
852.434	3930
852.569	3880
852.703	3903
852.838	3941
852.973	4013
853.107	4044
853.242	3930
853.376	3850
853.511	3812
853.645	3865
853.78	3979
853.914	3884
854.048	3907
854.183	3888
854.317	3918
854.451	4055
854.585	3983
854.72	3964
854.854	4048
854.988	3949
855.122	4040
855.256	3930
855.39	3979
855.524	4131
855.658	4147
855.792	4147
855.926	4139
856.06	4181
856.194	4196
856.327	4162
856.461	4135
856.595	4211
856.729	4188
856.862	4318
856.996	4234
857.13	4303
857.263	4310
857.397	4348
857.53	4371
857.664	4333
857.797	4413
857.931	4417
858.064	4375
858.197	4462
858.331	4390
858.464	4356
858.597	4352
858.731	4440
858.864	4443
858.997	4462
859.13	4512
859.263	4569
859.396	4584
859.529	4542
859.662	4542
859.795	4538
859.928	4592
860.061	4672
860.194	4725
860.327	4675
860.46	4717
860.592	4729
860.725	4759
860.858	4812
860.99	4672
861.123	4702
861.256	4721
861.388	4767
861.521	5349
861.653	4759
861.786	4721
861.918	4702
862.05	4755
862.183	4831
862.315	4896
862.447	4976
862.58	4927
862.712	4786
862.844	4774
862.976	4866
863.108	4911
863.24	5246
863.372	4824
863.504	4866
863.636	4892
863.768	4976
863.9	4923
864.032	4953
864.164	5010
864.296	5033
864.428	5105
864.559	5109
864.691	5151
864.823	5201
864.954	5128
865.086	5147
865.217	5113
865.349	5113
865.48	5136
865.612	5143
865.743	5288
865.875	5204
866.006	5227
866.137	5269
866.269	5216
866.4	5246
866.531	5315
866.662	5220
866.793	5296
866.924	5212
867.055	5334
867.186	5307
867.317	5368
867.448	5326
867.579	5406
867.71	5372
867.841	5387
867.972	5459
868.103	5486
868.233	5486
868.364	5512
868.495	5562
868.625	5661
868.756	5737
868.886	5695
869.017	5722
869.147	5870
869.278	5805
869.408	5847
869.539	5866
869.669	5916
869.799	5901
869.929	5992
870.06	6068
870.19	6205
870.32	6175
870.45	6289
870.58	6353
870.71	6441
870.84	6578
870.97	6407
871.1	6479
871.23	6684
871.36	6749
871.489	6650
871.619	6764
871.749	6837
871.879	6909
872.008	7012
872.138	7034
872.267	6985
872.397	6977
872.526	7015
872.656	7061
872.785	7209
872.915	7362
873.044	7525
873.173	7548
873.303	7601
873.432	7772
873.561	7864
873.69	7898
873.819	8001
873.948	8153
874.077	8263
874.206	8389
874.335	8454
874.464	8674
874.593	8861
874.722	8937
874.851	9116
874.979	9222
875.108	9359
875.237	9469
875.365	9492
875.494	9690
875.623	9789
875.751	9762
875.88	10002
876.008	10185
876.136	10272
876.265	10481
876.393	10714
876.521	10710
876.65	10847
876.778	10949
876.906	10900
877.034	10968
877.162	11064
877.29	11109
877.418	11292
877.546	11379
877.674	11402
877.802	11482
877.93	11581
878.058	11528
878.185	11532
878.313	11699
878.441	11790
878.568	11653
878.696	11893
878.824	11912
878.951	11965
879.079	12129
879.206	12091
879.333	12117
879.461	12019
879.588	12098
879.715	12068
879.842	12182
879.97	12034
880.097	11946
880.224	11893
880.351	11973
880.478	11908
880.605	11786
880.732	11859
880.859	12102
880.986	11771
881.112	11775
881.239	11710
881.366	11627
881.493	11630
881.619	11577
881.746	11581
881.872	11512
881.999	11551
882.125	11509
882.252	11589
882.378	11486
882.505	11570
882.631	11425
882.757	11330
882.883	11303
883.01	11242
883.136	11212
883.262	11181
883.388	11117
883.514	11193
883.64	11193
883.766	11113
883.892	11041
884.018	11018
884.143	11037
884.269	11208
884.395	10873
884.52	10710
884.646	10793
884.772	10733
884.897	10622
885.023	10717
885.148	10694
885.274	10793
885.399	10714
885.524	10653
885.65	10611
885.775	10554
885.9	10474
886.025	10637
886.15	10615
886.275	10527
886.4	10333
886.525	10462
886.65	10428
886.775	10375
886.9	10462
887.025	10455
887.149	10299
887.274	10253
887.399	10211
887.523	10128
887.648	10112
887.773	10158
887.897	10333
888.021	10246
888.146	10120
888.27	10276
888.395	10219
888.519	10207
888.643	10162
888.767	10185
888.891	10147
889.015	10017
889.139	9975
889.263	9949
889.387	10082
889.511	10124
889.635	10086
889.759	10010
889.883	10013
890.006	10036
890.13	10188
890.254	10032
890.377	9983
890.501	9831
890.624	9846
890.748	9972
890.871	9873
890.995	9728
891.118	9740
891.241	9800
891.364	9846
891.488	9854
891.611	9751
891.734	9762
891.857	9797
891.98	9819
892.103	9778
892.226	9755
892.349	9690
892.471	9557
892.594	9690
892.717	9637
892.839	9557
892.962	9671
893.085	9648
893.207	9591
893.33	9542
893.452	9523
893.575	9591
893.697	9454
893.819	9656
893.941	9679
894.064	9660
894.186	9481
894.308	9431
894.43	9580
894.552	9595
894.674	9587
894.796	9439
894.918	9496
895.04	9313
895.161	9329
895.283	9275
895.405	9256
895.526	9233
895.648	9245
895.769	9260
895.891	9256
896.012	9317
896.134	9237
896.255	9214
896.376	9135
896.498	9176
896.619	9074
896.74	8994
896.861	9135
896.982	9245
897.103	9306
897.224	9165
897.345	9074
897.466	8994
897.587	9039
897.708	9142
897.828	8994
897.949	8971
898.07	8861
898.19	8967
898.311	9005
898.431	8918
898.552	8929
898.672	8967
898.792	9032
898.913	8971
899.033	8899
899.153	8701
899.273	8686
899.393	8686
899.513	8735
899.633	8807
899.753	8754
899.873	8678
899.993	8811
900.113	8720
900.232	8785
900.352	8667
900.472	8636
900.591	8549
900.711	8606
900.83	8579
900.95	8617
901.069	8697
901.189	8541
901.308	8484
901.427	8431
901.546	8457
901.665	8469
901.784	8438
901.904	8294
902.023	8412
902.141	8218
902.26	8161
902.379	8286
902.498	8202
902.617	8218
902.735	8317
902.854	8256
902.973	8248
903.091	8096
903.21	8126
903.328	8138
903.446	8065
903.565	8077
903.683	8153
903.801	8103
903.919	8103
904.038	8164
904.156	8008
904.274	8126
904.392	8077
904.51	8050
904.627	8115
904.745	8058
904.863	8107
904.981	7940
905.098	7887
905.216	7902
905.334	7982
905.451	7906
905.569	7906
905.686	7970
905.803	7917
905.921	7772
906.038	7871
906.155	7795
906.272	7750
906.389	7727
906.506	7685
906.623	7575
906.74	7495
906.857	7578
906.974	7563
907.091	7639
907.208	7670
907.324	7674
907.441	7609
907.557	7415
907.674	7445
907.79	7411
907.907	7422
908.023	7502
908.139	7449
908.256	7392
908.372	7335
908.488	7403
908.604	7240
908.72	7225
908.836	7297
908.952	7270
909.068	7305
909.184	7343
909.3	7316
909.415	7236
909.531	7316
909.647	7149
909.762	7076
909.878	7110
909.993	7190
910.108	7084
910.224	7103
910.339	7118
910.454	7046
910.57	7019
910.685	7023
910.8	7126
910.915	7129
911.03	7080
911.145	6901
911.259	6894
911.374	6916
911.489	6840
911.604	6798
911.718	6703
911.833	6791
911.947	6669
912.062	6582
912.176	6779
912.291	6707
912.405	6658
912.519	6840
912.633	6901
912.748	6757
912.862	6726
912.976	6692
913.09	6528
913.204	6597
913.318	6650
913.431	6658
913.545	6673
913.659	6741
913.772	6658
913.886	6555
914	6563
914.113	6650
914.226	6612
914.34	6597
914.453	6555
914.566	6601
914.68	6559
914.793	6517
914.906	6403
915.019	6391
915.132	6399
915.245	6479
915.358	6460
915.47	6448
915.583	6517
915.696	6464
915.809	6506
915.921	6608
916.034	6475
916.146	6388
916.259	6418
916.371	6517
916.483	6460
916.595	6429
916.708	6452
916.82	6441
916.932	6380
917.044	6380
917.156	6448
917.268	6357
917.38	6372
917.491	6296
917.603	6399
917.715	6399
917.826	6429
917.938	6372
918.049	6243
918.161	6372
918.272	6437
918.384	6384
918.495	6300
918.606	6315
918.717	6270
918.828	6289
918.939	6319
919.05	6213
919.161	6281
919.272	6163
919.383	6182
919.494	6304
919.604	6467
919.715	6342
919.826	6296
919.936	6266
920.047	6319
920.157	6262
920.267	6456
920.378	6342
920.488	6289
920.598	6467
920.708	6547
920.818	6502
920.928	6536
921.038	6616
921.148	6601
921.258	6369
921.368	6323
921.477	6186
921.587	6182
921.697	6140
921.806	6247
921.916	6106
922.025	5904
922.134	5920
922.244	5878
922.353	5999
922.462	5882
922.571	5828
922.68	5718
922.789	5688
922.898	5718
923.007	5630
923.116	5710
923.224	5649
923.333	5608
923.442	5596
923.55	5592
923.659	5615
923.767	5608
923.876	5596
923.984	5585
924.092	5532
924.201	5581
924.309	5547
924.417	5570
924.525	5497
924.633	5440
924.741	6296
924.849	5334
924.956	5482
925.064	5398
925.172	5299
925.279	5341
925.387	5398
925.494	5341
925.602	5414
925.709	5376
925.816	5265
925.924	5292
926.031	5383
926.138	5318
926.245	5364
926.352	5220
926.459	5334
926.566	5334
926.673	5239
926.779	5140
926.886	5162
926.993	5025
927.099	5010
927.206	4987
927.312	4972
927.419	5010
927.525	5022
927.631	4976
927.737	4892
927.843	4877
927.95	4767
928.056	4839
928.162	4835
928.267	4824
928.373	5315
928.479	4816
928.585	4683
928.69	4774
928.796	4763
928.901	4675
929.007	4611
929.112	4687
929.218	4645
929.323	4634
929.428	4561
929.533	4622
929.638	4584
929.743	4561
929.848	4596
929.953	4531
930.058	4466
930.163	4375
930.267	4402
930.372	4459
930.477	4295
930.581	4440
930.685	4417
930.79	4272
930.894	4265
930.998	4303
931.103	4390
931.207	4093
931.311	4097
931.415	4051
931.519	3926
931.623	3972
