Data from glass_V78500241_923.txt Node
Date: Wed Sep 01 19:20:53 CST 2021
User: usil
Spectrometer: V785-0024
Trigger mode: 0
Integration Time (sec): 4.000000E-1
Scans to average: 1
Nonlinearity correction enabled: false
Boxcar width: 0
Storing dark spectrum: false
XAxis mode: Wavelengths
Number of Pixels in Spectrum: 1024
>>>>>Begin Spectral Data<<<<<
801.071	3762
801.214	3785
801.356	3698
801.499	3740
801.641	3762
801.783	3789
801.926	3884
802.068	3827
802.211	3838
802.353	3915
802.496	3816
802.638	3873
802.78	3930
802.923	3956
803.065	3899
803.208	3842
803.35	3876
803.492	3892
803.635	3918
803.777	3816
803.919	3926
804.061	4169
804.204	3972
804.346	3991
804.488	3907
804.63	4044
804.773	4021
804.915	4013
805.057	4173
805.199	4048
805.341	4109
805.483	4166
805.626	4177
805.768	4112
805.91	4192
806.052	4249
806.194	4223
806.336	4325
806.478	4215
806.62	4177
806.762	4196
806.904	4306
807.046	4329
807.188	4192
807.33	4204
807.472	4322
807.614	4234
807.756	4284
807.898	4238
808.04	4257
808.182	4310
808.324	4341
808.465	4398
808.607	4455
808.749	4497
808.891	4485
809.033	4493
809.174	4405
809.316	4291
809.458	4333
809.6	4131
809.741	4188
809.883	4169
810.025	4227
810.166	4215
810.308	4215
810.45	4223
810.591	4272
810.733	4295
810.875	4546
811.016	4824
811.158	5124
811.299	5250
811.441	5277
811.582	5102
811.724	4706
811.865	4436
812.007	4481
812.148	4474
812.29	4421
812.431	4436
812.573	4405
812.714	4409
812.855	4470
812.997	4409
813.138	4500
813.279	4428
813.421	4405
813.562	4390
813.703	4379
813.845	4333
813.986	4291
814.127	4261
814.268	4291
814.41	4295
814.551	4287
814.692	4344
814.833	4219
814.974	4329
815.115	4356
815.256	4276
815.397	4272
815.539	4253
815.68	4230
815.821	4234
815.962	4348
816.103	4299
816.244	4227
816.385	4257
816.526	4306
816.666	4204
816.807	4173
816.948	4207
817.089	4181
817.23	4120
817.371	4074
817.512	4044
817.653	4055
817.793	4029
817.934	4071
818.075	4090
818.216	4105
818.356	4124
818.497	3994
818.638	3945
818.778	3899
818.919	3857
819.06	3892
819.2	3903
819.341	3915
819.481	3873
819.622	3880
819.762	4017
819.903	3934
820.043	3880
820.184	3816
820.324	3857
820.465	3873
820.605	3892
820.746	3823
820.886	3819
821.026	3926
821.167	3903
821.307	3983
821.447	4013
821.588	3960
821.728	3949
821.868	3998
822.008	3884
822.149	3907
822.289	3918
822.429	3819
822.569	3800
822.709	3842
822.849	3743
822.99	3724
823.13	3747
823.27	3781
823.41	3740
823.55	3698
823.69	3740
823.83	3755
823.97	3690
824.11	3606
824.25	3606
824.389	3682
824.529	3671
824.669	3610
824.809	3701
824.949	3743
825.089	3720
825.228	3698
825.368	3572
825.508	3591
825.648	3538
825.787	3637
825.927	3644
826.067	3667
826.206	3660
826.346	3797
826.485	3842
826.625	3857
826.765	3975
826.904	3838
827.044	3603
827.183	3553
827.323	3466
827.462	3477
827.601	3431
827.741	3416
827.88	3458
828.02	3389
828.159	3458
828.298	3500
828.437	3542
828.577	3500
828.716	3618
828.855	3450
828.994	3393
829.134	3382
829.273	3389
829.412	3340
829.551	3351
829.69	3340
829.829	3447
829.968	3511
830.107	3420
830.246	3458
830.385	3405
830.524	3359
830.663	3374
830.802	3310
830.941	3241
831.08	3188
831.219	3287
831.357	3298
831.496	3439
831.635	3245
831.774	3214
831.913	3214
832.051	3135
832.19	3123
832.329	3233
832.467	3154
832.606	3138
832.744	3165
832.883	3180
833.022	3180
833.16	3275
833.299	3268
833.437	3329
833.576	3367
833.714	3393
833.852	3450
833.991	3473
834.129	3458
834.267	3443
834.406	3416
834.544	3416
834.682	3428
834.821	3389
834.959	3568
835.097	3412
835.235	3519
835.373	3473
835.511	3519
835.65	3454
835.788	3462
835.926	3431
836.064	3386
836.202	3424
836.34	3553
836.478	3633
836.615	3584
836.753	3595
836.891	3671
837.029	3648
837.167	3595
837.305	3599
837.443	3545
837.58	3519
837.718	3625
837.856	3610
837.993	3538
838.131	3652
838.269	3648
838.406	3622
838.544	3580
838.681	3443
838.819	3447
838.956	3367
839.094	3389
839.231	3466
839.369	3477
839.506	3755
839.643	3622
839.781	3523
839.918	3481
840.055	3553
840.193	3564
840.33	3534
840.467	3561
840.604	3648
840.742	3812
840.879	3542
841.016	3576
841.153	3606
841.29	3762
841.427	3755
841.564	3743
841.701	3789
841.838	3743
841.975	3686
842.112	3713
842.249	3667
842.385	3606
842.522	3842
842.659	3690
842.796	3675
842.933	3720
843.069	3717
843.206	3717
843.343	3770
843.479	3793
843.616	3873
843.752	3698
843.889	3671
844.025	3915
844.162	3755
844.298	3857
844.435	3808
844.571	3827
844.708	3892
844.844	4013
844.98	4051
845.117	4040
845.253	3972
845.389	3903
845.525	4025
845.661	3964
845.798	3922
845.934	3953
846.07	3945
846.206	4051
846.342	4150
846.478	4131
846.614	4006
846.75	3968
846.886	3918
847.022	4093
847.158	4006
847.294	4036
847.429	4010
847.565	4051
847.701	4261
847.837	3835
847.972	3907
848.108	4021
848.244	3991
848.379	3903
848.515	3816
848.65	3812
848.786	3819
848.921	3911
849.057	3941
849.192	3903
849.328	3899
849.463	3956
849.598	3876
849.734	3888
849.869	3850
850.004	3774
850.14	3861
850.275	3797
850.41	3751
850.545	3766
850.68	3812
850.815	3804
850.95	3812
851.085	3888
851.22	3907
851.355	3873
851.49	3819
851.625	3812
851.76	3823
851.895	3724
852.03	3743
852.165	3823
852.299	3861
852.434	3930
852.569	3873
852.703	3903
852.838	3968
852.973	4002
853.107	4055
853.242	3861
853.376	3884
853.511	3785
853.645	3857
853.78	3960
853.914	3884
854.048	3888
854.183	3880
854.317	3991
854.451	4078
854.585	3949
854.72	3911
854.854	4071
854.988	3949
855.122	4006
855.256	3892
855.39	4048
855.524	4109
855.658	4162
855.792	4093
855.926	4185
856.06	4196
856.194	4192
856.327	4158
856.461	4162
856.595	4211
856.729	4246
856.862	4272
856.996	4261
857.13	4341
857.263	4318
857.397	4333
857.53	4306
857.664	4371
857.797	4421
857.931	4504
858.064	4390
858.197	4451
858.331	4379
858.464	4386
858.597	4367
858.731	4417
858.864	4493
858.997	4478
859.13	4531
859.263	4569
859.396	4550
859.529	4470
859.662	4550
859.795	4542
859.928	4596
860.061	4645
860.194	4714
860.327	4664
860.46	4660
860.592	4733
860.725	4797
860.858	4771
860.99	4714
861.123	4675
861.256	4752
861.388	4771
861.521	5512
861.653	4664
861.786	4725
861.918	4809
862.05	4812
862.183	4889
862.315	4881
862.447	4953
862.58	4915
862.712	4767
862.844	4816
862.976	4927
863.108	4892
863.24	5223
863.372	4866
863.504	4900
863.636	4892
863.768	4976
863.9	4957
864.032	4919
864.164	4930
864.296	5006
864.428	5033
864.559	5071
864.691	5083
864.823	5143
864.954	5105
865.086	5140
865.217	5136
865.349	5174
865.48	5174
865.612	5197
865.743	5277
865.875	5201
866.006	5178
866.137	5265
866.269	5265
866.4	5254
866.531	5258
866.662	5246
866.793	5284
866.924	5288
867.055	5368
867.186	5353
867.317	5349
867.448	5322
867.579	5444
867.71	5349
867.841	5395
867.972	5486
868.103	5501
868.233	5433
868.364	5486
868.495	5577
868.625	5653
868.756	5817
868.886	5615
869.017	5767
869.147	5859
869.278	5882
869.408	5813
869.539	5790
869.669	5927
869.799	5939
869.929	6060
870.06	5999
870.19	6155
870.32	6216
870.45	6296
870.58	6346
870.71	6441
870.84	6426
870.97	6414
871.1	6467
871.23	6669
871.36	6692
871.489	6711
871.619	6749
871.749	6856
871.879	6958
872.008	6947
872.138	6954
872.267	7042
872.397	7034
872.526	7023
872.656	7069
872.785	7194
872.915	7381
873.044	7495
873.173	7563
873.303	7674
873.432	7742
873.561	7909
873.69	7917
873.819	8020
873.948	8183
874.077	8229
874.206	8332
874.335	8454
874.464	8617
874.593	8792
874.722	8948
874.851	9135
874.979	9241
875.108	9332
875.237	9374
875.365	9519
875.494	9644
875.623	9766
875.751	9797
875.88	9979
876.008	10086
876.136	10234
876.265	10577
876.393	10668
876.521	10717
876.65	10793
876.778	10828
876.906	10854
877.034	10976
877.162	11079
877.29	11170
877.418	11330
877.546	11417
877.674	11493
877.802	11471
877.93	11463
878.058	11604
878.185	11532
878.313	11688
878.441	11634
878.568	11604
878.696	11882
878.824	11927
878.951	11973
879.079	12083
879.206	12159
879.333	12102
879.461	11950
879.588	12076
879.715	12072
879.842	12213
879.97	12121
880.097	11920
880.224	11798
880.351	11855
880.478	11942
880.605	11790
880.732	11775
880.859	11992
880.986	11847
881.112	11863
881.239	11752
881.366	11615
881.493	11627
881.619	11532
881.746	11596
881.872	11490
881.999	11444
882.125	11444
882.252	11516
882.378	11520
882.505	11619
882.631	11376
882.757	11231
882.883	11364
883.01	11235
883.136	11261
883.262	11113
883.388	11143
883.514	11159
883.64	11113
883.766	11147
883.892	10892
884.018	10995
884.143	11060
884.269	11155
884.395	10812
884.52	10744
884.646	10854
884.772	10687
884.897	10675
885.023	10736
885.148	10873
885.274	10797
885.399	10683
885.524	10637
885.65	10630
885.775	10630
885.9	10561
886.025	10634
886.15	10531
886.275	10558
886.4	10432
886.525	10386
886.65	10421
886.775	10246
886.9	10485
887.025	10558
887.149	10424
887.274	10352
887.399	10154
887.523	10185
887.648	10131
887.773	10120
887.897	10234
888.021	10211
888.146	10128
888.27	10234
888.395	10234
888.519	10207
888.643	10219
888.767	10181
888.891	10097
889.015	9998
889.139	10017
889.263	10017
889.387	10112
889.511	10074
889.635	10090
889.759	9945
889.883	9983
890.006	9953
890.13	10128
890.254	9991
890.377	9983
890.501	9857
890.624	9842
890.748	9918
890.871	9789
890.995	9747
891.118	9629
891.241	9694
891.364	9816
891.488	9861
891.611	9728
891.734	9675
891.857	9842
891.98	9663
892.103	9823
892.226	9747
892.349	9701
892.471	9576
892.594	9595
892.717	9637
892.839	9587
892.962	9603
893.085	9682
893.207	9641
893.33	9530
893.452	9526
893.575	9591
893.697	9447
893.819	9637
893.941	9629
894.064	9549
894.186	9439
894.308	9447
894.43	9492
894.552	9553
894.674	9545
894.796	9386
894.918	9348
895.04	9272
895.161	9374
895.283	9428
895.405	9279
895.526	9298
895.648	9195
895.769	9256
895.891	9230
896.012	9256
896.134	9195
896.255	9157
896.376	9245
896.498	9199
896.619	9116
896.74	9131
896.861	9100
896.982	9268
897.103	9329
897.224	9146
897.345	9100
897.466	9066
897.587	9093
897.708	9116
897.828	9013
897.949	8986
898.07	8823
898.19	8933
898.311	9058
898.431	8823
898.552	8960
898.672	8944
898.792	8990
898.913	8921
899.033	8845
899.153	8708
899.273	8674
899.393	8735
899.513	8743
899.633	8743
899.753	8754
899.873	8701
899.993	8720
900.113	8659
900.232	8739
900.352	8632
900.472	8640
900.591	8530
900.711	8594
900.83	8511
900.95	8724
901.069	8651
901.189	8594
901.308	8446
901.427	8324
901.546	8434
901.665	8419
901.784	8560
901.904	8396
902.023	8362
902.141	8221
902.26	8138
902.379	8240
902.498	8210
902.617	8233
902.735	8362
902.854	8263
902.973	8320
903.091	8153
903.21	8149
903.328	8202
903.446	8134
903.565	8100
903.683	8065
903.801	8039
903.919	8191
904.038	8138
904.156	8016
904.274	8096
904.392	8027
904.51	8008
904.627	8039
904.745	8123
904.863	8077
904.981	7947
905.098	7898
905.216	7921
905.334	7879
905.451	7902
905.569	7890
905.686	7963
905.803	7974
905.921	7765
906.038	7928
906.155	7757
906.272	7696
906.389	7712
906.506	7696
906.623	7666
906.74	7601
906.857	7582
906.974	7590
907.091	7681
907.208	7750
907.324	7685
907.441	7605
907.557	7430
907.674	7468
907.79	7411
907.907	7441
908.023	7407
908.139	7415
908.256	7388
908.372	7362
908.488	7384
908.604	7236
908.72	7255
908.836	7263
908.952	7232
909.068	7278
909.184	7324
909.3	7251
909.415	7335
909.531	7202
909.647	7069
909.762	7084
909.878	7091
909.993	7183
910.108	7133
910.224	7141
910.339	7118
910.454	7076
910.57	7023
910.685	7015
910.8	7133
910.915	7076
911.03	7027
911.145	6913
911.259	6928
911.374	6878
911.489	6776
911.604	6878
911.718	6719
911.833	6745
911.947	6623
912.062	6582
912.176	6700
912.291	6719
912.405	6707
912.519	6818
912.633	6867
912.748	6719
912.862	6722
912.976	6669
913.09	6551
913.204	6623
913.318	6658
913.431	6692
913.545	6673
913.659	6715
913.772	6669
913.886	6559
914	6593
914.113	6627
914.226	6673
914.34	6650
914.453	6509
914.566	6639
914.68	6536
914.793	6498
914.906	6467
915.019	6437
915.132	6422
915.245	6437
915.358	6460
915.47	6437
915.583	6471
915.696	6448
915.809	6528
915.921	6593
916.034	6464
916.146	6414
916.259	6384
916.371	6467
916.483	6509
916.595	6437
916.708	6403
916.82	6357
916.932	6365
917.044	6372
917.156	6357
917.268	6308
917.38	6346
917.491	6319
917.603	6342
917.715	6388
917.826	6418
917.938	6407
918.049	6235
918.161	6372
918.272	6422
918.384	6414
918.495	6346
918.606	6273
918.717	6216
918.828	6289
918.939	6323
919.05	6186
919.161	6266
919.272	6144
919.383	6197
919.494	6338
919.604	6403
919.715	6285
919.826	6243
919.936	6197
920.047	6315
920.157	6270
920.267	6437
920.378	6353
920.488	6270
920.598	6509
920.708	6547
920.818	6517
920.928	6506
921.038	6627
921.148	6589
921.258	6445
921.368	6277
921.477	6224
921.587	6186
921.697	6110
921.806	6190
921.916	6038
922.025	5969
922.134	5950
922.244	5866
922.353	5923
922.462	5866
922.571	5844
922.68	5722
922.789	5737
922.898	5726
923.007	5668
923.116	5722
923.224	5722
923.333	5661
923.442	5592
923.55	5573
923.659	5581
923.767	5615
923.876	5592
923.984	5630
924.092	5554
924.201	5573
924.309	5577
924.417	5581
924.525	5501
924.633	5486
924.741	6121
924.849	5398
924.956	5444
925.064	5398
925.172	5326
925.279	5383
925.387	5387
925.494	5345
925.602	5463
925.709	5410
925.816	5311
925.924	5277
926.031	5353
926.138	5311
926.245	5341
926.352	5227
926.459	5292
926.566	5341
926.673	5212
926.779	5121
926.886	5162
926.993	5079
927.099	5037
927.206	4946
927.312	4984
927.419	4999
927.525	4987
927.631	5018
927.737	4904
927.843	4881
927.95	4790
928.056	4793
928.162	4816
928.267	4892
928.373	5353
928.479	4866
928.585	4717
928.69	4763
928.796	4812
928.901	4691
929.007	4634
929.112	4767
929.218	4653
929.323	4580
929.428	4596
929.533	4691
929.638	4538
929.743	4523
929.848	4531
929.953	4523
930.058	4421
930.163	4344
930.267	4329
930.372	4443
930.477	4341
930.581	4421
930.685	4367
930.79	4272
930.894	4299
930.998	4318
931.103	4394
931.207	4128
931.311	4097
931.415	4040
931.519	3930
931.623	3991
