Data from glass_V78500241_1953.txt Node
Date: Wed Sep 01 19:28:02 CST 2021
User: usil
Spectrometer: V785-0024
Trigger mode: 0
Integration Time (sec): 4.000000E-1
Scans to average: 1
Nonlinearity correction enabled: false
Boxcar width: 0
Storing dark spectrum: false
XAxis mode: Wavelengths
Number of Pixels in Spectrum: 1024
>>>>>Begin Spectral Data<<<<<
801.071	3717
801.214	3740
801.356	3717
801.499	3713
801.641	3705
801.783	3701
801.926	3838
802.068	3785
802.211	3850
802.353	3865
802.496	3861
802.638	3888
802.78	3918
802.923	3953
803.065	3915
803.208	3865
803.35	3873
803.492	3926
803.635	3842
803.777	3778
803.919	3903
804.061	4150
804.204	3956
804.346	3934
804.488	3915
804.63	4021
804.773	3972
804.915	4021
805.057	4162
805.199	4044
805.341	4101
805.483	4090
805.626	4112
805.768	4128
805.91	4207
806.052	4272
806.194	4204
806.336	4348
806.478	4200
806.62	4128
806.762	4185
806.904	4246
807.046	4325
807.188	4196
807.33	4154
807.472	4246
807.614	4192
807.756	4234
807.898	4219
808.04	4219
808.182	4268
808.324	4299
808.465	4352
808.607	4436
808.749	4447
808.891	4478
809.033	4478
809.174	4390
809.316	4253
809.458	4200
809.6	4124
809.741	4154
809.883	4169
810.025	4188
810.166	4227
810.308	4207
810.45	4200
810.591	4227
810.733	4253
810.875	4459
811.016	4843
811.158	5079
811.299	5239
811.441	5288
811.582	5041
811.724	4702
811.865	4504
812.007	4440
812.148	4367
812.29	4386
812.431	4375
812.573	4402
812.714	4341
812.855	4383
812.997	4413
813.138	4462
813.279	4360
813.421	4379
813.562	4356
813.703	4299
813.845	4310
813.986	4276
814.127	4192
814.268	4253
814.41	4287
814.551	4253
814.692	4295
814.833	4268
814.974	4314
815.115	4310
815.256	4287
815.397	4257
815.539	4219
815.68	4158
815.821	4223
815.962	4306
816.103	4287
816.244	4196
816.385	4234
816.526	4310
816.666	4223
816.807	4093
816.948	4188
817.089	4207
817.23	4082
817.371	4055
817.512	4109
817.653	4040
817.793	3983
817.934	4017
818.075	4067
818.216	4112
818.356	4093
818.497	4017
818.638	3918
818.778	3937
818.919	3896
819.06	3827
819.2	3892
819.341	3850
819.481	3831
819.622	3934
819.762	4032
819.903	3960
820.043	3816
820.184	3800
820.324	3785
820.465	3873
820.605	3861
820.746	3808
820.886	3816
821.026	3926
821.167	3922
821.307	3956
821.447	4010
821.588	3960
821.728	3934
821.868	3907
822.008	3842
822.149	3907
822.289	3937
822.429	3793
822.569	3732
822.709	3812
822.849	3698
822.99	3682
823.13	3774
823.27	3766
823.41	3713
823.55	3736
823.69	3713
823.83	3736
823.97	3709
824.11	3625
824.25	3610
824.389	3572
824.529	3656
824.669	3625
824.809	3728
824.949	3720
825.089	3732
825.228	3682
825.368	3580
825.508	3595
825.648	3587
825.787	3584
825.927	3610
826.067	3622
826.206	3644
826.346	3854
826.485	3865
826.625	3873
826.765	3911
826.904	3835
827.044	3610
827.183	3530
827.323	3485
827.462	3496
827.601	3477
827.741	3454
827.88	3439
828.02	3359
828.159	3370
828.298	3458
828.437	3542
828.577	3477
828.716	3606
828.855	3492
828.994	3370
829.134	3401
829.273	3370
829.412	3351
829.551	3317
829.69	3370
829.829	3435
829.968	3515
830.107	3412
830.246	3447
830.385	3374
830.524	3363
830.663	3294
830.802	3275
830.941	3207
831.08	3180
831.219	3283
831.357	3260
831.496	3348
831.635	3241
831.774	3188
831.913	3188
832.051	3135
832.19	3104
832.329	3245
832.467	3169
832.606	3081
832.744	3180
832.883	3192
833.022	3180
833.16	3241
833.299	3321
833.437	3310
833.576	3374
833.714	3412
833.852	3424
833.991	3401
834.129	3458
834.267	3412
834.406	3386
834.544	3431
834.682	3378
834.821	3416
834.959	3576
835.097	3393
835.235	3504
835.373	3485
835.511	3511
835.65	3462
835.788	3496
835.926	3374
836.064	3355
836.202	3386
836.34	3549
836.478	3606
836.615	3561
836.753	3580
836.891	3641
837.029	3656
837.167	3576
837.305	3549
837.443	3519
837.58	3515
837.718	3545
837.856	3549
837.993	3526
838.131	3584
838.269	3576
838.406	3625
838.544	3625
838.681	3454
838.819	3435
838.956	3359
839.094	3359
839.231	3424
839.369	3488
839.506	3736
839.643	3629
839.781	3488
839.918	3466
840.055	3545
840.193	3530
840.33	3507
840.467	3549
840.604	3576
840.742	3797
840.879	3519
841.016	3488
841.153	3625
841.29	3755
841.427	3743
841.564	3709
841.701	3736
841.838	3675
841.975	3690
842.112	3713
842.249	3629
842.385	3667
842.522	3816
842.659	3724
842.796	3701
842.933	3698
843.069	3705
843.206	3686
843.343	3800
843.479	3808
843.616	3804
843.752	3648
843.889	3648
844.025	3857
844.162	3747
844.298	3884
844.435	3759
844.571	3751
844.708	3838
844.844	4002
844.98	4029
845.117	4013
845.253	3953
845.389	3911
845.525	3968
845.661	3907
845.798	3876
845.934	4010
846.07	3972
846.206	4044
846.342	4101
846.478	4029
846.614	3964
846.75	3915
846.886	3926
847.022	4032
847.158	3972
847.294	4036
847.429	4040
847.565	4029
847.701	4265
847.837	3892
847.972	3835
848.108	3994
848.244	3991
848.379	3857
848.515	3812
848.65	3816
848.786	3835
848.921	3873
849.057	3926
849.192	3964
849.328	3903
849.463	3884
849.598	3896
849.734	3816
849.869	3842
850.004	3797
850.14	3800
850.275	3762
850.41	3755
850.545	3766
850.68	3751
850.815	3759
850.95	3755
851.085	3937
851.22	3880
851.355	3869
851.49	3793
851.625	3781
851.76	3766
851.895	3724
852.03	3717
852.165	3800
852.299	3854
852.434	3873
852.569	3857
852.703	3846
852.838	3896
852.973	3979
853.107	3930
853.242	3903
853.376	3846
853.511	3728
853.645	3797
853.78	3953
853.914	3888
854.048	3888
854.183	3880
854.317	3911
854.451	4071
854.585	3972
854.72	3960
854.854	4025
854.988	3899
855.122	4010
855.256	3945
855.39	4010
855.524	4078
855.658	4124
855.792	4147
855.926	4105
856.06	4192
856.194	4196
856.327	4120
856.461	4196
856.595	4150
856.729	4188
856.862	4257
856.996	4249
857.13	4299
857.263	4371
857.397	4303
857.53	4272
857.664	4375
857.797	4375
857.931	4440
858.064	4417
858.197	4440
858.331	4386
858.464	4363
858.597	4348
858.731	4462
858.864	4489
858.997	4470
859.13	4538
859.263	4519
859.396	4542
859.529	4516
859.662	4569
859.795	4531
859.928	4554
860.061	4752
860.194	4725
860.327	4656
860.46	4622
860.592	4717
860.725	4774
860.858	4736
860.99	4649
861.123	4694
861.256	4706
861.388	4748
861.521	5383
861.653	4733
861.786	4679
861.918	4740
862.05	4748
862.183	4816
862.315	4896
862.447	4957
862.58	4866
862.712	4778
862.844	4767
862.976	4870
863.108	4858
863.24	5155
863.372	4835
863.504	4835
863.636	4900
863.768	4972
863.9	5018
864.032	4911
864.164	4942
864.296	5006
864.428	5090
864.559	5071
864.691	5117
864.823	5083
864.954	5121
865.086	5155
865.217	5113
865.349	5094
865.48	5166
865.612	5174
865.743	5322
865.875	5204
866.006	5181
866.137	5261
866.269	5174
866.4	5208
866.531	5303
866.662	5159
866.793	5235
866.924	5292
867.055	5303
867.186	5307
867.317	5379
867.448	5296
867.579	5372
867.71	5398
867.841	5391
867.972	5497
868.103	5474
868.233	5452
868.364	5512
868.495	5558
868.625	5611
868.756	5809
868.886	5665
869.017	5676
869.147	5844
869.278	5809
869.408	5802
869.539	5836
869.669	5912
869.799	5866
869.929	5946
870.06	6007
870.19	6216
870.32	6186
870.45	6216
870.58	6323
870.71	6456
870.84	6452
870.97	6441
871.1	6456
871.23	6658
871.36	6658
871.489	6635
871.619	6757
871.749	6867
871.879	6894
872.008	6966
872.138	6916
872.267	6993
872.397	6962
872.526	6993
872.656	7076
872.785	7202
872.915	7346
873.044	7449
873.173	7483
873.303	7685
873.432	7704
873.561	7871
873.69	7944
873.819	8020
873.948	8119
874.077	8202
874.206	8320
874.335	8434
874.464	8693
874.593	8861
874.722	8914
874.851	9184
874.979	9207
875.108	9367
875.237	9431
875.365	9439
875.494	9690
875.623	9865
875.751	9892
875.88	9979
876.008	10131
876.136	10325
876.265	10516
876.393	10672
876.521	10698
876.65	10812
876.778	10847
876.906	10869
877.034	11022
877.162	11132
877.29	11128
877.418	11204
877.546	11383
877.674	11345
877.802	11528
877.93	11539
878.058	11520
878.185	11539
878.313	11653
878.441	11786
878.568	11718
878.696	11729
878.824	11824
878.951	11935
879.079	11988
879.206	12129
879.333	11973
879.461	11999
879.588	12110
879.715	11973
879.842	12334
879.97	12117
880.097	11874
880.224	11904
880.351	11920
880.478	11904
880.605	11836
880.732	11847
880.859	11950
880.986	11897
881.112	11809
881.239	11691
881.366	11623
881.493	11672
881.619	11554
881.746	11668
881.872	11558
881.999	11490
882.125	11436
882.252	11486
882.378	11516
882.505	11528
882.631	11330
882.757	11273
882.883	11322
883.01	11223
883.136	11170
883.262	11048
883.388	11006
883.514	11136
883.64	11121
883.766	11075
883.892	11052
884.018	10980
884.143	11083
884.269	11060
884.395	10896
884.52	10755
884.646	10790
884.772	10656
884.897	10622
885.023	10714
885.148	10736
885.274	10778
885.399	10706
885.524	10580
885.65	10558
885.775	10603
885.9	10516
886.025	10558
886.15	10531
886.275	10451
886.4	10470
886.525	10348
886.65	10402
886.775	10337
886.9	10474
887.025	10535
887.149	10402
887.274	10223
887.399	10188
887.523	10200
887.648	10120
887.773	10116
887.897	10249
888.021	10261
888.146	10090
888.27	10276
888.395	10223
888.519	10169
888.643	10162
888.767	10181
888.891	10082
889.015	10021
889.139	10040
889.263	9907
889.387	10017
889.511	10036
889.635	10025
889.759	9968
889.883	9937
890.006	10002
890.13	10090
890.254	9983
890.377	9987
890.501	9907
890.624	9869
890.748	9888
890.871	9819
890.995	9694
891.118	9751
891.241	9781
891.364	9743
891.488	9835
891.611	9713
891.734	9698
891.857	9797
891.98	9629
892.103	9751
892.226	9740
892.349	9682
892.471	9492
892.594	9576
892.717	9663
892.839	9564
892.962	9660
893.085	9682
893.207	9538
893.33	9500
893.452	9454
893.575	9603
893.697	9428
893.819	9660
893.941	9679
894.064	9610
894.186	9450
894.308	9424
894.43	9496
894.552	9545
894.674	9504
894.796	9428
894.918	9310
895.04	9340
895.161	9351
895.283	9359
895.405	9272
895.526	9222
895.648	9214
895.769	9302
895.891	9260
896.012	9332
896.134	9188
896.255	9176
896.376	9154
896.498	9165
896.619	9055
896.74	9039
896.861	9119
896.982	9249
897.103	9321
897.224	9180
897.345	9070
897.466	8994
897.587	9028
897.708	9074
897.828	9028
897.949	8986
898.07	8906
898.19	8853
898.311	9028
898.431	8902
898.552	8933
898.672	8895
898.792	8921
898.913	8937
899.033	8830
899.153	8766
899.273	8636
899.393	8708
899.513	8750
899.633	8693
899.753	8743
899.873	8739
899.993	8743
900.113	8678
900.232	8735
900.352	8636
900.472	8571
900.591	8473
900.711	8640
900.83	8503
900.95	8640
901.069	8727
901.189	8564
901.308	8438
901.427	8419
901.546	8400
901.665	8438
901.784	8469
901.904	8377
902.023	8271
902.141	8233
902.26	8176
902.379	8282
902.498	8305
902.617	8164
902.735	8286
902.854	8244
902.973	8259
903.091	8172
903.21	8073
903.328	8202
903.446	8123
903.565	8107
903.683	8180
903.801	8092
903.919	8187
904.038	8138
904.156	7982
904.274	8035
904.392	7970
904.51	7993
904.627	8024
904.745	8062
904.863	8081
904.981	7932
905.098	7875
905.216	7833
905.334	7898
905.451	7868
905.569	7913
905.686	7917
905.803	7932
905.921	7753
906.038	7856
906.155	7799
906.272	7742
906.389	7731
906.506	7689
906.623	7681
906.74	7537
906.857	7518
906.974	7571
907.091	7704
907.208	7677
907.324	7609
907.441	7582
907.557	7468
907.674	7449
907.79	7327
907.907	7491
908.023	7457
908.139	7415
908.256	7346
908.372	7449
908.488	7365
908.604	7259
908.72	7206
908.836	7270
908.952	7255
909.068	7221
909.184	7343
909.3	7244
909.415	7259
909.531	7278
909.647	7050
909.762	7129
909.878	7091
909.993	7095
910.108	7091
910.224	7012
910.339	7099
910.454	7027
910.57	6981
910.685	6962
910.8	7122
910.915	7095
911.03	7012
911.145	6856
911.259	6818
911.374	6886
911.489	6848
911.604	6741
911.718	6722
911.833	6719
911.947	6662
912.062	6604
912.176	6764
912.291	6688
912.405	6684
912.519	6814
912.633	6848
912.748	6760
912.862	6654
912.976	6639
913.09	6593
913.204	6627
913.318	6612
913.431	6665
913.545	6677
913.659	6639
913.772	6639
913.886	6608
914	6464
914.113	6597
914.226	6589
914.34	6589
914.453	6464
914.566	6570
914.68	6563
914.793	6547
914.906	6361
915.019	6384
915.132	6369
915.245	6410
915.358	6452
915.47	6448
915.583	6452
915.696	6422
915.809	6547
915.921	6528
916.034	6399
916.146	6395
916.259	6311
916.371	6479
916.483	6414
916.595	6353
916.708	6452
916.82	6407
916.932	6395
917.044	6414
917.156	6376
917.268	6334
917.38	6315
917.491	6327
917.603	6323
917.715	6346
917.826	6365
917.938	6346
918.049	6197
918.161	6270
918.272	6429
918.384	6452
918.495	6342
918.606	6224
918.717	6205
918.828	6315
918.939	6228
919.05	6247
919.161	6216
919.272	6155
919.383	6114
919.494	6254
919.604	6437
919.715	6254
919.826	6197
919.936	6239
920.047	6300
920.157	6235
920.267	6395
920.378	6289
920.488	6262
920.598	6418
920.708	6509
920.818	6433
920.928	6448
921.038	6540
921.148	6536
921.258	6319
921.368	6311
921.477	6140
921.587	6159
921.697	6121
921.806	6140
921.916	6106
922.025	5897
922.134	5923
922.244	5851
922.353	5946
922.462	5878
922.571	5805
922.68	5722
922.789	5707
922.898	5691
923.007	5596
923.116	5665
923.224	5665
923.333	5672
923.442	5581
923.55	5592
923.659	5535
923.767	5646
923.876	5570
923.984	5592
924.092	5436
924.201	5547
924.309	5490
924.417	5528
924.525	5505
924.633	5471
924.741	6247
924.849	5360
924.956	5471
925.064	5364
925.172	5315
925.279	5322
925.387	5337
925.494	5345
925.602	5436
925.709	5360
925.816	5284
925.924	5277
926.031	5318
926.138	5261
926.245	5341
926.352	5197
926.459	5277
926.566	5288
926.673	5189
926.779	5086
926.886	5124
926.993	5014
927.099	4968
927.206	4976
927.312	4972
927.419	5037
927.525	4942
927.631	4980
927.737	4934
927.843	4816
927.95	4805
928.056	4801
928.162	4797
928.267	4850
928.373	5372
928.479	4892
928.585	4702
928.69	4736
928.796	4752
928.901	4721
929.007	4569
929.112	4634
929.218	4637
929.323	4569
929.428	4538
929.533	4668
929.638	4523
929.743	4565
929.848	4569
929.953	4489
930.058	4428
930.163	4280
930.267	4363
930.372	4424
930.477	4314
930.581	4436
930.685	4367
930.79	4242
930.894	4261
930.998	4219
931.103	4367
931.207	4101
931.311	4044
931.415	4036
931.519	3949
931.623	3915
