Data from glass_V78500241_1403.txt Node
Date: Wed Sep 01 19:24:13 CST 2021
User: usil
Spectrometer: V785-0024
Trigger mode: 0
Integration Time (sec): 4.000000E-1
Scans to average: 1
Nonlinearity correction enabled: false
Boxcar width: 0
Storing dark spectrum: false
XAxis mode: Wavelengths
Number of Pixels in Spectrum: 1024
>>>>>Begin Spectral Data<<<<<
801.071	3755
801.214	3766
801.356	3705
801.499	3720
801.641	3698
801.783	3747
801.926	3869
802.068	3808
802.211	3846
802.353	3899
802.496	3884
802.638	3876
802.78	3918
802.923	3926
803.065	3915
803.208	3838
803.35	3865
803.492	3899
803.635	3922
803.777	3816
803.919	3918
804.061	4131
804.204	3960
804.346	3964
804.488	3907
804.63	4006
804.773	3968
804.915	4044
805.057	4166
805.199	4029
805.341	4063
805.483	4158
805.626	4135
805.768	4093
805.91	4223
806.052	4207
806.194	4242
806.336	4314
806.478	4246
806.62	4211
806.762	4177
806.904	4211
807.046	4314
807.188	4227
807.33	4215
807.472	4276
807.614	4169
807.756	4284
807.898	4242
808.04	4219
808.182	4276
808.324	4341
808.465	4310
808.607	4470
808.749	4421
808.891	4489
809.033	4523
809.174	4424
809.316	4230
809.458	4211
809.6	4150
809.741	4154
809.883	4185
810.025	4242
810.166	4246
810.308	4223
810.45	4280
810.591	4253
810.733	4303
810.875	4493
811.016	4847
811.158	5162
811.299	5307
811.441	5288
811.582	5079
811.724	4714
811.865	4466
812.007	4474
812.148	4417
812.29	4432
812.431	4409
812.573	4371
812.714	4394
812.855	4443
812.997	4436
813.138	4489
813.279	4394
813.421	4371
813.562	4390
813.703	4363
813.845	4329
813.986	4291
814.127	4242
814.268	4219
814.41	4242
814.551	4242
814.692	4322
814.833	4295
814.974	4329
815.115	4276
815.256	4234
815.397	4211
815.539	4257
815.68	4242
815.821	4276
815.962	4310
816.103	4322
816.244	4230
816.385	4265
816.526	4299
816.666	4227
816.807	4112
816.948	4158
817.089	4192
817.23	4097
817.371	4082
817.512	4078
817.653	4082
817.793	4059
817.934	4044
818.075	4071
818.216	4147
818.356	4097
818.497	3975
818.638	3899
818.778	3918
818.919	3899
819.06	3865
819.2	3934
819.341	3861
819.481	3846
819.622	3899
819.762	4025
819.903	3975
820.043	3838
820.184	3812
820.324	3823
820.465	3888
820.605	3892
820.746	3880
820.886	3800
821.026	3915
821.167	3899
821.307	4010
821.447	3953
821.588	3987
821.728	3941
821.868	3937
822.008	3899
822.149	3930
822.289	3922
822.429	3838
822.569	3785
822.709	3800
822.849	3675
822.99	3724
823.13	3770
823.27	3793
823.41	3701
823.55	3728
823.69	3709
823.83	3762
823.97	3728
824.11	3584
824.25	3568
824.389	3610
824.529	3679
824.669	3663
824.809	3732
824.949	3778
825.089	3743
825.228	3698
825.368	3606
825.508	3545
825.648	3595
825.787	3595
825.927	3641
826.067	3652
826.206	3686
826.346	3762
826.485	3850
826.625	3861
826.765	3945
826.904	3827
827.044	3637
827.183	3561
827.323	3401
827.462	3481
827.601	3412
827.741	3428
827.88	3450
828.02	3374
828.159	3462
828.298	3492
828.437	3538
828.577	3481
828.716	3606
828.855	3511
828.994	3386
829.134	3378
829.273	3351
829.412	3370
829.551	3336
829.69	3317
829.829	3409
829.968	3488
830.107	3447
830.246	3481
830.385	3332
830.524	3310
830.663	3268
830.802	3260
830.941	3211
831.08	3169
831.219	3275
831.357	3260
831.496	3393
831.635	3260
831.774	3184
831.913	3188
832.051	3131
832.19	3127
832.329	3237
832.467	3165
832.606	3142
832.744	3184
832.883	3199
833.022	3165
833.16	3294
833.299	3302
833.437	3351
833.576	3351
833.714	3428
833.852	3435
833.991	3477
834.129	3469
834.267	3454
834.406	3374
834.544	3462
834.682	3431
834.821	3393
834.959	3542
835.097	3443
835.235	3500
835.373	3492
835.511	3488
835.65	3458
835.788	3447
835.926	3416
836.064	3348
836.202	3409
836.34	3576
836.478	3603
836.615	3564
836.753	3625
836.891	3622
837.029	3614
837.167	3606
837.305	3549
837.443	3545
837.58	3458
837.718	3587
837.856	3584
837.993	3564
838.131	3606
838.269	3572
838.406	3625
838.544	3580
838.681	3447
838.819	3450
838.956	3374
839.094	3374
839.231	3466
839.369	3481
839.506	3751
839.643	3618
839.781	3523
839.918	3454
840.055	3519
840.193	3549
840.33	3504
840.467	3542
840.604	3580
840.742	3789
840.879	3561
841.016	3580
841.153	3629
841.29	3808
841.427	3755
841.564	3709
841.701	3743
841.838	3701
841.975	3705
842.112	3740
842.249	3652
842.385	3610
842.522	3785
842.659	3644
842.796	3682
842.933	3690
843.069	3740
843.206	3751
843.343	3831
843.479	3766
843.616	3831
843.752	3682
843.889	3724
844.025	3854
844.162	3663
844.298	3800
844.435	3747
844.571	3785
844.708	3915
844.844	4025
844.98	4032
845.117	3972
845.253	3930
845.389	3880
845.525	3979
845.661	3987
845.798	3960
845.934	4010
846.07	3911
846.206	4055
846.342	4128
846.478	4101
846.614	3945
846.75	3915
846.886	3907
847.022	4071
847.158	3994
847.294	3994
847.429	4040
847.565	3979
847.701	4234
847.837	3835
847.972	3903
848.108	3968
848.244	4048
848.379	3869
848.515	3842
848.65	3800
848.786	3869
848.921	3888
849.057	3949
849.192	3960
849.328	3922
849.463	3964
849.598	3831
849.734	3876
849.869	3835
850.004	3789
850.14	3827
850.275	3793
850.41	3743
850.545	3755
850.68	3781
850.815	3838
850.95	3812
851.085	3991
851.22	3876
851.355	3808
851.49	3781
851.625	3804
851.76	3797
851.895	3736
852.03	3766
852.165	3850
852.299	3797
852.434	3949
852.569	3937
852.703	3922
852.838	3873
852.973	4025
853.107	3994
853.242	3854
853.376	3869
853.511	3797
853.645	3892
853.78	3987
853.914	3949
854.048	3861
854.183	3903
854.317	3991
854.451	4093
854.585	3926
854.72	3956
854.854	4059
854.988	3926
855.122	4029
855.256	3926
855.39	4002
855.524	4116
855.658	4105
855.792	4105
855.926	4211
856.06	4166
856.194	4196
856.327	4120
856.461	4143
856.595	4173
856.729	4173
856.862	4299
856.996	4257
857.13	4284
857.263	4284
857.397	4383
857.53	4284
857.664	4375
857.797	4363
857.931	4417
858.064	4409
858.197	4462
858.331	4405
858.464	4398
858.597	4352
858.731	4436
858.864	4443
858.997	4413
859.13	4497
859.263	4554
859.396	4592
859.529	4542
859.662	4554
859.795	4512
859.928	4577
860.061	4725
860.194	4736
860.327	4660
860.46	4634
860.592	4729
860.725	4736
860.858	4767
860.99	4725
861.123	4672
861.256	4675
861.388	4790
861.521	5315
861.653	4755
861.786	4744
861.918	4771
862.05	4767
862.183	4831
862.315	4889
862.447	4892
862.58	4877
862.712	4786
862.844	4812
862.976	4911
863.108	4870
863.24	5147
863.372	4854
863.504	4915
863.636	4938
863.768	4976
863.9	4984
864.032	4889
864.164	4976
864.296	5052
864.428	5102
864.559	5083
864.691	5109
864.823	5143
864.954	5208
865.086	5170
865.217	5113
865.349	5162
865.48	5174
865.612	5204
865.743	5280
865.875	5220
866.006	5166
866.137	5261
866.269	5216
866.4	5242
866.531	5239
866.662	5216
866.793	5239
866.924	5318
867.055	5318
867.186	5288
867.317	5318
867.448	5383
867.579	5334
867.71	5410
867.841	5421
867.972	5425
868.103	5444
868.233	5497
868.364	5497
868.495	5532
868.625	5661
868.756	5813
868.886	5649
869.017	5764
869.147	5851
869.278	5878
869.408	5840
869.539	5783
869.669	5920
869.799	5920
869.929	5992
870.06	5988
870.19	6235
870.32	6175
870.45	6308
870.58	6327
870.71	6448
870.84	6464
870.97	6376
871.1	6433
871.23	6623
871.36	6719
871.489	6669
871.619	6814
871.749	6825
871.879	6863
872.008	7023
872.138	6981
872.267	7019
872.397	7042
872.526	7000
872.656	7088
872.785	7160
872.915	7377
873.044	7499
873.173	7506
873.303	7636
873.432	7696
873.561	7837
873.69	7898
873.819	7986
873.948	8153
874.077	8202
874.206	8271
874.335	8476
874.464	8625
874.593	8887
874.722	8948
874.851	9135
874.979	9203
875.108	9397
875.237	9450
875.365	9469
875.494	9603
875.623	9816
875.751	9915
875.88	10017
876.008	10101
876.136	10318
876.265	10504
876.393	10634
876.521	10736
876.65	10835
876.778	10896
876.906	10881
877.034	10946
877.162	11052
877.29	11181
877.418	11315
877.546	11326
877.674	11436
877.802	11417
877.93	11452
878.058	11592
878.185	11509
878.313	11570
878.441	11741
878.568	11649
878.696	11775
878.824	11912
878.951	12011
879.079	12049
879.206	12171
879.333	12038
879.461	12003
879.588	12072
879.715	12114
879.842	12251
879.97	12064
880.097	11965
880.224	11832
880.351	11805
880.478	11901
880.605	11874
880.732	11813
880.859	11984
880.986	11855
881.112	11843
881.239	11699
881.366	11653
881.493	11615
881.619	11509
881.746	11509
881.872	11566
881.999	11547
882.125	11497
882.252	11558
882.378	11493
882.505	11585
882.631	11364
882.757	11307
882.883	11330
883.01	11250
883.136	11235
883.262	11083
883.388	11136
883.514	11102
883.64	11239
883.766	11155
883.892	11006
884.018	10946
884.143	10991
884.269	11132
884.395	10812
884.52	10850
884.646	10740
884.772	10801
884.897	10645
885.023	10664
885.148	10691
885.274	10774
885.399	10725
885.524	10611
885.65	10596
885.775	10603
885.9	10527
886.025	10554
886.15	10474
886.275	10402
886.4	10363
886.525	10405
886.65	10413
886.775	10333
886.9	10512
887.025	10558
887.149	10333
887.274	10227
887.399	10257
887.523	10196
887.648	10147
887.773	10116
887.897	10192
888.021	10268
888.146	10192
888.27	10272
888.395	10215
888.519	10169
888.643	10185
888.767	10150
888.891	10025
889.015	10006
889.139	10051
889.263	10002
889.387	10078
889.511	10112
889.635	10048
889.759	9941
889.883	9998
890.006	9983
890.13	10166
890.254	9918
890.377	9987
890.501	9888
890.624	9797
890.748	9869
890.871	9789
890.995	9755
891.118	9781
891.241	9816
891.364	9789
891.488	9831
891.611	9694
891.734	9736
891.857	9846
891.98	9660
892.103	9724
892.226	9709
892.349	9690
892.471	9545
892.594	9576
892.717	9652
892.839	9549
892.962	9603
893.085	9633
893.207	9591
893.33	9481
893.452	9591
893.575	9622
893.697	9500
893.819	9663
893.941	9591
894.064	9625
894.186	9443
894.308	9431
894.43	9496
894.552	9610
894.674	9603
894.796	9397
894.918	9370
895.04	9382
895.161	9504
895.283	9351
895.405	9245
895.526	9336
895.648	9306
895.769	9268
895.891	9253
896.012	9214
896.134	9287
896.255	9138
896.376	9062
896.498	9108
896.619	9123
896.74	9112
896.861	9104
896.982	9192
897.103	9298
897.224	9127
897.345	9070
897.466	9020
897.587	9043
897.708	9104
897.828	9097
897.949	8921
898.07	8834
898.19	8895
898.311	9028
898.431	8960
898.552	8952
898.672	8982
898.792	8948
898.913	8925
899.033	8861
899.153	8788
899.273	8678
899.393	8727
899.513	8693
899.633	8735
899.753	8754
899.873	8594
899.993	8857
900.113	8648
900.232	8712
900.352	8651
900.472	8606
900.591	8590
900.711	8514
900.83	8579
900.95	8689
901.069	8739
901.189	8556
901.308	8408
901.427	8332
901.546	8427
901.665	8465
901.784	8438
901.904	8317
902.023	8305
902.141	8183
902.26	8195
902.379	8309
902.498	8183
902.617	8191
902.735	8279
902.854	8275
902.973	8195
903.091	8103
903.21	8130
903.328	8157
903.446	8081
903.565	8031
903.683	8096
903.801	8031
903.919	8187
904.038	8126
904.156	8020
904.274	8084
904.392	7982
904.51	8012
904.627	8077
904.745	8130
904.863	8126
904.981	7974
905.098	7913
905.216	7860
905.334	7967
905.451	7795
905.569	7890
905.686	7921
905.803	7955
905.921	7807
906.038	7833
906.155	7818
906.272	7792
906.389	7693
906.506	7670
906.623	7639
906.74	7571
906.857	7578
906.974	7578
907.091	7636
907.208	7700
907.324	7609
907.441	7544
907.557	7487
907.674	7441
907.79	7407
907.907	7362
908.023	7426
908.139	7430
908.256	7350
908.372	7365
908.488	7289
908.604	7225
908.72	7228
908.836	7327
908.952	7251
909.068	7213
909.184	7320
909.3	7293
909.415	7289
909.531	7282
909.647	7080
909.762	7095
909.878	7110
909.993	7152
910.108	7110
910.224	7057
910.339	7126
910.454	7050
910.57	7023
910.685	6939
910.8	7228
910.915	7145
911.03	7099
911.145	6890
911.259	6859
911.374	6878
911.489	6810
911.604	6772
911.718	6711
911.833	6738
911.947	6635
912.062	6597
912.176	6726
912.291	6791
912.405	6642
912.519	6810
912.633	6814
912.748	6707
912.862	6730
912.976	6597
913.09	6585
913.204	6570
913.318	6604
913.431	6612
913.545	6703
913.659	6783
913.772	6662
913.886	6593
914	6566
914.113	6608
914.226	6627
914.34	6593
914.453	6502
914.566	6631
914.68	6540
914.793	6517
914.906	6426
915.019	6441
915.132	6376
915.245	6384
915.358	6429
915.47	6418
915.583	6422
915.696	6502
915.809	6563
915.921	6513
916.034	6384
916.146	6353
916.259	6433
916.371	6437
916.483	6452
916.595	6422
916.708	6467
916.82	6426
916.932	6372
917.044	6399
917.156	6410
917.268	6262
917.38	6323
917.491	6365
917.603	6361
917.715	6399
917.826	6418
917.938	6315
918.049	6277
918.161	6331
918.272	6414
918.384	6422
918.495	6346
918.606	6251
918.717	6216
918.828	6247
918.939	6289
919.05	6190
919.161	6224
919.272	6167
919.383	6171
919.494	6262
919.604	6445
919.715	6232
919.826	6201
919.936	6228
920.047	6365
920.157	6361
920.267	6467
920.378	6323
920.488	6289
920.598	6445
920.708	6593
920.818	6452
920.928	6445
921.038	6608
921.148	6563
921.258	6331
921.368	6300
921.477	6171
921.587	6228
921.697	6041
921.806	6197
921.916	6083
922.025	5931
922.134	5923
922.244	5878
922.353	5931
922.462	5870
922.571	5817
922.68	5703
922.789	5680
922.898	5722
923.007	5604
923.116	5760
923.224	5638
923.333	5688
923.442	5619
923.55	5573
923.659	5611
923.767	5585
923.876	5562
923.984	5573
924.092	5516
924.201	5615
924.309	5566
924.417	5558
924.525	5482
924.633	5501
924.741	6262
924.849	5368
924.956	5509
925.064	5410
925.172	5311
925.279	5334
925.387	5360
925.494	5364
925.602	5395
925.709	5395
925.816	5326
925.924	5303
926.031	5326
926.138	5318
926.245	5360
926.352	5208
926.459	5345
926.566	5299
926.673	5239
926.779	5162
926.886	5124
926.993	5052
927.099	5025
927.206	4946
927.312	4942
927.419	5014
927.525	4965
927.631	4999
927.737	4873
927.843	4873
927.95	4809
928.056	4793
928.162	4824
928.267	4896
928.373	5318
928.479	4831
928.585	4717
928.69	4782
928.796	4740
928.901	4660
929.007	4569
929.112	4668
929.218	4622
929.323	4618
929.428	4599
929.533	4653
929.638	4550
929.743	4500
929.848	4596
929.953	4508
930.058	4470
930.163	4360
930.267	4394
930.372	4432
930.477	4341
930.581	4485
930.685	4424
930.79	4242
930.894	4295
930.998	4249
931.103	4417
931.207	4120
931.311	4059
931.415	4063
931.519	3972
931.623	3934
