Data from glass_V78500241_2595.txt Node
Date: Wed Sep 01 19:32:29 CST 2021
User: usil
Spectrometer: V785-0024
Trigger mode: 0
Integration Time (sec): 4.000000E-1
Scans to average: 1
Nonlinearity correction enabled: false
Boxcar width: 0
Storing dark spectrum: false
XAxis mode: Wavelengths
Number of Pixels in Spectrum: 1024
>>>>>Begin Spectral Data<<<<<
801.071	3732
801.214	3698
801.356	3694
801.499	3690
801.641	3717
801.783	3762
801.926	3808
802.068	3797
802.211	3857
802.353	3892
802.496	3850
802.638	3876
802.78	3884
802.923	3915
803.065	3903
803.208	3842
803.35	3865
803.492	3884
803.635	3915
803.777	3793
803.919	3884
804.061	4158
804.204	3956
804.346	3983
804.488	3949
804.63	3994
804.773	3949
804.915	4017
805.057	4185
805.199	3972
805.341	4086
805.483	4143
805.626	4124
805.768	4116
805.91	4211
806.052	4230
806.194	4185
806.336	4348
806.478	4211
806.62	4162
806.762	4207
806.904	4261
807.046	4291
807.188	4200
807.33	4166
807.472	4234
807.614	4192
807.756	4261
807.898	4173
808.04	4215
808.182	4249
808.324	4303
808.465	4337
808.607	4478
808.749	4478
808.891	4409
809.033	4497
809.174	4383
809.316	4265
809.458	4227
809.6	4143
809.741	4093
809.883	4128
810.025	4200
810.166	4185
810.308	4204
810.45	4219
810.591	4227
810.733	4280
810.875	4470
811.016	4786
811.158	5109
811.299	5246
811.441	5265
811.582	5041
811.724	4729
811.865	4432
812.007	4455
812.148	4417
812.29	4436
812.431	4367
812.573	4356
812.714	4352
812.855	4417
812.997	4409
813.138	4447
813.279	4443
813.421	4375
813.562	4394
813.703	4310
813.845	4337
813.986	4268
814.127	4181
814.268	4287
814.41	4223
814.551	4272
814.692	4314
814.833	4246
814.974	4322
815.115	4325
815.256	4246
815.397	4200
815.539	4234
815.68	4166
815.821	4223
815.962	4322
816.103	4291
816.244	4234
816.385	4261
816.526	4280
816.666	4188
816.807	4086
816.948	4173
817.089	4200
817.23	4063
817.371	4067
817.512	4063
817.653	4071
817.793	4071
817.934	4051
818.075	4093
818.216	4051
818.356	4101
818.497	3953
818.638	3968
818.778	3949
818.919	3888
819.06	3846
819.2	3915
819.341	3846
819.481	3846
819.622	3915
819.762	4021
819.903	3956
820.043	3846
820.184	3793
820.324	3838
820.465	3857
820.605	3854
820.746	3827
820.886	3816
821.026	3918
821.167	3896
821.307	3930
821.447	3972
821.588	3964
821.728	3915
821.868	3934
822.008	3880
822.149	3880
822.289	3949
822.429	3770
822.569	3751
822.709	3778
822.849	3667
822.99	3736
823.13	3785
823.27	3743
823.41	3705
823.55	3690
823.69	3660
823.83	3743
823.97	3663
824.11	3618
824.25	3587
824.389	3599
824.529	3690
824.669	3610
824.809	3709
824.949	3717
825.089	3743
825.228	3694
825.368	3576
825.508	3557
825.648	3530
825.787	3610
825.927	3614
826.067	3595
826.206	3671
826.346	3781
826.485	3823
826.625	3854
826.765	3953
826.904	3804
827.044	3610
827.183	3515
827.323	3412
827.462	3485
827.601	3420
827.741	3416
827.88	3435
828.02	3382
828.159	3428
828.298	3466
828.437	3473
828.577	3477
828.716	3584
828.855	3488
828.994	3336
829.134	3370
829.273	3374
829.412	3374
829.551	3317
829.69	3393
829.829	3450
829.968	3469
830.107	3389
830.246	3409
830.385	3363
830.524	3351
830.663	3302
830.802	3241
830.941	3173
831.08	3203
831.219	3291
831.357	3237
831.496	3431
831.635	3245
831.774	3222
831.913	3203
832.051	3108
832.19	3157
832.329	3176
832.467	3127
832.606	3127
832.744	3169
832.883	3173
833.022	3203
833.16	3260
833.299	3279
833.437	3332
833.576	3325
833.714	3389
833.852	3431
833.991	3477
834.129	3466
834.267	3454
834.406	3401
834.544	3431
834.682	3412
834.821	3389
834.959	3538
835.097	3370
835.235	3507
835.373	3473
835.511	3511
835.65	3469
835.788	3469
835.926	3416
836.064	3386
836.202	3416
836.34	3591
836.478	3561
836.615	3458
836.753	3595
836.891	3622
837.029	3637
837.167	3580
837.305	3549
837.443	3523
837.58	3504
837.718	3587
837.856	3534
837.993	3534
838.131	3580
838.269	3534
838.406	3553
838.544	3557
838.681	3481
838.819	3496
838.956	3374
839.094	3370
839.231	3431
839.369	3492
839.506	3720
839.643	3629
839.781	3469
839.918	3458
840.055	3511
840.193	3507
840.33	3568
840.467	3534
840.604	3625
840.742	3785
840.879	3557
841.016	3511
841.153	3603
841.29	3732
841.427	3682
841.564	3701
841.701	3720
841.838	3622
841.975	3637
842.112	3686
842.249	3629
842.385	3625
842.522	3808
842.659	3648
842.796	3629
842.933	3728
843.069	3648
843.206	3690
843.343	3781
843.479	3736
843.616	3766
843.752	3606
843.889	3663
844.025	3823
844.162	3656
844.298	3857
844.435	3728
844.571	3759
844.708	3873
844.844	3972
844.98	3983
845.117	3945
845.253	3903
845.389	3865
845.525	3941
845.661	3949
845.798	3896
845.934	4021
846.07	3934
846.206	4029
846.342	4105
846.478	4048
846.614	3968
846.75	3956
846.886	3915
847.022	3994
847.158	3987
847.294	3987
847.429	4017
847.565	4032
847.701	4265
847.837	3903
847.972	3850
848.108	3991
848.244	3937
848.379	3835
848.515	3793
848.65	3804
848.786	3819
848.921	3869
849.057	3918
849.192	3926
849.328	3892
849.463	3926
849.598	3888
849.734	3812
849.869	3816
850.004	3755
850.14	3778
850.275	3732
850.41	3743
850.545	3747
850.68	3774
850.815	3800
850.95	3785
851.085	3930
851.22	3869
851.355	3793
851.49	3774
851.625	3789
851.76	3781
851.895	3732
852.03	3694
852.165	3804
852.299	3846
852.434	3857
852.569	3816
852.703	3896
852.838	3899
852.973	3956
853.107	3960
853.242	3915
853.376	3838
853.511	3732
853.645	3831
853.78	3934
853.914	3869
854.048	3911
854.183	3880
854.317	3953
854.451	4006
854.585	3934
854.72	3934
854.854	4029
854.988	3876
855.122	3994
855.256	3941
855.39	4017
855.524	4090
855.658	4082
855.792	4067
855.926	4143
856.06	4173
856.194	4181
856.327	4112
856.461	4105
856.595	4139
856.729	4158
856.862	4295
856.996	4242
857.13	4306
857.263	4257
857.397	4318
857.53	4253
857.664	4291
857.797	4394
857.931	4421
858.064	4367
858.197	4417
858.331	4390
858.464	4394
858.597	4360
858.731	4447
858.864	4413
858.997	4371
859.13	4497
859.263	4493
859.396	4622
859.529	4516
859.662	4504
859.795	4542
859.928	4599
860.061	4660
860.194	4759
860.327	4596
860.46	4672
860.592	4752
860.725	4740
860.858	4752
860.99	4664
861.123	4630
861.256	4687
861.388	4748
861.521	5261
861.653	4721
861.786	4668
861.918	4694
862.05	4797
862.183	4820
862.315	4904
862.447	4938
862.58	4915
862.712	4748
862.844	4786
862.976	4824
863.108	4847
863.24	5166
863.372	4782
863.504	4847
863.636	4850
863.768	4957
863.9	4934
864.032	4987
864.164	4972
864.296	5060
864.428	5071
864.559	5064
864.691	5117
864.823	5075
864.954	5128
865.086	5105
865.217	5121
865.349	5132
865.48	5136
865.612	5132
865.743	5273
865.875	5197
866.006	5197
866.137	5261
866.269	5197
866.4	5258
866.531	5216
866.662	5197
866.793	5254
866.924	5273
867.055	5288
867.186	5296
867.317	5322
867.448	5303
867.579	5372
867.71	5330
867.841	5360
867.972	5490
868.103	5478
868.233	5448
868.364	5520
868.495	5505
868.625	5630
868.756	5760
868.886	5703
869.017	5756
869.147	5840
869.278	5840
869.408	5779
869.539	5790
869.669	5916
869.799	5901
869.929	5984
870.06	5969
870.19	6152
870.32	6232
870.45	6216
870.58	6262
870.71	6361
870.84	6441
870.97	6407
871.1	6479
871.23	6635
871.36	6700
871.489	6623
871.619	6745
871.749	6844
871.879	6814
872.008	6928
872.138	6943
872.267	6977
872.397	6973
872.526	6993
872.656	7084
872.785	7175
872.915	7324
873.044	7491
873.173	7548
873.303	7685
873.432	7814
873.561	7807
873.69	7890
873.819	7974
873.948	8157
874.077	8195
874.206	8290
874.335	8415
874.464	8686
874.593	8785
874.722	8918
874.851	9157
874.979	9245
875.108	9340
875.237	9374
875.365	9382
875.494	9584
875.623	9816
875.751	9751
875.88	9975
876.008	10139
876.136	10257
876.265	10466
876.393	10740
876.521	10656
876.65	10805
876.778	10843
876.906	10885
877.034	10965
877.162	11071
877.29	11250
877.418	11376
877.546	11273
877.674	11402
877.802	11501
877.93	11478
878.058	11577
878.185	11512
878.313	11566
878.441	11707
878.568	11634
878.696	11832
878.824	11908
878.951	11996
879.079	12049
879.206	12171
879.333	12007
879.461	11942
879.588	12026
879.715	12079
879.842	12197
879.97	12007
880.097	11916
880.224	11908
880.351	11923
880.478	11958
880.605	11802
880.732	11824
880.859	12034
880.986	11828
881.112	11863
881.239	11710
881.366	11627
881.493	11649
881.619	11501
881.746	11539
881.872	11573
881.999	11528
882.125	11425
882.252	11551
882.378	11501
882.505	11535
882.631	11280
882.757	11254
882.883	11212
883.01	11223
883.136	11212
883.262	11185
883.388	11098
883.514	11170
883.64	11155
883.766	11025
883.892	10987
884.018	11018
884.143	11071
884.269	11048
884.395	10812
884.52	10782
884.646	10763
884.772	10702
884.897	10603
885.023	10714
885.148	10698
885.274	10790
885.399	10778
885.524	10637
885.65	10592
885.775	10618
885.9	10508
886.025	10588
886.15	10531
886.275	10402
886.4	10367
886.525	10344
886.65	10413
886.775	10276
886.9	10337
887.025	10504
887.149	10348
887.274	10257
887.399	10257
887.523	10158
887.648	10105
887.773	10105
887.897	10280
888.021	10124
888.146	10105
888.27	10261
888.395	10158
888.519	10139
888.643	10215
888.767	10188
888.891	10105
889.015	9994
889.139	10071
889.263	10002
889.387	10086
889.511	10131
889.635	10078
889.759	9915
889.883	9975
890.006	10006
890.13	10044
890.254	9964
890.377	9956
890.501	9816
890.624	9850
890.748	9930
890.871	9755
890.995	9789
891.118	9660
891.241	9698
891.364	9778
891.488	9895
891.611	9713
891.734	9709
891.857	9724
891.98	9671
892.103	9766
892.226	9682
892.349	9713
892.471	9553
892.594	9557
892.717	9610
892.839	9633
892.962	9610
893.085	9682
893.207	9481
893.33	9485
893.452	9534
893.575	9584
893.697	9431
893.819	9603
893.941	9629
894.064	9587
894.186	9431
894.308	9443
894.43	9519
894.552	9553
894.674	9500
894.796	9397
894.918	9382
895.04	9344
895.161	9336
895.283	9279
895.405	9268
895.526	9211
895.648	9211
895.769	9199
895.891	9283
896.012	9268
896.134	9230
896.255	9241
896.376	9123
896.498	9192
896.619	9108
896.74	8975
896.861	9058
896.982	9222
897.103	9283
897.224	9119
897.345	8990
897.466	9093
897.587	8975
897.708	9097
897.828	9028
897.949	8941
898.07	8849
898.19	8872
898.311	8998
898.431	8914
898.552	8914
898.672	8986
898.792	9043
898.913	8902
899.033	8788
899.153	8697
899.273	8716
899.393	8697
899.513	8739
899.633	8708
899.753	8773
899.873	8686
899.993	8792
900.113	8720
900.232	8705
900.352	8708
900.472	8678
900.591	8545
900.711	8564
900.83	8575
900.95	8644
901.069	8686
901.189	8537
901.308	8446
901.427	8389
901.546	8454
901.665	8419
901.784	8518
901.904	8362
902.023	8317
902.141	8237
902.26	8244
902.379	8210
902.498	8256
902.617	8157
902.735	8252
902.854	8267
902.973	8248
903.091	8081
903.21	8176
903.328	8088
903.446	8180
903.565	8039
903.683	8069
903.801	7993
903.919	8069
904.038	8195
904.156	8024
904.274	8100
904.392	7989
904.51	8031
904.627	8107
904.745	8062
904.863	8161
904.981	7917
905.098	7913
905.216	7833
905.334	7883
905.451	7913
905.569	7909
905.686	7883
905.803	7997
905.921	7734
906.038	7925
906.155	7738
906.272	7655
906.389	7689
906.506	7658
906.623	7609
906.74	7636
906.857	7457
906.974	7548
907.091	7616
907.208	7719
907.324	7575
907.441	7518
907.557	7476
907.674	7365
907.79	7369
907.907	7407
908.023	7400
908.139	7396
908.256	7354
908.372	7403
908.488	7365
908.604	7236
908.72	7259
908.836	7209
908.952	7244
909.068	7198
909.184	7312
909.3	7225
909.415	7301
909.531	7244
909.647	7095
909.762	7084
909.878	7057
909.993	7069
910.108	7050
910.224	7122
910.339	7114
910.454	6977
910.57	6920
910.685	6924
910.8	7133
910.915	7046
911.03	7004
911.145	6916
911.259	6901
911.374	6878
911.489	6848
911.604	6795
911.718	6700
911.833	6764
911.947	6703
912.062	6528
912.176	6696
912.291	6715
912.405	6711
912.519	6821
912.633	6795
912.748	6681
912.862	6684
912.976	6601
913.09	6513
913.204	6574
913.318	6597
913.431	6665
913.545	6650
913.659	6684
913.772	6597
913.886	6494
914	6525
914.113	6589
914.226	6684
914.34	6566
914.453	6475
914.566	6585
914.68	6540
914.793	6460
914.906	6399
915.019	6357
915.132	6296
915.245	6422
915.358	6452
915.47	6369
915.583	6456
915.696	6490
915.809	6563
915.921	6559
916.034	6334
916.146	6391
916.259	6384
916.371	6494
916.483	6471
916.595	6353
916.708	6361
916.82	6448
916.932	6414
917.044	6414
917.156	6388
917.268	6327
917.38	6384
917.491	6258
917.603	6308
917.715	6410
917.826	6391
917.938	6304
918.049	6197
918.161	6304
918.272	6391
918.384	6452
918.495	6342
918.606	6323
918.717	6243
918.828	6300
918.939	6281
919.05	6159
919.161	6186
919.272	6087
919.383	6098
919.494	6232
919.604	6479
919.715	6292
919.826	6190
919.936	6304
920.047	6319
920.157	6296
920.267	6399
920.378	6327
920.488	6258
920.598	6452
920.708	6517
920.818	6452
920.928	6475
921.038	6616
921.148	6574
921.258	6338
921.368	6300
921.477	6220
921.587	6155
921.697	6076
921.806	6178
921.916	6114
922.025	5942
922.134	5901
922.244	5851
922.353	5901
922.462	5889
922.571	5779
922.68	5680
922.789	5649
922.898	5733
923.007	5630
923.116	5653
923.224	5630
923.333	5657
923.442	5554
923.55	5566
923.659	5577
923.767	5638
923.876	5524
923.984	5611
924.092	5528
924.201	5509
924.309	5608
924.417	5558
924.525	5532
924.633	5486
924.741	6216
924.849	5372
924.956	5455
925.064	5353
925.172	5284
925.279	5337
925.387	5315
925.494	5337
925.602	5455
925.709	5341
925.816	5239
925.924	5280
926.031	5303
926.138	5315
926.245	5330
926.352	5204
926.459	5296
926.566	5261
926.673	5162
926.779	5075
926.886	5075
926.993	5041
927.099	5025
927.206	4991
927.312	4965
927.419	4987
927.525	4961
927.631	4984
927.737	4885
927.843	4858
927.95	4748
928.056	4843
928.162	4805
928.267	4839
928.373	5242
928.479	4805
928.585	4683
928.69	4714
928.796	4755
928.901	4668
929.007	4565
929.112	4683
929.218	4592
929.323	4607
929.428	4542
929.533	4687
929.638	4516
929.743	4508
929.848	4535
929.953	4531
930.058	4500
930.163	4344
930.267	4299
930.372	4447
930.477	4306
930.581	4379
930.685	4344
930.79	4249
930.894	4249
930.998	4280
931.103	4394
931.207	4112
931.311	4124
931.415	4025
931.519	3956
931.623	3907
