Data from glass_V78500241_136.txt Node
Date: Wed Sep 01 19:15:26 CST 2021
User: usil
Spectrometer: V785-0024
Trigger mode: 0
Integration Time (sec): 4.000000E-1
Scans to average: 1
Nonlinearity correction enabled: false
Boxcar width: 0
Storing dark spectrum: false
XAxis mode: Wavelengths
Number of Pixels in Spectrum: 1024
>>>>>Begin Spectral Data<<<<<
801.071	3793
801.214	3728
801.356	3694
801.499	3740
801.641	3762
801.783	3781
801.926	3884
802.068	3835
802.211	3835
802.353	3861
802.496	3869
802.638	3911
802.78	3945
802.923	3960
803.065	3831
803.208	3850
803.35	3896
803.492	3899
803.635	3911
803.777	3800
803.919	3922
804.061	4177
804.204	4017
804.346	3979
804.488	3876
804.63	4051
804.773	4010
804.915	4078
805.057	4150
805.199	4078
805.341	4093
805.483	4124
805.626	4177
805.768	4143
805.91	4215
806.052	4223
806.194	4227
806.336	4344
806.478	4207
806.62	4196
806.762	4211
806.904	4299
807.046	4333
807.188	4192
807.33	4196
807.472	4242
807.614	4230
807.756	4322
807.898	4261
808.04	4265
808.182	4318
808.324	4352
808.465	4341
808.607	4432
808.749	4440
808.891	4447
809.033	4428
809.174	4402
809.316	4284
809.458	4284
809.6	4196
809.741	4150
809.883	4177
810.025	4253
810.166	4230
810.308	4223
810.45	4261
810.591	4246
810.733	4276
810.875	4500
811.016	4843
811.158	5128
811.299	5246
811.441	5318
811.582	5064
811.724	4679
811.865	4455
812.007	4440
812.148	4455
812.29	4443
812.431	4424
812.573	4405
812.714	4398
812.855	4455
812.997	4481
813.138	4493
813.279	4455
813.421	4371
813.562	4432
813.703	4299
813.845	4306
813.986	4272
814.127	4261
814.268	4299
814.41	4322
814.551	4306
814.692	4333
814.833	4268
814.974	4344
815.115	4310
815.256	4322
815.397	4276
815.539	4265
815.68	4200
815.821	4253
815.962	4318
816.103	4299
816.244	4261
816.385	4253
816.526	4306
816.666	4238
816.807	4120
816.948	4234
817.089	4200
817.23	4090
817.371	4067
817.512	4078
817.653	4051
817.793	4036
817.934	4055
818.075	4135
818.216	4044
818.356	4105
818.497	3983
818.638	3934
818.778	3960
818.919	3911
819.06	3926
819.2	3964
819.341	3876
819.481	3842
819.622	3899
819.762	4040
819.903	3960
820.043	3903
820.184	3861
820.324	3823
820.465	3934
820.605	3842
820.746	3857
820.886	3816
821.026	3911
821.167	3941
821.307	3975
821.447	4025
821.588	3956
821.728	3960
821.868	3941
822.008	3896
822.149	3915
822.289	3934
822.429	3774
822.569	3778
822.709	3816
822.849	3759
822.99	3743
823.13	3827
823.27	3816
823.41	3701
823.55	3800
823.69	3732
823.83	3797
823.97	3705
824.11	3660
824.25	3587
824.389	3675
824.529	3709
824.669	3641
824.809	3724
824.949	3724
825.089	3720
825.228	3713
825.368	3618
825.508	3584
825.648	3629
825.787	3622
825.927	3610
826.067	3644
826.206	3709
826.346	3785
826.485	3850
826.625	3876
826.765	3930
826.904	3827
827.044	3622
827.183	3504
827.323	3431
827.462	3519
827.601	3435
827.741	3443
827.88	3488
828.02	3397
828.159	3428
828.298	3515
828.437	3526
828.577	3492
828.716	3610
828.855	3538
828.994	3420
829.134	3431
829.273	3416
829.412	3374
829.551	3363
829.69	3397
829.829	3412
829.968	3553
830.107	3473
830.246	3458
830.385	3405
830.524	3340
830.663	3291
830.802	3264
830.941	3195
831.08	3249
831.219	3291
831.357	3264
831.496	3374
831.635	3211
831.774	3218
831.913	3214
832.051	3142
832.19	3127
832.329	3218
832.467	3146
832.606	3150
832.744	3146
832.883	3165
833.022	3241
833.16	3283
833.299	3306
833.437	3344
833.576	3393
833.714	3409
833.852	3439
833.991	3473
834.129	3469
834.267	3439
834.406	3409
834.544	3450
834.682	3431
834.821	3428
834.959	3603
835.097	3431
835.235	3542
835.373	3485
835.511	3542
835.65	3454
835.788	3477
835.926	3412
836.064	3405
836.202	3416
836.34	3564
836.478	3641
836.615	3580
836.753	3614
836.891	3675
837.029	3603
837.167	3603
837.305	3587
837.443	3545
837.58	3488
837.718	3610
837.856	3584
837.993	3564
838.131	3610
838.269	3622
838.406	3629
838.544	3587
838.681	3454
838.819	3466
838.956	3389
839.094	3382
839.231	3447
839.369	3549
839.506	3793
839.643	3599
839.781	3523
839.918	3488
840.055	3511
840.193	3549
840.33	3580
840.467	3587
840.604	3625
840.742	3797
840.879	3572
841.016	3576
841.153	3591
841.29	3808
841.427	3724
841.564	3705
841.701	3766
841.838	3774
841.975	3705
842.112	3709
842.249	3641
842.385	3652
842.522	3819
842.659	3728
842.796	3694
842.933	3759
843.069	3747
843.206	3747
843.343	3846
843.479	3778
843.616	3816
843.752	3701
843.889	3660
844.025	3842
844.162	3709
844.298	3861
844.435	3778
844.571	3770
844.708	3915
844.844	4002
844.98	4029
845.117	4029
845.253	3915
845.389	3884
845.525	3975
845.661	4013
845.798	3918
845.934	3991
846.07	3972
846.206	4090
846.342	4154
846.478	4116
846.614	3960
846.75	3922
846.886	3941
847.022	4067
847.158	4025
847.294	3979
847.429	4010
847.565	4025
847.701	4246
847.837	3899
847.972	3854
848.108	4006
848.244	4010
848.379	3876
848.515	3808
848.65	3861
848.786	3827
848.921	3880
849.057	3922
849.192	3972
849.328	3896
849.463	3949
849.598	3869
849.734	3873
849.869	3865
850.004	3800
850.14	3789
850.275	3804
850.41	3724
850.545	3762
850.68	3793
850.815	3800
850.95	3797
851.085	4025
851.22	3892
851.355	3873
851.49	3846
851.625	3846
851.76	3804
851.895	3751
852.03	3762
852.165	3800
852.299	3850
852.434	3945
852.569	3850
852.703	3915
852.838	3964
852.973	4063
853.107	3975
853.242	3911
853.376	3854
853.511	3759
853.645	3873
853.78	4013
853.914	3907
854.048	3945
854.183	3903
854.317	3964
854.451	4071
854.585	3960
854.72	3915
854.854	4086
854.988	3975
855.122	4010
855.256	3949
855.39	4051
855.524	4169
855.658	4078
855.792	4158
855.926	4143
856.06	4162
856.194	4215
856.327	4147
856.461	4173
856.595	4150
856.729	4207
856.862	4291
856.996	4215
857.13	4306
857.263	4386
857.397	4390
857.53	4280
857.664	4352
857.797	4394
857.931	4466
858.064	4409
858.197	4466
858.331	4402
858.464	4379
858.597	4337
858.731	4440
858.864	4459
858.997	4466
859.13	4504
859.263	4531
859.396	4626
859.529	4493
859.662	4550
859.795	4519
859.928	4618
860.061	4710
860.194	4752
860.327	4672
860.46	4656
860.592	4759
860.725	4820
860.858	4771
860.99	4683
861.123	4721
861.256	4725
861.388	4755
861.521	5482
861.653	4733
861.786	4740
861.918	4744
862.05	4790
862.183	4812
862.315	4877
862.447	4908
862.58	4953
862.712	4797
862.844	4797
862.976	4866
863.108	4866
863.24	5239
863.372	4896
863.504	4900
863.636	4915
863.768	5022
863.9	4984
864.032	4957
864.164	4991
864.296	5071
864.428	5098
864.559	5102
864.691	5208
864.823	5121
864.954	5166
865.086	5162
865.217	5178
865.349	5124
865.48	5174
865.612	5193
865.743	5280
865.875	5208
866.006	5166
866.137	5273
866.269	5288
866.4	5242
866.531	5261
866.662	5242
866.793	5254
866.924	5303
867.055	5391
867.186	5360
867.317	5353
867.448	5322
867.579	5406
867.71	5417
867.841	5368
867.972	5516
868.103	5543
868.233	5459
868.364	5543
868.495	5600
868.625	5661
868.756	5836
868.886	5737
869.017	5767
869.147	5878
869.278	5885
869.408	5779
869.539	5779
869.669	5946
869.799	5958
869.929	5999
870.06	6030
870.19	6235
870.32	6167
870.45	6266
870.58	6361
870.71	6422
870.84	6551
870.97	6441
871.1	6475
871.23	6597
871.36	6688
871.489	6711
871.619	6772
871.749	6802
871.879	6954
872.008	6939
872.138	7038
872.267	7023
872.397	7012
872.526	7019
872.656	7126
872.785	7263
872.915	7392
873.044	7575
873.173	7544
873.303	7708
873.432	7795
873.561	7852
873.69	7917
873.819	7993
873.948	8210
874.077	8286
874.206	8404
874.335	8469
874.464	8610
874.593	8910
874.722	8868
874.851	9066
874.979	9230
875.108	9389
875.237	9458
875.365	9450
875.494	9572
875.623	9857
875.751	9857
875.88	9953
876.008	10109
876.136	10299
876.265	10512
876.393	10714
876.521	10733
876.65	10797
876.778	10892
876.906	10835
877.034	11075
877.162	11109
877.29	11060
877.418	11307
877.546	11326
877.674	11478
877.802	11474
877.93	11627
878.058	11551
878.185	11562
878.313	11665
878.441	11714
878.568	11600
878.696	11798
878.824	11942
878.951	11954
879.079	12003
879.206	12117
879.333	12083
879.461	12068
879.588	11992
879.715	12190
879.842	12251
879.97	12064
880.097	11885
880.224	11840
880.351	11908
880.478	11946
880.605	11832
880.732	11805
880.859	12034
880.986	11756
881.112	11889
881.239	11779
881.366	11668
881.493	11642
881.619	11493
881.746	11600
881.872	11570
881.999	11478
882.125	11493
882.252	11486
882.378	11520
882.505	11436
882.631	11436
882.757	11311
882.883	11284
883.01	11258
883.136	11261
883.262	11102
883.388	11060
883.514	11216
883.64	11124
883.766	11117
883.892	11037
884.018	10991
884.143	11094
884.269	11189
884.395	10831
884.52	10706
884.646	10797
884.772	10752
884.897	10706
885.023	10634
885.148	10755
885.274	10828
885.399	10850
885.524	10675
885.65	10584
885.775	10580
885.9	10516
886.025	10622
886.15	10546
886.275	10443
886.4	10508
886.525	10447
886.65	10440
886.775	10379
886.9	10466
887.025	10592
887.149	10363
887.274	10287
887.399	10230
887.523	10223
887.648	10101
887.773	10207
887.897	10272
888.021	10234
888.146	10188
888.27	10280
888.395	10234
888.519	10242
888.643	10135
888.767	10158
888.891	10097
889.015	9987
889.139	10150
889.263	10010
889.387	10067
889.511	10101
889.635	10124
889.759	9953
889.883	10044
890.006	10017
890.13	10135
890.254	9899
890.377	9960
890.501	9869
890.624	9861
890.748	9865
890.871	9808
890.995	9747
891.118	9774
891.241	9778
891.364	9835
891.488	9895
891.611	9740
891.734	9732
891.857	9762
891.98	9736
892.103	9675
892.226	9740
892.349	9701
892.471	9526
892.594	9633
892.717	9557
892.839	9587
892.962	9599
893.085	9644
893.207	9591
893.33	9534
893.452	9561
893.575	9614
893.697	9564
893.819	9603
893.941	9629
894.064	9629
894.186	9481
894.308	9500
894.43	9530
894.552	9603
894.674	9538
894.796	9405
894.918	9386
895.04	9382
895.161	9416
895.283	9325
895.405	9245
895.526	9245
895.648	9203
895.769	9211
895.891	9279
896.012	9211
896.134	9226
896.255	9150
896.376	9218
896.498	9165
896.619	9123
896.74	9036
896.861	9150
896.982	9214
897.103	9378
897.224	9176
897.345	9039
897.466	9013
897.587	9081
897.708	9131
897.828	9024
897.949	8967
898.07	8819
898.19	8899
898.311	9043
898.431	8918
898.552	8960
898.672	9009
898.792	8902
898.913	8842
899.033	8796
899.153	8716
899.273	8670
899.393	8777
899.513	8754
899.633	8807
899.753	8720
899.873	8716
899.993	8735
900.113	8697
900.232	8777
900.352	8617
900.472	8651
900.591	8571
900.711	8587
900.83	8541
900.95	8720
901.069	8640
901.189	8613
901.308	8389
901.427	8381
901.546	8480
901.665	8495
901.784	8533
901.904	8381
902.023	8347
902.141	8252
902.26	8218
902.379	8275
902.498	8282
902.617	8183
902.735	8332
902.854	8298
902.973	8301
903.091	8130
903.21	8115
903.328	8187
903.446	8111
903.565	8103
903.683	8126
903.801	8073
903.919	8073
904.038	8153
904.156	8077
904.274	8069
904.392	8077
904.51	8100
904.627	8069
904.745	8081
904.863	8065
904.981	7913
905.098	7871
905.216	7883
905.334	7852
905.451	7890
905.569	7940
905.686	7944
905.803	7959
905.921	7822
906.038	7830
906.155	7780
906.272	7772
906.389	7792
906.506	7624
906.623	7639
906.74	7609
906.857	7548
906.974	7597
907.091	7712
907.208	7689
907.324	7655
907.441	7601
907.557	7487
907.674	7499
907.79	7411
907.907	7426
908.023	7453
908.139	7434
908.256	7388
908.372	7339
908.488	7384
908.604	7396
908.72	7255
908.836	7297
908.952	7247
909.068	7285
909.184	7354
909.3	7255
909.415	7324
909.531	7316
909.647	7114
909.762	7110
909.878	7126
909.993	7110
910.108	7118
910.224	7110
910.339	7114
910.454	7114
910.57	7080
910.685	7000
910.8	7152
910.915	7133
911.03	6989
911.145	6905
911.259	6939
911.374	6890
911.489	6840
911.604	6798
911.718	6783
911.833	6741
911.947	6658
912.062	6642
912.176	6719
912.291	6722
912.405	6726
912.519	6802
912.633	6837
912.748	6749
912.862	6677
912.976	6665
913.09	6620
913.204	6608
913.318	6669
913.431	6722
913.545	6654
913.659	6646
913.772	6631
913.886	6559
914	6540
914.113	6555
914.226	6642
914.34	6681
914.453	6464
914.566	6597
914.68	6551
914.793	6509
914.906	6456
915.019	6422
915.132	6418
915.245	6395
915.358	6414
915.47	6448
915.583	6475
915.696	6460
915.809	6563
915.921	6555
916.034	6437
916.146	6448
916.259	6452
916.371	6532
916.483	6498
916.595	6388
916.708	6388
916.82	6403
916.932	6346
917.044	6426
917.156	6445
917.268	6289
917.38	6361
917.491	6361
917.603	6323
917.715	6410
917.826	6448
917.938	6399
918.049	6239
918.161	6391
918.272	6426
918.384	6509
918.495	6270
918.606	6315
918.717	6186
918.828	6281
918.939	6277
919.05	6254
919.161	6285
919.272	6117
919.383	6194
919.494	6311
919.604	6467
919.715	6350
919.826	6232
919.936	6289
920.047	6384
920.157	6270
920.267	6483
920.378	6372
920.488	6315
920.598	6437
920.708	6589
920.818	6479
920.928	6471
921.038	6616
921.148	6582
921.258	6407
921.368	6334
921.477	6216
921.587	6209
921.697	6133
921.806	6175
921.916	6079
922.025	5969
922.134	5984
922.244	5897
922.353	5958
922.462	5840
922.571	5790
922.68	5726
922.789	5657
922.898	5741
923.007	5699
923.116	5737
923.224	5699
923.333	5668
923.442	5672
923.55	5589
923.659	5611
923.767	5585
923.876	5585
923.984	5657
924.092	5551
924.201	5570
924.309	5577
924.417	5570
924.525	5474
924.633	5528
924.741	6205
924.849	5387
924.956	5532
925.064	5379
925.172	5330
925.279	5311
925.387	5387
925.494	5368
925.602	5436
925.709	5395
925.816	5277
925.924	5349
926.031	5372
926.138	5258
926.245	5337
926.352	5265
926.459	5357
926.566	5303
926.673	5170
926.779	5162
926.886	5113
926.993	5048
927.099	5029
927.206	4961
927.312	4961
927.419	5064
927.525	5010
927.631	4965
927.737	4866
927.843	4877
927.95	4809
928.056	4824
928.162	4835
928.267	4866
928.373	5387
928.479	4866
928.585	4721
928.69	4790
928.796	4786
928.901	4691
929.007	4622
929.112	4694
929.218	4626
929.323	4622
929.428	4603
929.533	4630
929.638	4531
929.743	4561
929.848	4577
929.953	4508
930.058	4432
930.163	4348
930.267	4360
930.372	4436
930.477	4363
930.581	4451
930.685	4383
930.79	4272
930.894	4337
930.998	4280
931.103	4409
931.207	4147
931.311	4105
931.415	4040
931.519	3888
931.623	3987
