Data from glass_V78500241_22.txt Node
Date: Wed Sep 01 19:14:39 CST 2021
User: usil
Spectrometer: V785-0024
Trigger mode: 0
Integration Time (sec): 4.000000E-1
Scans to average: 1
Nonlinearity correction enabled: false
Boxcar width: 0
Storing dark spectrum: false
XAxis mode: Wavelengths
Number of Pixels in Spectrum: 1024
>>>>>Begin Spectral Data<<<<<
801.071	3770
801.214	3747
801.356	3713
801.499	3747
801.641	3701
801.783	3808
801.926	3850
802.068	3857
802.211	3888
802.353	3937
802.496	3819
802.638	3930
802.78	3911
802.923	3937
803.065	3949
803.208	3846
803.35	3888
803.492	3922
803.635	3922
803.777	3819
803.919	3926
804.061	4181
804.204	4036
804.346	3941
804.488	3918
804.63	4029
804.773	3960
804.915	4090
805.057	4162
805.199	4090
805.341	4101
805.483	4150
805.626	4112
805.768	4169
805.91	4196
806.052	4276
806.194	4211
806.336	4383
806.478	4268
806.62	4162
806.762	4230
806.904	4276
807.046	4383
807.188	4253
807.33	4185
807.472	4303
807.614	4192
807.756	4280
807.898	4272
808.04	4246
808.182	4306
808.324	4333
808.465	4417
808.607	4493
808.749	4436
808.891	4535
809.033	4527
809.174	4413
809.316	4295
809.458	4272
809.6	4154
809.741	4207
809.883	4181
810.025	4242
810.166	4261
810.308	4268
810.45	4246
810.591	4204
810.733	4306
810.875	4519
811.016	4866
811.158	5166
811.299	5288
811.441	5292
811.582	5102
811.724	4714
811.865	4451
812.007	4519
812.148	4436
812.29	4421
812.431	4455
812.573	4462
812.714	4405
812.855	4462
812.997	4443
813.138	4481
813.279	4428
813.421	4428
813.562	4383
813.703	4333
813.845	4352
813.986	4223
814.127	4265
814.268	4306
814.41	4299
814.551	4253
814.692	4371
814.833	4295
814.974	4318
815.115	4386
815.256	4295
815.397	4230
815.539	4272
815.68	4173
815.821	4242
815.962	4329
816.103	4257
816.244	4291
816.385	4238
816.526	4257
816.666	4261
816.807	4124
816.948	4139
817.089	4204
817.23	4162
817.371	4063
817.512	4059
817.653	4074
817.793	4063
817.934	4063
818.075	4116
818.216	4078
818.356	4097
818.497	3991
818.638	3934
818.778	3968
818.919	3903
819.06	3865
819.2	3964
819.341	3869
819.481	3846
819.622	3945
819.762	4044
819.903	3956
820.043	3888
820.184	3869
820.324	3846
820.465	3903
820.605	3865
820.746	3888
820.886	3804
821.026	3915
821.167	3960
821.307	3983
821.447	4021
821.588	3998
821.728	4013
821.868	3949
822.008	3892
822.149	3972
822.289	3926
822.429	3797
822.569	3755
822.709	3800
822.849	3713
822.99	3751
823.13	3766
823.27	3785
823.41	3698
823.55	3740
823.69	3713
823.83	3698
823.97	3686
824.11	3599
824.25	3599
824.389	3641
824.529	3682
824.669	3648
824.809	3698
824.949	3778
825.089	3762
825.228	3690
825.368	3564
825.508	3564
825.648	3584
825.787	3641
825.927	3641
826.067	3625
826.206	3667
826.346	3831
826.485	3812
826.625	3888
826.765	3907
826.904	3869
827.044	3656
827.183	3526
827.323	3424
827.462	3496
827.601	3443
827.741	3393
827.88	3485
828.02	3389
828.159	3462
828.298	3462
828.437	3542
828.577	3530
828.716	3606
828.855	3519
828.994	3389
829.134	3389
829.273	3370
829.412	3382
829.551	3336
829.69	3363
829.829	3428
829.968	3534
830.107	3447
830.246	3469
830.385	3405
830.524	3359
830.663	3294
830.802	3272
830.941	3264
831.08	3192
831.219	3283
831.357	3294
831.496	3435
831.635	3245
831.774	3195
831.913	3203
832.051	3150
832.19	3146
832.329	3214
832.467	3123
832.606	3131
832.744	3180
832.883	3150
833.022	3169
833.16	3275
833.299	3348
833.437	3321
833.576	3359
833.714	3420
833.852	3469
833.991	3439
834.129	3496
834.267	3447
834.406	3450
834.544	3443
834.682	3439
834.821	3412
834.959	3614
835.097	3412
835.235	3523
835.373	3507
835.511	3507
835.65	3469
835.788	3507
835.926	3439
836.064	3420
836.202	3431
836.34	3568
836.478	3587
836.615	3584
836.753	3618
836.891	3671
837.029	3637
837.167	3606
837.305	3561
837.443	3530
837.58	3549
837.718	3644
837.856	3614
837.993	3568
838.131	3606
838.269	3652
838.406	3545
838.544	3595
838.681	3507
838.819	3447
838.956	3393
839.094	3412
839.231	3504
839.369	3500
839.506	3728
839.643	3656
839.781	3504
839.918	3500
840.055	3553
840.193	3553
840.33	3561
840.467	3561
840.604	3595
840.742	3835
840.879	3572
841.016	3557
841.153	3644
841.29	3766
841.427	3766
841.564	3770
841.701	3755
841.838	3690
841.975	3663
842.112	3740
842.249	3694
842.385	3709
842.522	3869
842.659	3762
842.796	3732
842.933	3736
843.069	3751
843.206	3740
843.343	3857
843.479	3785
843.616	3827
843.752	3682
843.889	3701
844.025	3903
844.162	3713
844.298	3899
844.435	3819
844.571	3789
844.708	3911
844.844	3991
844.98	4017
845.117	4040
845.253	3953
845.389	3896
845.525	4006
845.661	3953
845.798	3937
845.934	4029
846.07	4017
846.206	4082
846.342	4116
846.478	4112
846.614	4002
846.75	3941
846.886	3892
847.022	4063
847.158	4021
847.294	4032
847.429	4025
847.565	3987
847.701	4265
847.837	3888
847.972	3907
848.108	3972
848.244	4010
848.379	3892
848.515	3812
848.65	3819
848.786	3823
848.921	3880
849.057	3941
849.192	3968
849.328	3941
849.463	3915
849.598	3922
849.734	3899
849.869	3816
850.004	3766
850.14	3827
850.275	3770
850.41	3762
850.545	3774
850.68	3797
850.815	3850
850.95	3823
851.085	3979
851.22	3873
851.355	3857
851.49	3800
851.625	3778
851.76	3800
851.895	3709
852.03	3736
852.165	3819
852.299	3884
852.434	3892
852.569	3884
852.703	3876
852.838	3979
852.973	3994
853.107	4002
853.242	3884
853.376	3835
853.511	3816
853.645	3846
853.78	4002
853.914	3918
854.048	3922
854.183	3949
854.317	3960
854.451	4078
854.585	4013
854.72	3972
854.854	4074
854.988	3960
855.122	4025
855.256	3907
855.39	4029
855.524	4139
855.658	4109
855.792	4112
855.926	4128
856.06	4188
856.194	4223
856.327	4143
856.461	4112
856.595	4204
856.729	4219
856.862	4280
856.996	4272
857.13	4306
857.263	4371
857.397	4394
857.53	4295
857.664	4402
857.797	4443
857.931	4432
858.064	4428
858.197	4500
858.331	4386
858.464	4428
858.597	4379
858.731	4470
858.864	4451
858.997	4474
859.13	4516
859.263	4554
859.396	4599
859.529	4516
859.662	4542
859.795	4546
859.928	4599
860.061	4714
860.194	4733
860.327	4691
860.46	4679
860.592	4702
860.725	4763
860.858	4786
860.99	4733
861.123	4683
861.256	4706
861.388	4797
861.521	5402
861.653	4729
861.786	4725
861.918	4752
862.05	4782
862.183	4843
862.315	4900
862.447	4949
862.58	4908
862.712	4793
862.844	4786
862.976	4896
863.108	4877
863.24	5250
863.372	4858
863.504	4949
863.636	4938
863.768	4984
863.9	4965
864.032	4972
864.164	4972
864.296	5018
864.428	5128
864.559	5151
864.691	5170
864.823	5178
864.954	5132
865.086	5170
865.217	5094
865.349	5121
865.48	5178
865.612	5208
865.743	5345
865.875	5216
866.006	5181
866.137	5216
866.269	5269
866.4	5292
866.531	5288
866.662	5254
866.793	5292
866.924	5307
867.055	5379
867.186	5261
867.317	5322
867.448	5315
867.579	5372
867.71	5398
867.841	5387
867.972	5509
868.103	5474
868.233	5516
868.364	5524
868.495	5535
868.625	5653
868.756	5794
868.886	5676
869.017	5634
869.147	5855
869.278	5863
869.408	5851
869.539	5844
869.669	5904
869.799	5912
869.929	5988
870.06	6022
870.19	6175
870.32	6144
870.45	6228
870.58	6361
870.71	6433
870.84	6479
870.97	6460
871.1	6486
871.23	6658
871.36	6726
871.489	6726
871.619	6760
871.749	6810
871.879	6947
872.008	6970
872.138	6958
872.267	6958
872.397	7012
872.526	7034
872.656	7046
872.785	7240
872.915	7411
873.044	7559
873.173	7563
873.303	7685
873.432	7761
873.561	7890
873.69	7936
873.819	8020
873.948	8180
874.077	8214
874.206	8320
874.335	8419
874.464	8686
874.593	8842
874.722	8861
874.851	9154
874.979	9188
875.108	9389
875.237	9462
875.365	9450
875.494	9717
875.623	9857
875.751	9797
875.88	10013
876.008	10150
876.136	10238
876.265	10512
876.393	10744
876.521	10763
876.65	10812
876.778	10858
876.906	10911
877.034	10984
877.162	11162
877.29	11105
877.418	11341
877.546	11402
877.674	11459
877.802	11368
877.93	11554
878.058	11547
878.185	11627
878.313	11680
878.441	11657
878.568	11638
878.696	11752
878.824	11923
878.951	11897
879.079	12079
879.206	12213
879.333	12038
879.461	11961
879.588	12163
879.715	12220
879.842	12163
879.97	12087
880.097	11908
880.224	11904
880.351	11836
880.478	11863
880.605	11809
880.732	11809
880.859	12034
880.986	11802
881.112	11901
881.239	11813
881.366	11699
881.493	11661
881.619	11551
881.746	11619
881.872	11528
881.999	11471
882.125	11566
882.252	11554
882.378	11512
882.505	11570
882.631	11436
882.757	11273
882.883	11345
883.01	11261
883.136	11140
883.262	11170
883.388	11117
883.514	11273
883.64	11299
883.766	11140
883.892	11045
884.018	10991
884.143	11029
884.269	11155
884.395	10835
884.52	10725
884.646	10889
884.772	10649
884.897	10694
885.023	10733
885.148	10733
885.274	10790
885.399	10694
885.524	10645
885.65	10607
885.775	10580
885.9	10607
886.025	10615
886.15	10607
886.275	10489
886.4	10421
886.525	10417
886.65	10390
886.775	10329
886.9	10440
887.025	10542
887.149	10295
887.274	10215
887.399	10246
887.523	10219
887.648	10158
887.773	10173
887.897	10299
888.021	10242
888.146	10185
888.27	10211
888.395	10219
888.519	10139
888.643	10173
888.767	10234
888.891	10109
889.015	9964
889.139	10006
889.263	9983
889.387	10055
889.511	10116
889.635	10124
889.759	10040
889.883	9956
890.006	9983
890.13	10135
890.254	9991
890.377	9979
890.501	9793
890.624	9876
890.748	9880
890.871	9762
890.995	9785
891.118	9781
891.241	9888
891.364	9732
891.488	9857
891.611	9770
891.734	9720
891.857	9774
891.98	9736
892.103	9675
892.226	9743
892.349	9663
892.471	9572
892.594	9652
892.717	9701
892.839	9614
892.962	9682
893.085	9660
893.207	9564
893.33	9580
893.452	9545
893.575	9667
893.697	9538
893.819	9648
893.941	9580
894.064	9545
894.186	9435
894.308	9466
894.43	9568
894.552	9561
894.674	9519
894.796	9401
894.918	9374
895.04	9431
895.161	9435
895.283	9340
895.405	9192
895.526	9313
895.648	9249
895.769	9272
895.891	9287
896.012	9287
896.134	9264
896.255	9230
896.376	9127
896.498	9249
896.619	9150
896.74	9157
896.861	9058
896.982	9256
897.103	9386
897.224	9184
897.345	9138
897.466	9020
897.587	8990
897.708	9062
897.828	9062
897.949	8971
898.07	8853
898.19	8990
898.311	9047
898.431	8910
898.552	8902
898.672	8960
898.792	8960
898.913	8948
899.033	8849
899.153	8819
899.273	8629
899.393	8754
899.513	8739
899.633	8739
899.753	8754
899.873	8735
899.993	8678
900.113	8705
900.232	8769
900.352	8598
900.472	8610
900.591	8579
900.711	8564
900.83	8556
900.95	8670
901.069	8659
901.189	8617
901.308	8476
901.427	8457
901.546	8442
901.665	8438
901.784	8541
901.904	8320
902.023	8377
902.141	8256
902.26	8210
902.379	8336
902.498	8195
902.617	8206
902.735	8355
902.854	8309
902.973	8320
903.091	8164
903.21	8149
903.328	8237
903.446	8142
903.565	8100
903.683	8145
903.801	8096
903.919	8081
904.038	8153
904.156	8027
904.274	8130
904.392	8054
904.51	8016
904.627	8024
904.745	8123
904.863	8119
904.981	7963
905.098	7833
905.216	7913
905.334	7940
905.451	7875
905.569	7921
905.686	7970
905.803	7955
905.921	7772
906.038	7940
906.155	7864
906.272	7772
906.389	7704
906.506	7719
906.623	7670
906.74	7643
906.857	7620
906.974	7624
907.091	7681
907.208	7715
907.324	7662
907.441	7563
907.557	7445
907.674	7445
907.79	7441
907.907	7373
908.023	7472
908.139	7457
908.256	7392
908.372	7392
908.488	7324
908.604	7335
908.72	7297
908.836	7305
908.952	7255
909.068	7266
909.184	7384
909.3	7225
909.415	7308
909.531	7282
909.647	7164
909.762	7076
909.878	7091
909.993	7114
910.108	7137
910.224	7076
910.339	7152
910.454	7053
910.57	7061
910.685	7004
910.8	7187
910.915	7069
911.03	6973
911.145	6935
911.259	6935
911.374	6890
911.489	6878
911.604	6863
911.718	6768
911.833	6741
911.947	6662
912.062	6646
912.176	6738
912.291	6669
912.405	6726
912.519	6894
912.633	6856
912.748	6726
912.862	6707
912.976	6635
913.09	6536
913.204	6574
913.318	6650
913.431	6719
913.545	6677
913.659	6795
913.772	6669
913.886	6601
914	6578
914.113	6635
914.226	6700
914.34	6631
914.453	6555
914.566	6570
914.68	6578
914.793	6589
914.906	6422
915.019	6388
915.132	6433
915.245	6445
915.358	6456
915.47	6513
915.583	6479
915.696	6525
915.809	6547
915.921	6544
916.034	6490
916.146	6441
916.259	6353
916.371	6490
916.483	6452
916.595	6452
916.708	6521
916.82	6403
916.932	6437
917.044	6483
917.156	6422
917.268	6346
917.38	6350
917.491	6338
917.603	6369
917.715	6399
917.826	6399
917.938	6407
918.049	6262
918.161	6369
918.272	6384
918.384	6410
918.495	6346
918.606	6232
918.717	6232
918.828	6281
918.939	6281
919.05	6205
919.161	6270
919.272	6167
919.383	6121
919.494	6304
919.604	6422
919.715	6311
919.826	6262
919.936	6266
920.047	6399
920.157	6304
920.267	6494
920.378	6323
920.488	6292
920.598	6498
920.708	6566
920.818	6502
920.928	6494
921.038	6639
921.148	6623
921.258	6338
921.368	6315
921.477	6235
921.587	6201
921.697	6102
921.806	6220
921.916	6106
922.025	5942
922.134	5961
922.244	5870
922.353	5942
922.462	5904
922.571	5836
922.68	5707
922.789	5710
922.898	5707
923.007	5615
923.116	5729
923.224	5672
923.333	5668
923.442	5570
923.55	5661
923.659	5570
923.767	5657
923.876	5604
923.984	5600
924.092	5528
924.201	5577
924.309	5589
924.417	5604
924.525	5452
924.633	5558
924.741	6273
924.849	5414
924.956	5493
925.064	5410
925.172	5345
925.279	5337
925.387	5376
925.494	5360
925.602	5357
925.709	5433
925.816	5315
925.924	5379
926.031	5391
926.138	5311
926.245	5417
926.352	5197
926.459	5322
926.566	5376
926.673	5216
926.779	5155
926.886	5067
926.993	4999
927.099	5041
927.206	4980
927.312	4980
927.419	5018
927.525	5003
927.631	5006
927.737	4904
927.843	4854
927.95	4759
928.056	4850
928.162	4870
928.267	4881
928.373	5349
928.479	4911
928.585	4744
928.69	4771
928.796	4790
928.901	4733
929.007	4580
929.112	4687
929.218	4626
929.323	4649
929.428	4523
929.533	4668
929.638	4512
929.743	4592
929.848	4542
929.953	4535
930.058	4546
930.163	4379
930.267	4344
930.372	4432
930.477	4333
930.581	4470
930.685	4394
930.79	4253
930.894	4303
930.998	4272
931.103	4390
931.207	4150
931.311	4150
931.415	4032
931.519	3945
931.623	3949
