Data from glass_V78500241_1159.txt Node
Date: Wed Sep 01 19:22:32 CST 2021
User: usil
Spectrometer: V785-0024
Trigger mode: 0
Integration Time (sec): 4.000000E-1
Scans to average: 1
Nonlinearity correction enabled: false
Boxcar width: 0
Storing dark spectrum: false
XAxis mode: Wavelengths
Number of Pixels in Spectrum: 1024
>>>>>Begin Spectral Data<<<<<
801.071	3755
801.214	3797
801.356	3728
801.499	3743
801.641	3740
801.783	3743
801.926	3857
802.068	3819
802.211	3915
802.353	3934
802.496	3857
802.638	3892
802.78	3873
802.923	3930
803.065	3880
803.208	3819
803.35	3896
803.492	3892
803.635	3869
803.777	3800
803.919	3918
804.061	4158
804.204	3911
804.346	3960
804.488	3915
804.63	4093
804.773	3994
804.915	4040
805.057	4135
805.199	4032
805.341	4101
805.483	4112
805.626	4109
805.768	4105
805.91	4238
806.052	4215
806.194	4223
806.336	4325
806.478	4204
806.62	4154
806.762	4219
806.904	4234
807.046	4344
807.188	4185
807.33	4173
807.472	4249
807.614	4188
807.756	4261
807.898	4207
808.04	4287
808.182	4341
808.324	4333
808.465	4371
808.607	4455
808.749	4497
808.891	4470
809.033	4542
809.174	4436
809.316	4318
809.458	4227
809.6	4204
809.741	4188
809.883	4150
810.025	4219
810.166	4223
810.308	4284
810.45	4291
810.591	4223
810.733	4318
810.875	4531
811.016	4820
811.158	5113
811.299	5265
811.441	5303
811.582	5067
811.724	4694
811.865	4474
812.007	4500
812.148	4455
812.29	4440
812.431	4474
812.573	4417
812.714	4428
812.855	4417
812.997	4451
813.138	4474
813.279	4421
813.421	4386
813.562	4337
813.703	4371
813.845	4299
813.986	4329
814.127	4272
814.268	4265
814.41	4303
814.551	4219
814.692	4360
814.833	4329
814.974	4310
815.115	4371
815.256	4246
815.397	4234
815.539	4238
815.68	4234
815.821	4207
815.962	4379
816.103	4333
816.244	4211
816.385	4246
816.526	4261
816.666	4261
816.807	4147
816.948	4177
817.089	4207
817.23	4150
817.371	4036
817.512	4059
817.653	4154
817.793	4036
817.934	4090
818.075	4154
818.216	4101
818.356	4086
818.497	3953
818.638	3903
818.778	3899
818.919	3945
819.06	3892
819.2	3876
819.341	3861
819.481	3842
819.622	3934
819.762	4086
819.903	3960
820.043	3865
820.184	3861
820.324	3800
820.465	3876
820.605	3835
820.746	3854
820.886	3827
821.026	3937
821.167	3903
821.307	3998
821.447	4002
821.588	3972
821.728	3953
821.868	3991
822.008	3888
822.149	3922
822.289	3915
822.429	3774
822.569	3789
822.709	3793
822.849	3728
822.99	3755
823.13	3740
823.27	3785
823.41	3759
823.55	3759
823.69	3747
823.83	3740
823.97	3698
824.11	3629
824.25	3644
824.389	3637
824.529	3694
824.669	3641
824.809	3701
824.949	3778
825.089	3724
825.228	3686
825.368	3587
825.508	3584
825.648	3538
825.787	3610
825.927	3660
826.067	3625
826.206	3686
826.346	3747
826.485	3865
826.625	3865
826.765	3930
826.904	3797
827.044	3629
827.183	3492
827.323	3454
827.462	3454
827.601	3447
827.741	3420
827.88	3481
828.02	3355
828.159	3462
828.298	3504
828.437	3530
828.577	3500
828.716	3587
828.855	3492
828.994	3424
829.134	3382
829.273	3409
829.412	3329
829.551	3344
829.69	3401
829.829	3447
829.968	3549
830.107	3401
830.246	3435
830.385	3382
830.524	3355
830.663	3291
830.802	3264
830.941	3226
831.08	3192
831.219	3272
831.357	3298
831.496	3443
831.635	3256
831.774	3211
831.913	3211
832.051	3131
832.19	3135
832.329	3199
832.467	3157
832.606	3085
832.744	3173
832.883	3184
833.022	3222
833.16	3245
833.299	3298
833.437	3367
833.576	3397
833.714	3450
833.852	3462
833.991	3447
834.129	3492
834.267	3443
834.406	3409
834.544	3447
834.682	3393
834.821	3485
834.959	3553
835.097	3424
835.235	3549
835.373	3462
835.511	3523
835.65	3462
835.788	3526
835.926	3450
836.064	3378
836.202	3405
836.34	3614
836.478	3622
836.615	3561
836.753	3610
836.891	3648
837.029	3648
837.167	3599
837.305	3584
837.443	3595
837.58	3492
837.718	3614
837.856	3564
837.993	3564
838.131	3629
838.269	3580
838.406	3610
838.544	3599
838.681	3477
838.819	3443
838.956	3405
839.094	3409
839.231	3443
839.369	3526
839.506	3717
839.643	3656
839.781	3492
839.918	3481
840.055	3542
840.193	3526
840.33	3523
840.467	3557
840.604	3644
840.742	3827
840.879	3545
841.016	3587
841.153	3610
841.29	3793
841.427	3694
841.564	3759
841.701	3743
841.838	3713
841.975	3686
842.112	3732
842.249	3660
842.385	3656
842.522	3781
842.659	3713
842.796	3679
842.933	3701
843.069	3705
843.206	3755
843.343	3827
843.479	3804
843.616	3797
843.752	3698
843.889	3701
844.025	3831
844.162	3717
844.298	3835
844.435	3781
844.571	3835
844.708	3892
844.844	3979
844.98	4029
845.117	3972
845.253	3968
845.389	3888
845.525	3949
845.661	3975
845.798	3945
845.934	4040
846.07	3964
846.206	4078
846.342	4093
846.478	4101
846.614	4017
846.75	3975
846.886	3930
847.022	4074
847.158	3991
847.294	4059
847.429	4029
847.565	3945
847.701	4230
847.837	3907
847.972	3876
848.108	3991
848.244	3953
848.379	3892
848.515	3831
848.65	3835
848.786	3846
848.921	3888
849.057	3896
849.192	3975
849.328	3884
849.463	3926
849.598	3888
849.734	3857
849.869	3854
850.004	3778
850.14	3816
850.275	3774
850.41	3781
850.545	3774
850.68	3827
850.815	3793
850.95	3804
851.085	3945
851.22	3869
851.355	3850
851.49	3789
851.625	3778
851.76	3789
851.895	3717
852.03	3720
852.165	3759
852.299	3884
852.434	3869
852.569	3876
852.703	3926
852.838	3975
852.973	4040
853.107	4010
853.242	3918
853.376	3865
853.511	3717
853.645	3854
853.78	3994
853.914	3937
854.048	3896
854.183	3918
854.317	3983
854.451	4063
854.585	4002
854.72	3949
854.854	4036
854.988	3953
855.122	3991
855.256	3930
855.39	4029
855.524	4139
855.658	4147
855.792	4116
855.926	4112
856.06	4188
856.194	4200
856.327	4158
856.461	4128
856.595	4215
856.729	4166
856.862	4242
856.996	4268
857.13	4325
857.263	4310
857.397	4363
857.53	4276
857.664	4386
857.797	4390
857.931	4421
858.064	4394
858.197	4432
858.331	4440
858.464	4367
858.597	4386
858.731	4447
858.864	4478
858.997	4489
859.13	4535
859.263	4504
859.396	4588
859.529	4542
859.662	4516
859.795	4523
859.928	4569
860.061	4740
860.194	4706
860.327	4672
860.46	4668
860.592	4759
860.725	4767
860.858	4816
860.99	4698
861.123	4714
861.256	4706
861.388	4755
861.521	5395
861.653	4733
861.786	4748
861.918	4778
862.05	4801
862.183	4839
862.315	4911
862.447	4938
862.58	4923
862.712	4816
862.844	4778
862.976	4877
863.108	4889
863.24	5178
863.372	4820
863.504	4911
863.636	4870
863.768	5003
863.9	4965
864.032	4942
864.164	5010
864.296	5048
864.428	5113
864.559	5117
864.691	5105
864.823	5113
864.954	5121
865.086	5143
865.217	5151
865.349	5128
865.48	5197
865.612	5185
865.743	5322
865.875	5208
866.006	5174
866.137	5265
866.269	5258
866.4	5254
866.531	5280
866.662	5239
866.793	5265
866.924	5311
867.055	5326
867.186	5334
867.317	5315
867.448	5318
867.579	5368
867.71	5425
867.841	5345
867.972	5478
868.103	5482
868.233	5467
868.364	5535
868.495	5562
868.625	5676
868.756	5798
868.886	5680
869.017	5767
869.147	5844
869.278	5851
869.408	5844
869.539	5866
869.669	5942
869.799	5916
869.929	5999
870.06	6083
870.19	6194
870.32	6201
870.45	6315
870.58	6338
870.71	6456
870.84	6467
870.97	6426
871.1	6475
871.23	6654
871.36	6791
871.489	6646
871.619	6753
871.749	6875
871.879	6867
872.008	6973
872.138	6985
872.267	7038
872.397	6966
872.526	7019
872.656	7050
872.785	7213
872.915	7411
873.044	7590
873.173	7521
873.303	7601
873.432	7750
873.561	7875
873.69	7940
873.819	7989
873.948	8123
874.077	8210
874.206	8343
874.335	8457
874.464	8693
874.593	8891
874.722	8933
874.851	9199
874.979	9211
875.108	9408
875.237	9469
875.365	9500
875.494	9652
875.623	9793
875.751	9895
875.88	9975
876.008	10147
876.136	10333
876.265	10588
876.393	10615
876.521	10729
876.65	10812
876.778	10835
876.906	10976
877.034	11022
877.162	11067
877.29	11212
877.418	11326
877.546	11326
877.674	11440
877.802	11482
877.93	11509
878.058	11490
878.185	11623
878.313	11684
878.441	11817
878.568	11710
878.696	11783
878.824	11863
878.951	11973
879.079	12110
879.206	12224
879.333	12083
879.461	11999
879.588	12022
879.715	12057
879.842	12266
879.97	12007
880.097	11889
880.224	11824
880.351	11889
880.478	11859
880.605	11908
880.732	11805
880.859	12060
880.986	11813
881.112	11817
881.239	11638
881.366	11615
881.493	11589
881.619	11611
881.746	11695
881.872	11581
881.999	11501
882.125	11501
882.252	11642
882.378	11467
882.505	11554
882.631	11520
882.757	11353
882.883	11440
883.01	11307
883.136	11288
883.262	11178
883.388	11083
883.514	11220
883.64	11216
883.766	11197
883.892	10957
884.018	10968
884.143	11155
884.269	11102
884.395	10953
884.52	10828
884.646	10812
884.772	10725
884.897	10630
885.023	10729
885.148	10656
885.274	10763
885.399	10702
885.524	10653
885.65	10558
885.775	10664
885.9	10558
886.025	10618
886.15	10603
886.275	10500
886.4	10356
886.525	10466
886.65	10405
886.775	10367
886.9	10485
887.025	10561
887.149	10402
887.274	10291
887.399	10162
887.523	10169
887.648	10116
887.773	10139
887.897	10219
888.021	10291
888.146	10204
888.27	10173
888.395	10166
888.519	10234
888.643	10223
888.767	10211
888.891	10040
889.015	10021
889.139	10071
889.263	10013
889.387	10074
889.511	10124
889.635	10078
889.759	9983
889.883	9964
890.006	9975
890.13	10128
890.254	9953
890.377	10044
890.501	9899
890.624	9831
890.748	9899
890.871	9816
890.995	9766
891.118	9804
891.241	9728
891.364	9728
891.488	9785
891.611	9808
891.734	9819
891.857	9793
891.98	9724
892.103	9823
892.226	9705
892.349	9679
892.471	9530
892.594	9694
892.717	9671
892.839	9542
892.962	9633
893.085	9705
893.207	9526
893.33	9492
893.452	9557
893.575	9542
893.697	9584
893.819	9698
893.941	9690
894.064	9610
894.186	9450
894.308	9397
894.43	9530
894.552	9568
894.674	9545
894.796	9458
894.918	9389
895.04	9374
895.161	9447
895.283	9378
895.405	9294
895.526	9275
895.648	9241
895.769	9256
895.891	9283
896.012	9321
896.134	9085
896.255	9154
896.376	9157
896.498	9135
896.619	9146
896.74	9104
896.861	9043
896.982	9260
897.103	9249
897.224	9230
897.345	9161
897.466	8986
897.587	9055
897.708	9104
897.828	9043
897.949	8971
898.07	8883
898.19	8960
898.311	9028
898.431	8876
898.552	8944
898.672	9070
898.792	8960
898.913	8937
899.033	8804
899.153	8769
899.273	8674
899.393	8758
899.513	8758
899.633	8746
899.753	8697
899.873	8727
899.993	8804
900.113	8735
900.232	8648
900.352	8686
900.472	8636
900.591	8530
900.711	8594
900.83	8537
900.95	8697
901.069	8610
901.189	8568
901.308	8442
901.427	8377
901.546	8412
901.665	8488
901.784	8518
901.904	8423
902.023	8218
902.141	8210
902.26	8240
902.379	8271
902.498	8244
902.617	8240
902.735	8374
902.854	8263
902.973	8252
903.091	8103
903.21	8092
903.328	8191
903.446	8107
903.565	8123
903.683	8149
903.801	8073
903.919	8145
904.038	8164
904.156	8081
904.274	8111
904.392	8142
904.51	8043
904.627	8027
904.745	8046
904.863	8123
904.981	7928
905.098	7887
905.216	7925
905.334	7925
905.451	7925
905.569	7875
905.686	7906
905.803	7989
905.921	7746
906.038	7909
906.155	7776
906.272	7715
906.389	7719
906.506	7693
906.623	7666
906.74	7651
906.857	7529
906.974	7597
907.091	7708
907.208	7731
907.324	7639
907.441	7601
907.557	7480
907.674	7495
907.79	7415
907.907	7411
908.023	7472
908.139	7445
908.256	7384
908.372	7438
908.488	7369
908.604	7324
908.72	7293
908.836	7247
908.952	7240
909.068	7232
909.184	7354
909.3	7270
909.415	7327
909.531	7236
909.647	7122
909.762	7129
909.878	7065
909.993	7126
910.108	7152
910.224	7080
910.339	7095
910.454	7034
910.57	7000
910.685	6939
910.8	7183
910.915	7091
911.03	7076
911.145	6947
911.259	6886
911.374	6894
911.489	6875
911.604	6821
911.718	6798
911.833	6768
911.947	6612
912.062	6684
912.176	6730
912.291	6734
912.405	6772
912.519	6802
912.633	6798
912.748	6764
912.862	6757
912.976	6563
913.09	6540
913.204	6582
913.318	6616
913.431	6726
913.545	6711
913.659	6703
913.772	6608
913.886	6570
914	6551
914.113	6658
914.226	6627
914.34	6604
914.453	6540
914.566	6635
914.68	6494
914.793	6555
914.906	6464
915.019	6456
915.132	6441
915.245	6441
915.358	6452
915.47	6433
915.583	6452
915.696	6437
915.809	6589
915.921	6532
916.034	6456
916.146	6483
916.259	6384
916.371	6498
916.483	6502
916.595	6445
916.708	6486
916.82	6441
916.932	6407
917.044	6426
917.156	6422
917.268	6353
917.38	6388
917.491	6346
917.603	6414
917.715	6384
917.826	6429
917.938	6338
918.049	6216
918.161	6315
918.272	6441
918.384	6502
918.495	6369
918.606	6304
918.717	6296
918.828	6361
918.939	6304
919.05	6220
919.161	6251
919.272	6140
919.383	6175
919.494	6357
919.604	6452
919.715	6251
919.826	6186
919.936	6266
920.047	6391
920.157	6300
920.267	6460
920.378	6353
920.488	6304
920.598	6456
920.708	6585
920.818	6494
920.928	6498
921.038	6639
921.148	6555
921.258	6357
921.368	6300
921.477	6239
921.587	6216
921.697	6140
921.806	6266
921.916	6030
922.025	5980
922.134	6007
922.244	5946
922.353	5912
922.462	5821
922.571	5832
922.68	5737
922.789	5684
922.898	5752
923.007	5653
923.116	5756
923.224	5657
923.333	5691
923.442	5630
923.55	5581
923.659	5630
923.767	5630
923.876	5516
923.984	5657
924.092	5524
924.201	5570
924.309	5551
924.417	5497
924.525	5486
924.633	5535
924.741	6331
924.849	5395
924.956	5459
925.064	5395
925.172	5376
925.279	5311
925.387	5398
925.494	5353
925.602	5440
925.709	5383
925.816	5284
925.924	5277
926.031	5357
926.138	5357
926.245	5360
926.352	5246
926.459	5387
926.566	5334
926.673	5227
926.779	5185
926.886	5064
926.993	5003
927.099	4987
927.206	5010
927.312	4984
927.419	4995
927.525	4972
927.631	4976
927.737	4911
927.843	4877
927.95	4805
928.056	4870
928.162	4854
928.267	4839
928.373	5345
928.479	4854
928.585	4733
928.69	4744
928.796	4816
928.901	4679
929.007	4584
929.112	4687
929.218	4622
929.323	4603
929.428	4546
929.533	4679
929.638	4573
929.743	4580
929.848	4596
929.953	4546
930.058	4443
930.163	4360
930.267	4344
930.372	4443
930.477	4257
930.581	4485
930.685	4379
930.79	4257
930.894	4287
930.998	4287
931.103	4421
931.207	4120
931.311	4093
931.415	4044
931.519	3945
931.623	3972
