Data from glass_V78500241_1997.txt Node
Date: Wed Sep 01 19:28:20 CST 2021
User: usil
Spectrometer: V785-0024
Trigger mode: 0
Integration Time (sec): 4.000000E-1
Scans to average: 1
Nonlinearity correction enabled: false
Boxcar width: 0
Storing dark spectrum: false
XAxis mode: Wavelengths
Number of Pixels in Spectrum: 1024
>>>>>Begin Spectral Data<<<<<
801.071	3743
801.214	3720
801.356	3679
801.499	3736
801.641	3701
801.783	3705
801.926	3892
802.068	3865
802.211	3846
802.353	3915
802.496	3896
802.638	3857
802.78	3850
802.923	3884
803.065	3892
803.208	3842
803.35	3865
803.492	3899
803.635	3918
803.777	3838
803.919	3899
804.061	4135
804.204	3934
804.346	3934
804.488	3934
804.63	4017
804.773	3968
804.915	4006
805.057	4116
805.199	4010
805.341	4086
805.483	4124
805.626	4120
805.768	4116
805.91	4173
806.052	4227
806.194	4188
806.336	4337
806.478	4154
806.62	4196
806.762	4131
806.904	4268
807.046	4344
807.188	4211
807.33	4211
807.472	4234
807.614	4238
807.756	4329
807.898	4162
808.04	4200
808.182	4303
808.324	4337
808.465	4402
808.607	4485
808.749	4462
808.891	4527
809.033	4493
809.174	4367
809.316	4253
809.458	4177
809.6	4162
809.741	4135
809.883	4162
810.025	4204
810.166	4188
810.308	4265
810.45	4242
810.591	4227
810.733	4314
810.875	4500
811.016	4835
811.158	5143
811.299	5258
811.441	5239
811.582	5033
811.724	4675
811.865	4481
812.007	4466
812.148	4459
812.29	4390
812.431	4413
812.573	4363
812.714	4383
812.855	4386
812.997	4421
813.138	4478
813.279	4405
813.421	4409
813.562	4402
813.703	4322
813.845	4341
813.986	4230
814.127	4253
814.268	4280
814.41	4265
814.551	4261
814.692	4284
814.833	4246
814.974	4257
815.115	4344
815.256	4253
815.397	4230
815.539	4246
815.68	4147
815.821	4253
815.962	4318
816.103	4246
816.244	4215
816.385	4204
816.526	4219
816.666	4154
816.807	4086
816.948	4147
817.089	4147
817.23	4169
817.371	4029
817.512	4044
817.653	4048
817.793	3994
817.934	4017
818.075	4051
818.216	4074
818.356	4109
818.497	3998
818.638	3899
818.778	3926
818.919	3888
819.06	3846
819.2	3911
819.341	3861
819.481	3854
819.622	3876
819.762	3987
819.903	3991
820.043	3873
820.184	3861
820.324	3835
820.465	3896
820.605	3846
820.746	3838
820.886	3816
821.026	3930
821.167	3930
821.307	3975
821.447	3922
821.588	3945
821.728	3964
821.868	3949
822.008	3850
822.149	3911
822.289	3953
822.429	3770
822.569	3781
822.709	3774
822.849	3717
822.99	3694
823.13	3778
823.27	3751
823.41	3701
823.55	3717
823.69	3713
823.83	3736
823.97	3637
824.11	3606
824.25	3584
824.389	3675
824.529	3667
824.669	3641
824.809	3694
824.949	3800
825.089	3762
825.228	3671
825.368	3576
825.508	3568
825.648	3568
825.787	3603
825.927	3614
826.067	3656
826.206	3629
826.346	3800
826.485	3823
826.625	3857
826.765	3945
826.904	3804
827.044	3603
827.183	3515
827.323	3481
827.462	3443
827.601	3386
827.741	3431
827.88	3454
828.02	3325
828.159	3420
828.298	3485
828.437	3538
828.577	3488
828.716	3606
828.855	3507
828.994	3393
829.134	3405
829.273	3351
829.412	3298
829.551	3348
829.69	3397
829.829	3378
829.968	3515
830.107	3424
830.246	3454
830.385	3382
830.524	3351
830.663	3264
830.802	3253
830.941	3173
831.08	3176
831.219	3283
831.357	3298
831.496	3405
831.635	3199
831.774	3245
831.913	3150
832.051	3112
832.19	3142
832.329	3245
832.467	3112
832.606	3097
832.744	3176
832.883	3199
833.022	3230
833.16	3226
833.299	3321
833.437	3348
833.576	3378
833.714	3412
833.852	3466
833.991	3473
834.129	3473
834.267	3428
834.406	3397
834.544	3428
834.682	3481
834.821	3416
834.959	3568
835.097	3374
835.235	3519
835.373	3500
835.511	3488
835.65	3454
835.788	3500
835.926	3416
836.064	3386
836.202	3397
836.34	3561
836.478	3603
836.615	3557
836.753	3576
836.891	3656
837.029	3580
837.167	3595
837.305	3538
837.443	3523
837.58	3473
837.718	3595
837.856	3534
837.993	3564
838.131	3580
838.269	3595
838.406	3584
838.544	3576
838.681	3496
838.819	3496
838.956	3409
839.094	3386
839.231	3424
839.369	3504
839.506	3732
839.643	3618
839.781	3488
839.918	3462
840.055	3530
840.193	3530
840.33	3500
840.467	3599
840.604	3603
840.742	3831
840.879	3542
841.016	3557
841.153	3561
841.29	3762
841.427	3698
841.564	3694
841.701	3747
841.838	3682
841.975	3633
842.112	3694
842.249	3641
842.385	3606
842.522	3793
842.659	3656
842.796	3648
842.933	3713
843.069	3709
843.206	3724
843.343	3785
843.479	3762
843.616	3835
843.752	3660
843.889	3682
844.025	3884
844.162	3732
844.298	3793
844.435	3797
844.571	3778
844.708	3884
844.844	4006
844.98	4063
845.117	3998
845.253	3876
845.389	3896
845.525	4006
845.661	3945
845.798	3941
845.934	3968
846.07	3968
846.206	4074
846.342	4120
846.478	4082
846.614	3918
846.75	3926
846.886	3899
847.022	3983
847.158	3956
847.294	4021
847.429	3983
847.565	3987
847.701	4242
847.837	3873
847.972	3846
848.108	3949
848.244	3972
848.379	3846
848.515	3816
848.65	3751
848.786	3808
848.921	3857
849.057	3941
849.192	3918
849.328	3918
849.463	3911
849.598	3850
849.734	3888
849.869	3827
850.004	3736
850.14	3842
850.275	3747
850.41	3759
850.545	3778
850.68	3774
850.815	3789
850.95	3781
851.085	3934
851.22	3876
851.355	3850
851.49	3770
851.625	3816
851.76	3778
851.895	3740
852.03	3770
852.165	3838
852.299	3861
852.434	3854
852.569	3873
852.703	3896
852.838	3903
852.973	4006
853.107	3956
853.242	3911
853.376	3846
853.511	3759
853.645	3812
853.78	3945
853.914	3857
854.048	3896
854.183	3899
854.317	3945
854.451	4040
854.585	3987
854.72	3888
854.854	3994
854.988	3903
855.122	3983
855.256	3934
855.39	4032
855.524	4101
855.658	4071
855.792	4101
855.926	4135
856.06	4207
856.194	4215
856.327	4112
856.461	4158
856.595	4166
856.729	4169
856.862	4265
856.996	4219
857.13	4253
857.263	4337
857.397	4333
857.53	4303
857.664	4348
857.797	4375
857.931	4413
858.064	4398
858.197	4398
858.331	4379
858.464	4379
858.597	4318
858.731	4466
858.864	4451
858.997	4459
859.13	4470
859.263	4565
859.396	4558
859.529	4508
859.662	4538
859.795	4519
859.928	4569
860.061	4672
860.194	4714
860.327	4668
860.46	4637
860.592	4759
860.725	4759
860.858	4744
860.99	4675
861.123	4729
861.256	4733
861.388	4797
861.521	5421
861.653	4736
861.786	4656
861.918	4721
862.05	4767
862.183	4809
862.315	4885
862.447	4923
862.58	4862
862.712	4752
862.844	4782
862.976	4839
863.108	4877
863.24	5166
863.372	4828
863.504	4900
863.636	4923
863.768	4915
863.9	4923
864.032	4946
864.164	4938
864.296	5014
864.428	5071
864.559	5140
864.691	5166
864.823	5155
864.954	5124
865.086	5166
865.217	5083
865.349	5083
865.48	5170
865.612	5159
865.743	5246
865.875	5216
866.006	5185
866.137	5193
866.269	5246
866.4	5288
866.531	5250
866.662	5216
866.793	5204
866.924	5288
867.055	5318
867.186	5322
867.317	5349
867.448	5296
867.579	5360
867.71	5383
867.841	5372
867.972	5444
868.103	5467
868.233	5505
868.364	5497
868.495	5535
868.625	5672
868.756	5790
868.886	5623
869.017	5718
869.147	5798
869.278	5821
869.408	5809
869.539	5824
869.669	5844
869.799	5882
869.929	5980
870.06	6049
870.19	6190
870.32	6209
870.45	6266
870.58	6308
870.71	6414
870.84	6422
870.97	6338
871.1	6429
871.23	6650
871.36	6707
871.489	6662
871.619	6715
871.749	6802
871.879	6791
872.008	6958
872.138	6989
872.267	7042
872.397	7004
872.526	7008
872.656	7053
872.785	7202
872.915	7362
873.044	7529
873.173	7556
873.303	7670
873.432	7742
873.561	7868
873.69	7871
873.819	7967
873.948	8157
874.077	8263
874.206	8343
874.335	8495
874.464	8689
874.593	8853
874.722	8975
874.851	9161
874.979	9253
875.108	9325
875.237	9408
875.365	9447
875.494	9603
875.623	9812
875.751	9838
875.88	9994
876.008	10181
876.136	10265
876.265	10523
876.393	10702
876.521	10752
876.65	10702
876.778	10911
876.906	10949
877.034	11006
877.162	10995
877.29	11098
877.418	11337
877.546	11292
877.674	11455
877.802	11478
877.93	11611
878.058	11577
878.185	11577
878.313	11600
878.441	11672
878.568	11623
878.696	11813
878.824	11889
878.951	11946
879.079	12019
879.206	12114
879.333	11973
879.461	11969
879.588	12087
879.715	12091
879.842	12239
879.97	12022
880.097	11878
880.224	11855
880.351	11878
880.478	11859
880.605	11885
880.732	11767
880.859	11977
880.986	11828
881.112	11824
881.239	11809
881.366	11722
881.493	11657
881.619	11520
881.746	11600
881.872	11592
881.999	11509
882.125	11448
882.252	11562
882.378	11528
882.505	11566
882.631	11364
882.757	11288
882.883	11311
883.01	11345
883.136	11121
883.262	11083
883.388	11056
883.514	11159
883.64	11159
883.766	11124
883.892	10953
884.018	10991
884.143	11033
884.269	11113
884.395	10812
884.52	10763
884.646	10748
884.772	10729
884.897	10645
885.023	10694
885.148	10733
885.274	10710
885.399	10630
885.524	10538
885.65	10596
885.775	10645
885.9	10462
886.025	10580
886.15	10603
886.275	10474
886.4	10348
886.525	10462
886.65	10382
886.775	10329
886.9	10462
887.025	10519
887.149	10367
887.274	10215
887.399	10238
887.523	10188
887.648	10109
887.773	10177
887.897	10230
888.021	10280
888.146	10181
888.27	10207
888.395	10322
888.519	10219
888.643	10135
888.767	10227
888.891	9994
889.015	10044
889.139	10082
889.263	9949
889.387	10093
889.511	10097
889.635	10086
889.759	10032
889.883	10021
890.006	9945
890.13	10109
890.254	9956
890.377	9991
890.501	9876
890.624	9895
890.748	9987
890.871	9759
890.995	9766
891.118	9728
891.241	9713
891.364	9736
891.488	9865
891.611	9694
891.734	9857
891.857	9728
891.98	9762
892.103	9816
892.226	9682
892.349	9679
892.471	9534
892.594	9587
892.717	9648
892.839	9500
892.962	9599
893.085	9648
893.207	9568
893.33	9477
893.452	9576
893.575	9511
893.697	9447
893.819	9637
893.941	9599
894.064	9606
894.186	9435
894.308	9435
894.43	9500
894.552	9576
894.674	9591
894.796	9378
894.918	9389
895.04	9340
895.161	9344
895.283	9249
895.405	9226
895.526	9230
895.648	9184
895.769	9184
895.891	9268
896.012	9214
896.134	9253
896.255	9165
896.376	9085
896.498	9097
896.619	9081
896.74	9024
896.861	9180
896.982	9264
897.103	9313
897.224	9154
897.345	9093
897.466	8986
897.587	9047
897.708	9119
897.828	8975
897.949	8944
898.07	8868
898.19	8895
898.311	8994
898.431	8895
898.552	8914
898.672	9020
898.792	8952
898.913	8891
899.033	8819
899.153	8754
899.273	8708
899.393	8663
899.513	8678
899.633	8739
899.753	8788
899.873	8651
899.993	8743
900.113	8693
900.232	8731
900.352	8617
900.472	8629
900.591	8511
900.711	8583
900.83	8454
900.95	8659
901.069	8613
901.189	8568
901.308	8465
901.427	8434
901.546	8438
901.665	8400
901.784	8518
901.904	8347
902.023	8267
902.141	8244
902.26	8214
902.379	8259
902.498	8206
902.617	8206
902.735	8282
902.854	8237
902.973	8358
903.091	8100
903.21	8050
903.328	8168
903.446	8103
903.565	8058
903.683	8058
903.801	8016
903.919	8138
904.038	8107
904.156	8024
904.274	8031
904.392	7978
904.51	8050
904.627	8107
904.745	8073
904.863	8130
904.981	7883
905.098	7864
905.216	7852
905.334	7852
905.451	7871
905.569	7845
905.686	7944
905.803	7887
905.921	7761
906.038	7849
906.155	7757
906.272	7712
906.389	7677
906.506	7639
906.623	7624
906.74	7605
906.857	7521
906.974	7540
907.091	7624
907.208	7696
907.324	7609
907.441	7502
907.557	7438
907.674	7419
907.79	7388
907.907	7392
908.023	7460
908.139	7453
908.256	7457
908.372	7377
908.488	7278
908.604	7320
908.72	7305
908.836	7293
908.952	7232
909.068	7202
909.184	7305
909.3	7187
909.415	7259
909.531	7278
909.647	7126
909.762	7084
909.878	7084
909.993	7027
910.108	7023
910.224	7095
910.339	7099
910.454	6973
910.57	6894
910.685	6886
910.8	7198
910.915	7095
911.03	7008
911.145	6920
911.259	6894
911.374	6947
911.489	6875
911.604	6802
911.718	6772
911.833	6779
911.947	6589
912.062	6574
912.176	6631
912.291	6722
912.405	6684
912.519	6852
912.633	6882
912.748	6711
912.862	6669
912.976	6604
913.09	6490
913.204	6597
913.318	6547
913.431	6684
913.545	6673
913.659	6707
913.772	6654
913.886	6578
914	6517
914.113	6684
914.226	6574
914.34	6585
914.453	6547
914.566	6639
914.68	6551
914.793	6532
914.906	6338
915.019	6418
915.132	6372
915.245	6414
915.358	6403
915.47	6407
915.583	6456
915.696	6433
915.809	6471
915.921	6498
916.034	6426
916.146	6414
916.259	6361
916.371	6490
916.483	6456
916.595	6433
916.708	6403
916.82	6388
916.932	6426
917.044	6403
917.156	6319
917.268	6315
917.38	6338
917.491	6342
917.603	6338
917.715	6372
917.826	6380
917.938	6331
918.049	6247
918.161	6369
918.272	6414
918.384	6460
918.495	6403
918.606	6209
918.717	6205
918.828	6289
918.939	6251
919.05	6182
919.161	6251
919.272	6136
919.383	6178
919.494	6239
919.604	6437
919.715	6239
919.826	6205
919.936	6247
920.047	6327
920.157	6277
920.267	6437
920.378	6296
920.488	6289
920.598	6433
920.708	6506
920.818	6494
920.928	6460
921.038	6589
921.148	6585
921.258	6376
921.368	6289
921.477	6209
921.587	6167
921.697	6079
921.806	6167
921.916	6102
922.025	6007
922.134	5897
922.244	5824
922.353	5942
922.462	5783
922.571	5844
922.68	5710
922.789	5703
922.898	5722
923.007	5634
923.116	5695
923.224	5653
923.333	5646
923.442	5653
923.55	5623
923.659	5596
923.767	5646
923.876	5558
923.984	5577
924.092	5528
924.201	5573
924.309	5562
924.417	5554
924.525	5467
924.633	5497
924.741	6232
924.849	5364
924.956	5440
925.064	5318
925.172	5337
925.279	5307
925.387	5326
925.494	5299
925.602	5459
925.709	5360
925.816	5269
925.924	5364
926.031	5387
926.138	5265
926.245	5330
926.352	5181
926.459	5311
926.566	5280
926.673	5284
926.779	5178
926.886	5060
926.993	5079
927.099	5014
927.206	4987
927.312	4953
927.419	5025
927.525	4976
927.631	4976
927.737	4942
927.843	4858
927.95	4763
928.056	4805
928.162	4873
928.267	4885
928.373	5349
928.479	4870
928.585	4668
928.69	4767
928.796	4771
928.901	4679
929.007	4603
929.112	4679
929.218	4618
929.323	4577
929.428	4538
929.533	4675
929.638	4577
929.743	4546
929.848	4565
929.953	4504
930.058	4421
930.163	4333
930.267	4371
930.372	4421
930.477	4295
930.581	4443
930.685	4375
930.79	4253
930.894	4280
930.998	4253
931.103	4447
931.207	4112
931.311	4082
931.415	4051
931.519	3899
931.623	3937
