Data from glass_V78500241_1754.txt Node
Date: Wed Sep 01 19:26:39 CST 2021
User: usil
Spectrometer: V785-0024
Trigger mode: 0
Integration Time (sec): 4.000000E-1
Scans to average: 1
Nonlinearity correction enabled: false
Boxcar width: 0
Storing dark spectrum: false
XAxis mode: Wavelengths
Number of Pixels in Spectrum: 1024
>>>>>Begin Spectral Data<<<<<
801.071	3724
801.214	3755
801.356	3709
801.499	3732
801.641	3694
801.783	3785
801.926	3816
802.068	3808
802.211	3873
802.353	3846
802.496	3812
802.638	3873
802.78	3873
802.923	3922
803.065	3873
803.208	3842
803.35	3865
803.492	3880
803.635	3930
803.777	3762
803.919	3861
804.061	4162
804.204	3968
804.346	3983
804.488	3880
804.63	4036
804.773	3949
804.915	4017
805.057	4166
805.199	4086
805.341	4128
805.483	4109
805.626	4135
805.768	4059
805.91	4196
806.052	4238
806.194	4196
806.336	4329
806.478	4223
806.62	4219
806.762	4139
806.904	4249
807.046	4314
807.188	4257
807.33	4185
807.472	4215
807.614	4169
807.756	4272
807.898	4185
808.04	4204
808.182	4295
808.324	4318
808.465	4333
808.607	4485
808.749	4470
808.891	4493
809.033	4493
809.174	4432
809.316	4253
809.458	4246
809.6	4154
809.741	4139
809.883	4150
810.025	4154
810.166	4211
810.308	4200
810.45	4223
810.591	4207
810.733	4306
810.875	4489
811.016	4801
811.158	5121
811.299	5265
811.441	5239
811.582	5052
811.724	4717
811.865	4474
812.007	4436
812.148	4409
812.29	4363
812.431	4405
812.573	4413
812.714	4333
812.855	4363
812.997	4333
813.138	4504
813.279	4390
813.421	4379
813.562	4394
813.703	4329
813.845	4329
813.986	4261
814.127	4246
814.268	4287
814.41	4299
814.551	4246
814.692	4291
814.833	4280
814.974	4310
815.115	4329
815.256	4265
815.397	4246
815.539	4280
815.68	4169
815.821	4215
815.962	4322
816.103	4295
816.244	4234
816.385	4265
816.526	4261
816.666	4173
816.807	4093
816.948	4166
817.089	4204
817.23	4112
817.371	4051
817.512	4044
817.653	4071
817.793	4029
817.934	4029
818.075	4120
818.216	4082
818.356	4112
818.497	3991
818.638	3907
818.778	3918
818.919	3880
819.06	3861
819.2	3907
819.341	3880
819.481	3857
819.622	3903
819.762	4017
819.903	3945
820.043	3804
820.184	3823
820.324	3816
820.465	3873
820.605	3869
820.746	3869
820.886	3770
821.026	3934
821.167	3941
821.307	4025
821.447	3941
821.588	3968
821.728	3934
821.868	3911
822.008	3884
822.149	3892
822.289	3903
822.429	3816
822.569	3728
822.709	3781
822.849	3736
822.99	3759
823.13	3713
823.27	3800
823.41	3751
823.55	3762
823.69	3743
823.83	3732
823.97	3663
824.11	3595
824.25	3591
824.389	3629
824.529	3686
824.669	3606
824.809	3694
824.949	3740
825.089	3720
825.228	3732
825.368	3576
825.508	3504
825.648	3523
825.787	3591
825.927	3667
826.067	3580
826.206	3660
826.346	3808
826.485	3804
826.625	3903
826.765	3960
826.904	3781
827.044	3610
827.183	3488
827.323	3462
827.462	3462
827.601	3412
827.741	3428
827.88	3477
828.02	3367
828.159	3428
828.298	3492
828.437	3523
828.577	3458
828.716	3656
828.855	3466
828.994	3378
829.134	3355
829.273	3378
829.412	3336
829.551	3351
829.69	3378
829.829	3462
829.968	3485
830.107	3428
830.246	3447
830.385	3329
830.524	3363
830.663	3310
830.802	3218
830.941	3188
831.08	3199
831.219	3317
831.357	3230
831.496	3412
831.635	3272
831.774	3214
831.913	3188
832.051	3154
832.19	3161
832.329	3226
832.467	3089
832.606	3138
832.744	3165
832.883	3150
833.022	3169
833.16	3230
833.299	3260
833.437	3355
833.576	3363
833.714	3386
833.852	3401
833.991	3443
834.129	3450
834.267	3428
834.406	3397
834.544	3443
834.682	3397
834.821	3409
834.959	3587
835.097	3424
835.235	3538
835.373	3462
835.511	3485
835.65	3485
835.788	3466
835.926	3393
836.064	3382
836.202	3378
836.34	3534
836.478	3633
836.615	3526
836.753	3595
836.891	3633
837.029	3603
837.167	3648
837.305	3572
837.443	3526
837.58	3530
837.718	3568
837.856	3572
837.993	3534
838.131	3576
838.269	3545
838.406	3557
838.544	3591
838.681	3466
838.819	3393
838.956	3351
839.094	3393
839.231	3431
839.369	3534
839.506	3705
839.643	3648
839.781	3496
839.918	3481
840.055	3492
840.193	3538
840.33	3523
840.467	3576
840.604	3587
840.742	3770
840.879	3534
841.016	3526
841.153	3572
841.29	3766
841.427	3724
841.564	3705
841.701	3766
841.838	3701
841.975	3705
842.112	3766
842.249	3679
842.385	3644
842.522	3812
842.659	3720
842.796	3660
842.933	3705
843.069	3709
843.206	3732
843.343	3816
843.479	3793
843.616	3804
843.752	3686
843.889	3660
844.025	3850
844.162	3720
844.298	3865
844.435	3819
844.571	3816
844.708	3926
844.844	3968
844.98	4029
845.117	4051
845.253	3896
845.389	3896
845.525	3987
845.661	3968
845.798	3896
845.934	4002
846.07	3987
846.206	4067
846.342	4147
846.478	4040
846.614	3964
846.75	3922
846.886	3911
847.022	4040
847.158	4002
847.294	4017
847.429	4006
847.565	4010
847.701	4188
847.837	3892
847.972	3831
848.108	3960
848.244	3972
848.379	3846
848.515	3846
848.65	3800
848.786	3850
848.921	3907
849.057	3903
849.192	3964
849.328	3892
849.463	3937
849.598	3861
849.734	3835
849.869	3816
850.004	3759
850.14	3812
850.275	3808
850.41	3690
850.545	3728
850.68	3740
850.815	3781
850.95	3766
851.085	3915
851.22	3857
851.355	3827
851.49	3740
851.625	3797
851.76	3823
851.895	3747
852.03	3759
852.165	3816
852.299	3816
852.434	3903
852.569	3873
852.703	3915
852.838	3945
852.973	4025
853.107	3968
853.242	3903
853.376	3835
853.511	3789
853.645	3846
853.78	3949
853.914	3861
854.048	3873
854.183	3876
854.317	3964
854.451	4067
854.585	3956
854.72	3945
854.854	4059
854.988	3949
855.122	4006
855.256	3899
855.39	4013
855.524	4055
855.658	4090
855.792	4109
855.926	4181
856.06	4158
856.194	4211
856.327	4150
856.461	4116
856.595	4196
856.729	4181
856.862	4287
856.996	4268
857.13	4318
857.263	4344
857.397	4390
857.53	4287
857.664	4356
857.797	4371
857.931	4367
858.064	4371
858.197	4440
858.331	4383
858.464	4325
858.597	4348
858.731	4508
858.864	4432
858.997	4409
859.13	4500
859.263	4538
859.396	4630
859.529	4523
859.662	4527
859.795	4497
859.928	4637
860.061	4679
860.194	4733
860.327	4675
860.46	4653
860.592	4725
860.725	4759
860.858	4759
860.99	4679
861.123	4717
861.256	4752
861.388	4763
861.521	5421
861.653	4790
861.786	4744
861.918	4752
862.05	4790
862.183	4881
862.315	4854
862.447	4877
862.58	4934
862.712	4816
862.844	4759
862.976	4919
863.108	4885
863.24	5239
863.372	4801
863.504	4862
863.636	4892
863.768	4946
863.9	4991
864.032	4873
864.164	5014
864.296	5060
864.428	5052
864.559	5102
864.691	5117
864.823	5132
864.954	5098
865.086	5132
865.217	5155
865.349	5140
865.48	5193
865.612	5231
865.743	5318
865.875	5181
866.006	5155
866.137	5250
866.269	5227
866.4	5261
866.531	5204
866.662	5212
866.793	5311
866.924	5292
867.055	5364
867.186	5383
867.317	5330
867.448	5330
867.579	5341
867.71	5383
867.841	5391
867.972	5493
868.103	5455
868.233	5524
868.364	5467
868.495	5535
868.625	5653
868.756	5809
868.886	5653
869.017	5752
869.147	5840
869.278	5866
869.408	5836
869.539	5840
869.669	5874
869.799	5950
869.929	6007
870.06	6030
870.19	6209
870.32	6194
870.45	6323
870.58	6311
870.71	6410
870.84	6445
870.97	6464
871.1	6372
871.23	6593
871.36	6669
871.489	6673
871.619	6707
871.749	6768
871.879	6878
872.008	6962
872.138	6958
872.267	7091
872.397	6947
872.526	7000
872.656	7080
872.785	7213
872.915	7350
873.044	7514
873.173	7586
873.303	7658
873.432	7712
873.561	7849
873.69	7852
873.819	7974
873.948	8187
874.077	8225
874.206	8313
874.335	8389
874.464	8606
874.593	8838
874.722	9058
874.851	9074
874.979	9260
875.108	9351
875.237	9439
875.365	9481
875.494	9713
875.623	9903
875.751	9789
875.88	10036
876.008	10150
876.136	10341
876.265	10478
876.393	10664
876.521	10641
876.65	10816
876.778	10786
876.906	10900
877.034	11006
877.162	11208
877.29	11109
877.418	11292
877.546	11364
877.674	11433
877.802	11463
877.93	11558
878.058	11623
878.185	11592
878.313	11554
878.441	11760
878.568	11733
878.696	11733
878.824	11821
878.951	12011
879.079	12057
879.206	12167
879.333	12053
879.461	12022
879.588	12011
879.715	12011
879.842	12186
879.97	12091
880.097	11870
880.224	11859
880.351	11927
880.478	11935
880.605	11935
880.732	11779
880.859	11996
880.986	11939
881.112	11805
881.239	11764
881.366	11638
881.493	11623
881.619	11627
881.746	11562
881.872	11509
881.999	11497
882.125	11482
882.252	11532
882.378	11425
882.505	11638
882.631	11337
882.757	11235
882.883	11391
883.01	11269
883.136	11216
883.262	11178
883.388	11064
883.514	11189
883.64	11201
883.766	11079
883.892	11025
884.018	10949
884.143	11045
884.269	11064
884.395	10839
884.52	10679
884.646	10797
884.772	10793
884.897	10672
885.023	10645
885.148	10721
885.274	10706
885.399	10740
885.524	10675
885.65	10573
885.775	10599
885.9	10538
886.025	10565
886.15	10489
886.275	10470
886.4	10371
886.525	10382
886.65	10394
886.775	10314
886.9	10436
887.025	10542
887.149	10451
887.274	10276
887.399	10181
887.523	10188
887.648	10169
887.773	10090
887.897	10261
888.021	10249
888.146	10173
888.27	10246
888.395	10234
888.519	10200
888.643	10169
888.767	10177
888.891	10120
889.015	10048
889.139	10017
889.263	9991
889.387	10097
889.511	10067
889.635	10112
889.759	10002
889.883	9972
890.006	10093
890.13	10071
890.254	10002
890.377	9949
890.501	9888
890.624	9934
890.748	9926
890.871	9861
890.995	9759
891.118	9720
891.241	9736
891.364	9812
891.488	9781
891.611	9747
891.734	9732
891.857	9800
891.98	9736
892.103	9819
892.226	9785
892.349	9629
892.471	9511
892.594	9587
892.717	9686
892.839	9511
892.962	9633
893.085	9717
893.207	9572
893.33	9511
893.452	9584
893.575	9641
893.697	9469
893.819	9587
893.941	9629
894.064	9625
894.186	9401
894.308	9393
894.43	9545
894.552	9534
894.674	9538
894.796	9329
894.918	9344
895.04	9386
895.161	9336
895.283	9351
895.405	9279
895.526	9264
895.648	9272
895.769	9294
895.891	9233
896.012	9325
896.134	9233
896.255	9195
896.376	9173
896.498	9192
896.619	9112
896.74	9077
896.861	9085
896.982	9268
897.103	9260
897.224	9081
897.345	9066
897.466	9013
897.587	8979
897.708	9123
897.828	9009
897.949	8994
898.07	8868
898.19	8895
898.311	9070
898.431	8899
898.552	8937
898.672	8979
898.792	8975
898.913	8826
899.033	8796
899.153	8743
899.273	8682
899.393	8686
899.513	8720
899.633	8697
899.753	8762
899.873	8720
899.993	8697
900.113	8697
900.232	8705
900.352	8689
900.472	8724
900.591	8594
900.711	8568
900.83	8541
900.95	8621
901.069	8735
901.189	8606
901.308	8400
901.427	8393
901.546	8431
901.665	8438
901.784	8454
901.904	8389
902.023	8240
902.141	8252
902.26	8180
902.379	8252
902.498	8225
902.617	8263
902.735	8240
902.854	8259
902.973	8279
903.091	8123
903.21	8138
903.328	8180
903.446	8119
903.565	8058
903.683	8073
903.801	7989
903.919	8100
904.038	8119
904.156	8031
904.274	8073
904.392	8027
904.51	8077
904.627	8020
904.745	8084
904.863	8153
904.981	7856
905.098	7921
905.216	7822
905.334	7913
905.451	7967
905.569	7864
905.686	7932
905.803	7936
905.921	7772
906.038	7890
906.155	7655
906.272	7723
906.389	7651
906.506	7655
906.623	7639
906.74	7632
906.857	7514
906.974	7613
907.091	7655
907.208	7674
907.324	7639
907.441	7605
907.557	7400
907.674	7430
907.79	7415
907.907	7411
908.023	7453
908.139	7487
908.256	7373
908.372	7392
908.488	7339
908.604	7206
908.72	7228
908.836	7202
908.952	7190
909.068	7221
909.184	7339
909.3	7247
909.415	7285
909.531	7225
909.647	7141
909.762	7114
909.878	7141
909.993	7202
910.108	7129
910.224	7091
910.339	7091
910.454	6985
910.57	7015
910.685	7038
910.8	7179
910.915	7160
911.03	6981
911.145	6886
911.259	6913
911.374	6905
911.489	6776
911.604	6795
911.718	6726
911.833	6662
911.947	6620
912.062	6608
912.176	6673
912.291	6684
912.405	6703
912.519	6837
912.633	6806
912.748	6757
912.862	6650
912.976	6616
913.09	6525
913.204	6620
913.318	6631
913.431	6711
913.545	6627
913.659	6707
913.772	6654
913.886	6555
914	6566
914.113	6597
914.226	6635
914.34	6631
914.453	6471
914.566	6582
914.68	6467
914.793	6506
914.906	6407
915.019	6429
915.132	6346
915.245	6422
915.358	6422
915.47	6498
915.583	6479
915.696	6494
915.809	6536
915.921	6589
916.034	6353
916.146	6365
916.259	6395
916.371	6471
916.483	6506
916.595	6380
916.708	6380
916.82	6342
916.932	6391
917.044	6403
917.156	6426
917.268	6292
917.38	6426
917.491	6319
917.603	6323
917.715	6331
917.826	6422
917.938	6323
918.049	6235
918.161	6350
918.272	6467
918.384	6429
918.495	6311
918.606	6266
918.717	6171
918.828	6285
918.939	6262
919.05	6262
919.161	6190
919.272	6060
919.383	6175
919.494	6289
919.604	6365
919.715	6266
919.826	6235
919.936	6239
920.047	6327
920.157	6235
920.267	6395
920.378	6304
920.488	6296
920.598	6445
920.708	6494
920.818	6502
920.928	6486
921.038	6620
921.148	6525
921.258	6334
921.368	6266
921.477	6228
921.587	6144
921.697	6083
921.806	6178
921.916	6083
922.025	5912
922.134	5939
922.244	5870
922.353	5897
922.462	5855
922.571	5786
922.68	5703
922.789	5657
922.898	5729
923.007	5649
923.116	5710
923.224	5703
923.333	5684
923.442	5623
923.55	5653
923.659	5570
923.767	5592
923.876	5577
923.984	5566
924.092	5478
924.201	5577
924.309	5558
924.417	5581
924.525	5497
924.633	5524
924.741	6258
924.849	5357
924.956	5478
925.064	5341
925.172	5292
925.279	5292
925.387	5322
925.494	5326
925.602	5410
925.709	5379
925.816	5231
925.924	5303
926.031	5360
926.138	5250
926.245	5357
926.352	5223
926.459	5258
926.566	5318
926.673	5246
926.779	5098
926.886	5117
926.993	5014
927.099	5033
927.206	4991
927.312	4900
927.419	4995
927.525	4968
927.631	4946
927.737	4900
927.843	4870
927.95	4782
928.056	4862
928.162	4881
928.267	4828
928.373	5379
928.479	4892
928.585	4740
928.69	4782
928.796	4774
928.901	4645
929.007	4611
929.112	4626
929.218	4584
929.323	4573
929.428	4573
929.533	4694
929.638	4550
929.743	4550
929.848	4569
929.953	4500
930.058	4447
930.163	4367
930.267	4367
930.372	4447
930.477	4352
930.581	4474
930.685	4386
930.79	4284
930.894	4253
930.998	4230
931.103	4402
931.207	4143
931.311	4063
931.415	4029
931.519	3911
931.623	3926
