Data from glass_V78500241_359.txt Node
Date: Wed Sep 01 19:16:59 CST 2021
User: usil
Spectrometer: V785-0024
Trigger mode: 0
Integration Time (sec): 4.000000E-1
Scans to average: 1
Nonlinearity correction enabled: false
Boxcar width: 0
Storing dark spectrum: false
XAxis mode: Wavelengths
Number of Pixels in Spectrum: 1024
>>>>>Begin Spectral Data<<<<<
801.071	3747
801.214	3781
801.356	3717
801.499	3751
801.641	3762
801.783	3778
801.926	3835
802.068	3808
802.211	3880
802.353	3842
802.496	3842
802.638	3899
802.78	3941
802.923	3945
803.065	3888
803.208	3880
803.35	3907
803.492	3888
803.635	3903
803.777	3793
803.919	3922
804.061	4139
804.204	3922
804.346	3983
804.488	3956
804.63	4078
804.773	3972
804.915	4067
805.057	4215
805.199	4105
805.341	4131
805.483	4135
805.626	4116
805.768	4105
805.91	4207
806.052	4227
806.194	4223
806.336	4367
806.478	4219
806.62	4188
806.762	4211
806.904	4223
807.046	4329
807.188	4284
807.33	4196
807.472	4204
807.614	4177
807.756	4284
807.898	4211
808.04	4215
808.182	4295
808.324	4329
808.465	4402
808.607	4470
808.749	4485
808.891	4504
809.033	4546
809.174	4451
809.316	4291
809.458	4253
809.6	4139
809.741	4154
809.883	4192
810.025	4223
810.166	4242
810.308	4204
810.45	4223
810.591	4219
810.733	4306
810.875	4561
811.016	4805
811.158	5136
811.299	5288
811.441	5265
811.582	5067
811.724	4653
811.865	4512
812.007	4500
812.148	4447
812.29	4443
812.431	4417
812.573	4417
812.714	4356
812.855	4379
812.997	4447
813.138	4504
813.279	4421
813.421	4394
813.562	4436
813.703	4360
813.845	4371
813.986	4299
814.127	4265
814.268	4253
814.41	4303
814.551	4284
814.692	4348
814.833	4287
814.974	4303
815.115	4276
815.256	4314
815.397	4234
815.539	4261
815.68	4215
815.821	4234
815.962	4314
816.103	4261
816.244	4234
816.385	4238
816.526	4329
816.666	4154
816.807	4116
816.948	4234
817.089	4154
817.23	4162
817.371	4093
817.512	4101
817.653	4090
817.793	4025
817.934	4067
818.075	4090
818.216	4063
818.356	4090
818.497	3998
818.638	3975
818.778	3941
818.919	3884
819.06	3865
819.2	3949
819.341	3907
819.481	3873
819.622	3937
819.762	4002
819.903	3956
820.043	3903
820.184	3835
820.324	3846
820.465	3896
820.605	3865
820.746	3857
820.886	3789
821.026	3934
821.167	3899
821.307	3960
821.447	3945
821.588	3964
821.728	3899
821.868	3953
822.008	3869
822.149	3918
822.289	3960
822.429	3816
822.569	3778
822.709	3797
822.849	3709
822.99	3682
823.13	3789
823.27	3766
823.41	3724
823.55	3747
823.69	3709
823.83	3781
823.97	3694
824.11	3633
824.25	3610
824.389	3663
824.529	3694
824.669	3663
824.809	3728
824.949	3774
825.089	3770
825.228	3717
825.368	3576
825.508	3595
825.648	3572
825.787	3584
825.927	3660
826.067	3660
826.206	3709
826.346	3800
826.485	3857
826.625	3876
826.765	3979
826.904	3816
827.044	3618
827.183	3523
827.323	3458
827.462	3481
827.601	3466
827.741	3439
827.88	3454
828.02	3397
828.159	3481
828.298	3500
828.437	3568
828.577	3485
828.716	3629
828.855	3511
828.994	3382
829.134	3359
829.273	3412
829.412	3344
829.551	3351
829.69	3344
829.829	3428
829.968	3534
830.107	3447
830.246	3428
830.385	3367
830.524	3332
830.663	3264
830.802	3291
830.941	3207
831.08	3218
831.219	3294
831.357	3272
831.496	3393
831.635	3287
831.774	3211
831.913	3184
832.051	3142
832.19	3154
832.329	3233
832.467	3127
832.606	3112
832.744	3199
832.883	3226
833.022	3203
833.16	3249
833.299	3268
833.437	3329
833.576	3386
833.714	3420
833.852	3405
833.991	3477
834.129	3473
834.267	3466
834.406	3424
834.544	3409
834.682	3416
834.821	3409
834.959	3576
835.097	3458
835.235	3526
835.373	3500
835.511	3526
835.65	3454
835.788	3511
835.926	3374
836.064	3374
836.202	3458
836.34	3564
836.478	3633
836.615	3538
836.753	3648
836.891	3675
837.029	3648
837.167	3618
837.305	3614
837.443	3564
837.58	3568
837.718	3622
837.856	3595
837.993	3534
838.131	3610
838.269	3606
838.406	3610
838.544	3576
838.681	3477
838.819	3439
838.956	3367
839.094	3424
839.231	3458
839.369	3511
839.506	3755
839.643	3641
839.781	3549
839.918	3496
840.055	3523
840.193	3530
840.33	3538
840.467	3580
840.604	3629
840.742	3823
840.879	3568
841.016	3603
841.153	3622
841.29	3778
841.427	3766
841.564	3747
841.701	3759
841.838	3671
841.975	3698
842.112	3778
842.249	3622
842.385	3663
842.522	3861
842.659	3694
842.796	3717
842.933	3740
843.069	3686
843.206	3724
843.343	3846
843.479	3793
843.616	3823
843.752	3709
843.889	3701
844.025	3823
844.162	3728
844.298	3838
844.435	3854
844.571	3785
844.708	3918
844.844	3972
844.98	4044
845.117	4032
845.253	3956
845.389	3949
845.525	3991
845.661	3991
845.798	3956
845.934	4006
846.07	3960
846.206	4032
846.342	4093
846.478	4090
846.614	3987
846.75	3979
846.886	3937
847.022	4086
847.158	3991
847.294	4002
847.429	4044
847.565	4025
847.701	4272
847.837	3941
847.972	3842
848.108	3994
848.244	3949
848.379	3899
848.515	3865
848.65	3781
848.786	3861
848.921	3892
849.057	3949
849.192	3964
849.328	3922
849.463	3907
849.598	3892
849.734	3854
849.869	3846
850.004	3804
850.14	3804
850.275	3842
850.41	3778
850.545	3774
850.68	3762
850.815	3800
850.95	3808
851.085	3968
851.22	3896
851.355	3831
851.49	3812
851.625	3831
851.76	3804
851.895	3720
852.03	3740
852.165	3766
852.299	3907
852.434	3918
852.569	3869
852.703	3854
852.838	3994
852.973	4002
853.107	4006
853.242	3911
853.376	3873
853.511	3793
853.645	3804
853.78	4006
853.914	3899
854.048	3888
854.183	3861
854.317	3964
854.451	4090
854.585	3972
854.72	3968
854.854	4074
854.988	3972
855.122	4048
855.256	3975
855.39	4017
855.524	4101
855.658	4097
855.792	4131
855.926	4177
856.06	4188
856.194	4196
856.327	4147
856.461	4173
856.595	4158
856.729	4169
856.862	4303
856.996	4253
857.13	4314
857.263	4310
857.397	4356
857.53	4337
857.664	4333
857.797	4394
857.931	4409
858.064	4424
858.197	4428
858.331	4405
858.464	4405
858.597	4386
858.731	4474
858.864	4421
858.997	4519
859.13	4523
859.263	4550
859.396	4596
859.529	4478
859.662	4516
859.795	4531
859.928	4637
860.061	4691
860.194	4771
860.327	4740
860.46	4664
860.592	4721
860.725	4797
860.858	4793
860.99	4721
861.123	4698
861.256	4736
861.388	4786
861.521	5395
861.653	4748
861.786	4748
861.918	4805
862.05	4885
862.183	4843
862.315	4858
862.447	4949
862.58	4915
862.712	4820
862.844	4809
862.976	4919
863.108	4976
863.24	5280
863.372	4824
863.504	4847
863.636	4957
863.768	5014
863.9	4961
864.032	4957
864.164	4984
864.296	5064
864.428	5098
864.559	5098
864.691	5136
864.823	5132
864.954	5140
865.086	5151
865.217	5151
865.349	5140
865.48	5193
865.612	5223
865.743	5296
865.875	5208
866.006	5201
866.137	5235
866.269	5269
866.4	5231
866.531	5220
866.662	5250
866.793	5227
866.924	5273
867.055	5345
867.186	5330
867.317	5307
867.448	5345
867.579	5406
867.71	5376
867.841	5421
867.972	5471
868.103	5501
868.233	5512
868.364	5486
868.495	5562
868.625	5680
868.756	5824
868.886	5729
869.017	5718
869.147	5874
869.278	5863
869.408	5836
869.539	5859
869.669	5923
869.799	5908
869.929	5939
870.06	6030
870.19	6148
870.32	6197
870.45	6232
870.58	6331
870.71	6445
870.84	6483
870.97	6429
871.1	6452
871.23	6650
871.36	6730
871.489	6601
871.619	6749
871.749	6787
871.879	6863
872.008	7027
872.138	6920
872.267	7069
872.397	7008
872.526	7084
872.656	7122
872.785	7209
872.915	7464
873.044	7559
873.173	7586
873.303	7655
873.432	7780
873.561	7860
873.69	7883
873.819	8092
873.948	8206
874.077	8263
874.206	8339
874.335	8473
874.464	8670
874.593	8891
874.722	8933
874.851	9173
874.979	9214
875.108	9454
875.237	9443
875.365	9504
875.494	9720
875.623	9781
875.751	9850
875.88	10002
876.008	10143
876.136	10306
876.265	10500
876.393	10679
876.521	10767
876.65	10774
876.778	10858
876.906	10915
877.034	10938
877.162	11102
877.29	11117
877.418	11364
877.546	11395
877.674	11501
877.802	11524
877.93	11459
878.058	11558
878.185	11585
878.313	11699
878.441	11764
878.568	11638
878.696	11824
878.824	11847
878.951	11958
879.079	12011
879.206	12095
879.333	12053
879.461	11984
879.588	12140
879.715	12155
879.842	12266
879.97	12068
880.097	11904
880.224	11958
880.351	11878
880.478	11878
880.605	11904
880.732	11923
880.859	12064
880.986	11802
881.112	11859
881.239	11756
881.366	11745
881.493	11699
881.619	11539
881.746	11551
881.872	11512
881.999	11448
882.125	11543
882.252	11547
882.378	11539
882.505	11627
882.631	11421
882.757	11383
882.883	11330
883.01	11341
883.136	11296
883.262	11174
883.388	11071
883.514	11162
883.64	11166
883.766	11147
883.892	11090
884.018	11003
884.143	11022
884.269	11147
884.395	10938
884.52	10740
884.646	10847
884.772	10721
884.897	10683
885.023	10691
885.148	10767
885.274	10740
885.399	10687
885.524	10626
885.65	10588
885.775	10561
885.9	10573
886.025	10660
886.15	10493
886.275	10493
886.4	10405
886.525	10470
886.65	10360
886.775	10375
886.9	10417
887.025	10634
887.149	10455
887.274	10268
887.399	10211
887.523	10185
887.648	10185
887.773	10215
887.897	10192
888.021	10227
888.146	10158
888.27	10265
888.395	10181
888.519	10139
888.643	10238
888.767	10158
888.891	10135
889.015	10002
889.139	10105
889.263	9972
889.387	10143
889.511	10150
889.635	9979
889.759	10032
889.883	9983
890.006	9937
890.13	10124
890.254	9953
890.377	10025
890.501	9823
890.624	9937
890.748	9892
890.871	9831
890.995	9717
891.118	9675
891.241	9671
891.364	9759
891.488	9797
891.611	9751
891.734	9743
891.857	9789
891.98	9778
892.103	9766
892.226	9713
892.349	9732
892.471	9534
892.594	9606
892.717	9618
892.839	9603
892.962	9580
893.085	9694
893.207	9625
893.33	9492
893.452	9519
893.575	9606
893.697	9500
893.819	9682
893.941	9523
894.064	9618
894.186	9507
894.308	9405
894.43	9561
894.552	9587
894.674	9557
894.796	9355
894.918	9325
895.04	9363
895.161	9367
895.283	9412
895.405	9291
895.526	9241
895.648	9256
895.769	9260
895.891	9260
896.012	9302
896.134	9211
896.255	9207
896.376	9150
896.498	9184
896.619	9077
896.74	9100
896.861	9077
896.982	9230
897.103	9302
897.224	9176
897.345	9062
897.466	9089
897.587	9081
897.708	9119
897.828	8967
897.949	8986
898.07	8880
898.19	8967
898.311	9055
898.431	8918
898.552	8861
898.672	8990
898.792	8998
898.913	8925
899.033	8781
899.153	8785
899.273	8693
899.393	8754
899.513	8769
899.633	8701
899.753	8796
899.873	8712
899.993	8667
900.113	8762
900.232	8727
900.352	8617
900.472	8484
900.591	8613
900.711	8583
900.83	8530
900.95	8674
901.069	8785
901.189	8590
901.308	8473
901.427	8396
901.546	8465
901.665	8476
901.784	8484
901.904	8377
902.023	8294
902.141	8248
902.26	8202
902.379	8309
902.498	8252
902.617	8168
902.735	8286
902.854	8286
902.973	8267
903.091	8199
903.21	8096
903.328	8263
903.446	8138
903.565	8073
903.683	8081
903.801	8062
903.919	8218
904.038	8161
904.156	8024
904.274	8119
904.392	8054
904.51	8024
904.627	8096
904.745	8191
904.863	8138
904.981	7917
905.098	7871
905.216	7849
905.334	7875
905.451	7890
905.569	7879
905.686	8020
905.803	7902
905.921	7780
906.038	7879
906.155	7849
906.272	7723
906.389	7765
906.506	7632
906.623	7590
906.74	7594
906.857	7540
906.974	7620
907.091	7704
907.208	7757
907.324	7609
907.441	7575
907.557	7537
907.674	7480
907.79	7460
907.907	7438
908.023	7453
908.139	7422
908.256	7369
908.372	7354
908.488	7343
908.604	7289
908.72	7213
908.836	7236
908.952	7198
909.068	7293
909.184	7362
909.3	7247
909.415	7327
909.531	7274
909.647	7141
909.762	7190
909.878	7149
909.993	7118
910.108	7164
910.224	7110
910.339	7084
910.454	7046
910.57	7095
910.685	6958
910.8	7149
910.915	7084
911.03	6985
911.145	6859
911.259	6875
911.374	6951
911.489	6802
911.604	6741
911.718	6772
911.833	6768
911.947	6642
912.062	6601
912.176	6707
912.291	6760
912.405	6700
912.519	6806
912.633	6833
912.748	6806
912.862	6707
912.976	6593
913.09	6559
913.204	6593
913.318	6658
913.431	6741
913.545	6688
913.659	6802
913.772	6658
913.886	6620
914	6547
914.113	6608
914.226	6669
914.34	6623
914.453	6506
914.566	6578
914.68	6506
914.793	6471
914.906	6502
915.019	6372
915.132	6357
915.245	6445
915.358	6483
915.47	6426
915.583	6414
915.696	6525
915.809	6574
915.921	6536
916.034	6429
916.146	6437
916.259	6414
916.371	6486
916.483	6414
916.595	6414
916.708	6467
916.82	6456
916.932	6380
917.044	6315
917.156	6410
917.268	6372
917.38	6369
917.491	6319
917.603	6361
917.715	6437
917.826	6452
917.938	6285
918.049	6281
918.161	6334
918.272	6467
918.384	6395
918.495	6338
918.606	6270
918.717	6251
918.828	6262
918.939	6266
919.05	6209
919.161	6243
919.272	6190
919.383	6163
919.494	6258
919.604	6403
919.715	6308
919.826	6216
919.936	6270
920.047	6300
920.157	6266
920.267	6433
920.378	6304
920.488	6338
920.598	6464
920.708	6525
920.818	6486
920.928	6460
921.038	6642
921.148	6642
921.258	6407
921.368	6285
921.477	6216
921.587	6254
921.697	6125
921.806	6190
921.916	6114
922.025	5988
922.134	5973
922.244	5847
922.353	6011
922.462	5885
922.571	5817
922.68	5714
922.789	5665
922.898	5714
923.007	5634
923.116	5737
923.224	5638
923.333	5688
923.442	5608
923.55	5573
923.659	5604
923.767	5623
923.876	5497
923.984	5570
924.092	5543
924.201	5543
924.309	5558
924.417	5615
924.525	5474
924.633	5478
924.741	6327
924.849	5383
924.956	5486
925.064	5398
925.172	5360
925.279	5349
925.387	5398
925.494	5345
925.602	5448
925.709	5417
925.816	5254
925.924	5322
926.031	5349
926.138	5360
926.245	5330
926.352	5254
926.459	5322
926.566	5383
926.673	5204
926.779	5105
926.886	5098
926.993	5033
927.099	5048
927.206	4968
927.312	4904
927.419	5022
927.525	5029
927.631	4957
927.737	4953
927.843	4908
927.95	4755
928.056	4847
928.162	4866
928.267	4877
928.373	5254
928.479	4896
928.585	4687
928.69	4710
928.796	4828
928.901	4698
929.007	4596
929.112	4694
929.218	4679
929.323	4622
929.428	4592
929.533	4698
929.638	4531
929.743	4584
929.848	4538
929.953	4554
930.058	4436
930.163	4310
930.267	4333
930.372	4394
930.477	4329
930.581	4504
930.685	4375
930.79	4257
930.894	4344
930.998	4272
931.103	4421
931.207	4116
931.311	4097
931.415	4051
931.519	3911
931.623	3941
