Data from glass_V78500241_1745.txt Node
Date: Wed Sep 01 19:26:35 CST 2021
User: usil
Spectrometer: V785-0024
Trigger mode: 0
Integration Time (sec): 4.000000E-1
Scans to average: 1
Nonlinearity correction enabled: false
Boxcar width: 0
Storing dark spectrum: false
XAxis mode: Wavelengths
Number of Pixels in Spectrum: 1024
>>>>>Begin Spectral Data<<<<<
801.071	3755
801.214	3747
801.356	3694
801.499	3762
801.641	3740
801.783	3759
801.926	3819
802.068	3838
802.211	3861
802.353	3899
802.496	3850
802.638	3869
802.78	3903
802.923	3918
803.065	3880
803.208	3854
803.35	3854
803.492	3934
803.635	3907
803.777	3823
803.919	3903
804.061	4192
804.204	4013
804.346	3968
804.488	3907
804.63	4071
804.773	3953
804.915	4067
805.057	4131
805.199	4074
805.341	4131
805.483	4166
805.626	4116
805.768	4105
805.91	4215
806.052	4192
806.194	4211
806.336	4318
806.478	4188
806.62	4158
806.762	4166
806.904	4230
807.046	4333
807.188	4200
807.33	4188
807.472	4234
807.614	4219
807.756	4265
807.898	4211
808.04	4192
808.182	4284
808.324	4272
808.465	4386
808.607	4470
808.749	4451
808.891	4413
809.033	4519
809.174	4383
809.316	4261
809.458	4261
809.6	4177
809.741	4093
809.883	4158
810.025	4238
810.166	4246
810.308	4207
810.45	4246
810.591	4249
810.733	4299
810.875	4519
811.016	4862
811.158	5151
811.299	5269
811.441	5273
811.582	5090
811.724	4763
811.865	4443
812.007	4474
812.148	4436
812.29	4413
812.431	4413
812.573	4405
812.714	4421
812.855	4451
812.997	4394
813.138	4470
813.279	4409
813.421	4436
813.562	4348
813.703	4295
813.845	4310
813.986	4227
814.127	4173
814.268	4265
814.41	4268
814.551	4257
814.692	4352
814.833	4284
814.974	4299
815.115	4318
815.256	4284
815.397	4234
815.539	4257
815.68	4219
815.821	4192
815.962	4287
816.103	4280
816.244	4276
816.385	4242
816.526	4265
816.666	4173
816.807	4093
816.948	4200
817.089	4181
817.23	4105
817.371	4071
817.512	4040
817.653	4093
817.793	3991
817.934	4021
818.075	4067
818.216	4082
818.356	4093
818.497	4010
818.638	3956
818.778	3922
818.919	3861
819.06	3903
819.2	3918
819.341	3888
819.481	3812
819.622	3915
819.762	4013
819.903	3953
820.043	3854
820.184	3831
820.324	3770
820.465	3876
820.605	3861
820.746	3892
820.886	3785
821.026	3896
821.167	3911
821.307	4006
821.447	3934
821.588	3949
821.728	3953
821.868	3865
822.008	3869
822.149	3922
822.289	3899
822.429	3800
822.569	3778
822.709	3819
822.849	3682
822.99	3717
823.13	3709
823.27	3800
823.41	3720
823.55	3751
823.69	3671
823.83	3755
823.97	3690
824.11	3637
824.25	3599
824.389	3656
824.529	3633
824.669	3652
824.809	3701
824.949	3724
825.089	3759
825.228	3675
825.368	3580
825.508	3530
825.648	3530
825.787	3603
825.927	3618
826.067	3625
826.206	3660
826.346	3770
826.485	3812
826.625	3873
826.765	3934
826.904	3835
827.044	3576
827.183	3515
827.323	3412
827.462	3454
827.601	3458
827.741	3435
827.88	3420
828.02	3367
828.159	3439
828.298	3469
828.437	3507
828.577	3462
828.716	3595
828.855	3507
828.994	3382
829.134	3378
829.273	3405
829.412	3336
829.551	3348
829.69	3329
829.829	3439
829.968	3526
830.107	3450
830.246	3435
830.385	3397
830.524	3340
830.663	3336
830.802	3272
830.941	3230
831.08	3192
831.219	3275
831.357	3260
831.496	3439
831.635	3241
831.774	3195
831.913	3188
832.051	3108
832.19	3165
832.329	3146
832.467	3135
832.606	3127
832.744	3157
832.883	3230
833.022	3154
833.16	3272
833.299	3287
833.437	3389
833.576	3370
833.714	3412
833.852	3435
833.991	3447
834.129	3485
834.267	3450
834.406	3382
834.544	3409
834.682	3412
834.821	3393
834.959	3557
835.097	3428
835.235	3549
835.373	3507
835.511	3530
835.65	3466
835.788	3473
835.926	3393
836.064	3401
836.202	3420
836.34	3542
836.478	3610
836.615	3530
836.753	3576
836.891	3637
837.029	3644
837.167	3572
837.305	3591
837.443	3564
837.58	3466
837.718	3614
837.856	3545
837.993	3538
838.131	3587
838.269	3549
838.406	3564
838.544	3614
838.681	3477
838.819	3485
838.956	3370
839.094	3386
839.231	3435
839.369	3538
839.506	3705
839.643	3637
839.781	3515
839.918	3462
840.055	3530
840.193	3553
840.33	3545
840.467	3561
840.604	3606
840.742	3819
840.879	3542
841.016	3549
841.153	3603
841.29	3743
841.427	3728
841.564	3717
841.701	3743
841.838	3717
841.975	3679
842.112	3698
842.249	3625
842.385	3641
842.522	3808
842.659	3694
842.796	3679
842.933	3717
843.069	3717
843.206	3675
843.343	3793
843.479	3766
843.616	3812
843.752	3694
843.889	3675
844.025	3880
844.162	3705
844.298	3823
844.435	3831
844.571	3781
844.708	3918
844.844	3915
844.98	3949
845.117	4002
845.253	3918
845.389	3911
845.525	4010
845.661	3949
845.798	3934
845.934	3949
846.07	3949
846.206	4025
846.342	4086
846.478	4025
846.614	3956
846.75	3972
846.886	3949
847.022	4029
847.158	4010
847.294	3994
847.429	4029
847.565	4013
847.701	4265
847.837	3911
847.972	3884
848.108	3994
848.244	3953
848.379	3865
848.515	3819
848.65	3831
848.786	3842
848.921	3857
849.057	3934
849.192	3934
849.328	3953
849.463	3949
849.598	3884
849.734	3827
849.869	3854
850.004	3781
850.14	3789
850.275	3793
850.41	3770
850.545	3724
850.68	3789
850.815	3831
850.95	3789
851.085	3998
851.22	3888
851.355	3812
851.49	3808
851.625	3808
851.76	3766
851.895	3762
852.03	3717
852.165	3747
852.299	3888
852.434	3945
852.569	3861
852.703	3869
852.838	3884
852.973	4010
853.107	3987
853.242	3903
853.376	3838
853.511	3781
853.645	3827
853.78	4013
853.914	3934
854.048	3892
854.183	3842
854.317	3964
854.451	4059
854.585	3945
854.72	3979
854.854	4063
854.988	3922
855.122	3994
855.256	3907
855.39	4025
855.524	4150
855.658	4071
855.792	4074
855.926	4131
856.06	4181
856.194	4268
856.327	4128
856.461	4105
856.595	4147
856.729	4188
856.862	4272
856.996	4265
857.13	4284
857.263	4341
857.397	4352
857.53	4291
857.664	4352
857.797	4375
857.931	4432
858.064	4413
858.197	4455
858.331	4386
858.464	4394
858.597	4341
858.731	4443
858.864	4451
858.997	4428
859.13	4508
859.263	4558
859.396	4577
859.529	4523
859.662	4497
859.795	4569
859.928	4607
860.061	4706
860.194	4714
860.327	4675
860.46	4698
860.592	4710
860.725	4733
860.858	4774
860.99	4740
861.123	4664
861.256	4664
861.388	4774
861.521	5414
861.653	4755
861.786	4675
861.918	4736
862.05	4797
862.183	4847
862.315	4870
862.447	4866
862.58	4885
862.712	4812
862.844	4778
862.976	4904
863.108	4866
863.24	5197
863.372	4831
863.504	4911
863.636	4915
863.768	4957
863.9	4972
864.032	4957
864.164	4980
864.296	4995
864.428	5067
864.559	5090
864.691	5117
864.823	5117
864.954	5098
865.086	5132
865.217	5098
865.349	5064
865.48	5143
865.612	5166
865.743	5269
865.875	5227
866.006	5166
866.137	5254
866.269	5269
866.4	5254
866.531	5227
866.662	5265
866.793	5235
866.924	5277
867.055	5364
867.186	5334
867.317	5311
867.448	5258
867.579	5395
867.71	5353
867.841	5337
867.972	5448
868.103	5490
868.233	5490
868.364	5558
868.495	5497
868.625	5630
868.756	5760
868.886	5684
869.017	5707
869.147	5828
869.278	5882
869.408	5794
869.539	5844
869.669	5923
869.799	5863
869.929	5954
870.06	5965
870.19	6201
870.32	6163
870.45	6266
870.58	6372
870.71	6429
870.84	6445
870.97	6471
871.1	6544
871.23	6597
871.36	6654
871.489	6662
871.619	6711
871.749	6848
871.879	6837
872.008	7004
872.138	6947
872.267	7053
872.397	6935
872.526	7053
872.656	7114
872.785	7187
872.915	7381
873.044	7483
873.173	7514
873.303	7666
873.432	7761
873.561	7845
873.69	7906
873.819	8008
873.948	8134
874.077	8279
874.206	8320
874.335	8438
874.464	8701
874.593	8853
874.722	8998
874.851	9138
874.979	9180
875.108	9367
875.237	9526
875.365	9488
875.494	9610
875.623	9835
875.751	9816
875.88	9994
876.008	10109
876.136	10253
876.265	10565
876.393	10694
876.521	10778
876.65	10763
876.778	10820
876.906	10896
877.034	11041
877.162	11086
877.29	11090
877.418	11235
877.546	11379
877.674	11471
877.802	11505
877.93	11547
878.058	11520
878.185	11471
878.313	11558
878.441	11847
878.568	11608
878.696	11821
878.824	11855
878.951	11901
879.079	12091
879.206	12106
879.333	12003
879.461	11942
879.588	12091
879.715	12129
879.842	12258
879.97	12106
880.097	11931
880.224	11961
880.351	11920
880.478	11843
880.605	11866
880.732	11748
880.859	11980
880.986	11828
881.112	11878
881.239	11562
881.366	11577
881.493	11668
881.619	11566
881.746	11528
881.872	11532
881.999	11532
882.125	11497
882.252	11505
882.378	11490
882.505	11642
882.631	11337
882.757	11322
882.883	11311
883.01	11258
883.136	11166
883.262	11010
883.388	11071
883.514	11113
883.64	11258
883.766	11124
883.892	11064
884.018	11090
884.143	11098
884.269	11155
884.395	10908
884.52	10717
884.646	10778
884.772	10736
884.897	10694
885.023	10683
885.148	10771
885.274	10774
885.399	10672
885.524	10683
885.65	10573
885.775	10561
885.9	10546
886.025	10649
886.15	10516
886.275	10478
886.4	10432
886.525	10470
886.65	10363
886.775	10363
886.9	10478
887.025	10485
887.149	10291
887.274	10299
887.399	10223
887.523	10207
887.648	10169
887.773	10120
887.897	10200
888.021	10196
888.146	10124
888.27	10215
888.395	10173
888.519	10211
888.643	10207
888.767	10238
888.891	10101
889.015	9960
889.139	10059
889.263	10006
889.387	10086
889.511	10112
889.635	10025
889.759	9956
889.883	9975
890.006	9972
890.13	10059
890.254	9949
890.377	10025
890.501	9827
890.624	9835
890.748	9880
890.871	9808
890.995	9705
891.118	9690
891.241	9808
891.364	9701
891.488	9842
891.611	9717
891.734	9793
891.857	9755
891.98	9755
892.103	9755
892.226	9759
892.349	9682
892.471	9534
892.594	9614
892.717	9584
892.839	9603
892.962	9637
893.085	9644
893.207	9572
893.33	9485
893.452	9538
893.575	9614
893.697	9542
893.819	9587
893.941	9603
894.064	9580
894.186	9488
894.308	9397
894.43	9530
894.552	9606
894.674	9584
894.796	9450
894.918	9370
895.04	9420
895.161	9306
895.283	9325
895.405	9245
895.526	9218
895.648	9211
895.769	9241
895.891	9325
896.012	9256
896.134	9180
896.255	9226
896.376	9112
896.498	9199
896.619	9142
896.74	9028
896.861	9127
896.982	9245
897.103	9245
897.224	9211
897.345	9127
897.466	8914
897.587	9020
897.708	9062
897.828	8994
897.949	8975
898.07	8857
898.19	8868
898.311	9058
898.431	8872
898.552	8941
898.672	8982
898.792	9024
898.913	8895
899.033	8792
899.153	8769
899.273	8659
899.393	8708
899.513	8701
899.633	8686
899.753	8697
899.873	8674
899.993	8727
900.113	8674
900.232	8750
900.352	8659
900.472	8598
900.591	8522
900.711	8587
900.83	8507
900.95	8720
901.069	8697
901.189	8507
901.308	8362
901.427	8427
901.546	8427
901.665	8450
901.784	8434
901.904	8370
902.023	8305
902.141	8233
902.26	8199
902.379	8332
902.498	8214
902.617	8252
902.735	8324
902.854	8301
902.973	8248
903.091	8115
903.21	8134
903.328	8123
903.446	8069
903.565	8058
903.683	8100
903.801	8024
903.919	8172
904.038	8092
904.156	7982
904.274	8103
904.392	7967
904.51	8046
904.627	8096
904.745	8111
904.863	8119
904.981	7963
905.098	7860
905.216	7849
905.334	7890
905.451	7902
905.569	7822
905.686	7982
905.803	7944
905.921	7807
906.038	7826
906.155	7795
906.272	7731
906.389	7715
906.506	7658
906.623	7624
906.74	7647
906.857	7533
906.974	7548
907.091	7753
907.208	7624
907.324	7624
907.441	7518
907.557	7453
907.674	7392
907.79	7396
907.907	7422
908.023	7430
908.139	7377
908.256	7377
908.372	7373
908.488	7396
908.604	7274
908.72	7259
908.836	7297
908.952	7221
909.068	7274
909.184	7232
909.3	7247
909.415	7346
909.531	7282
909.647	7171
909.762	7152
909.878	7076
909.993	7175
910.108	7129
910.224	7042
910.339	7114
910.454	7103
910.57	6966
910.685	6973
910.8	7171
910.915	7160
911.03	7019
911.145	6901
911.259	6848
911.374	6890
911.489	6840
911.604	6818
911.718	6749
911.833	6776
911.947	6597
912.062	6589
912.176	6669
912.291	6745
912.405	6715
912.519	6905
912.633	6821
912.748	6726
912.862	6707
912.976	6620
913.09	6521
913.204	6612
913.318	6585
913.431	6696
913.545	6623
913.659	6715
913.772	6585
913.886	6597
914	6616
914.113	6604
914.226	6604
914.34	6631
914.453	6441
914.566	6608
914.68	6521
914.793	6471
914.906	6437
915.019	6418
915.132	6353
915.245	6471
915.358	6437
915.47	6471
915.583	6403
915.696	6490
915.809	6525
915.921	6585
916.034	6399
916.146	6376
916.259	6407
916.371	6456
916.483	6441
916.595	6372
916.708	6395
916.82	6331
916.932	6399
917.044	6452
917.156	6414
917.268	6277
917.38	6319
917.491	6300
917.603	6323
917.715	6437
917.826	6433
917.938	6304
918.049	6273
918.161	6311
918.272	6448
918.384	6467
918.495	6365
918.606	6308
918.717	6205
918.828	6296
918.939	6277
919.05	6216
919.161	6235
919.272	6087
919.383	6152
919.494	6342
919.604	6346
919.715	6304
919.826	6190
919.936	6292
920.047	6323
920.157	6201
920.267	6445
920.378	6308
920.488	6315
920.598	6445
920.708	6536
920.818	6437
920.928	6452
921.038	6642
921.148	6559
921.258	6365
921.368	6243
921.477	6224
921.587	6167
921.697	6087
921.806	6144
921.916	6030
922.025	5931
922.134	5901
922.244	5897
922.353	5923
922.462	5809
922.571	5821
922.68	5699
922.789	5665
922.898	5714
923.007	5577
923.116	5710
923.224	5661
923.333	5684
923.442	5570
923.55	5577
923.659	5554
923.767	5600
923.876	5547
923.984	5661
924.092	5482
924.201	5539
924.309	5551
924.417	5516
924.525	5554
924.633	5497
924.741	6342
924.849	5368
924.956	5532
925.064	5303
925.172	5334
925.279	5284
925.387	5296
925.494	5368
925.602	5364
925.709	5341
925.816	5261
925.924	5322
926.031	5311
926.138	5315
926.245	5322
926.352	5250
926.459	5273
926.566	5334
926.673	5197
926.779	5147
926.886	5102
926.993	5060
927.099	5025
927.206	4965
927.312	4965
927.419	4984
927.525	4934
927.631	4980
927.737	4850
927.843	4889
927.95	4771
928.056	4824
928.162	4820
928.267	4870
928.373	5334
928.479	4824
928.585	4660
928.69	4752
928.796	4744
928.901	4683
929.007	4573
929.112	4675
929.218	4675
929.323	4588
929.428	4561
929.533	4649
929.638	4523
929.743	4546
929.848	4584
929.953	4569
930.058	4421
930.163	4363
930.267	4344
930.372	4363
930.477	4303
930.581	4470
930.685	4341
930.79	4253
930.894	4344
930.998	4246
931.103	4383
931.207	4093
931.311	4051
931.415	4036
931.519	3911
931.623	3915
