Data from glass_V78500241_2547.txt Node
Date: Wed Sep 01 19:32:09 CST 2021
User: usil
Spectrometer: V785-0024
Trigger mode: 0
Integration Time (sec): 4.000000E-1
Scans to average: 1
Nonlinearity correction enabled: false
Boxcar width: 0
Storing dark spectrum: false
XAxis mode: Wavelengths
Number of Pixels in Spectrum: 1024
>>>>>Begin Spectral Data<<<<<
801.071	3709
801.214	3701
801.356	3717
801.499	3743
801.641	3728
801.783	3747
801.926	3846
802.068	3797
802.211	3880
802.353	3869
802.496	3823
802.638	3819
802.78	3884
802.923	3911
803.065	3968
803.208	3827
803.35	3857
803.492	3915
803.635	3899
803.777	3793
803.919	3918
804.061	4116
804.204	3975
804.346	3930
804.488	3964
804.63	4036
804.773	3941
804.915	4040
805.057	4128
805.199	4036
805.341	4093
805.483	4071
805.626	4139
805.768	4105
805.91	4196
806.052	4223
806.194	4185
806.336	4337
806.478	4173
806.62	4150
806.762	4200
806.904	4253
807.046	4303
807.188	4230
807.33	4162
807.472	4261
807.614	4177
807.756	4227
807.898	4234
808.04	4188
808.182	4276
808.324	4276
808.465	4360
808.607	4383
808.749	4474
808.891	4470
809.033	4466
809.174	4394
809.316	4242
809.458	4249
809.6	4188
809.741	4131
809.883	4154
810.025	4261
810.166	4204
810.308	4215
810.45	4227
810.591	4246
810.733	4287
810.875	4489
811.016	4812
811.158	5094
811.299	5258
811.441	5284
811.582	5048
811.724	4710
811.865	4459
812.007	4428
812.148	4413
812.29	4402
812.431	4390
812.573	4421
812.714	4363
812.855	4459
812.997	4394
813.138	4462
813.279	4398
813.421	4436
813.562	4341
813.703	4394
813.845	4337
813.986	4211
814.127	4204
814.268	4272
814.41	4291
814.551	4227
814.692	4280
814.833	4242
814.974	4257
815.115	4329
815.256	4257
815.397	4207
815.539	4265
815.68	4185
815.821	4207
815.962	4325
816.103	4215
816.244	4211
816.385	4204
816.526	4249
816.666	4185
816.807	4101
816.948	4177
817.089	4162
817.23	4097
817.371	4029
817.512	4036
817.653	4017
817.793	4059
817.934	4017
818.075	4055
818.216	4093
818.356	4071
818.497	3994
818.638	3930
818.778	3903
818.919	3903
819.06	3861
819.2	3907
819.341	3861
819.481	3804
819.622	3903
819.762	4002
819.903	3949
820.043	3819
820.184	3812
820.324	3778
820.465	3873
820.605	3888
820.746	3876
820.886	3766
821.026	3922
821.167	3892
821.307	3945
821.447	3941
821.588	3941
821.728	3983
821.868	3884
822.008	3846
822.149	3915
822.289	3869
822.429	3778
822.569	3770
822.709	3808
822.849	3679
822.99	3618
823.13	3705
823.27	3743
823.41	3698
823.55	3652
823.69	3694
823.83	3720
823.97	3644
824.11	3618
824.25	3568
824.389	3644
824.529	3652
824.669	3633
824.809	3751
824.949	3743
825.089	3743
825.228	3679
825.368	3572
825.508	3530
825.648	3568
825.787	3599
825.927	3660
826.067	3629
826.206	3652
826.346	3694
826.485	3827
826.625	3850
826.765	3945
826.904	3827
827.044	3637
827.183	3500
827.323	3401
827.462	3447
827.601	3462
827.741	3424
827.88	3450
828.02	3374
828.159	3416
828.298	3504
828.437	3477
828.577	3466
828.716	3580
828.855	3500
828.994	3386
829.134	3374
829.273	3420
829.412	3389
829.551	3348
829.69	3340
829.829	3428
829.968	3496
830.107	3409
830.246	3405
830.385	3389
830.524	3313
830.663	3310
830.802	3226
830.941	3195
831.08	3195
831.219	3253
831.357	3268
831.496	3370
831.635	3214
831.774	3188
831.913	3199
832.051	3127
832.19	3161
832.329	3207
832.467	3157
832.606	3108
832.744	3169
832.883	3173
833.022	3157
833.16	3291
833.299	3279
833.437	3344
833.576	3355
833.714	3409
833.852	3420
833.991	3435
834.129	3469
834.267	3409
834.406	3409
834.544	3386
834.682	3428
834.821	3401
834.959	3561
835.097	3416
835.235	3504
835.373	3473
835.511	3500
835.65	3435
835.788	3507
835.926	3374
836.064	3409
836.202	3405
836.34	3561
836.478	3568
836.615	3523
836.753	3584
836.891	3633
837.029	3606
837.167	3572
837.305	3549
837.443	3500
837.58	3469
837.718	3595
837.856	3572
837.993	3507
838.131	3576
838.269	3557
838.406	3538
838.544	3564
838.681	3439
838.819	3477
838.956	3367
839.094	3397
839.231	3412
839.369	3523
839.506	3724
839.643	3606
839.781	3488
839.918	3435
840.055	3511
840.193	3500
840.33	3488
840.467	3568
840.604	3568
840.742	3797
840.879	3530
841.016	3549
841.153	3633
841.29	3724
841.427	3728
841.564	3728
841.701	3724
841.838	3690
841.975	3713
842.112	3720
842.249	3622
842.385	3561
842.522	3800
842.659	3671
842.796	3656
842.933	3690
843.069	3690
843.206	3720
843.343	3804
843.479	3759
843.616	3827
843.752	3637
843.889	3675
844.025	3808
844.162	3736
844.298	3823
844.435	3770
844.571	3774
844.708	3918
844.844	3964
844.98	4059
845.117	3960
845.253	3979
845.389	3838
845.525	3972
845.661	3964
845.798	3922
845.934	3998
846.07	3949
846.206	3964
846.342	4078
846.478	4048
846.614	3998
846.75	3922
846.886	3865
847.022	3994
847.158	3979
847.294	3979
847.429	4002
847.565	3968
847.701	4238
847.837	3888
847.972	3857
848.108	3968
848.244	3941
848.379	3854
848.515	3785
848.65	3831
848.786	3819
848.921	3835
849.057	3915
849.192	3915
849.328	3896
849.463	3854
849.598	3884
849.734	3888
849.869	3835
850.004	3781
850.14	3762
850.275	3781
850.41	3740
850.545	3740
850.68	3759
850.815	3793
850.95	3823
851.085	3934
851.22	3846
851.355	3812
851.49	3785
851.625	3762
851.76	3736
851.895	3717
852.03	3755
852.165	3778
852.299	3869
852.434	3926
852.569	3827
852.703	3876
852.838	3922
852.973	3987
853.107	3991
853.242	3861
853.376	3846
853.511	3785
853.645	3793
853.78	3972
853.914	3922
854.048	3896
854.183	3937
854.317	3896
854.451	4086
854.585	3956
854.72	3926
854.854	4040
854.988	3926
855.122	3983
855.256	3896
855.39	4017
855.524	4078
855.658	4105
855.792	4071
855.926	4090
856.06	4169
856.194	4158
856.327	4158
856.461	4143
856.595	4139
856.729	4143
856.862	4246
856.996	4207
857.13	4295
857.263	4314
857.397	4295
857.53	4276
857.664	4310
857.797	4402
857.931	4409
858.064	4356
858.197	4440
858.331	4375
858.464	4333
858.597	4314
858.731	4413
858.864	4417
858.997	4424
859.13	4462
859.263	4527
859.396	4538
859.529	4478
859.662	4519
859.795	4554
859.928	4580
860.061	4687
860.194	4714
860.327	4675
860.46	4634
860.592	4767
860.725	4771
860.858	4831
860.99	4698
861.123	4630
861.256	4698
861.388	4748
861.521	5398
861.653	4752
861.786	4721
861.918	4717
862.05	4809
862.183	4828
862.315	4889
862.447	4915
862.58	4850
862.712	4812
862.844	4748
862.976	4854
863.108	4835
863.24	5204
863.372	4812
863.504	4839
863.636	4877
863.768	4995
863.9	5014
864.032	4866
864.164	4953
864.296	5006
864.428	5105
864.559	5098
864.691	5105
864.823	5151
864.954	5124
865.086	5136
865.217	5109
865.349	5140
865.48	5136
865.612	5193
865.743	5239
865.875	5212
866.006	5147
866.137	5231
866.269	5258
866.4	5223
866.531	5223
866.662	5231
866.793	5269
866.924	5307
867.055	5337
867.186	5360
867.317	5349
867.448	5307
867.579	5383
867.71	5379
867.841	5364
867.972	5471
868.103	5497
868.233	5455
868.364	5524
868.495	5535
868.625	5657
868.756	5760
868.886	5630
869.017	5714
869.147	5836
869.278	5844
869.408	5809
869.539	5779
869.669	5916
869.799	5923
869.929	5999
870.06	6060
870.19	6194
870.32	6213
870.45	6232
870.58	6319
870.71	6403
870.84	6464
870.97	6433
871.1	6414
871.23	6623
871.36	6688
871.489	6700
871.619	6696
871.749	6798
871.879	6829
872.008	7038
872.138	6966
872.267	6985
872.397	7012
872.526	6973
872.656	7114
872.785	7190
872.915	7403
873.044	7438
873.173	7567
873.303	7605
873.432	7708
873.561	7890
873.69	7890
873.819	8035
873.948	8149
874.077	8218
874.206	8347
874.335	8370
874.464	8629
874.593	8857
874.722	8937
874.851	9135
874.979	9214
875.108	9367
875.237	9473
875.365	9477
875.494	9667
875.623	9778
875.751	9785
875.88	10074
876.008	10128
876.136	10333
876.265	10459
876.393	10649
876.521	10733
876.65	10839
876.778	10759
876.906	10927
877.034	11014
877.162	11113
877.29	11052
877.418	11261
877.546	11299
877.674	11429
877.802	11448
877.93	11577
878.058	11547
878.185	11562
878.313	11661
878.441	11764
878.568	11695
878.696	11771
878.824	11783
878.951	11893
879.079	12041
879.206	12106
879.333	12034
879.461	11920
879.588	12133
879.715	12083
879.842	12213
879.97	12026
880.097	11771
880.224	11863
880.351	11969
880.478	11901
880.605	11843
880.732	11897
880.859	12041
880.986	11786
881.112	11786
881.239	11653
881.366	11619
881.493	11627
881.619	11444
881.746	11490
881.872	11558
881.999	11455
882.125	11497
882.252	11581
882.378	11474
882.505	11604
882.631	11379
882.757	11311
882.883	11368
883.01	11220
883.136	11140
883.262	11159
883.388	11102
883.514	11170
883.64	11128
883.766	11121
883.892	11060
884.018	10953
884.143	11117
884.269	11090
884.395	10786
884.52	10786
884.646	10816
884.772	10736
884.897	10637
885.023	10706
885.148	10744
885.274	10729
885.399	10721
885.524	10679
885.65	10565
885.775	10527
885.9	10596
886.025	10599
886.15	10588
886.275	10447
886.4	10356
886.525	10405
886.65	10280
886.775	10318
886.9	10447
887.025	10474
887.149	10333
887.274	10261
887.399	10211
887.523	10147
887.648	10112
887.773	10261
887.897	10291
888.021	10238
888.146	10173
888.27	10219
888.395	10211
888.519	10158
888.643	10207
888.767	10246
888.891	10002
889.015	10051
889.139	10071
889.263	9960
889.387	10109
889.511	10086
889.635	10071
889.759	9987
889.883	9945
890.006	9907
890.13	10055
890.254	9873
890.377	9915
890.501	9838
890.624	9835
890.748	9949
890.871	9762
890.995	9724
891.118	9690
891.241	9823
891.364	9736
891.488	9880
891.611	9698
891.734	9740
891.857	9618
891.98	9682
892.103	9812
892.226	9690
892.349	9675
892.471	9515
892.594	9564
892.717	9679
892.839	9572
892.962	9679
893.085	9644
893.207	9587
893.33	9526
893.452	9564
893.575	9523
893.697	9568
893.819	9603
893.941	9599
894.064	9606
894.186	9428
894.308	9340
894.43	9561
894.552	9603
894.674	9496
894.796	9386
894.918	9344
895.04	9401
895.161	9367
895.283	9340
895.405	9184
895.526	9211
895.648	9211
895.769	9249
895.891	9241
896.012	9283
896.134	9222
896.255	9188
896.376	9062
896.498	9157
896.619	9100
896.74	9093
896.861	9097
896.982	9268
897.103	9351
897.224	9066
897.345	9070
897.466	8979
897.587	9024
897.708	9097
897.828	9036
897.949	8925
898.07	8910
898.19	8868
898.311	8990
898.431	8857
898.552	8933
898.672	8994
898.792	9009
898.913	8830
899.033	8823
899.153	8693
899.273	8697
899.393	8716
899.513	8777
899.633	8746
899.753	8766
899.873	8727
899.993	8678
900.113	8663
900.232	8606
900.352	8598
900.472	8606
900.591	8511
900.711	8640
900.83	8473
900.95	8594
901.069	8735
901.189	8560
901.308	8438
901.427	8347
901.546	8484
901.665	8503
901.784	8564
901.904	8385
902.023	8298
902.141	8210
902.26	8134
902.379	8301
902.498	8252
902.617	8271
902.735	8286
902.854	8263
902.973	8301
903.091	8107
903.21	8126
903.328	8142
903.446	8092
903.565	8065
903.683	8126
903.801	8062
903.919	8111
904.038	8180
904.156	8016
904.274	8157
904.392	7978
904.51	8092
904.627	8039
904.745	8103
904.863	8130
904.981	7955
905.098	7845
905.216	7909
905.334	7860
905.451	7871
905.569	7906
905.686	7860
905.803	7936
905.921	7807
906.038	7879
906.155	7776
906.272	7769
906.389	7715
906.506	7609
906.623	7624
906.74	7529
906.857	7521
906.974	7647
907.091	7681
907.208	7689
907.324	7586
907.441	7590
907.557	7540
907.674	7441
907.79	7377
907.907	7460
908.023	7400
908.139	7434
908.256	7381
908.372	7297
908.488	7377
908.604	7232
908.72	7247
908.836	7232
908.952	7308
909.068	7312
909.184	7259
909.3	7198
909.415	7278
909.531	7316
909.647	7023
909.762	7080
909.878	7065
909.993	7072
910.108	7061
910.224	7129
910.339	7110
910.454	7057
910.57	7015
910.685	6909
910.8	7137
910.915	7080
911.03	6905
911.145	6871
911.259	6875
911.374	6920
911.489	6818
911.604	6791
911.718	6745
911.833	6726
911.947	6631
912.062	6597
912.176	6669
912.291	6696
912.405	6749
912.519	6821
912.633	6795
912.748	6700
912.862	6669
912.976	6642
913.09	6559
913.204	6517
913.318	6570
913.431	6662
913.545	6700
913.659	6772
913.772	6673
913.886	6544
914	6639
914.113	6623
914.226	6627
914.34	6604
914.453	6475
914.566	6608
914.68	6513
914.793	6483
914.906	6407
915.019	6384
915.132	6395
915.245	6395
915.358	6407
915.47	6452
915.583	6467
915.696	6483
915.809	6502
915.921	6536
916.034	6433
916.146	6407
916.259	6380
916.371	6437
916.483	6437
916.595	6338
916.708	6399
916.82	6380
916.932	6350
917.044	6388
917.156	6365
917.268	6292
917.38	6319
917.491	6361
917.603	6353
917.715	6361
917.826	6384
917.938	6323
918.049	6194
918.161	6353
918.272	6391
918.384	6407
918.495	6331
918.606	6228
918.717	6220
918.828	6266
918.939	6289
919.05	6224
919.161	6300
919.272	6106
919.383	6114
919.494	6285
919.604	6486
919.715	6277
919.826	6247
919.936	6254
920.047	6369
920.157	6270
920.267	6410
920.378	6289
920.488	6254
920.598	6467
920.708	6506
920.818	6471
920.928	6452
921.038	6582
921.148	6563
921.258	6273
921.368	6273
921.477	6186
921.587	6209
921.697	6072
921.806	6117
921.916	6076
922.025	5939
922.134	5889
922.244	5885
922.353	5961
922.462	5870
922.571	5840
922.68	5733
922.789	5680
922.898	5668
923.007	5668
923.116	5752
923.224	5680
923.333	5691
923.442	5615
923.55	5562
923.659	5592
923.767	5585
923.876	5543
923.984	5558
924.092	5505
924.201	5493
924.309	5547
924.417	5512
924.525	5471
924.633	5436
924.741	6247
924.849	5372
924.956	5524
925.064	5353
925.172	5288
925.279	5318
925.387	5383
925.494	5292
925.602	5364
925.709	5414
925.816	5258
925.924	5273
926.031	5433
926.138	5296
926.245	5349
926.352	5235
926.459	5330
926.566	5349
926.673	5170
926.779	5147
926.886	5098
926.993	5014
927.099	5037
927.206	4965
927.312	4938
927.419	4984
927.525	4927
927.631	4980
927.737	4870
927.843	4839
927.95	4755
928.056	4793
928.162	4831
928.267	4820
928.373	5212
928.479	4854
928.585	4660
928.69	4786
928.796	4771
928.901	4664
929.007	4607
929.112	4649
929.218	4611
929.323	4561
929.428	4535
929.533	4691
929.638	4466
929.743	4500
929.848	4554
929.953	4485
930.058	4466
930.163	4318
930.267	4341
930.372	4371
930.477	4268
930.581	4428
930.685	4310
930.79	4230
930.894	4272
930.998	4230
931.103	4356
931.207	4128
931.311	4105
931.415	4059
931.519	3926
931.623	3930
