Data from glass_V78500241_1689.txt Node
Date: Wed Sep 01 19:26:12 CST 2021
User: usil
Spectrometer: V785-0024
Trigger mode: 0
Integration Time (sec): 4.000000E-1
Scans to average: 1
Nonlinearity correction enabled: false
Boxcar width: 0
Storing dark spectrum: false
XAxis mode: Wavelengths
Number of Pixels in Spectrum: 1024
>>>>>Begin Spectral Data<<<<<
801.071	3747
801.214	3732
801.356	3720
801.499	3682
801.641	3694
801.783	3751
801.926	3854
802.068	3850
802.211	3865
802.353	3861
802.496	3854
802.638	3896
802.78	3915
802.923	3930
803.065	3956
803.208	3823
803.35	3869
803.492	3907
803.635	3922
803.777	3766
803.919	3876
804.061	4139
804.204	3956
804.346	3934
804.488	3896
804.63	4032
804.773	4002
804.915	4032
805.057	4135
805.199	4055
805.341	4040
805.483	4131
805.626	4101
805.768	4135
805.91	4177
806.052	4242
806.194	4280
806.336	4299
806.478	4185
806.62	4204
806.762	4192
806.904	4291
807.046	4329
807.188	4215
807.33	4169
807.472	4230
807.614	4211
807.756	4253
807.898	4227
808.04	4230
808.182	4299
808.324	4325
808.465	4413
808.607	4455
808.749	4440
808.891	4489
809.033	4508
809.174	4337
809.316	4280
809.458	4272
809.6	4192
809.741	4162
809.883	4139
810.025	4200
810.166	4215
810.308	4223
810.45	4234
810.591	4249
810.733	4265
810.875	4504
811.016	4805
811.158	5086
811.299	5261
811.441	5299
811.582	5079
811.724	4748
811.865	4474
812.007	4462
812.148	4405
812.29	4424
812.431	4421
812.573	4432
812.714	4402
812.855	4394
812.997	4424
813.138	4512
813.279	4417
813.421	4409
813.562	4367
813.703	4310
813.845	4348
813.986	4223
814.127	4261
814.268	4314
814.41	4276
814.551	4249
814.692	4306
814.833	4257
814.974	4322
815.115	4379
815.256	4249
815.397	4253
815.539	4223
815.68	4154
815.821	4200
815.962	4337
816.103	4246
816.244	4227
816.385	4227
816.526	4291
816.666	4219
816.807	4082
816.948	4181
817.089	4158
817.23	4093
817.371	4059
817.512	4025
817.653	4051
817.793	4093
817.934	4048
818.075	4109
818.216	4055
818.356	4059
818.497	3975
818.638	3876
818.778	3884
818.919	3899
819.06	3857
819.2	3926
819.341	3854
819.481	3804
819.622	3876
819.762	4040
819.903	3987
820.043	3854
820.184	3797
820.324	3800
820.465	3892
820.605	3850
820.746	3854
820.886	3812
821.026	3930
821.167	3953
821.307	3987
821.447	3991
821.588	3968
821.728	3964
821.868	3892
822.008	3846
822.149	3911
822.289	3937
822.429	3789
822.569	3789
822.709	3812
822.849	3736
822.99	3709
823.13	3736
823.27	3797
823.41	3732
823.55	3755
823.69	3740
823.83	3740
823.97	3663
824.11	3625
824.25	3599
824.389	3667
824.529	3671
824.669	3652
824.809	3701
824.949	3743
825.089	3743
825.228	3698
825.368	3614
825.508	3568
825.648	3568
825.787	3610
825.927	3603
826.067	3625
826.206	3641
826.346	3778
826.485	3823
826.625	3876
826.765	3979
826.904	3850
827.044	3595
827.183	3568
827.323	3416
827.462	3523
827.601	3374
827.741	3435
827.88	3500
828.02	3378
828.159	3435
828.298	3469
828.437	3511
828.577	3469
828.716	3580
828.855	3488
828.994	3351
829.134	3332
829.273	3386
829.412	3359
829.551	3351
829.69	3351
829.829	3424
829.968	3530
830.107	3420
830.246	3428
830.385	3344
830.524	3378
830.663	3291
830.802	3237
830.941	3233
831.08	3211
831.219	3272
831.357	3260
831.496	3397
831.635	3222
831.774	3176
831.913	3241
832.051	3165
832.19	3169
832.329	3214
832.467	3142
832.606	3131
832.744	3165
832.883	3188
833.022	3188
833.16	3260
833.299	3294
833.437	3344
833.576	3363
833.714	3401
833.852	3443
833.991	3462
834.129	3492
834.267	3462
834.406	3405
834.544	3409
834.682	3450
834.821	3428
834.959	3557
835.097	3447
835.235	3500
835.373	3454
835.511	3523
835.65	3500
835.788	3439
835.926	3378
836.064	3370
836.202	3420
836.34	3553
836.478	3591
836.615	3553
836.753	3641
836.891	3652
837.029	3644
837.167	3580
837.305	3545
837.443	3542
837.58	3504
837.718	3603
837.856	3561
837.993	3561
838.131	3595
838.269	3561
838.406	3564
838.544	3606
838.681	3488
838.819	3435
838.956	3389
839.094	3412
839.231	3450
839.369	3511
839.506	3724
839.643	3584
839.781	3458
839.918	3473
840.055	3542
840.193	3553
840.33	3534
840.467	3591
840.604	3603
840.742	3770
840.879	3564
841.016	3568
841.153	3599
841.29	3713
841.427	3717
841.564	3709
841.701	3743
841.838	3679
841.975	3690
842.112	3774
842.249	3606
842.385	3599
842.522	3819
842.659	3728
842.796	3652
842.933	3724
843.069	3705
843.206	3701
843.343	3785
843.479	3759
843.616	3827
843.752	3671
843.889	3709
844.025	3854
844.162	3732
844.298	3850
844.435	3789
844.571	3838
844.708	3937
844.844	4036
844.98	4051
845.117	4010
845.253	3922
845.389	3899
845.525	3956
845.661	3956
845.798	3968
845.934	3987
846.07	3926
846.206	4067
846.342	4105
846.478	4032
846.614	3964
846.75	3964
846.886	3896
847.022	3979
847.158	4013
847.294	3968
847.429	3998
847.565	3994
847.701	4196
847.837	3896
847.972	3876
848.108	3987
848.244	4002
848.379	3850
848.515	3778
848.65	3793
848.786	3861
848.921	3880
849.057	3899
849.192	3975
849.328	3869
849.463	3918
849.598	3838
849.734	3884
849.869	3842
850.004	3804
850.14	3762
850.275	3789
850.41	3755
850.545	3762
850.68	3762
850.815	3766
850.95	3774
851.085	3941
851.22	3865
851.355	3778
851.49	3800
851.625	3785
851.76	3816
851.895	3759
852.03	3709
852.165	3804
852.299	3842
852.434	3888
852.569	3880
852.703	3865
852.838	3934
852.973	4013
853.107	4013
853.242	3880
853.376	3831
853.511	3774
853.645	3854
853.78	3972
853.914	3869
854.048	3838
854.183	3880
854.317	3949
854.451	4078
854.585	3934
854.72	3975
854.854	4010
854.988	3899
855.122	4036
855.256	3892
855.39	4006
855.524	4109
855.658	4105
855.792	4128
855.926	4124
856.06	4204
856.194	4162
856.327	4169
856.461	4147
856.595	4169
856.729	4215
856.862	4261
856.996	4200
857.13	4280
857.263	4322
857.397	4356
857.53	4291
857.664	4383
857.797	4409
857.931	4440
858.064	4394
858.197	4474
858.331	4436
858.464	4398
858.597	4314
858.731	4478
858.864	4405
858.997	4436
859.13	4523
859.263	4531
859.396	4603
859.529	4531
859.662	4508
859.795	4565
859.928	4577
860.061	4702
860.194	4714
860.327	4660
860.46	4599
860.592	4744
860.725	4778
860.858	4820
860.99	4691
861.123	4656
861.256	4691
861.388	4782
861.521	5433
861.653	4721
861.786	4744
861.918	4752
862.05	4790
862.183	4866
862.315	4896
862.447	4919
862.58	4843
862.712	4774
862.844	4801
862.976	4858
863.108	4858
863.24	5280
863.372	4854
863.504	4843
863.636	4934
863.768	4991
863.9	4984
864.032	4896
864.164	4896
864.296	5033
864.428	5094
864.559	5048
864.691	5113
864.823	5151
864.954	5124
865.086	5121
865.217	5113
865.349	5143
865.48	5170
865.612	5193
865.743	5201
865.875	5193
866.006	5201
866.137	5265
866.269	5204
866.4	5204
866.531	5269
866.662	5235
866.793	5326
866.924	5250
867.055	5315
867.186	5318
867.317	5315
867.448	5292
867.579	5372
867.71	5360
867.841	5402
867.972	5455
868.103	5486
868.233	5486
868.364	5478
868.495	5554
868.625	5649
868.756	5802
868.886	5684
869.017	5775
869.147	5836
869.278	5866
869.408	5840
869.539	5805
869.669	5935
869.799	5889
869.929	5977
870.06	6003
870.19	6197
870.32	6228
870.45	6228
870.58	6369
870.71	6456
870.84	6525
870.97	6388
871.1	6399
871.23	6646
871.36	6711
871.489	6635
871.619	6798
871.749	6798
871.879	6833
872.008	7012
872.138	6966
872.267	7023
872.397	6981
872.526	7046
872.656	7095
872.785	7209
872.915	7396
873.044	7499
873.173	7575
873.303	7643
873.432	7784
873.561	7845
873.69	7963
873.819	8077
873.948	8130
874.077	8252
874.206	8332
874.335	8518
874.464	8724
874.593	8807
874.722	8933
874.851	9135
874.979	9287
875.108	9336
875.237	9412
875.365	9408
875.494	9648
875.623	9804
875.751	9884
875.88	10029
876.008	10150
876.136	10227
876.265	10497
876.393	10698
876.521	10763
876.65	10774
876.778	10881
876.906	10862
877.034	10942
877.162	11048
877.29	11105
877.418	11356
877.546	11330
877.674	11440
877.802	11452
877.93	11501
878.058	11520
878.185	11665
878.313	11676
878.441	11691
878.568	11707
878.696	11813
878.824	11931
878.951	11992
879.079	11969
879.206	12144
879.333	12087
879.461	12057
879.588	12007
879.715	12121
879.842	12239
879.97	12106
880.097	11798
880.224	11855
880.351	11874
880.478	11912
880.605	11779
880.732	11798
880.859	12007
880.986	11695
881.112	11882
881.239	11718
881.366	11691
881.493	11570
881.619	11520
881.746	11417
881.872	11535
881.999	11497
882.125	11490
882.252	11554
882.378	11539
882.505	11570
882.631	11459
882.757	11292
882.883	11277
883.01	11299
883.136	11181
883.262	11159
883.388	11121
883.514	11208
883.64	11136
883.766	11117
883.892	10953
884.018	10991
884.143	11159
884.269	11083
884.395	10900
884.52	10786
884.646	10771
884.772	10767
884.897	10694
885.023	10706
885.148	10660
885.274	10759
885.399	10710
885.524	10653
885.65	10565
885.775	10596
885.9	10607
886.025	10615
886.15	10611
886.275	10451
886.4	10394
886.525	10379
886.65	10382
886.775	10337
886.9	10493
887.025	10554
887.149	10333
887.274	10238
887.399	10162
887.523	10204
887.648	10211
887.773	10082
887.897	10238
888.021	10261
888.146	10135
888.27	10147
888.395	10215
888.519	10166
888.643	10223
888.767	10162
888.891	10139
889.015	10032
889.139	10048
889.263	10025
889.387	10074
889.511	10120
889.635	10013
889.759	10017
889.883	10032
890.006	10124
890.13	10078
890.254	9930
890.377	9964
890.501	9838
890.624	9846
890.748	9918
890.871	9793
890.995	9717
891.118	9743
891.241	9740
891.364	9736
891.488	9846
891.611	9698
891.734	9759
891.857	9755
891.98	9717
892.103	9701
892.226	9728
892.349	9686
892.471	9504
892.594	9690
892.717	9629
892.839	9584
892.962	9580
893.085	9694
893.207	9576
893.33	9492
893.452	9545
893.575	9648
893.697	9530
893.819	9648
893.941	9572
894.064	9614
894.186	9424
894.308	9443
894.43	9553
894.552	9530
894.674	9488
894.796	9332
894.918	9363
895.04	9275
895.161	9401
895.283	9313
895.405	9283
895.526	9351
895.648	9233
895.769	9275
895.891	9192
896.012	9268
896.134	9169
896.255	9195
896.376	9169
896.498	9176
896.619	9062
896.74	9058
896.861	9074
896.982	9306
897.103	9272
897.224	9165
897.345	9066
897.466	9013
897.587	8986
897.708	9123
897.828	9017
897.949	8990
898.07	8937
898.19	8948
898.311	8967
898.431	8914
898.552	8979
898.672	9036
898.792	8944
898.913	8902
899.033	8826
899.153	8712
899.273	8613
899.393	8655
899.513	8800
899.633	8697
899.753	8697
899.873	8655
899.993	8739
900.113	8674
900.232	8712
900.352	8648
900.472	8594
900.591	8583
900.711	8571
900.83	8446
900.95	8621
901.069	8678
901.189	8598
901.308	8434
901.427	8389
901.546	8389
901.665	8492
901.784	8514
901.904	8358
902.023	8298
902.141	8279
902.26	8218
902.379	8309
902.498	8214
902.617	8279
902.735	8305
902.854	8290
902.973	8210
903.091	8126
903.21	8153
903.328	8214
903.446	8164
903.565	8138
903.683	8077
903.801	8054
903.919	8145
904.038	8145
904.156	8024
904.274	8119
904.392	8012
904.51	8123
904.627	8069
904.745	8077
904.863	8035
904.981	7978
905.098	7845
905.216	7879
905.334	7837
905.451	7982
905.569	7860
905.686	7826
905.803	7887
905.921	7731
906.038	7879
906.155	7807
906.272	7685
906.389	7662
906.506	7624
906.623	7597
906.74	7601
906.857	7537
906.974	7605
907.091	7689
907.208	7757
907.324	7643
907.441	7544
907.557	7464
907.674	7388
907.79	7362
907.907	7411
908.023	7499
908.139	7415
908.256	7350
908.372	7327
908.488	7350
908.604	7301
908.72	7232
908.836	7228
908.952	7301
909.068	7228
909.184	7343
909.3	7202
909.415	7289
909.531	7244
909.647	7133
909.762	7038
909.878	7110
909.993	7152
910.108	7091
910.224	7110
910.339	7122
910.454	7069
910.57	7038
910.685	6973
910.8	7145
910.915	7126
911.03	7027
911.145	6901
911.259	6894
911.374	6867
911.489	6779
911.604	6837
911.718	6722
911.833	6711
911.947	6677
912.062	6616
912.176	6734
912.291	6760
912.405	6662
912.519	6814
912.633	6837
912.748	6760
912.862	6715
912.976	6627
913.09	6551
913.204	6612
913.318	6604
913.431	6681
913.545	6673
913.659	6707
913.772	6623
913.886	6616
914	6604
914.113	6681
914.226	6608
914.34	6585
914.453	6563
914.566	6585
914.68	6517
914.793	6525
914.906	6410
915.019	6403
915.132	6365
915.245	6414
915.358	6448
915.47	6391
915.583	6445
915.696	6498
915.809	6585
915.921	6525
916.034	6429
916.146	6418
916.259	6369
916.371	6456
916.483	6403
916.595	6384
916.708	6399
916.82	6376
916.932	6403
917.044	6365
917.156	6369
917.268	6319
917.38	6353
917.491	6289
917.603	6376
917.715	6429
917.826	6380
917.938	6372
918.049	6254
918.161	6342
918.272	6410
918.384	6380
918.495	6369
918.606	6304
918.717	6171
918.828	6292
918.939	6254
919.05	6163
919.161	6251
919.272	6201
919.383	6152
919.494	6273
919.604	6399
919.715	6300
919.826	6277
919.936	6277
920.047	6342
920.157	6311
920.267	6445
920.378	6300
920.488	6262
920.598	6479
920.708	6601
920.818	6456
920.928	6456
921.038	6498
921.148	6616
921.258	6300
921.368	6311
921.477	6190
921.587	6148
921.697	6053
921.806	6197
921.916	6060
922.025	5992
922.134	5920
922.244	5840
922.353	5939
922.462	5805
922.571	5775
922.68	5718
922.789	5642
922.898	5665
923.007	5592
923.116	5718
923.224	5665
923.333	5646
923.442	5592
923.55	5570
923.659	5600
923.767	5676
923.876	5570
923.984	5558
924.092	5573
924.201	5528
924.309	5528
924.417	5646
924.525	5490
924.633	5497
924.741	6323
924.849	5379
924.956	5474
925.064	5357
925.172	5303
925.279	5311
925.387	5299
925.494	5322
925.602	5425
925.709	5398
925.816	5284
925.924	5330
926.031	5364
926.138	5303
926.245	5330
926.352	5231
926.459	5353
926.566	5330
926.673	5223
926.779	5143
926.886	5102
926.993	5056
927.099	4968
927.206	4991
927.312	5003
927.419	5014
927.525	4991
927.631	5014
927.737	4870
927.843	4885
927.95	4767
928.056	4812
928.162	4831
928.267	4805
928.373	5326
928.479	4858
928.585	4698
928.69	4767
928.796	4790
928.901	4683
929.007	4603
929.112	4664
929.218	4660
929.323	4637
929.428	4599
929.533	4656
929.638	4531
929.743	4588
929.848	4580
929.953	4531
930.058	4466
930.163	4344
930.267	4348
930.372	4383
930.477	4329
930.581	4478
930.685	4341
930.79	4246
930.894	4295
930.998	4227
931.103	4398
931.207	4112
931.311	4067
931.415	4051
931.519	3896
931.623	3941
