Data from glass_V78500241_1111.txt Node
Date: Wed Sep 01 19:22:12 CST 2021
User: usil
Spectrometer: V785-0024
Trigger mode: 0
Integration Time (sec): 4.000000E-1
Scans to average: 1
Nonlinearity correction enabled: false
Boxcar width: 0
Storing dark spectrum: false
XAxis mode: Wavelengths
Number of Pixels in Spectrum: 1024
>>>>>Begin Spectral Data<<<<<
801.071	3724
801.214	3827
801.356	3705
801.499	3743
801.641	3728
801.783	3755
801.926	3861
802.068	3819
802.211	3850
802.353	3915
802.496	3804
802.638	3896
802.78	3892
802.923	3949
803.065	3903
803.208	3854
803.35	3888
803.492	3937
803.635	3941
803.777	3827
803.919	3899
804.061	4215
804.204	3960
804.346	3960
804.488	3956
804.63	4048
804.773	3953
804.915	4036
805.057	4173
805.199	4071
805.341	4093
805.483	4154
805.626	4135
805.768	4086
805.91	4227
806.052	4242
806.194	4207
806.336	4344
806.478	4268
806.62	4192
806.762	4188
806.904	4287
807.046	4325
807.188	4200
807.33	4181
807.472	4257
807.614	4207
807.756	4223
807.898	4242
808.04	4242
808.182	4303
808.324	4329
808.465	4363
808.607	4527
808.749	4417
808.891	4451
809.033	4451
809.174	4413
809.316	4261
809.458	4246
809.6	4169
809.741	4162
809.883	4181
810.025	4227
810.166	4238
810.308	4234
810.45	4265
810.591	4227
810.733	4303
810.875	4485
811.016	4820
811.158	5174
811.299	5189
811.441	5284
811.582	5064
811.724	4714
811.865	4516
812.007	4493
812.148	4421
812.29	4459
812.431	4432
812.573	4436
812.714	4322
812.855	4424
812.997	4474
813.138	4497
813.279	4462
813.421	4371
813.562	4348
813.703	4363
813.845	4360
813.986	4280
814.127	4261
814.268	4287
814.41	4299
814.551	4310
814.692	4337
814.833	4287
814.974	4310
815.115	4333
815.256	4246
815.397	4280
815.539	4276
815.68	4200
815.821	4246
815.962	4295
816.103	4272
816.244	4268
816.385	4234
816.526	4261
816.666	4257
816.807	4097
816.948	4227
817.089	4150
817.23	4112
817.371	4090
817.512	4021
817.653	4101
817.793	4082
817.934	4029
818.075	4128
818.216	4105
818.356	4082
818.497	4025
818.638	3922
818.778	3907
818.919	3861
819.06	3899
819.2	3922
819.341	3857
819.481	3831
819.622	3922
819.762	4040
819.903	3994
820.043	3865
820.184	3846
820.324	3846
820.465	3873
820.605	3838
820.746	3922
820.886	3808
821.026	3968
821.167	3960
821.307	4002
821.447	4002
821.588	3964
821.728	3983
821.868	3945
822.008	3865
822.149	3907
822.289	3991
822.429	3728
822.569	3793
822.709	3835
822.849	3728
822.99	3671
823.13	3797
823.27	3789
823.41	3743
823.55	3770
823.69	3755
823.83	3717
823.97	3690
824.11	3564
824.25	3614
824.389	3667
824.529	3660
824.669	3637
824.809	3698
824.949	3766
825.089	3759
825.228	3667
825.368	3564
825.508	3580
825.648	3614
825.787	3591
825.927	3671
826.067	3629
826.206	3667
826.346	3800
826.485	3842
826.625	3857
826.765	3983
826.904	3854
827.044	3625
827.183	3561
827.323	3424
827.462	3488
827.601	3454
827.741	3447
827.88	3443
828.02	3329
828.159	3458
828.298	3458
828.437	3519
828.577	3454
828.716	3618
828.855	3500
828.994	3397
829.134	3409
829.273	3409
829.412	3378
829.551	3329
829.69	3370
829.829	3428
829.968	3496
830.107	3458
830.246	3397
830.385	3389
830.524	3351
830.663	3283
830.802	3256
830.941	3203
831.08	3222
831.219	3245
831.357	3279
831.496	3389
831.635	3260
831.774	3207
831.913	3195
832.051	3165
832.19	3146
832.329	3256
832.467	3135
832.606	3108
832.744	3192
832.883	3195
833.022	3199
833.16	3287
833.299	3325
833.437	3348
833.576	3363
833.714	3450
833.852	3439
833.991	3462
834.129	3439
834.267	3443
834.406	3416
834.544	3416
834.682	3450
834.821	3416
834.959	3603
835.097	3397
835.235	3507
835.373	3504
835.511	3530
835.65	3485
835.788	3511
835.926	3420
836.064	3382
836.202	3393
836.34	3572
836.478	3618
836.615	3549
836.753	3603
836.891	3682
837.029	3637
837.167	3595
837.305	3549
837.443	3557
837.58	3526
837.718	3618
837.856	3549
837.993	3538
838.131	3591
838.269	3580
838.406	3625
838.544	3557
838.681	3500
838.819	3466
838.956	3389
839.094	3355
839.231	3473
839.369	3466
839.506	3766
839.643	3614
839.781	3523
839.918	3496
840.055	3526
840.193	3545
840.33	3572
840.467	3568
840.604	3618
840.742	3804
840.879	3557
841.016	3572
841.153	3576
841.29	3770
841.427	3759
841.564	3717
841.701	3755
841.838	3713
841.975	3686
842.112	3743
842.249	3618
842.385	3637
842.522	3800
842.659	3656
842.796	3698
842.933	3755
843.069	3766
843.206	3724
843.343	3789
843.479	3808
843.616	3838
843.752	3717
843.889	3717
844.025	3865
844.162	3736
844.298	3804
844.435	3823
844.571	3812
844.708	3880
844.844	4025
844.98	4051
845.117	4025
845.253	3937
845.389	3911
845.525	3968
845.661	3994
845.798	3937
845.934	3987
846.07	3930
846.206	4055
846.342	4101
846.478	4051
846.614	3956
846.75	3922
846.886	3934
847.022	4029
847.158	3949
847.294	3987
847.429	4059
847.565	3998
847.701	4291
847.837	3915
847.972	3854
848.108	3972
848.244	3975
848.379	3854
848.515	3835
848.65	3804
848.786	3842
848.921	3842
849.057	3937
849.192	3922
849.328	3892
849.463	3968
849.598	3934
849.734	3869
849.869	3793
850.004	3751
850.14	3846
850.275	3774
850.41	3713
850.545	3732
850.68	3793
850.815	3797
850.95	3808
851.085	3991
851.22	3873
851.355	3831
851.49	3797
851.625	3812
851.76	3789
851.895	3747
852.03	3743
852.165	3789
852.299	3846
852.434	3953
852.569	3854
852.703	3880
852.838	3926
852.973	3960
853.107	3998
853.242	3911
853.376	3880
853.511	3774
853.645	3831
853.78	3953
853.914	3907
854.048	3850
854.183	3884
854.317	3979
854.451	4105
854.585	3960
854.72	3922
854.854	4063
854.988	3941
855.122	3994
855.256	3975
855.39	4048
855.524	4120
855.658	4116
855.792	4116
855.926	4147
856.06	4124
856.194	4185
856.327	4116
856.461	4139
856.595	4162
856.729	4173
856.862	4230
856.996	4280
857.13	4295
857.263	4314
857.397	4348
857.53	4276
857.664	4325
857.797	4386
857.931	4424
858.064	4375
858.197	4500
858.331	4394
858.464	4436
858.597	4306
858.731	4424
858.864	4451
858.997	4512
859.13	4508
859.263	4550
859.396	4645
859.529	4512
859.662	4531
859.795	4542
859.928	4649
860.061	4687
860.194	4740
860.327	4714
860.46	4618
860.592	4748
860.725	4793
860.858	4729
860.99	4729
861.123	4755
861.256	4740
861.388	4771
861.521	5395
861.653	4744
861.786	4736
861.918	4759
862.05	4771
862.183	4831
862.315	4900
862.447	4957
862.58	4854
862.712	4729
862.844	4812
862.976	4873
863.108	4828
863.24	5208
863.372	4850
863.504	4885
863.636	4953
863.768	4949
863.9	4968
864.032	4972
864.164	4972
864.296	5052
864.428	5132
864.559	5102
864.691	5094
864.823	5124
864.954	5113
865.086	5178
865.217	5132
865.349	5128
865.48	5136
865.612	5220
865.743	5277
865.875	5212
866.006	5166
866.137	5231
866.269	5189
866.4	5220
866.531	5254
866.662	5254
866.793	5273
866.924	5277
867.055	5337
867.186	5357
867.317	5288
867.448	5284
867.579	5402
867.71	5357
867.841	5448
867.972	5482
868.103	5433
868.233	5539
868.364	5528
868.495	5566
868.625	5684
868.756	5794
868.886	5665
869.017	5767
869.147	5824
869.278	5893
869.408	5805
869.539	5824
869.669	5870
869.799	5889
869.929	5961
870.06	6022
870.19	6155
870.32	6209
870.45	6254
870.58	6342
870.71	6479
870.84	6441
870.97	6448
871.1	6483
871.23	6665
871.36	6696
871.489	6646
871.619	6779
871.749	6783
871.879	6821
872.008	7053
872.138	6939
872.267	6970
872.397	6996
872.526	7031
872.656	7080
872.785	7240
872.915	7407
873.044	7510
873.173	7636
873.303	7670
873.432	7788
873.561	7879
873.69	7913
873.819	8024
873.948	8138
874.077	8244
874.206	8336
874.335	8438
874.464	8621
874.593	8872
874.722	8937
874.851	9074
874.979	9237
875.108	9416
875.237	9397
875.365	9473
875.494	9671
875.623	9926
875.751	9816
875.88	10021
876.008	10177
876.136	10341
876.265	10531
876.393	10740
876.521	10740
876.65	10873
876.778	10949
876.906	10908
877.034	10980
877.162	11060
877.29	11181
877.418	11258
877.546	11322
877.674	11379
877.802	11505
877.93	11535
878.058	11604
878.185	11589
878.313	11649
878.441	11802
878.568	11710
878.696	11786
878.824	11885
878.951	11916
879.079	12003
879.206	12117
879.333	12079
879.461	12015
879.588	12125
879.715	12060
879.842	12224
879.97	12091
880.097	11863
880.224	11889
880.351	11893
880.478	11855
880.605	11859
880.732	11790
880.859	11874
880.986	11707
881.112	11802
881.239	11786
881.366	11722
881.493	11680
881.619	11554
881.746	11623
881.872	11646
881.999	11493
882.125	11440
882.252	11532
882.378	11516
882.505	11577
882.631	11452
882.757	11360
882.883	11235
883.01	11261
883.136	11258
883.262	11109
883.388	11159
883.514	11239
883.64	11143
883.766	11162
883.892	10923
884.018	10946
884.143	11181
884.269	11117
884.395	10911
884.52	10782
884.646	10778
884.772	10748
884.897	10630
885.023	10733
885.148	10744
885.274	10717
885.399	10687
885.524	10694
885.65	10599
885.775	10554
885.9	10542
886.025	10630
886.15	10500
886.275	10466
886.4	10409
886.525	10409
886.65	10352
886.775	10348
886.9	10531
887.025	10603
887.149	10375
887.274	10253
887.399	10185
887.523	10238
887.648	10211
887.773	10135
887.897	10147
888.021	10265
888.146	10207
888.27	10200
888.395	10204
888.519	10173
888.643	10238
888.767	10120
888.891	10124
889.015	10021
889.139	10063
889.263	10006
889.387	10162
889.511	10200
889.635	10101
889.759	9991
889.883	10002
890.006	10036
890.13	10116
890.254	9960
890.377	9941
890.501	9835
890.624	9888
890.748	9804
890.871	9759
890.995	9766
891.118	9698
891.241	9762
891.364	9705
891.488	9857
891.611	9778
891.734	9679
891.857	9759
891.98	9740
892.103	9827
892.226	9762
892.349	9610
892.471	9576
892.594	9629
892.717	9584
892.839	9713
892.962	9648
893.085	9667
893.207	9637
893.33	9500
893.452	9584
893.575	9610
893.697	9504
893.819	9690
893.941	9568
894.064	9652
894.186	9401
894.308	9435
894.43	9549
894.552	9656
894.674	9504
894.796	9408
894.918	9378
895.04	9439
895.161	9412
895.283	9348
895.405	9264
895.526	9275
895.648	9249
895.769	9272
895.891	9260
896.012	9272
896.134	9211
896.255	9207
896.376	9222
896.498	9165
896.619	9138
896.74	9070
896.861	9161
896.982	9233
897.103	9393
897.224	9256
897.345	9100
897.466	9005
897.587	9017
897.708	9157
897.828	9070
897.949	8990
898.07	8883
898.19	8910
898.311	9077
898.431	8891
898.552	8895
898.672	8994
898.792	8941
898.913	8887
899.033	8788
899.153	8716
899.273	8625
899.393	8724
899.513	8830
899.633	8773
899.753	8792
899.873	8678
899.993	8750
900.113	8674
900.232	8701
900.352	8648
900.472	8575
900.591	8568
900.711	8560
900.83	8571
900.95	8610
901.069	8766
901.189	8636
901.308	8434
901.427	8412
901.546	8393
901.665	8499
901.784	8431
901.904	8427
902.023	8351
902.141	8172
902.26	8248
902.379	8233
902.498	8221
902.617	8210
902.735	8366
902.854	8355
902.973	8233
903.091	8161
903.21	8134
903.328	8240
903.446	8142
903.565	8130
903.683	8134
903.801	8077
903.919	8164
904.038	8134
904.156	8096
904.274	8065
904.392	8069
904.51	8008
904.627	8092
904.745	8119
904.863	8107
904.981	7913
905.098	7845
905.216	7860
905.334	7936
905.451	7898
905.569	7841
905.686	7951
905.803	7921
905.921	7784
906.038	7845
906.155	7898
906.272	7753
906.389	7742
906.506	7685
906.623	7601
906.74	7658
906.857	7556
906.974	7609
907.091	7704
907.208	7693
907.324	7628
907.441	7594
907.557	7422
907.674	7434
907.79	7403
907.907	7411
908.023	7495
908.139	7487
908.256	7373
908.372	7354
908.488	7354
908.604	7255
908.72	7244
908.836	7274
908.952	7289
909.068	7293
909.184	7384
909.3	7308
909.415	7282
909.531	7278
909.647	7110
909.762	7179
909.878	7088
909.993	7168
910.108	7118
910.224	7118
910.339	7129
910.454	7076
910.57	6970
910.685	6913
910.8	7156
910.915	7183
911.03	7023
911.145	6943
911.259	6886
911.374	6916
911.489	6848
911.604	6894
911.718	6768
911.833	6760
911.947	6604
912.062	6635
912.176	6719
912.291	6753
912.405	6772
912.519	6859
912.633	6844
912.748	6741
912.862	6715
912.976	6589
913.09	6540
913.204	6642
913.318	6642
913.431	6681
913.545	6681
913.659	6768
913.772	6654
913.886	6559
914	6623
914.113	6608
914.226	6635
914.34	6597
914.453	6513
914.566	6623
914.68	6471
914.793	6551
914.906	6464
915.019	6407
915.132	6353
915.245	6308
915.358	6426
915.47	6426
915.583	6441
915.696	6525
915.809	6608
915.921	6555
916.034	6433
916.146	6407
916.259	6418
916.371	6479
916.483	6445
916.595	6388
916.708	6437
916.82	6410
916.932	6357
917.044	6380
917.156	6399
917.268	6334
917.38	6350
917.491	6372
917.603	6407
917.715	6369
917.826	6372
917.938	6331
918.049	6243
918.161	6376
918.272	6467
918.384	6464
918.495	6391
918.606	6315
918.717	6254
918.828	6258
918.939	6251
919.05	6235
919.161	6209
919.272	6117
919.383	6163
919.494	6285
919.604	6445
919.715	6346
919.826	6224
919.936	6311
920.047	6369
920.157	6281
920.267	6418
920.378	6357
920.488	6273
920.598	6479
920.708	6540
920.818	6448
920.928	6490
921.038	6688
921.148	6570
921.258	6403
921.368	6262
921.477	6205
921.587	6205
921.697	6091
921.806	6232
921.916	6144
922.025	5992
922.134	5904
922.244	5878
922.353	5958
922.462	5836
922.571	5840
922.68	5726
922.789	5699
922.898	5691
923.007	5638
923.116	5672
923.224	5676
923.333	5623
923.442	5589
923.55	5611
923.659	5634
923.767	5638
923.876	5543
923.984	5600
924.092	5474
924.201	5528
924.309	5570
924.417	5566
924.525	5448
924.633	5467
924.741	6285
924.849	5391
924.956	5482
925.064	5322
925.172	5345
925.279	5322
925.387	5368
925.494	5334
925.602	5395
925.709	5421
925.816	5265
925.924	5330
926.031	5406
926.138	5280
926.245	5364
926.352	5246
926.459	5330
926.566	5368
926.673	5220
926.779	5128
926.886	5147
926.993	5041
927.099	4976
927.206	4987
927.312	5022
927.419	5014
927.525	5025
927.631	4999
927.737	4942
927.843	4843
927.95	4778
928.056	4847
928.162	4793
928.267	4816
928.373	5322
928.479	4850
928.585	4694
928.69	4797
928.796	4778
928.901	4694
929.007	4615
929.112	4698
929.218	4668
929.323	4630
929.428	4592
929.533	4691
929.638	4512
929.743	4569
929.848	4535
929.953	4489
930.058	4398
930.163	4371
930.267	4371
930.372	4436
930.477	4352
930.581	4512
930.685	4367
930.79	4291
930.894	4295
930.998	4257
931.103	4390
931.207	4158
931.311	4055
931.415	4078
931.519	3956
931.623	3949
