Data from glass_V78500241_1791.txt Node
Date: Wed Sep 01 19:26:54 CST 2021
User: usil
Spectrometer: V785-0024
Trigger mode: 0
Integration Time (sec): 4.000000E-1
Scans to average: 1
Nonlinearity correction enabled: false
Boxcar width: 0
Storing dark spectrum: false
XAxis mode: Wavelengths
Number of Pixels in Spectrum: 1024
>>>>>Begin Spectral Data<<<<<
801.071	3743
801.214	3762
801.356	3694
801.499	3751
801.641	3751
801.783	3736
801.926	3846
802.068	3804
802.211	3899
802.353	3869
802.496	3850
802.638	3918
802.78	3899
802.923	3930
803.065	3903
803.208	3880
803.35	3854
803.492	3876
803.635	3911
803.777	3812
803.919	3892
804.061	4082
804.204	3926
804.346	3968
804.488	3926
804.63	4051
804.773	4017
804.915	3998
805.057	4143
805.199	4040
805.341	4032
805.483	4143
805.626	4105
805.768	4082
805.91	4253
806.052	4230
806.194	4215
806.336	4344
806.478	4204
806.62	4169
806.762	4150
806.904	4268
807.046	4284
807.188	4192
807.33	4227
807.472	4230
807.614	4177
807.756	4291
807.898	4196
808.04	4223
808.182	4268
808.324	4333
808.465	4383
808.607	4462
808.749	4481
808.891	4447
809.033	4478
809.174	4360
809.316	4207
809.458	4265
809.6	4166
809.741	4143
809.883	4162
810.025	4219
810.166	4215
810.308	4219
810.45	4246
810.591	4249
810.733	4272
810.875	4512
811.016	4835
811.158	5079
811.299	5258
811.441	5284
811.582	5075
811.724	4721
811.865	4459
812.007	4466
812.148	4409
812.29	4405
812.431	4447
812.573	4421
812.714	4398
812.855	4394
812.997	4424
813.138	4466
813.279	4432
813.421	4348
813.562	4398
813.703	4344
813.845	4325
813.986	4227
814.127	4227
814.268	4238
814.41	4318
814.551	4265
814.692	4310
814.833	4242
814.974	4284
815.115	4344
815.256	4238
815.397	4227
815.539	4227
815.68	4196
815.821	4223
815.962	4295
816.103	4268
816.244	4242
816.385	4215
816.526	4234
816.666	4173
816.807	4021
816.948	4200
817.089	4158
817.23	4120
817.371	4036
817.512	4044
817.653	4082
817.793	4010
817.934	4078
818.075	4059
818.216	4071
818.356	4093
818.497	3987
818.638	3876
818.778	3892
818.919	3934
819.06	3880
819.2	3876
819.341	3869
819.481	3857
819.622	3915
819.762	4059
819.903	3968
820.043	3827
820.184	3831
820.324	3793
820.465	3865
820.605	3842
820.746	3865
820.886	3785
821.026	3941
821.167	3903
821.307	3972
821.447	3972
821.588	3968
821.728	3983
821.868	3953
822.008	3888
822.149	3865
822.289	3930
822.429	3766
822.569	3755
822.709	3770
822.849	3705
822.99	3686
823.13	3770
823.27	3759
823.41	3728
823.55	3705
823.69	3705
823.83	3705
823.97	3641
824.11	3584
824.25	3545
824.389	3614
824.529	3614
824.669	3644
824.809	3690
824.949	3781
825.089	3690
825.228	3675
825.368	3572
825.508	3580
825.648	3584
825.787	3606
825.927	3606
826.067	3679
826.206	3663
826.346	3747
826.485	3785
826.625	3869
826.765	3956
826.904	3835
827.044	3591
827.183	3504
827.323	3439
827.462	3447
827.601	3443
827.741	3431
827.88	3439
828.02	3389
828.159	3435
828.298	3504
828.437	3534
828.577	3488
828.716	3610
828.855	3511
828.994	3370
829.134	3382
829.273	3378
829.412	3378
829.551	3351
829.69	3374
829.829	3405
829.968	3530
830.107	3447
830.246	3443
830.385	3378
830.524	3351
830.663	3313
830.802	3222
830.941	3169
831.08	3214
831.219	3222
831.357	3253
831.496	3389
831.635	3233
831.774	3157
831.913	3180
832.051	3138
832.19	3138
832.329	3245
832.467	3146
832.606	3112
832.744	3218
832.883	3165
833.022	3203
833.16	3272
833.299	3283
833.437	3355
833.576	3310
833.714	3382
833.852	3443
833.991	3466
834.129	3477
834.267	3454
834.406	3374
834.544	3443
834.682	3405
834.821	3378
834.959	3572
835.097	3420
835.235	3523
835.373	3477
835.511	3542
835.65	3485
835.788	3458
835.926	3409
836.064	3348
836.202	3424
836.34	3549
836.478	3625
836.615	3545
836.753	3591
836.891	3648
837.029	3625
837.167	3591
837.305	3576
837.443	3572
837.58	3473
837.718	3610
837.856	3580
837.993	3496
838.131	3572
838.269	3568
838.406	3584
838.544	3591
838.681	3466
838.819	3431
838.956	3378
839.094	3374
839.231	3412
839.369	3515
839.506	3762
839.643	3568
839.781	3485
839.918	3481
840.055	3526
840.193	3515
840.33	3549
840.467	3561
840.604	3614
840.742	3759
840.879	3534
841.016	3564
841.153	3580
841.29	3793
841.427	3713
841.564	3713
841.701	3728
841.838	3694
841.975	3694
842.112	3740
842.249	3667
842.385	3663
842.522	3827
842.659	3698
842.796	3660
842.933	3717
843.069	3709
843.206	3709
843.343	3804
843.479	3781
843.616	3831
843.752	3679
843.889	3667
844.025	3850
844.162	3705
844.298	3857
844.435	3793
844.571	3808
844.708	3937
844.844	3911
844.98	4025
845.117	4021
845.253	3934
845.389	3930
845.525	3941
845.661	3964
845.798	3907
845.934	3994
846.07	3964
846.206	4025
846.342	4116
846.478	4032
846.614	3968
846.75	3926
846.886	3937
847.022	4059
847.158	4006
847.294	3975
847.429	4025
847.565	3953
847.701	4215
847.837	3876
847.972	3854
848.108	3983
848.244	3956
848.379	3812
848.515	3854
848.65	3842
848.786	3827
848.921	3865
849.057	3926
849.192	3930
849.328	3915
849.463	3926
849.598	3861
849.734	3835
849.869	3865
850.004	3774
850.14	3827
850.275	3797
850.41	3759
850.545	3740
850.68	3766
850.815	3770
850.95	3774
851.085	3899
851.22	3873
851.355	3808
851.49	3804
851.625	3781
851.76	3781
851.895	3789
852.03	3690
852.165	3793
852.299	3884
852.434	3922
852.569	3854
852.703	3861
852.838	3953
852.973	3953
853.107	3994
853.242	3846
853.376	3873
853.511	3793
853.645	3831
853.78	3983
853.914	3892
854.048	3926
854.183	3915
854.317	3975
854.451	4101
854.585	3945
854.72	3956
854.854	4051
854.988	3907
855.122	4029
855.256	3922
855.39	3975
855.524	4109
855.658	4074
855.792	4010
855.926	4143
856.06	4173
856.194	4207
856.327	4162
856.461	4135
856.595	4158
856.729	4185
856.862	4215
856.996	4242
857.13	4310
857.263	4348
857.397	4325
857.53	4268
857.664	4291
857.797	4462
857.931	4428
858.064	4394
858.197	4432
858.331	4421
858.464	4333
858.597	4367
858.731	4451
858.864	4440
858.997	4481
859.13	4516
859.263	4500
859.396	4599
859.529	4554
859.662	4508
859.795	4550
859.928	4622
860.061	4694
860.194	4740
860.327	4683
860.46	4645
860.592	4733
860.725	4790
860.858	4793
860.99	4702
861.123	4668
861.256	4721
861.388	4790
861.521	5345
861.653	4714
861.786	4698
861.918	4782
862.05	4801
862.183	4858
862.315	4866
862.447	4957
862.58	4892
862.712	4877
862.844	4767
862.976	4847
863.108	4854
863.24	5193
863.372	4824
863.504	4908
863.636	4919
863.768	4957
863.9	4919
864.032	4930
864.164	4942
864.296	5075
864.428	5098
864.559	5143
864.691	5083
864.823	5113
864.954	5136
865.086	5124
865.217	5113
865.349	5056
865.48	5147
865.612	5231
865.743	5322
865.875	5239
866.006	5155
866.137	5227
866.269	5204
866.4	5265
866.531	5239
866.662	5223
866.793	5307
866.924	5246
867.055	5353
867.186	5303
867.317	5372
867.448	5288
867.579	5387
867.71	5364
867.841	5322
867.972	5474
868.103	5463
868.233	5471
868.364	5444
868.495	5490
868.625	5634
868.756	5790
868.886	5649
869.017	5672
869.147	5870
869.278	5863
869.408	5794
869.539	5844
869.669	5939
869.799	5866
869.929	6007
870.06	6011
870.19	6270
870.32	6159
870.45	6270
870.58	6369
870.71	6437
870.84	6441
870.97	6418
871.1	6395
871.23	6650
871.36	6753
871.489	6662
871.619	6700
871.749	6856
871.879	6905
872.008	6985
872.138	6928
872.267	7008
872.397	7019
872.526	6996
872.656	7076
872.785	7259
872.915	7422
873.044	7495
873.173	7601
873.303	7594
873.432	7708
873.561	7875
873.69	7879
873.819	8012
873.948	8130
874.077	8187
874.206	8419
874.335	8469
874.464	8629
874.593	8872
874.722	8918
874.851	9123
874.979	9336
875.108	9378
875.237	9435
875.365	9416
875.494	9652
875.623	9831
875.751	9812
875.88	9934
876.008	10154
876.136	10295
876.265	10516
876.393	10630
876.521	10675
876.65	10782
876.778	10889
876.906	10980
877.034	11067
877.162	11113
877.29	11162
877.418	11303
877.546	11326
877.674	11364
877.802	11429
877.93	11474
878.058	11501
878.185	11592
878.313	11634
878.441	11775
878.568	11592
878.696	11764
878.824	11821
878.951	11996
879.079	12049
879.206	12144
879.333	12026
879.461	11980
879.588	12117
879.715	12049
879.842	12235
879.97	12049
880.097	11908
880.224	11908
880.351	11863
880.478	11832
880.605	11840
880.732	11847
880.859	11927
880.986	11866
881.112	11802
881.239	11691
881.366	11642
881.493	11573
881.619	11623
881.746	11566
881.872	11543
881.999	11520
882.125	11512
882.252	11592
882.378	11509
882.505	11539
882.631	11398
882.757	11284
882.883	11330
883.01	11201
883.136	11166
883.262	11136
883.388	11124
883.514	11193
883.64	11181
883.766	11105
883.892	10984
884.018	11033
884.143	11121
884.269	11029
884.395	10831
884.52	10748
884.646	10778
884.772	10664
884.897	10630
885.023	10778
885.148	10710
885.274	10706
885.399	10683
885.524	10630
885.65	10527
885.775	10679
885.9	10478
886.025	10615
886.15	10550
886.275	10417
886.4	10363
886.525	10443
886.65	10390
886.775	10367
886.9	10478
887.025	10523
887.149	10360
887.274	10185
887.399	10246
887.523	10238
887.648	10188
887.773	10131
887.897	10192
888.021	10200
888.146	10158
888.27	10207
888.395	10128
888.519	10181
888.643	10158
888.767	10173
888.891	10086
889.015	9987
889.139	10078
889.263	9960
889.387	10150
889.511	10139
889.635	10074
889.759	9964
889.883	9934
890.006	9953
890.13	10086
890.254	9915
890.377	9960
890.501	9873
890.624	9880
890.748	9854
890.871	9778
890.995	9770
891.118	9728
891.241	9762
891.364	9717
891.488	9770
891.611	9774
891.734	9717
891.857	9800
891.98	9690
892.103	9778
892.226	9667
892.349	9675
892.471	9568
892.594	9595
892.717	9603
892.839	9618
892.962	9648
893.085	9625
893.207	9644
893.33	9496
893.452	9485
893.575	9629
893.697	9545
893.819	9610
893.941	9641
894.064	9591
894.186	9435
894.308	9405
894.43	9504
894.552	9580
894.674	9542
894.796	9424
894.918	9370
895.04	9332
895.161	9363
895.283	9355
895.405	9294
895.526	9321
895.648	9260
895.769	9203
895.891	9302
896.012	9283
896.134	9241
896.255	9241
896.376	9165
896.498	9085
896.619	9085
896.74	9093
896.861	9119
896.982	9218
897.103	9298
897.224	9192
897.345	9017
897.466	9070
897.587	9020
897.708	9154
897.828	8994
897.949	8967
898.07	8845
898.19	8883
898.311	9024
898.431	8933
898.552	8891
898.672	8963
898.792	9024
898.913	8914
899.033	8849
899.153	8670
899.273	8670
899.393	8743
899.513	8788
899.633	8697
899.753	8811
899.873	8746
899.993	8754
900.113	8701
900.232	8788
900.352	8610
900.472	8583
900.591	8541
900.711	8648
900.83	8560
900.95	8549
901.069	8697
901.189	8564
901.308	8419
901.427	8332
901.546	8465
901.665	8492
901.784	8492
901.904	8374
902.023	8282
902.141	8267
902.26	8233
902.379	8286
902.498	8202
902.617	8252
902.735	8248
902.854	8298
902.973	8244
903.091	8134
903.21	8142
903.328	8149
903.446	8123
903.565	8115
903.683	8176
903.801	8054
903.919	8073
904.038	8142
904.156	7989
904.274	8046
904.392	8005
904.51	8054
904.627	7997
904.745	8043
904.863	8062
904.981	7974
905.098	7864
905.216	7917
905.334	7898
905.451	7864
905.569	7852
905.686	7830
905.803	7875
905.921	7822
906.038	7871
906.155	7780
906.272	7719
906.389	7757
906.506	7636
906.623	7624
906.74	7582
906.857	7510
906.974	7548
907.091	7639
907.208	7693
907.324	7677
907.441	7582
907.557	7487
907.674	7369
907.79	7327
907.907	7422
908.023	7460
908.139	7483
908.256	7400
908.372	7316
908.488	7350
908.604	7244
908.72	7270
908.836	7343
908.952	7247
909.068	7247
909.184	7247
909.3	7221
909.415	7327
909.531	7339
909.647	7129
909.762	7110
909.878	7099
909.993	7072
910.108	7076
910.224	7095
910.339	7164
910.454	7034
910.57	6977
910.685	6962
910.8	7187
910.915	7084
911.03	7008
911.145	6916
911.259	6901
911.374	6962
911.489	6924
911.604	6833
911.718	6726
911.833	6772
911.947	6631
912.062	6616
912.176	6677
912.291	6692
912.405	6715
912.519	6840
912.633	6764
912.748	6749
912.862	6662
912.976	6627
913.09	6525
913.204	6578
913.318	6612
913.431	6688
913.545	6700
913.659	6688
913.772	6692
913.886	6544
914	6551
914.113	6654
914.226	6639
914.34	6593
914.453	6517
914.566	6608
914.68	6555
914.793	6506
914.906	6391
915.019	6407
915.132	6372
915.245	6376
915.358	6433
915.47	6445
915.583	6445
915.696	6479
915.809	6494
915.921	6601
916.034	6422
916.146	6414
916.259	6391
916.371	6429
916.483	6471
916.595	6369
916.708	6407
916.82	6334
916.932	6350
917.044	6369
917.156	6376
917.268	6262
917.38	6300
917.491	6346
917.603	6353
917.715	6429
917.826	6414
917.938	6258
918.049	6178
918.161	6327
918.272	6372
918.384	6456
918.495	6342
918.606	6251
918.717	6201
918.828	6235
918.939	6232
919.05	6213
919.161	6201
919.272	6144
919.383	6197
919.494	6273
919.604	6395
919.715	6308
919.826	6239
919.936	6281
920.047	6304
920.157	6247
920.267	6509
920.378	6308
920.488	6258
920.598	6456
920.708	6551
920.818	6429
920.928	6475
921.038	6532
921.148	6559
921.258	6399
921.368	6308
921.477	6220
921.587	6171
921.697	6053
921.806	6201
921.916	6068
922.025	5980
922.134	5920
922.244	5885
922.353	5927
922.462	5878
922.571	5783
922.68	5691
922.789	5710
922.898	5661
923.007	5672
923.116	5707
923.224	5649
923.333	5657
923.442	5611
923.55	5585
923.659	5581
923.767	5585
923.876	5558
923.984	5604
924.092	5467
924.201	5535
924.309	5520
924.417	5558
924.525	5505
924.633	5490
924.741	6289
924.849	5337
924.956	5455
925.064	5337
925.172	5391
925.279	5288
925.387	5364
925.494	5337
925.602	5391
925.709	5368
925.816	5311
925.924	5318
926.031	5395
926.138	5292
926.245	5284
926.352	5212
926.459	5258
926.566	5307
926.673	5159
926.779	5151
926.886	5121
926.993	5025
927.099	5033
927.206	4972
927.312	4923
927.419	4984
927.525	4968
927.631	5014
927.737	4877
927.843	4889
927.95	4774
928.056	4850
928.162	4801
928.267	4889
928.373	5318
928.479	4889
928.585	4687
928.69	4740
928.796	4736
928.901	4744
929.007	4649
929.112	4706
929.218	4672
929.323	4649
929.428	4569
929.533	4641
929.638	4550
929.743	4558
929.848	4558
929.953	4508
930.058	4478
930.163	4341
930.267	4356
930.372	4375
930.477	4310
930.581	4485
930.685	4352
930.79	4242
930.894	4322
930.998	4223
931.103	4367
931.207	4128
931.311	4036
931.415	4025
931.519	3937
931.623	3945
