Data from glass_V78500241_2310.txt Node
Date: Wed Sep 01 19:30:30 CST 2021
User: usil
Spectrometer: V785-0024
Trigger mode: 0
Integration Time (sec): 4.000000E-1
Scans to average: 1
Nonlinearity correction enabled: false
Boxcar width: 0
Storing dark spectrum: false
XAxis mode: Wavelengths
Number of Pixels in Spectrum: 1024
>>>>>Begin Spectral Data<<<<<
801.071	3717
801.214	3747
801.356	3717
801.499	3762
801.641	3690
801.783	3755
801.926	3823
802.068	3793
802.211	3842
802.353	3873
802.496	3835
802.638	3873
802.78	3903
802.923	3941
803.065	3876
803.208	3823
803.35	3869
803.492	3865
803.635	3884
803.777	3827
803.919	3903
804.061	4112
804.204	3941
804.346	3956
804.488	3865
804.63	4017
804.773	3934
804.915	4055
805.057	4097
805.199	4048
805.341	4101
805.483	4173
805.626	4112
805.768	4143
805.91	4219
806.052	4227
806.194	4204
806.336	4284
806.478	4234
806.62	4215
806.762	4223
806.904	4272
807.046	4337
807.188	4204
807.33	4169
807.472	4246
807.614	4181
807.756	4291
807.898	4204
808.04	4253
808.182	4272
808.324	4299
808.465	4371
808.607	4447
808.749	4481
808.891	4451
809.033	4546
809.174	4360
809.316	4249
809.458	4227
809.6	4143
809.741	4090
809.883	4143
810.025	4158
810.166	4204
810.308	4207
810.45	4234
810.591	4230
810.733	4261
810.875	4523
811.016	4831
811.158	5121
811.299	5273
811.441	5269
811.582	5060
811.724	4694
811.865	4485
812.007	4508
812.148	4413
812.29	4367
812.431	4436
812.573	4379
812.714	4348
812.855	4428
812.997	4383
813.138	4519
813.279	4432
813.421	4356
813.562	4360
813.703	4314
813.845	4337
813.986	4223
814.127	4192
814.268	4265
814.41	4325
814.551	4238
814.692	4352
814.833	4230
814.974	4257
815.115	4314
815.256	4219
815.397	4192
815.539	4234
815.68	4181
815.821	4169
815.962	4261
816.103	4280
816.244	4204
816.385	4268
816.526	4272
816.666	4177
816.807	4090
816.948	4188
817.089	4207
817.23	4112
817.371	4086
817.512	4086
817.653	4048
817.793	4040
817.934	4010
818.075	4162
818.216	4093
818.356	4090
818.497	3975
818.638	3907
818.778	3896
818.919	3930
819.06	3838
819.2	3888
819.341	3850
819.481	3812
819.622	3907
819.762	3994
819.903	3975
820.043	3869
820.184	3827
820.324	3819
820.465	3873
820.605	3857
820.746	3880
820.886	3808
821.026	3922
821.167	3873
821.307	3930
821.447	3979
821.588	3945
821.728	3945
821.868	3907
822.008	3850
822.149	3922
822.289	3876
822.429	3797
822.569	3701
822.709	3755
822.849	3690
822.99	3690
823.13	3759
823.27	3759
823.41	3694
823.55	3686
823.69	3724
823.83	3690
823.97	3686
824.11	3576
824.25	3595
824.389	3622
824.529	3663
824.669	3622
824.809	3701
824.949	3751
825.089	3762
825.228	3656
825.368	3568
825.508	3564
825.648	3606
825.787	3610
825.927	3606
826.067	3625
826.206	3679
826.346	3740
826.485	3846
826.625	3846
826.765	3953
826.904	3842
827.044	3637
827.183	3526
827.323	3424
827.462	3473
827.601	3435
827.741	3397
827.88	3477
828.02	3351
828.159	3450
828.298	3481
828.437	3507
828.577	3492
828.716	3587
828.855	3492
828.994	3367
829.134	3363
829.273	3382
829.412	3351
829.551	3340
829.69	3378
829.829	3466
829.968	3515
830.107	3401
830.246	3447
830.385	3359
830.524	3348
830.663	3291
830.802	3249
830.941	3214
831.08	3188
831.219	3230
831.357	3264
831.496	3386
831.635	3249
831.774	3176
831.913	3195
832.051	3127
832.19	3100
832.329	3218
832.467	3119
832.606	3104
832.744	3150
832.883	3165
833.022	3173
833.16	3233
833.299	3260
833.437	3332
833.576	3340
833.714	3405
833.852	3424
833.991	3401
834.129	3481
834.267	3412
834.406	3397
834.544	3450
834.682	3401
834.821	3401
834.959	3580
835.097	3416
835.235	3492
835.373	3496
835.511	3462
835.65	3454
835.788	3469
835.926	3393
836.064	3397
836.202	3386
836.34	3572
836.478	3568
836.615	3561
836.753	3599
836.891	3610
837.029	3584
837.167	3584
837.305	3557
837.443	3523
837.58	3534
837.718	3618
837.856	3572
837.993	3545
838.131	3591
838.269	3561
838.406	3576
838.544	3599
838.681	3473
838.819	3454
838.956	3363
839.094	3431
839.231	3443
839.369	3511
839.506	3701
839.643	3618
839.781	3492
839.918	3435
840.055	3526
840.193	3511
840.33	3511
840.467	3591
840.604	3603
840.742	3774
840.879	3534
841.016	3534
841.153	3576
841.29	3705
841.427	3705
841.564	3724
841.701	3709
841.838	3705
841.975	3671
842.112	3709
842.249	3618
842.385	3591
842.522	3781
842.659	3671
842.796	3641
842.933	3675
843.069	3679
843.206	3705
843.343	3781
843.479	3732
843.616	3781
843.752	3671
843.889	3698
844.025	3804
844.162	3717
844.298	3797
844.435	3789
844.571	3842
844.708	3812
844.844	3975
844.98	3994
845.117	3987
845.253	3899
845.389	3861
845.525	3945
845.661	3937
845.798	3903
845.934	3987
846.07	3937
846.206	4071
846.342	4135
846.478	4051
846.614	3991
846.75	3922
846.886	3922
847.022	4044
847.158	3956
847.294	3975
847.429	4006
847.565	3972
847.701	4230
847.837	3861
847.972	3842
848.108	3945
848.244	3930
848.379	3869
848.515	3812
848.65	3842
848.786	3842
848.921	3850
849.057	3994
849.192	3941
849.328	3922
849.463	3956
849.598	3873
849.734	3869
849.869	3804
850.004	3778
850.14	3804
850.275	3770
850.41	3751
850.545	3774
850.68	3740
850.815	3804
850.95	3816
851.085	3964
851.22	3888
851.355	3793
851.49	3800
851.625	3789
851.76	3781
851.895	3663
852.03	3736
852.165	3759
852.299	3842
852.434	3907
852.569	3835
852.703	3869
852.838	3903
852.973	3972
853.107	3972
853.242	3884
853.376	3819
853.511	3774
853.645	3804
853.78	3987
853.914	3907
854.048	3945
854.183	3880
854.317	3937
854.451	4093
854.585	3956
854.72	3915
854.854	4006
854.988	3918
855.122	3987
855.256	3903
855.39	4025
855.524	4078
855.658	4074
855.792	4101
855.926	4124
856.06	4135
856.194	4196
856.327	4131
856.461	4097
856.595	4139
856.729	4192
856.862	4325
856.996	4238
857.13	4246
857.263	4303
857.397	4367
857.53	4261
857.664	4341
857.797	4409
857.931	4402
858.064	4379
858.197	4432
858.331	4367
858.464	4394
858.597	4287
858.731	4386
858.864	4402
858.997	4451
859.13	4481
859.263	4535
859.396	4630
859.529	4508
859.662	4519
859.795	4474
859.928	4580
860.061	4664
860.194	4721
860.327	4641
860.46	4622
860.592	4740
860.725	4740
860.858	4755
860.99	4653
861.123	4683
861.256	4672
861.388	4717
861.521	5220
861.653	4744
861.786	4702
861.918	4771
862.05	4717
862.183	4816
862.315	4881
862.447	4938
862.58	4862
862.712	4778
862.844	4763
862.976	4839
863.108	4801
863.24	5189
863.372	4824
863.504	4877
863.636	4892
863.768	5025
863.9	4976
864.032	4896
864.164	4953
864.296	4995
864.428	5064
864.559	5060
864.691	5128
864.823	5094
864.954	5094
865.086	5166
865.217	5083
865.349	5075
865.48	5166
865.612	5170
865.743	5288
865.875	5201
866.006	5193
866.137	5185
866.269	5204
866.4	5201
866.531	5242
866.662	5223
866.793	5280
866.924	5284
867.055	5353
867.186	5349
867.317	5277
867.448	5280
867.579	5433
867.71	5372
867.841	5345
867.972	5471
868.103	5379
868.233	5440
868.364	5512
868.495	5490
868.625	5634
868.756	5775
868.886	5592
869.017	5703
869.147	5805
869.278	5866
869.408	5767
869.539	5813
869.669	5866
869.799	5920
869.929	5980
870.06	6015
870.19	6209
870.32	6171
870.45	6296
870.58	6376
870.71	6391
870.84	6521
870.97	6388
871.1	6429
871.23	6597
871.36	6700
871.489	6673
871.619	6738
871.749	6810
871.879	6916
872.008	6958
872.138	6985
872.267	6993
872.397	6932
872.526	7015
872.656	7076
872.785	7209
872.915	7331
873.044	7571
873.173	7495
873.303	7643
873.432	7689
873.561	7795
873.69	7959
873.819	7963
873.948	8183
874.077	8248
874.206	8332
874.335	8431
874.464	8674
874.593	8823
874.722	8918
874.851	9127
874.979	9241
875.108	9313
875.237	9317
875.365	9443
875.494	9663
875.623	9812
875.751	9804
875.88	10051
876.008	10154
876.136	10253
876.265	10519
876.393	10672
876.521	10786
876.65	10786
876.778	10816
876.906	10866
877.034	10984
877.162	11018
877.29	11083
877.418	11334
877.546	11334
877.674	11539
877.802	11452
877.93	11528
878.058	11558
878.185	11592
878.313	11657
878.441	11737
878.568	11695
878.696	11794
878.824	11775
878.951	11958
879.079	11973
879.206	12129
879.333	12079
879.461	11961
879.588	12117
879.715	12057
879.842	12228
879.97	12045
880.097	11897
880.224	11832
880.351	11851
880.478	11908
880.605	11836
880.732	11817
880.859	12053
880.986	11828
881.112	11866
881.239	11775
881.366	11688
881.493	11535
881.619	11551
881.746	11551
881.872	11478
881.999	11532
882.125	11440
882.252	11501
882.378	11528
882.505	11592
882.631	11341
882.757	11292
882.883	11307
883.01	11280
883.136	11151
883.262	11098
883.388	11105
883.514	11223
883.64	11109
883.766	11109
883.892	10972
884.018	11014
884.143	11090
884.269	11083
884.395	10885
884.52	10748
884.646	10733
884.772	10683
884.897	10641
885.023	10664
885.148	10714
885.274	10744
885.399	10672
885.524	10577
885.65	10542
885.775	10603
885.9	10519
886.025	10626
886.15	10577
886.275	10542
886.4	10333
886.525	10409
886.65	10352
886.775	10348
886.9	10436
887.025	10561
887.149	10310
887.274	10227
887.399	10181
887.523	10207
887.648	10135
887.773	10040
887.897	10295
888.021	10246
888.146	10090
888.27	10204
888.395	10230
888.519	10200
888.643	10162
888.767	10173
888.891	10086
889.015	10093
889.139	10055
889.263	9960
889.387	10063
889.511	9926
889.635	10105
889.759	9956
889.883	9934
890.006	9960
890.13	10048
890.254	9930
890.377	9998
890.501	9835
890.624	9903
890.748	9930
890.871	9717
890.995	9747
891.118	9682
891.241	9736
891.364	9732
891.488	9846
891.611	9759
891.734	9698
891.857	9743
891.98	9705
892.103	9736
892.226	9747
892.349	9656
892.471	9473
892.594	9591
892.717	9671
892.839	9622
892.962	9652
893.085	9663
893.207	9595
893.33	9553
893.452	9538
893.575	9595
893.697	9526
893.819	9675
893.941	9641
894.064	9622
894.186	9416
894.308	9348
894.43	9553
894.552	9561
894.674	9500
894.796	9348
894.918	9363
895.04	9332
895.161	9275
895.283	9317
895.405	9233
895.526	9321
895.648	9218
895.769	9298
895.891	9195
896.012	9237
896.134	9176
896.255	9203
896.376	9142
896.498	9100
896.619	9161
896.74	9135
896.861	9013
896.982	9237
897.103	9294
897.224	9089
897.345	9055
897.466	8963
897.587	8982
897.708	9093
897.828	9005
897.949	8990
898.07	8948
898.19	8872
898.311	8990
898.431	8880
898.552	8933
898.672	8899
898.792	8948
898.913	8895
899.033	8792
899.153	8708
899.273	8659
899.393	8678
899.513	8758
899.633	8678
899.753	8716
899.873	8598
899.993	8705
900.113	8621
900.232	8720
900.352	8640
900.472	8552
900.591	8552
900.711	8594
900.83	8594
900.95	8625
901.069	8746
901.189	8590
901.308	8484
901.427	8370
901.546	8412
901.665	8415
901.784	8492
901.904	8415
902.023	8320
902.141	8172
902.26	8187
902.379	8275
902.498	8229
902.617	8138
902.735	8248
902.854	8301
902.973	8252
903.091	8119
903.21	8115
903.328	8138
903.446	8111
903.565	8024
903.683	8149
903.801	8050
903.919	8096
904.038	8126
904.156	8054
904.274	8107
904.392	8043
904.51	8054
904.627	8058
904.745	8077
904.863	8046
904.981	7860
905.098	7894
905.216	7928
905.334	7852
905.451	7841
905.569	7849
905.686	7887
905.803	7936
905.921	7772
906.038	7849
906.155	7822
906.272	7715
906.389	7685
906.506	7655
906.623	7601
906.74	7616
906.857	7495
906.974	7556
907.091	7609
907.208	7731
907.324	7696
907.441	7613
907.557	7453
907.674	7464
907.79	7411
907.907	7487
908.023	7411
908.139	7396
908.256	7339
908.372	7331
908.488	7339
908.604	7316
908.72	7255
908.836	7297
908.952	7232
909.068	7232
909.184	7266
909.3	7270
909.415	7274
909.531	7274
909.647	7080
909.762	7076
909.878	7042
909.993	7183
910.108	7103
910.224	7122
910.339	7107
910.454	7023
910.57	6943
910.685	6951
910.8	7156
910.915	7053
911.03	7042
911.145	6913
911.259	6821
911.374	6875
911.489	6779
911.604	6779
911.718	6673
911.833	6719
911.947	6646
912.062	6650
912.176	6654
912.291	6662
912.405	6620
912.519	6787
912.633	6840
912.748	6692
912.862	6700
912.976	6604
913.09	6494
913.204	6555
913.318	6601
913.431	6696
913.545	6684
913.659	6665
913.772	6650
913.886	6559
914	6498
914.113	6620
914.226	6620
914.34	6578
914.453	6467
914.566	6585
914.68	6475
914.793	6525
914.906	6426
915.019	6380
915.132	6311
915.245	6429
915.358	6448
915.47	6418
915.583	6448
915.696	6452
915.809	6532
915.921	6589
916.034	6407
916.146	6456
916.259	6399
916.371	6422
916.483	6437
916.595	6369
916.708	6372
916.82	6399
916.932	6369
917.044	6323
917.156	6334
917.268	6319
917.38	6323
917.491	6285
917.603	6342
917.715	6376
917.826	6448
917.938	6277
918.049	6216
918.161	6235
918.272	6422
918.384	6445
918.495	6407
918.606	6224
918.717	6216
918.828	6197
918.939	6315
919.05	6254
919.161	6232
919.272	6140
919.383	6152
919.494	6254
919.604	6372
919.715	6277
919.826	6251
919.936	6224
920.047	6342
920.157	6258
920.267	6418
920.378	6346
920.488	6292
920.598	6494
920.708	6540
920.818	6475
920.928	6483
921.038	6528
921.148	6593
921.258	6357
921.368	6289
921.477	6205
921.587	6178
921.697	6129
921.806	6159
921.916	6079
922.025	5973
922.134	5920
922.244	5809
922.353	5973
922.462	5836
922.571	5764
922.68	5684
922.789	5691
922.898	5714
923.007	5649
923.116	5718
923.224	5691
923.333	5642
923.442	5512
923.55	5558
923.659	5581
923.767	5596
923.876	5482
923.984	5558
924.092	5520
924.201	5608
924.309	5520
924.417	5524
924.525	5486
924.633	5539
924.741	6273
924.849	5376
924.956	5463
925.064	5414
925.172	5318
925.279	5307
925.387	5296
925.494	5341
925.602	5383
925.709	5376
925.816	5265
925.924	5280
926.031	5273
926.138	5204
926.245	5337
926.352	5204
926.459	5311
926.566	5239
926.673	5216
926.779	5086
926.886	5098
926.993	5037
927.099	5018
927.206	4995
927.312	4923
927.419	4987
927.525	4953
927.631	4984
927.737	4835
927.843	4889
927.95	4774
928.056	4873
928.162	4778
928.267	4816
928.373	5414
928.479	4839
928.585	4653
928.69	4736
928.796	4786
928.901	4637
929.007	4645
929.112	4664
929.218	4660
929.323	4607
929.428	4554
929.533	4637
929.638	4481
929.743	4516
929.848	4550
929.953	4523
930.058	4470
930.163	4329
930.267	4348
930.372	4436
930.477	4291
930.581	4421
930.685	4367
930.79	4219
930.894	4295
930.998	4265
931.103	4371
931.207	4109
931.311	4029
931.415	4025
931.519	3930
931.623	3953
