Data from glass_V78500241_1827.txt Node
Date: Wed Sep 01 19:27:09 CST 2021
User: usil
Spectrometer: V785-0024
Trigger mode: 0
Integration Time (sec): 4.000000E-1
Scans to average: 1
Nonlinearity correction enabled: false
Boxcar width: 0
Storing dark spectrum: false
XAxis mode: Wavelengths
Number of Pixels in Spectrum: 1024
>>>>>Begin Spectral Data<<<<<
801.071	3736
801.214	3751
801.356	3705
801.499	3713
801.641	3709
801.783	3785
801.926	3861
802.068	3835
802.211	3865
802.353	3861
802.496	3793
802.638	3876
802.78	3926
802.923	3903
803.065	3850
803.208	3831
803.35	3876
803.492	3892
803.635	3903
803.777	3800
803.919	3884
804.061	4131
804.204	3934
804.346	3926
804.488	3953
804.63	4086
804.773	3953
804.915	4017
805.057	4090
805.199	4032
805.341	4090
805.483	4109
805.626	4139
805.768	4116
805.91	4150
806.052	4211
806.194	4238
806.336	4306
806.478	4196
806.62	4173
806.762	4185
806.904	4268
807.046	4348
807.188	4227
807.33	4169
807.472	4219
807.614	4166
807.756	4268
807.898	4188
808.04	4223
808.182	4238
808.324	4341
808.465	4367
808.607	4485
808.749	4466
808.891	4466
809.033	4500
809.174	4428
809.316	4310
809.458	4265
809.6	4181
809.741	4147
809.883	4150
810.025	4192
810.166	4234
810.308	4249
810.45	4257
810.591	4234
810.733	4265
810.875	4535
811.016	4839
811.158	5147
811.299	5292
811.441	5242
811.582	5064
811.724	4729
811.865	4459
812.007	4500
812.148	4432
812.29	4371
812.431	4386
812.573	4402
812.714	4356
812.855	4409
812.997	4413
813.138	4470
813.279	4432
813.421	4402
813.562	4386
813.703	4322
813.845	4299
813.986	4257
814.127	4211
814.268	4234
814.41	4287
814.551	4265
814.692	4341
814.833	4280
814.974	4303
815.115	4268
815.256	4234
815.397	4246
815.539	4295
815.68	4154
815.821	4185
815.962	4379
816.103	4325
816.244	4268
816.385	4276
816.526	4287
816.666	4173
816.807	4116
816.948	4135
817.089	4158
817.23	4097
817.371	4032
817.512	4025
817.653	4063
817.793	4040
817.934	4013
818.075	4097
818.216	4017
818.356	4078
818.497	3991
818.638	3873
818.778	3922
818.919	3956
819.06	3831
819.2	3949
819.341	3911
819.481	3842
819.622	3896
819.762	4048
819.903	3968
820.043	3888
820.184	3850
820.324	3827
820.465	3892
820.605	3884
820.746	3888
820.886	3812
821.026	3949
821.167	3896
821.307	3953
821.447	3975
821.588	3972
821.728	3922
821.868	3949
822.008	3873
822.149	3911
822.289	3873
822.429	3751
822.569	3778
822.709	3785
822.849	3705
822.99	3690
823.13	3740
823.27	3766
823.41	3751
823.55	3728
823.69	3698
823.83	3736
823.97	3694
824.11	3572
824.25	3656
824.389	3656
824.529	3644
824.669	3629
824.809	3675
824.949	3766
825.089	3720
825.228	3652
825.368	3622
825.508	3538
825.648	3557
825.787	3599
825.927	3614
826.067	3625
826.206	3660
826.346	3800
826.485	3850
826.625	3873
826.765	3903
826.904	3770
827.044	3618
827.183	3538
827.323	3485
827.462	3454
827.601	3405
827.741	3386
827.88	3420
828.02	3374
828.159	3428
828.298	3492
828.437	3500
828.577	3485
828.716	3584
828.855	3477
828.994	3363
829.134	3374
829.273	3416
829.412	3378
829.551	3317
829.69	3370
829.829	3378
829.968	3534
830.107	3435
830.246	3416
830.385	3359
830.524	3367
830.663	3298
830.802	3245
830.941	3214
831.08	3173
831.219	3268
831.357	3264
831.496	3386
831.635	3199
831.774	3176
831.913	3188
832.051	3108
832.19	3131
832.329	3233
832.467	3138
832.606	3085
832.744	3180
832.883	3173
833.022	3176
833.16	3279
833.299	3275
833.437	3382
833.576	3363
833.714	3382
833.852	3447
833.991	3447
834.129	3481
834.267	3443
834.406	3370
834.544	3424
834.682	3401
834.821	3405
834.959	3542
835.097	3389
835.235	3515
835.373	3488
835.511	3500
835.65	3481
835.788	3507
835.926	3401
836.064	3340
836.202	3447
836.34	3553
836.478	3584
836.615	3538
836.753	3549
836.891	3641
837.029	3595
837.167	3633
837.305	3603
837.443	3526
837.58	3519
837.718	3614
837.856	3534
837.993	3526
838.131	3603
838.269	3584
838.406	3591
838.544	3564
838.681	3454
838.819	3473
838.956	3378
839.094	3374
839.231	3435
839.369	3488
839.506	3755
839.643	3591
839.781	3485
839.918	3511
840.055	3545
840.193	3538
840.33	3492
840.467	3572
840.604	3625
840.742	3755
840.879	3545
841.016	3587
841.153	3553
841.29	3732
841.427	3701
841.564	3705
841.701	3774
841.838	3652
841.975	3686
842.112	3690
842.249	3610
842.385	3644
842.522	3865
842.659	3690
842.796	3690
842.933	3717
843.069	3686
843.206	3728
843.343	3812
843.479	3755
843.616	3819
843.752	3701
843.889	3694
844.025	3831
844.162	3717
844.298	3892
844.435	3793
844.571	3785
844.708	3865
844.844	3945
844.98	3972
845.117	3968
845.253	3911
845.389	3876
845.525	4025
845.661	3964
845.798	3911
845.934	4013
846.07	3964
846.206	4040
846.342	4071
846.478	4025
846.614	3949
846.75	3945
846.886	3896
847.022	4040
847.158	3968
847.294	4017
847.429	4010
847.565	3953
847.701	4177
847.837	3846
847.972	3880
848.108	3934
848.244	4010
848.379	3850
848.515	3774
848.65	3823
848.786	3816
848.921	3857
849.057	3926
849.192	3960
849.328	3888
849.463	3918
849.598	3865
849.734	3880
849.869	3854
850.004	3770
850.14	3808
850.275	3781
850.41	3751
850.545	3778
850.68	3778
850.815	3755
850.95	3812
851.085	3911
851.22	3838
851.355	3831
851.49	3804
851.625	3789
851.76	3797
851.895	3770
852.03	3713
852.165	3785
852.299	3869
852.434	3896
852.569	3854
852.703	3838
852.838	3941
852.973	3979
853.107	3972
853.242	3873
853.376	3857
853.511	3759
853.645	3846
853.78	3941
853.914	3899
854.048	3899
854.183	3861
854.317	3998
854.451	4071
854.585	3941
854.72	3884
854.854	4048
854.988	3934
855.122	4006
855.256	3926
855.39	3998
855.524	4055
855.658	4074
855.792	4074
855.926	4120
856.06	4173
856.194	4204
856.327	4131
856.461	4109
856.595	4154
856.729	4166
856.862	4272
856.996	4268
857.13	4318
857.263	4348
857.397	4306
857.53	4249
857.664	4322
857.797	4371
857.931	4363
858.064	4363
858.197	4417
858.331	4367
858.464	4352
858.597	4318
858.731	4428
858.864	4504
858.997	4478
859.13	4512
859.263	4565
859.396	4577
859.529	4512
859.662	4523
859.795	4558
859.928	4523
860.061	4721
860.194	4733
860.327	4637
860.46	4607
860.592	4710
860.725	4721
860.858	4782
860.99	4702
861.123	4679
861.256	4675
861.388	4755
861.521	5410
861.653	4645
861.786	4721
861.918	4691
862.05	4801
862.183	4858
862.315	4930
862.447	4946
862.58	4885
862.712	4820
862.844	4725
862.976	4873
863.108	4904
863.24	5220
863.372	4816
863.504	4881
863.636	4862
863.768	4953
863.9	4934
864.032	4946
864.164	4949
864.296	5033
864.428	5094
864.559	5079
864.691	5083
864.823	5147
864.954	5147
865.086	5105
865.217	5136
865.349	5037
865.48	5151
865.612	5185
865.743	5292
865.875	5185
866.006	5239
866.137	5220
866.269	5261
866.4	5250
866.531	5193
866.662	5231
866.793	5261
866.924	5315
867.055	5311
867.186	5322
867.317	5258
867.448	5299
867.579	5353
867.71	5349
867.841	5376
867.972	5425
868.103	5474
868.233	5505
868.364	5490
868.495	5558
868.625	5653
868.756	5840
868.886	5619
869.017	5714
869.147	5882
869.278	5882
869.408	5741
869.539	5859
869.669	5878
869.799	5885
869.929	6003
870.06	6049
870.19	6159
870.32	6201
870.45	6243
870.58	6353
870.71	6414
870.84	6414
870.97	6441
871.1	6437
871.23	6635
871.36	6650
871.489	6681
871.619	6760
871.749	6844
871.879	6837
872.008	6928
872.138	6962
872.267	7015
872.397	6939
872.526	7061
872.656	7122
872.785	7183
872.915	7419
873.044	7480
873.173	7575
873.303	7613
873.432	7708
873.561	7898
873.69	7940
873.819	7982
873.948	8126
874.077	8290
874.206	8343
874.335	8514
874.464	8640
874.593	8868
874.722	8925
874.851	9146
874.979	9222
875.108	9355
875.237	9351
875.365	9496
875.494	9587
875.623	9819
875.751	9755
875.88	10017
876.008	10154
876.136	10238
876.265	10546
876.393	10645
876.521	10683
876.65	10824
876.778	10889
876.906	10934
877.034	11079
877.162	11090
877.29	11083
877.418	11280
877.546	11337
877.674	11391
877.802	11478
877.93	11467
878.058	11417
878.185	11562
878.313	11668
878.441	11798
878.568	11688
878.696	11756
878.824	11836
878.951	11954
879.079	12019
879.206	12133
879.333	12041
879.461	11942
879.588	12095
879.715	12079
879.842	12273
879.97	12045
880.097	11870
880.224	11927
880.351	11908
880.478	11882
880.605	11794
880.732	11870
880.859	12003
880.986	11840
881.112	11893
881.239	11657
881.366	11600
881.493	11630
881.619	11570
881.746	11634
881.872	11551
881.999	11490
882.125	11554
882.252	11535
882.378	11482
882.505	11535
882.631	11322
882.757	11303
882.883	11273
883.01	11296
883.136	11162
883.262	11128
883.388	11056
883.514	11201
883.64	11178
883.766	11033
883.892	10968
884.018	10904
884.143	11143
884.269	11075
884.395	10809
884.52	10736
884.646	10801
884.772	10733
884.897	10675
885.023	10603
885.148	10668
885.274	10717
885.399	10702
885.524	10615
885.65	10584
885.775	10550
885.9	10588
886.025	10645
886.15	10500
886.275	10470
886.4	10371
886.525	10440
886.65	10459
886.775	10424
886.9	10485
887.025	10478
887.149	10394
887.274	10253
887.399	10234
887.523	10173
887.648	10158
887.773	10204
887.897	10246
888.021	10268
888.146	10166
888.27	10196
888.395	10227
888.519	10116
888.643	10181
888.767	10223
888.891	10071
889.015	10078
889.139	10055
889.263	10044
889.387	10059
889.511	10150
889.635	10059
889.759	9937
889.883	9956
890.006	9972
890.13	10101
890.254	9949
890.377	9983
890.501	9835
890.624	9835
890.748	9873
890.871	9778
890.995	9793
891.118	9663
891.241	9740
891.364	9747
891.488	9846
891.611	9724
891.734	9778
891.857	9865
891.98	9698
892.103	9732
892.226	9599
892.349	9709
892.471	9526
892.594	9549
892.717	9595
892.839	9625
892.962	9606
893.085	9671
893.207	9545
893.33	9534
893.452	9488
893.575	9625
893.697	9538
893.819	9561
893.941	9587
894.064	9606
894.186	9477
894.308	9378
894.43	9496
894.552	9511
894.674	9549
894.796	9370
894.918	9351
895.04	9348
895.161	9344
895.283	9279
895.405	9188
895.526	9256
895.648	9218
895.769	9192
895.891	9233
896.012	9294
896.134	9203
896.255	9154
896.376	9180
896.498	9176
896.619	9154
896.74	9062
896.861	9074
896.982	9249
897.103	9306
897.224	9157
897.345	9051
897.466	9009
897.587	9017
897.708	9085
897.828	8960
897.949	9005
898.07	8918
898.19	8864
898.311	8967
898.431	8876
898.552	9009
898.672	8952
898.792	8914
898.913	8880
899.033	8781
899.153	8750
899.273	8705
899.393	8758
899.513	8735
899.633	8731
899.753	8708
899.873	8739
899.993	8659
900.113	8689
900.232	8655
900.352	8625
900.472	8606
900.591	8492
900.711	8625
900.83	8587
900.95	8651
901.069	8651
901.189	8533
901.308	8393
901.427	8400
901.546	8396
901.665	8431
901.784	8541
901.904	8313
902.023	8320
902.141	8199
902.26	8195
902.379	8328
902.498	8233
902.617	8172
902.735	8275
902.854	8210
902.973	8279
903.091	8100
903.21	8149
903.328	8210
903.446	8100
903.565	8103
903.683	8081
903.801	8088
903.919	8126
904.038	8111
904.156	8058
904.274	8077
904.392	8005
904.51	8084
904.627	8081
904.745	8065
904.863	8103
904.981	7913
905.098	7864
905.216	7860
905.334	7940
905.451	7909
905.569	7963
905.686	7959
905.803	7967
905.921	7772
906.038	7913
906.155	7776
906.272	7746
906.389	7731
906.506	7670
906.623	7601
906.74	7609
906.857	7521
906.974	7563
907.091	7693
907.208	7738
907.324	7632
907.441	7567
907.557	7464
907.674	7441
907.79	7384
907.907	7384
908.023	7449
908.139	7441
908.256	7381
908.372	7384
908.488	7320
908.604	7251
908.72	7244
908.836	7244
908.952	7149
909.068	7244
909.184	7308
909.3	7217
909.415	7297
909.531	7312
909.647	7114
909.762	7095
909.878	7133
909.993	7160
910.108	7038
910.224	7053
910.339	7095
910.454	7065
910.57	7008
910.685	6981
910.8	7152
910.915	7107
911.03	6973
911.145	6932
911.259	6913
911.374	6871
911.489	6810
911.604	6825
911.718	6768
911.833	6715
911.947	6696
912.062	6578
912.176	6669
912.291	6738
912.405	6684
912.519	6764
912.633	6875
912.748	6696
912.862	6669
912.976	6612
913.09	6547
913.204	6547
913.318	6620
913.431	6650
913.545	6681
913.659	6696
913.772	6646
913.886	6578
914	6471
914.113	6642
914.226	6696
914.34	6623
914.453	6521
914.566	6608
914.68	6502
914.793	6490
914.906	6376
915.019	6391
915.132	6327
915.245	6479
915.358	6441
915.47	6395
915.583	6467
915.696	6407
915.809	6528
915.921	6540
916.034	6403
916.146	6395
916.259	6399
916.371	6475
916.483	6494
916.595	6388
916.708	6426
916.82	6403
916.932	6304
917.044	6388
917.156	6350
917.268	6300
917.38	6342
917.491	6311
917.603	6369
917.715	6388
917.826	6391
917.938	6270
918.049	6235
918.161	6353
918.272	6372
918.384	6338
918.495	6353
918.606	6262
918.717	6254
918.828	6304
918.939	6220
919.05	6258
919.161	6232
919.272	6110
919.383	6133
919.494	6323
919.604	6448
919.715	6235
919.826	6254
919.936	6315
920.047	6338
920.157	6281
920.267	6437
920.378	6365
920.488	6243
920.598	6414
920.708	6540
920.818	6471
920.928	6456
921.038	6528
921.148	6532
921.258	6350
921.368	6300
921.477	6216
921.587	6178
921.697	6060
921.806	6155
921.916	6041
922.025	5954
922.134	5901
922.244	5889
922.353	5904
922.462	5821
922.571	5851
922.68	5718
922.789	5684
922.898	5733
923.007	5604
923.116	5748
923.224	5653
923.333	5623
923.442	5615
923.55	5539
923.659	5608
923.767	5611
923.876	5562
923.984	5600
924.092	5471
924.201	5524
924.309	5581
924.417	5547
924.525	5471
924.633	5497
924.741	6216
924.849	5360
924.956	5490
925.064	5410
925.172	5265
925.279	5284
925.387	5357
925.494	5303
925.602	5429
925.709	5345
925.816	5307
925.924	5292
926.031	5357
926.138	5307
926.245	5303
926.352	5208
926.459	5337
926.566	5360
926.673	5201
926.779	5109
926.886	5151
926.993	4980
927.099	4980
927.206	4976
927.312	4980
927.419	4999
927.525	5003
927.631	4972
927.737	4904
927.843	4870
927.95	4816
928.056	4774
928.162	4801
928.267	4854
928.373	5353
928.479	4847
928.585	4687
928.69	4740
928.796	4790
928.901	4702
929.007	4607
929.112	4672
929.218	4634
929.323	4565
929.428	4546
929.533	4641
929.638	4508
929.743	4538
929.848	4527
929.953	4497
930.058	4447
930.163	4356
930.267	4303
930.372	4455
930.477	4314
930.581	4443
930.685	4371
930.79	4284
930.894	4276
930.998	4234
931.103	4379
931.207	4166
931.311	4082
931.415	4021
931.519	3915
931.623	3983
