Data from glass_V78500241_878.txt Node
Date: Wed Sep 01 19:20:35 CST 2021
User: usil
Spectrometer: V785-0024
Trigger mode: 0
Integration Time (sec): 4.000000E-1
Scans to average: 1
Nonlinearity correction enabled: false
Boxcar width: 0
Storing dark spectrum: false
XAxis mode: Wavelengths
Number of Pixels in Spectrum: 1024
>>>>>Begin Spectral Data<<<<<
801.071	3762
801.214	3819
801.356	3690
801.499	3705
801.641	3743
801.783	3778
801.926	3873
802.068	3869
802.211	3899
802.353	3861
802.496	3892
802.638	3896
802.78	3926
802.923	3918
803.065	3945
803.208	3857
803.35	3869
803.492	3915
803.635	3915
803.777	3785
803.919	3884
804.061	4188
804.204	3987
804.346	3937
804.488	3953
804.63	4021
804.773	4017
804.915	4048
805.057	4158
805.199	4017
805.341	4109
805.483	4169
805.626	4154
805.768	4093
805.91	4234
806.052	4215
806.194	4242
806.336	4367
806.478	4246
806.62	4188
806.762	4188
806.904	4291
807.046	4390
807.188	4196
807.33	4196
807.472	4249
807.614	4207
807.756	4276
807.898	4173
808.04	4188
808.182	4246
808.324	4322
808.465	4394
808.607	4478
808.749	4405
808.891	4447
809.033	4481
809.174	4394
809.316	4242
809.458	4242
809.6	4162
809.741	4139
809.883	4150
810.025	4211
810.166	4211
810.308	4200
810.45	4261
810.591	4242
810.733	4356
810.875	4512
811.016	4801
811.158	5189
811.299	5254
811.441	5258
811.582	5045
811.724	4694
811.865	4470
812.007	4497
812.148	4459
812.29	4440
812.431	4432
812.573	4409
812.714	4363
812.855	4409
812.997	4421
813.138	4512
813.279	4428
813.421	4398
813.562	4421
813.703	4371
813.845	4318
813.986	4303
814.127	4211
814.268	4333
814.41	4295
814.551	4295
814.692	4310
814.833	4303
814.974	4352
815.115	4352
815.256	4276
815.397	4299
815.539	4265
815.68	4234
815.821	4272
815.962	4352
816.103	4303
816.244	4265
816.385	4280
816.526	4303
816.666	4215
816.807	4105
816.948	4147
817.089	4230
817.23	4147
817.371	4025
817.512	4086
817.653	4055
817.793	4063
817.934	4090
818.075	4109
818.216	4112
818.356	4101
818.497	4032
818.638	3968
818.778	3937
818.919	3876
819.06	3861
819.2	3911
819.341	3896
819.481	3850
819.622	3930
819.762	4032
819.903	3975
820.043	3903
820.184	3850
820.324	3789
820.465	3915
820.605	3918
820.746	3896
820.886	3816
821.026	3975
821.167	3922
821.307	3987
821.447	3991
821.588	3975
821.728	3945
821.868	3960
822.008	3869
822.149	3911
822.289	3915
822.429	3808
822.569	3755
822.709	3819
822.849	3740
822.99	3682
823.13	3732
823.27	3827
823.41	3740
823.55	3736
823.69	3766
823.83	3743
823.97	3652
824.11	3595
824.25	3614
824.389	3679
824.529	3667
824.669	3606
824.809	3728
824.949	3785
825.089	3728
825.228	3701
825.368	3606
825.508	3591
825.648	3603
825.787	3610
825.927	3682
826.067	3656
826.206	3740
826.346	3816
826.485	3823
826.625	3854
826.765	3979
826.904	3869
827.044	3622
827.183	3500
827.323	3488
827.462	3507
827.601	3431
827.741	3428
827.88	3481
828.02	3359
828.159	3439
828.298	3473
828.437	3534
828.577	3492
828.716	3633
828.855	3534
828.994	3386
829.134	3401
829.273	3409
829.412	3344
829.551	3344
829.69	3359
829.829	3412
829.968	3485
830.107	3401
830.246	3435
830.385	3420
830.524	3363
830.663	3332
830.802	3272
830.941	3237
831.08	3199
831.219	3283
831.357	3294
831.496	3374
831.635	3222
831.774	3230
831.913	3180
832.051	3150
832.19	3138
832.329	3207
832.467	3154
832.606	3097
832.744	3176
832.883	3188
833.022	3211
833.16	3245
833.299	3313
833.437	3355
833.576	3367
833.714	3412
833.852	3450
833.991	3439
834.129	3515
834.267	3458
834.406	3389
834.544	3469
834.682	3405
834.821	3412
834.959	3519
835.097	3405
835.235	3557
835.373	3492
835.511	3526
835.65	3469
835.788	3477
835.926	3397
836.064	3409
836.202	3439
836.34	3606
836.478	3648
836.615	3568
836.753	3603
836.891	3610
837.029	3648
837.167	3603
837.305	3595
837.443	3553
837.58	3530
837.718	3618
837.856	3561
837.993	3564
838.131	3580
838.269	3610
838.406	3618
838.544	3595
838.681	3500
838.819	3511
838.956	3389
839.094	3420
839.231	3462
839.369	3519
839.506	3736
839.643	3652
839.781	3485
839.918	3481
840.055	3545
840.193	3519
840.33	3523
840.467	3603
840.604	3629
840.742	3827
840.879	3534
841.016	3564
841.153	3625
841.29	3785
841.427	3743
841.564	3781
841.701	3759
841.838	3724
841.975	3690
842.112	3724
842.249	3648
842.385	3637
842.522	3831
842.659	3698
842.796	3701
842.933	3709
843.069	3736
843.206	3743
843.343	3823
843.479	3793
843.616	3797
843.752	3663
843.889	3694
844.025	3892
844.162	3732
844.298	3869
844.435	3793
844.571	3819
844.708	3941
844.844	4029
844.98	4063
845.117	3991
845.253	3945
845.389	3899
845.525	3968
845.661	3926
845.798	3945
845.934	4025
846.07	3987
846.206	4040
846.342	4078
846.478	4074
846.614	4013
846.75	3956
846.886	3869
847.022	4036
847.158	4017
847.294	4025
847.429	4040
847.565	4013
847.701	4249
847.837	3907
847.972	3884
848.108	3945
848.244	4006
848.379	3808
848.515	3774
848.65	3823
848.786	3865
848.921	3865
849.057	3953
849.192	3934
849.328	3918
849.463	3922
849.598	3896
849.734	3835
849.869	3846
850.004	3846
850.14	3819
850.275	3835
850.41	3728
850.545	3766
850.68	3800
850.815	3823
850.95	3819
851.085	3968
851.22	3911
851.355	3846
851.49	3785
851.625	3770
851.76	3850
851.895	3740
852.03	3751
852.165	3857
852.299	3861
852.434	3941
852.569	3888
852.703	3915
852.838	3934
852.973	3956
853.107	3983
853.242	3896
853.376	3857
853.511	3732
853.645	3865
853.78	3979
853.914	3918
854.048	3930
854.183	3892
854.317	3915
854.451	4090
854.585	3975
854.72	3956
854.854	4067
854.988	3918
855.122	4109
855.256	3903
855.39	4036
855.524	4124
855.658	4093
855.792	4082
855.926	4150
856.06	4169
856.194	4192
856.327	4154
856.461	4147
856.595	4154
856.729	4135
856.862	4261
856.996	4249
857.13	4318
857.263	4341
857.397	4363
857.53	4280
857.664	4325
857.797	4428
857.931	4455
858.064	4379
858.197	4508
858.331	4363
858.464	4386
858.597	4314
858.731	4398
858.864	4474
858.997	4512
859.13	4489
859.263	4512
859.396	4630
859.529	4546
859.662	4535
859.795	4493
859.928	4596
860.061	4725
860.194	4706
860.327	4710
860.46	4618
860.592	4755
860.725	4771
860.858	4801
860.99	4710
861.123	4687
861.256	4664
861.388	4759
861.521	5516
861.653	4752
861.786	4687
861.918	4714
862.05	4812
862.183	4816
862.315	4911
862.447	4911
862.58	4923
862.712	4835
862.844	4790
862.976	4847
863.108	4843
863.24	5181
863.372	4809
863.504	4911
863.636	4908
863.768	5018
863.9	5033
864.032	4972
864.164	4965
864.296	5033
864.428	5083
864.559	5102
864.691	5132
864.823	5178
864.954	5159
865.086	5128
865.217	5128
865.349	5075
865.48	5174
865.612	5201
865.743	5322
865.875	5235
866.006	5178
866.137	5258
866.269	5216
866.4	5254
866.531	5239
866.662	5242
866.793	5284
866.924	5318
867.055	5372
867.186	5353
867.317	5318
867.448	5284
867.579	5421
867.71	5368
867.841	5448
867.972	5436
868.103	5436
868.233	5471
868.364	5543
868.495	5532
868.625	5737
868.756	5790
868.886	5695
869.017	5741
869.147	5893
869.278	5897
869.408	5824
869.539	5897
869.669	5931
869.799	5969
869.929	6026
870.06	6011
870.19	6224
870.32	6197
870.45	6277
870.58	6384
870.71	6429
870.84	6445
870.97	6475
871.1	6498
871.23	6639
871.36	6749
871.489	6654
871.619	6772
871.749	6833
871.879	6890
872.008	6970
872.138	6954
872.267	7031
872.397	6981
872.526	7050
872.656	7084
872.785	7202
872.915	7445
873.044	7594
873.173	7575
873.303	7639
873.432	7772
873.561	7856
873.69	7925
873.819	8054
873.948	8123
874.077	8286
874.206	8374
874.335	8461
874.464	8651
874.593	8895
874.722	8967
874.851	9127
874.979	9169
875.108	9389
875.237	9374
875.365	9447
875.494	9599
875.623	9808
875.751	9831
875.88	9960
876.008	10227
876.136	10341
876.265	10535
876.393	10736
876.521	10782
876.65	10835
876.778	10923
876.906	10877
877.034	11052
877.162	11162
877.29	11185
877.418	11318
877.546	11471
877.674	11448
877.802	11490
877.93	11528
878.058	11474
878.185	11589
878.313	11646
878.441	11684
878.568	11627
878.696	11798
878.824	11832
878.951	11851
879.079	11999
879.206	12178
879.333	12038
879.461	11920
879.588	12076
879.715	12106
879.842	12224
879.97	12133
880.097	11977
880.224	11878
880.351	11824
880.478	11866
880.605	11908
880.732	11824
880.859	12011
880.986	11821
881.112	11859
881.239	11680
881.366	11592
881.493	11653
881.619	11558
881.746	11528
881.872	11478
881.999	11551
882.125	11532
882.252	11482
882.378	11573
882.505	11551
882.631	11433
882.757	11273
882.883	11349
883.01	11318
883.136	11235
883.262	11159
883.388	10999
883.514	11193
883.64	11178
883.766	11071
883.892	11025
884.018	10968
884.143	11151
884.269	11109
884.395	10862
884.52	10717
884.646	10812
884.772	10748
884.897	10622
885.023	10694
885.148	10710
885.274	10938
885.399	10649
885.524	10607
885.65	10565
885.775	10573
885.9	10512
886.025	10634
886.15	10516
886.275	10390
886.4	10344
886.525	10421
886.65	10363
886.775	10379
886.9	10504
887.025	10558
887.149	10325
887.274	10253
887.399	10139
887.523	10181
887.648	10147
887.773	10105
887.897	10188
888.021	10257
888.146	10116
888.27	10261
888.395	10158
888.519	10196
888.643	10154
888.767	10181
888.891	10109
889.015	10036
889.139	10013
889.263	9987
889.387	10109
889.511	10044
889.635	10093
889.759	9987
889.883	10021
890.006	10002
890.13	10074
890.254	9934
890.377	9994
890.501	9915
890.624	9892
890.748	9918
890.871	9759
890.995	9755
891.118	9682
891.241	9724
891.364	9797
891.488	9869
891.611	9717
891.734	9740
891.857	9762
891.98	9740
892.103	9804
892.226	9705
892.349	9614
892.471	9511
892.594	9587
892.717	9622
892.839	9553
892.962	9637
893.085	9603
893.207	9671
893.33	9504
893.452	9481
893.575	9610
893.697	9496
893.819	9629
893.941	9595
894.064	9618
894.186	9428
894.308	9420
894.43	9485
894.552	9519
894.674	9492
894.796	9401
894.918	9313
895.04	9386
895.161	9359
895.283	9367
895.405	9233
895.526	9287
895.648	9218
895.769	9249
895.891	9351
896.012	9203
896.134	9249
896.255	9154
896.376	9157
896.498	9203
896.619	9135
896.74	9108
896.861	9169
896.982	9249
897.103	9367
897.224	9173
897.345	9001
897.466	8967
897.587	9024
897.708	9104
897.828	8994
897.949	8937
898.07	8887
898.19	8891
898.311	9028
898.431	8925
898.552	8925
898.672	8979
898.792	8963
898.913	8975
899.033	8758
899.153	8743
899.273	8724
899.393	8724
899.513	8727
899.633	8682
899.753	8796
899.873	8705
899.993	8739
900.113	8663
900.232	8682
900.352	8659
900.472	8610
900.591	8545
900.711	8629
900.83	8556
900.95	8667
901.069	8746
901.189	8590
901.308	8412
901.427	8431
901.546	8438
901.665	8404
901.784	8476
901.904	8389
902.023	8393
902.141	8225
902.26	8202
902.379	8267
902.498	8210
902.617	8202
902.735	8309
902.854	8290
902.973	8298
903.091	8081
903.21	8088
903.328	8180
903.446	8142
903.565	8111
903.683	8107
903.801	8096
903.919	8126
904.038	8111
904.156	8043
904.274	8062
904.392	8039
904.51	8027
904.627	8020
904.745	8107
904.863	8119
904.981	7928
905.098	7860
905.216	7856
905.334	7902
905.451	7925
905.569	7890
905.686	7868
905.803	7925
905.921	7830
906.038	7894
906.155	7814
906.272	7700
906.389	7738
906.506	7601
906.623	7605
906.74	7609
906.857	7597
906.974	7571
907.091	7708
907.208	7750
907.324	7594
907.441	7605
907.557	7457
907.674	7445
907.79	7434
907.907	7373
908.023	7445
908.139	7403
908.256	7460
908.372	7384
908.488	7396
908.604	7346
908.72	7270
908.836	7270
908.952	7278
909.068	7308
909.184	7316
909.3	7285
909.415	7312
909.531	7202
909.647	7126
909.762	7137
909.878	7069
909.993	7198
910.108	7103
910.224	7050
910.339	7107
910.454	7076
910.57	7012
910.685	6947
910.8	7198
910.915	7110
911.03	6966
911.145	6859
911.259	6909
911.374	6939
911.489	6894
911.604	6791
911.718	6734
911.833	6677
911.947	6665
912.062	6654
912.176	6650
912.291	6696
912.405	6741
912.519	6856
912.633	6871
912.748	6795
912.862	6681
912.976	6578
913.09	6604
913.204	6589
913.318	6585
913.431	6662
913.545	6639
913.659	6741
913.772	6654
913.886	6646
914	6498
914.113	6639
914.226	6623
914.34	6616
914.453	6528
914.566	6612
914.68	6563
914.793	6536
914.906	6448
915.019	6388
915.132	6426
915.245	6441
915.358	6471
915.47	6441
915.583	6456
915.696	6464
915.809	6563
915.921	6563
916.034	6452
916.146	6380
916.259	6323
916.371	6498
916.483	6460
916.595	6407
916.708	6369
916.82	6426
916.932	6399
917.044	6399
917.156	6426
917.268	6372
917.38	6346
917.491	6319
917.603	6346
917.715	6433
917.826	6471
917.938	6292
918.049	6201
918.161	6331
918.272	6418
918.384	6479
918.495	6338
918.606	6277
918.717	6262
918.828	6331
918.939	6228
919.05	6186
919.161	6251
919.272	6152
919.383	6140
919.494	6308
919.604	6418
919.715	6304
919.826	6273
919.936	6292
920.047	6365
920.157	6239
920.267	6467
920.378	6338
920.488	6270
920.598	6437
920.708	6544
920.818	6445
920.928	6467
921.038	6585
921.148	6536
921.258	6304
921.368	6323
921.477	6247
921.587	6224
921.697	6125
921.806	6228
921.916	6076
922.025	5965
922.134	5954
922.244	5904
922.353	5954
922.462	5870
922.571	5832
922.68	5707
922.789	5699
922.898	5726
923.007	5646
923.116	5642
923.224	5714
923.333	5680
923.442	5615
923.55	5520
923.659	5642
923.767	5657
923.876	5661
923.984	5581
924.092	5486
924.201	5589
924.309	5558
924.417	5501
924.525	5554
924.633	5566
924.741	6182
924.849	5410
924.956	5497
925.064	5341
925.172	5258
925.279	5311
925.387	5334
925.494	5353
925.602	5395
925.709	5425
925.816	5311
925.924	5334
926.031	5398
926.138	5296
926.245	5364
926.352	5185
926.459	5273
926.566	5318
926.673	5208
926.779	5162
926.886	5132
926.993	5056
927.099	5014
927.206	4995
927.312	4927
927.419	5018
927.525	4976
927.631	5014
927.737	4843
927.843	4858
927.95	4740
928.056	4889
928.162	4812
928.267	4820
928.373	5349
928.479	4862
928.585	4679
928.69	4786
928.796	4752
928.901	4714
929.007	4596
929.112	4721
929.218	4668
929.323	4592
929.428	4554
929.533	4626
929.638	4527
929.743	4531
929.848	4565
929.953	4508
930.058	4443
930.163	4383
930.267	4367
930.372	4436
930.477	4337
930.581	4474
930.685	4360
930.79	4249
930.894	4276
930.998	4257
931.103	4478
931.207	4131
931.311	4078
931.415	4025
931.519	3937
931.623	3926
