Data from glass_V78500241_2446.txt Node
Date: Wed Sep 01 19:31:27 CST 2021
User: usil
Spectrometer: V785-0024
Trigger mode: 0
Integration Time (sec): 4.000000E-1
Scans to average: 1
Nonlinearity correction enabled: false
Boxcar width: 0
Storing dark spectrum: false
XAxis mode: Wavelengths
Number of Pixels in Spectrum: 1024
>>>>>Begin Spectral Data<<<<<
801.071	3717
801.214	3724
801.356	3717
801.499	3694
801.641	3698
801.783	3762
801.926	3869
802.068	3835
802.211	3835
802.353	3884
802.496	3831
802.638	3854
802.78	3915
802.923	3907
803.065	3884
803.208	3876
803.35	3865
803.492	3907
803.635	3918
803.777	3793
803.919	3903
804.061	4185
804.204	3979
804.346	3941
804.488	3945
804.63	4032
804.773	3987
804.915	4002
805.057	4147
805.199	3998
805.341	4109
805.483	4093
805.626	4120
805.768	4120
805.91	4181
806.052	4227
806.194	4230
806.336	4322
806.478	4230
806.62	4135
806.762	4154
806.904	4196
807.046	4276
807.188	4185
807.33	4166
807.472	4219
807.614	4154
807.756	4242
807.898	4185
808.04	4173
808.182	4249
808.324	4306
808.465	4386
808.607	4409
808.749	4455
808.891	4440
809.033	4516
809.174	4417
809.316	4238
809.458	4215
809.6	4169
809.741	4116
809.883	4147
810.025	4154
810.166	4219
810.308	4196
810.45	4215
810.591	4166
810.733	4280
810.875	4527
811.016	4820
811.158	5140
811.299	5284
811.441	5288
811.582	5056
811.724	4706
811.865	4440
812.007	4466
812.148	4398
812.29	4402
812.431	4402
812.573	4379
812.714	4386
812.855	4383
812.997	4417
813.138	4493
813.279	4367
813.421	4344
813.562	4341
813.703	4276
813.845	4333
813.986	4268
814.127	4227
814.268	4227
814.41	4227
814.551	4219
814.692	4329
814.833	4265
814.974	4268
815.115	4287
815.256	4272
815.397	4188
815.539	4253
815.68	4196
815.821	4219
815.962	4318
816.103	4242
816.244	4223
816.385	4188
816.526	4265
816.666	4246
816.807	4067
816.948	4154
817.089	4211
817.23	4112
817.371	4017
817.512	4090
817.653	4074
817.793	4029
817.934	4059
818.075	4071
818.216	4040
818.356	4074
818.497	4006
818.638	3888
818.778	3926
818.919	3873
819.06	3876
819.2	3865
819.341	3880
819.481	3804
819.622	3945
819.762	4044
819.903	3937
820.043	3888
820.184	3838
820.324	3808
820.465	3892
820.605	3899
820.746	3873
820.886	3759
821.026	3915
821.167	3915
821.307	3956
821.447	3987
821.588	3915
821.728	3937
821.868	3937
822.008	3838
822.149	3880
822.289	3896
822.429	3762
822.569	3759
822.709	3785
822.849	3686
822.99	3698
823.13	3698
823.27	3785
823.41	3743
823.55	3717
823.69	3694
823.83	3720
823.97	3663
824.11	3561
824.25	3618
824.389	3606
824.529	3686
824.669	3633
824.809	3671
824.949	3751
825.089	3747
825.228	3705
825.368	3603
825.508	3557
825.648	3564
825.787	3614
825.927	3648
826.067	3629
826.206	3641
826.346	3785
826.485	3823
826.625	3854
826.765	3941
826.904	3808
827.044	3610
827.183	3538
827.323	3420
827.462	3412
827.601	3454
827.741	3397
827.88	3477
828.02	3325
828.159	3412
828.298	3469
828.437	3515
828.577	3435
828.716	3584
828.855	3511
828.994	3359
829.134	3363
829.273	3409
829.412	3363
829.551	3310
829.69	3355
829.829	3443
829.968	3488
830.107	3435
830.246	3389
830.385	3359
830.524	3374
830.663	3291
830.802	3249
830.941	3165
831.08	3218
831.219	3260
831.357	3279
831.496	3424
831.635	3226
831.774	3161
831.913	3207
832.051	3119
832.19	3146
832.329	3199
832.467	3123
832.606	3081
832.744	3161
832.883	3184
833.022	3184
833.16	3256
833.299	3310
833.437	3317
833.576	3405
833.714	3424
833.852	3412
833.991	3435
834.129	3447
834.267	3428
834.406	3397
834.544	3412
834.682	3378
834.821	3431
834.959	3568
835.097	3382
835.235	3534
835.373	3477
835.511	3504
835.65	3462
835.788	3443
835.926	3367
836.064	3367
836.202	3378
836.34	3526
836.478	3622
836.615	3564
836.753	3603
836.891	3622
837.029	3606
837.167	3561
837.305	3523
837.443	3538
837.58	3530
837.718	3614
837.856	3545
837.993	3526
838.131	3606
838.269	3572
838.406	3576
838.544	3549
838.681	3447
838.819	3447
838.956	3325
839.094	3351
839.231	3389
839.369	3500
839.506	3720
839.643	3595
839.781	3500
839.918	3473
840.055	3500
840.193	3488
840.33	3549
840.467	3492
840.604	3576
840.742	3766
840.879	3557
841.016	3526
841.153	3606
841.29	3736
841.427	3720
841.564	3728
841.701	3724
841.838	3637
841.975	3660
842.112	3724
842.249	3648
842.385	3603
842.522	3808
842.659	3663
842.796	3671
842.933	3675
843.069	3713
843.206	3686
843.343	3819
843.479	3755
843.616	3819
843.752	3656
843.889	3652
844.025	3850
844.162	3690
844.298	3816
844.435	3762
844.571	3762
844.708	3926
844.844	3975
844.98	4032
845.117	3998
845.253	3896
845.389	3880
845.525	3949
845.661	3945
845.798	3888
845.934	4021
846.07	3968
846.206	4044
846.342	4112
846.478	4036
846.614	3941
846.75	3876
846.886	3911
847.022	4044
847.158	4044
847.294	3998
847.429	3968
847.565	3991
847.701	4185
847.837	3899
847.972	3869
848.108	3998
848.244	3937
848.379	3865
848.515	3816
848.65	3812
848.786	3865
848.921	3888
849.057	3873
849.192	4013
849.328	3857
849.463	3888
849.598	3880
849.734	3842
849.869	3800
850.004	3808
850.14	3823
850.275	3770
850.41	3766
850.545	3717
850.68	3797
850.815	3759
850.95	3831
851.085	3915
851.22	3850
851.355	3816
851.49	3770
851.625	3789
851.76	3812
851.895	3713
852.03	3682
852.165	3743
852.299	3846
852.434	3873
852.569	3812
852.703	3903
852.838	3899
852.973	4036
853.107	3975
853.242	3888
853.376	3838
853.511	3781
853.645	3861
853.78	3937
853.914	3854
854.048	3892
854.183	3884
854.317	3934
854.451	4021
854.585	3918
854.72	3926
854.854	4021
854.988	3975
855.122	3975
855.256	3934
855.39	3983
855.524	4097
855.658	4044
855.792	4097
855.926	4086
856.06	4181
856.194	4150
856.327	4093
856.461	4078
856.595	4105
856.729	4173
856.862	4200
856.996	4265
857.13	4257
857.263	4295
857.397	4367
857.53	4303
857.664	4356
857.797	4394
857.931	4402
858.064	4325
858.197	4424
858.331	4421
858.464	4314
858.597	4337
858.731	4443
858.864	4424
858.997	4398
859.13	4535
859.263	4546
859.396	4535
859.529	4523
859.662	4523
859.795	4546
859.928	4588
860.061	4706
860.194	4744
860.327	4641
860.46	4615
860.592	4683
860.725	4710
860.858	4812
860.99	4706
861.123	4668
861.256	4698
861.388	4744
861.521	5528
861.653	4679
861.786	4725
861.918	4702
862.05	4790
862.183	4786
862.315	4892
862.447	4957
862.58	4839
862.712	4759
862.844	4759
862.976	4862
863.108	4843
863.24	5140
863.372	4809
863.504	4862
863.636	4885
863.768	4915
863.9	4961
864.032	4889
864.164	4938
864.296	5014
864.428	5041
864.559	5105
864.691	5086
864.823	5079
864.954	5094
865.086	5117
865.217	5140
865.349	5094
865.48	5193
865.612	5178
865.743	5273
865.875	5178
866.006	5170
866.137	5208
866.269	5208
866.4	5254
866.531	5239
866.662	5239
866.793	5242
866.924	5265
867.055	5307
867.186	5296
867.317	5357
867.448	5258
867.579	5326
867.71	5391
867.841	5372
867.972	5406
868.103	5436
868.233	5467
868.364	5436
868.495	5558
868.625	5688
868.756	5756
868.886	5611
869.017	5672
869.147	5824
869.278	5863
869.408	5775
869.539	5756
869.669	5885
869.799	5878
869.929	6026
870.06	6015
870.19	6201
870.32	6201
870.45	6216
870.58	6277
870.71	6388
870.84	6490
870.97	6391
871.1	6467
871.23	6627
871.36	6681
871.489	6593
871.619	6791
871.749	6768
871.879	6905
872.008	6932
872.138	6924
872.267	7034
872.397	6981
872.526	7114
872.656	7034
872.785	7126
872.915	7381
873.044	7556
873.173	7552
873.303	7578
873.432	7708
873.561	7769
873.69	7913
873.819	8027
873.948	8126
874.077	8221
874.206	8301
874.335	8385
874.464	8663
874.593	8876
874.722	8941
874.851	9127
874.979	9195
875.108	9348
875.237	9355
875.365	9424
875.494	9641
875.623	9732
875.751	9827
875.88	10010
876.008	10196
876.136	10249
876.265	10432
876.393	10615
876.521	10702
876.65	10759
876.778	10824
876.906	10900
877.034	10949
877.162	11033
877.29	11162
877.418	11250
877.546	11303
877.674	11429
877.802	11505
877.93	11505
878.058	11532
878.185	11585
878.313	11627
878.441	11718
878.568	11615
878.696	11783
878.824	11897
878.951	11847
879.079	12076
879.206	12041
879.333	11996
879.461	11977
879.588	12072
879.715	12110
879.842	12243
879.97	12095
880.097	11897
880.224	11870
880.351	11904
880.478	11813
880.605	11843
880.732	11737
880.859	11973
880.986	11790
881.112	11847
881.239	11726
881.366	11646
881.493	11592
881.619	11490
881.746	11573
881.872	11535
881.999	11539
882.125	11493
882.252	11543
882.378	11528
882.505	11535
882.631	11372
882.757	11265
882.883	11341
883.01	11318
883.136	11174
883.262	11102
883.388	11079
883.514	11204
883.64	11181
883.766	11071
883.892	10976
884.018	11006
884.143	10949
884.269	11083
884.395	10900
884.52	10687
884.646	10774
884.772	10691
884.897	10592
885.023	10656
885.148	10645
885.274	10771
885.399	10634
885.524	10588
885.65	10694
885.775	10622
885.9	10558
886.025	10607
886.15	10577
886.275	10497
886.4	10394
886.525	10360
886.65	10402
886.775	10291
886.9	10493
887.025	10455
887.149	10409
887.274	10204
887.399	10185
887.523	10093
887.648	10128
887.773	10090
887.897	10230
888.021	10196
888.146	10097
888.27	10204
888.395	10246
888.519	10200
888.643	10116
888.767	10147
888.891	10093
889.015	10029
889.139	10086
889.263	10010
889.387	10017
889.511	10120
889.635	10036
889.759	9899
889.883	9930
890.006	9964
890.13	10082
890.254	9983
890.377	9945
890.501	9797
890.624	9869
890.748	9880
890.871	9762
890.995	9793
891.118	9709
891.241	9686
891.364	9720
891.488	9819
891.611	9766
891.734	9690
891.857	9797
891.98	9713
892.103	9705
892.226	9675
892.349	9732
892.471	9545
892.594	9507
892.717	9595
892.839	9641
892.962	9553
893.085	9656
893.207	9584
893.33	9504
893.452	9515
893.575	9622
893.697	9473
893.819	9561
893.941	9557
894.064	9637
894.186	9473
894.308	9401
894.43	9477
894.552	9545
894.674	9561
894.796	9412
894.918	9424
895.04	9367
895.161	9336
895.283	9325
895.405	9249
895.526	9237
895.648	9211
895.769	9214
895.891	9222
896.012	9302
896.134	9241
896.255	9085
896.376	9104
896.498	9058
896.619	9104
896.74	9085
896.861	9123
896.982	9264
897.103	9245
897.224	9074
897.345	9028
897.466	9032
897.587	8956
897.708	9058
897.828	8960
897.949	8902
898.07	8876
898.19	8929
898.311	8998
898.431	8914
898.552	8902
898.672	8868
898.792	8967
898.913	8925
899.033	8762
899.153	8743
899.273	8621
899.393	8750
899.513	8724
899.633	8693
899.753	8746
899.873	8746
899.993	8727
900.113	8689
900.232	8682
900.352	8625
900.472	8575
900.591	8511
900.711	8606
900.83	8499
900.95	8587
901.069	8651
901.189	8518
901.308	8419
901.427	8355
901.546	8389
901.665	8545
901.784	8461
901.904	8400
902.023	8336
902.141	8294
902.26	8225
902.379	8233
902.498	8199
902.617	8172
902.735	8267
902.854	8305
902.973	8317
903.091	8168
903.21	8126
903.328	8161
903.446	8123
903.565	8062
903.683	8123
903.801	8043
903.919	8092
904.038	8176
904.156	8001
904.274	8065
904.392	7986
904.51	8008
904.627	8046
904.745	8031
904.863	8062
904.981	7928
905.098	7837
905.216	7826
905.334	7871
905.451	7833
905.569	7917
905.686	7894
905.803	7909
905.921	7784
906.038	7837
906.155	7795
906.272	7651
906.389	7719
906.506	7685
906.623	7666
906.74	7567
906.857	7480
906.974	7521
907.091	7620
907.208	7597
907.324	7658
907.441	7529
907.557	7415
907.674	7407
907.79	7365
907.907	7396
908.023	7426
908.139	7400
908.256	7411
908.372	7331
908.488	7320
908.604	7270
908.72	7236
908.836	7228
908.952	7247
909.068	7232
909.184	7263
909.3	7285
909.415	7278
909.531	7301
909.647	7129
909.762	7099
909.878	7057
909.993	7069
910.108	7069
910.224	7095
910.339	7137
910.454	7023
910.57	6932
910.685	6993
910.8	7175
910.915	7027
911.03	6996
911.145	6802
911.259	6856
911.374	6837
911.489	6863
911.604	6734
911.718	6692
911.833	6711
911.947	6688
912.062	6639
912.176	6688
912.291	6711
912.405	6677
912.519	6818
912.633	6802
912.748	6707
912.862	6700
912.976	6593
913.09	6483
913.204	6547
913.318	6604
913.431	6707
913.545	6589
913.659	6726
913.772	6593
913.886	6593
914	6540
914.113	6604
914.226	6623
914.34	6620
914.453	6456
914.566	6616
914.68	6528
914.793	6464
914.906	6388
915.019	6399
915.132	6331
915.245	6395
915.358	6429
915.47	6433
915.583	6494
915.696	6456
915.809	6521
915.921	6555
916.034	6456
916.146	6319
916.259	6376
916.371	6464
916.483	6448
916.595	6399
916.708	6395
916.82	6391
916.932	6399
917.044	6350
917.156	6391
917.268	6331
917.38	6395
917.491	6308
917.603	6331
917.715	6414
917.826	6422
917.938	6300
918.049	6235
918.161	6353
918.272	6372
918.384	6414
918.495	6353
918.606	6155
918.717	6247
918.828	6262
918.939	6304
919.05	6228
919.161	6254
919.272	6083
919.383	6178
919.494	6300
919.604	6376
919.715	6300
919.826	6186
919.936	6205
920.047	6380
920.157	6300
920.267	6464
920.378	6361
920.488	6300
920.598	6407
920.708	6532
920.818	6433
920.928	6445
921.038	6574
921.148	6589
921.258	6334
921.368	6232
921.477	6167
921.587	6152
921.697	6083
921.806	6148
921.916	6076
922.025	5916
922.134	5916
922.244	5866
922.353	5916
922.462	5828
922.571	5813
922.68	5680
922.789	5688
922.898	5668
923.007	5592
923.116	5714
923.224	5608
923.333	5665
923.442	5543
923.55	5524
923.659	5570
923.767	5642
923.876	5501
923.984	5604
924.092	5505
924.201	5520
924.309	5528
924.417	5539
924.525	5425
924.633	5501
924.741	6281
924.849	5337
924.956	5516
925.064	5387
925.172	5307
925.279	5326
925.387	5318
925.494	5322
925.602	5387
925.709	5364
925.816	5250
925.924	5280
926.031	5406
926.138	5292
926.245	5326
926.352	5178
926.459	5296
926.566	5379
926.673	5231
926.779	5174
926.886	5083
926.993	5056
927.099	5010
927.206	4965
927.312	4923
927.419	5022
927.525	4915
927.631	4991
927.737	4824
927.843	4858
927.95	4759
928.056	4820
928.162	4831
928.267	4847
928.373	5197
928.479	4839
928.585	4679
928.69	4759
928.796	4778
928.901	4714
929.007	4607
929.112	4683
929.218	4603
929.323	4611
929.428	4550
929.533	4630
929.638	4504
929.743	4531
929.848	4573
929.953	4497
930.058	4451
930.163	4310
930.267	4318
930.372	4421
930.477	4299
930.581	4478
930.685	4383
930.79	4310
930.894	4291
930.998	4276
931.103	4379
931.207	4128
931.311	4063
931.415	4063
931.519	3892
931.623	3956
