Data from glass_V78500241_191.txt Node
Date: Wed Sep 01 19:15:49 CST 2021
User: usil
Spectrometer: V785-0024
Trigger mode: 0
Integration Time (sec): 4.000000E-1
Scans to average: 1
Nonlinearity correction enabled: false
Boxcar width: 0
Storing dark spectrum: false
XAxis mode: Wavelengths
Number of Pixels in Spectrum: 1024
>>>>>Begin Spectral Data<<<<<
801.071	3728
801.214	3766
801.356	3701
801.499	3732
801.641	3728
801.783	3781
801.926	3812
802.068	3869
802.211	3838
802.353	3930
802.496	3857
802.638	3903
802.78	3926
802.923	3949
803.065	3907
803.208	3869
803.35	3880
803.492	3945
803.635	3956
803.777	3816
803.919	3907
804.061	4181
804.204	3968
804.346	3953
804.488	3937
804.63	4051
804.773	3979
804.915	4051
805.057	4204
805.199	4055
805.341	4086
805.483	4181
805.626	4112
805.768	4097
805.91	4185
806.052	4242
806.194	4215
806.336	4352
806.478	4242
806.62	4177
806.762	4185
806.904	4295
807.046	4367
807.188	4249
807.33	4158
807.472	4230
807.614	4207
807.756	4299
807.898	4246
808.04	4219
808.182	4310
808.324	4314
808.465	4402
808.607	4497
808.749	4500
808.891	4455
809.033	4497
809.174	4432
809.316	4284
809.458	4257
809.6	4150
809.741	4188
809.883	4158
810.025	4211
810.166	4188
810.308	4192
810.45	4242
810.591	4246
810.733	4291
810.875	4546
811.016	4831
811.158	5132
811.299	5299
811.441	5284
811.582	5113
811.724	4702
811.865	4459
812.007	4478
812.148	4409
812.29	4424
812.431	4421
812.573	4455
812.714	4379
812.855	4424
812.997	4398
813.138	4516
813.279	4405
813.421	4424
813.562	4417
813.703	4363
813.845	4325
813.986	4268
814.127	4265
814.268	4246
814.41	4383
814.551	4265
814.692	4314
814.833	4246
814.974	4375
815.115	4329
815.256	4284
815.397	4303
815.539	4287
815.68	4177
815.821	4196
815.962	4360
816.103	4314
816.244	4242
816.385	4223
816.526	4318
816.666	4177
816.807	4059
816.948	4230
817.089	4154
817.23	4139
817.371	4063
817.512	4025
817.653	4078
817.793	4051
817.934	3994
818.075	4150
818.216	4109
818.356	4040
818.497	4029
818.638	3899
818.778	3911
818.919	3911
819.06	3922
819.2	3918
819.341	3907
819.481	3846
819.622	3949
819.762	4074
819.903	3945
820.043	3896
820.184	3857
820.324	3831
820.465	3892
820.605	3896
820.746	3926
820.886	3838
821.026	3937
821.167	3979
821.307	3991
821.447	4029
821.588	3941
821.728	4010
821.868	3979
822.008	3842
822.149	3937
822.289	3941
822.429	3778
822.569	3819
822.709	3857
822.849	3682
822.99	3766
823.13	3793
823.27	3816
823.41	3736
823.55	3770
823.69	3747
823.83	3755
823.97	3675
824.11	3618
824.25	3644
824.389	3641
824.529	3717
824.669	3644
824.809	3686
824.949	3751
825.089	3736
825.228	3740
825.368	3576
825.508	3557
825.648	3606
825.787	3606
825.927	3629
826.067	3667
826.206	3701
826.346	3785
826.485	3846
826.625	3876
826.765	3987
826.904	3846
827.044	3656
827.183	3557
827.323	3458
827.462	3473
827.601	3428
827.741	3412
827.88	3466
828.02	3382
828.159	3500
828.298	3557
828.437	3553
828.577	3511
828.716	3648
828.855	3530
828.994	3378
829.134	3374
829.273	3397
829.412	3370
829.551	3370
829.69	3386
829.829	3454
829.968	3523
830.107	3481
830.246	3458
830.385	3416
830.524	3378
830.663	3313
830.802	3264
830.941	3203
831.08	3199
831.219	3230
831.357	3279
831.496	3416
831.635	3233
831.774	3199
831.913	3203
832.051	3100
832.19	3150
832.329	3245
832.467	3123
832.606	3097
832.744	3169
832.883	3169
833.022	3184
833.16	3279
833.299	3306
833.437	3340
833.576	3374
833.714	3405
833.852	3477
833.991	3473
834.129	3469
834.267	3435
834.406	3450
834.544	3420
834.682	3439
834.821	3431
834.959	3595
835.097	3424
835.235	3557
835.373	3481
835.511	3496
835.65	3462
835.788	3469
835.926	3439
836.064	3374
836.202	3428
836.34	3580
836.478	3595
836.615	3576
836.753	3625
836.891	3671
837.029	3618
837.167	3648
837.305	3572
837.443	3580
837.58	3500
837.718	3610
837.856	3587
837.993	3599
838.131	3610
838.269	3584
838.406	3576
838.544	3614
838.681	3488
838.819	3454
838.956	3412
839.094	3428
839.231	3469
839.369	3557
839.506	3766
839.643	3671
839.781	3523
839.918	3504
840.055	3530
840.193	3538
840.33	3553
840.467	3564
840.604	3682
840.742	3835
840.879	3561
841.016	3610
841.153	3606
841.29	3751
841.427	3793
841.564	3701
841.701	3774
841.838	3743
841.975	3705
842.112	3747
842.249	3679
842.385	3656
842.522	3831
842.659	3675
842.796	3724
842.933	3743
843.069	3732
843.206	3675
843.343	3835
843.479	3812
843.616	3835
843.752	3652
843.889	3701
844.025	3880
844.162	3705
844.298	3873
844.435	3785
844.571	3778
844.708	3865
844.844	4006
844.98	4055
845.117	3987
845.253	3941
845.389	3884
845.525	4021
845.661	3998
845.798	3979
845.934	4048
846.07	3960
846.206	4025
846.342	4143
846.478	4059
846.614	3945
846.75	3941
846.886	3857
847.022	4048
847.158	4025
847.294	3975
847.429	4044
847.565	3987
847.701	4249
847.837	3880
847.972	3876
848.108	3979
848.244	3968
848.379	3869
848.515	3827
848.65	3915
848.786	3869
848.921	3857
849.057	4006
849.192	3979
849.328	3941
849.463	3953
849.598	3880
849.734	3888
849.869	3857
850.004	3778
850.14	3869
850.275	3800
850.41	3770
850.545	3774
850.68	3747
850.815	3812
850.95	3819
851.085	3926
851.22	3899
851.355	3842
851.49	3823
851.625	3823
851.76	3827
851.895	3789
852.03	3724
852.165	3797
852.299	3854
852.434	3960
852.569	3907
852.703	3892
852.838	3934
852.973	4021
853.107	3972
853.242	3926
853.376	3850
853.511	3835
853.645	3892
853.78	3949
853.914	3918
854.048	3941
854.183	3926
854.317	4025
854.451	4101
854.585	3975
854.72	3972
854.854	4036
854.988	3991
855.122	4013
855.256	3937
855.39	4040
855.524	4093
855.658	4109
855.792	4067
855.926	4162
856.06	4177
856.194	4192
856.327	4147
856.461	4093
856.595	4185
856.729	4181
856.862	4299
856.996	4322
857.13	4310
857.263	4325
857.397	4383
857.53	4318
857.664	4417
857.797	4470
857.931	4447
858.064	4398
858.197	4481
858.331	4394
858.464	4375
858.597	4322
858.731	4451
858.864	4466
858.997	4462
859.13	4554
859.263	4573
859.396	4580
859.529	4478
859.662	4550
859.795	4561
859.928	4580
860.061	4698
860.194	4778
860.327	4675
860.46	4679
860.592	4797
860.725	4778
860.858	4729
860.99	4725
861.123	4725
861.256	4710
861.388	4710
861.521	5463
861.653	4774
861.786	4702
861.918	4774
862.05	4816
862.183	4828
862.315	4885
862.447	4961
862.58	4904
862.712	4809
862.844	4782
862.976	4854
863.108	4896
863.24	5311
863.372	4858
863.504	4942
863.636	4904
863.768	5010
863.9	4923
864.032	4968
864.164	4927
864.296	5022
864.428	5162
864.559	5128
864.691	5094
864.823	5121
864.954	5128
865.086	5098
865.217	5090
865.349	5117
865.48	5140
865.612	5189
865.743	5296
865.875	5208
866.006	5181
866.137	5307
866.269	5258
866.4	5246
866.531	5292
866.662	5280
866.793	5239
866.924	5334
867.055	5376
867.186	5337
867.317	5345
867.448	5349
867.579	5357
867.71	5326
867.841	5417
867.972	5467
868.103	5455
868.233	5547
868.364	5516
868.495	5581
868.625	5695
868.756	5817
868.886	5688
869.017	5752
869.147	5847
869.278	5882
869.408	5771
869.539	5805
869.669	5923
869.799	5942
869.929	5954
870.06	5977
870.19	6182
870.32	6167
870.45	6327
870.58	6334
870.71	6410
870.84	6486
870.97	6407
871.1	6418
871.23	6616
871.36	6696
871.489	6677
871.619	6753
871.749	6802
871.879	6890
872.008	6993
872.138	7023
872.267	7034
872.397	7042
872.526	7046
872.656	7126
872.785	7274
872.915	7434
873.044	7575
873.173	7552
873.303	7632
873.432	7719
873.561	7841
873.69	7932
873.819	8005
873.948	8183
874.077	8282
874.206	8358
874.335	8442
874.464	8674
874.593	8842
874.722	8994
874.851	9135
874.979	9256
875.108	9439
875.237	9412
875.365	9466
875.494	9637
875.623	9842
875.751	9911
875.88	9953
876.008	10185
876.136	10291
876.265	10512
876.393	10622
876.521	10767
876.65	10820
876.778	10824
876.906	10889
877.034	10980
877.162	11056
877.29	11140
877.418	11315
877.546	11387
877.674	11452
877.802	11520
877.93	11570
878.058	11589
878.185	11577
878.313	11714
878.441	11764
878.568	11733
878.696	11843
878.824	11794
878.951	11977
879.079	12079
879.206	12117
879.333	12068
879.461	12015
879.588	12038
879.715	12053
879.842	12167
879.97	12068
880.097	11885
880.224	11828
880.351	11916
880.478	11908
880.605	11843
880.732	11866
880.859	12083
880.986	11775
881.112	11863
881.239	11756
881.366	11676
881.493	11634
881.619	11600
881.746	11547
881.872	11509
881.999	11535
882.125	11581
882.252	11604
882.378	11463
882.505	11627
882.631	11379
882.757	11326
882.883	11303
883.01	11296
883.136	11246
883.262	11121
883.388	11067
883.514	11212
883.64	11223
883.766	11071
883.892	10972
884.018	10984
884.143	10965
884.269	11067
884.395	10828
884.52	10801
884.646	10755
884.772	10752
884.897	10626
885.023	10645
885.148	10763
885.274	10767
885.399	10748
885.524	10645
885.65	10615
885.775	10630
885.9	10493
886.025	10618
886.15	10577
886.275	10451
886.4	10417
886.525	10428
886.65	10409
886.775	10417
886.9	10588
887.025	10569
887.149	10382
887.274	10253
887.399	10200
887.523	10055
887.648	10116
887.773	10090
887.897	10177
888.021	10219
888.146	10169
888.27	10196
888.395	10287
888.519	10223
888.643	10238
888.767	10291
888.891	10097
889.015	9975
889.139	10101
889.263	10002
889.387	10112
889.511	10158
889.635	10120
889.759	9975
889.883	9983
890.006	9987
890.13	10116
890.254	9964
890.377	10006
890.501	9854
890.624	9899
890.748	9835
890.871	9785
890.995	9816
891.118	9747
891.241	9785
891.364	9778
891.488	9857
891.611	9774
891.734	9751
891.857	9797
891.98	9740
892.103	9781
892.226	9724
892.349	9610
892.471	9561
892.594	9606
892.717	9679
892.839	9572
892.962	9644
893.085	9675
893.207	9580
893.33	9538
893.452	9549
893.575	9618
893.697	9553
893.819	9629
893.941	9538
894.064	9568
894.186	9424
894.308	9397
894.43	9542
894.552	9580
894.674	9447
894.796	9370
894.918	9367
895.04	9466
895.161	9393
895.283	9412
895.405	9245
895.526	9272
895.648	9268
895.769	9272
895.891	9245
896.012	9279
896.134	9268
896.255	9169
896.376	9184
896.498	9176
896.619	9203
896.74	9100
896.861	9165
896.982	9321
897.103	9370
897.224	9161
897.345	9104
897.466	9032
897.587	9081
897.708	9074
897.828	8994
897.949	8960
898.07	8914
898.19	8921
898.311	9001
898.431	8937
898.552	8895
898.672	9020
898.792	8971
898.913	8872
899.033	8792
899.153	8861
899.273	8625
899.393	8758
899.513	8746
899.633	8762
899.753	8693
899.873	8674
899.993	8754
900.113	8731
900.232	8781
900.352	8667
900.472	8621
900.591	8514
900.711	8594
900.83	8571
900.95	8720
901.069	8697
901.189	8564
901.308	8476
901.427	8450
901.546	8454
901.665	8457
901.784	8549
901.904	8393
902.023	8317
902.141	8199
902.26	8259
902.379	8256
902.498	8279
902.617	8240
902.735	8298
902.854	8183
902.973	8301
903.091	8157
903.21	8088
903.328	8206
903.446	8187
903.565	8081
903.683	8138
903.801	8111
903.919	8161
904.038	8119
904.156	8050
904.274	8157
904.392	8035
904.51	8054
904.627	8031
904.745	8092
904.863	8164
904.981	7936
905.098	7864
905.216	7913
905.334	7928
905.451	7936
905.569	7997
905.686	7936
905.803	7883
905.921	7738
906.038	7902
906.155	7780
906.272	7681
906.389	7795
906.506	7723
906.623	7666
906.74	7594
906.857	7563
906.974	7613
907.091	7647
907.208	7681
907.324	7613
907.441	7590
907.557	7502
907.674	7434
907.79	7388
907.907	7403
908.023	7483
908.139	7472
908.256	7381
908.372	7354
908.488	7354
908.604	7305
908.72	7316
908.836	7278
908.952	7228
909.068	7225
909.184	7362
909.3	7251
909.415	7266
909.531	7289
909.647	7110
909.762	7129
909.878	7103
909.993	7103
910.108	7160
910.224	7145
910.339	7110
910.454	7076
910.57	6958
910.685	6962
910.8	7168
910.915	7114
911.03	7038
911.145	6878
911.259	6905
911.374	6916
911.489	6821
911.604	6856
911.718	6673
911.833	6757
911.947	6692
912.062	6658
912.176	6673
912.291	6749
912.405	6665
912.519	6829
912.633	6787
912.748	6719
912.862	6703
912.976	6688
913.09	6517
913.204	6551
913.318	6585
913.431	6703
913.545	6692
913.659	6677
913.772	6635
913.886	6574
914	6574
914.113	6681
914.226	6677
914.34	6650
914.453	6525
914.566	6593
914.68	6544
914.793	6601
914.906	6429
915.019	6410
915.132	6456
915.245	6490
915.358	6464
915.47	6414
915.583	6494
915.696	6532
915.809	6585
915.921	6589
916.034	6369
916.146	6456
916.259	6433
916.371	6509
916.483	6475
916.595	6388
916.708	6437
916.82	6365
916.932	6365
917.044	6407
917.156	6429
917.268	6308
917.38	6338
917.491	6365
917.603	6376
917.715	6437
917.826	6426
917.938	6346
918.049	6228
918.161	6376
918.272	6410
918.384	6475
918.495	6334
918.606	6232
918.717	6262
918.828	6331
918.939	6308
919.05	6220
919.161	6319
919.272	6098
919.383	6197
919.494	6327
919.604	6418
919.715	6277
919.826	6201
919.936	6235
920.047	6369
920.157	6258
920.267	6452
920.378	6361
920.488	6304
920.598	6464
920.708	6646
920.818	6502
920.928	6506
921.038	6597
921.148	6544
921.258	6380
921.368	6327
921.477	6300
921.587	6235
921.697	6060
921.806	6197
921.916	6102
922.025	5954
922.134	5950
922.244	5874
922.353	5954
922.462	5851
922.571	5817
922.68	5688
922.789	5691
922.898	5710
923.007	5619
923.116	5707
923.224	5707
923.333	5707
923.442	5619
923.55	5608
923.659	5581
923.767	5642
923.876	5558
923.984	5653
924.092	5528
924.201	5558
924.309	5520
924.417	5577
924.525	5493
924.633	5474
924.741	6178
924.849	5376
924.956	5505
925.064	5322
925.172	5341
925.279	5345
925.387	5345
925.494	5303
925.602	5429
925.709	5433
925.816	5273
925.924	5372
926.031	5330
926.138	5315
926.245	5372
926.352	5250
926.459	5311
926.566	5372
926.673	5201
926.779	5136
926.886	5124
926.993	5067
927.099	5014
927.206	5041
927.312	4984
927.419	5056
927.525	4972
927.631	5022
927.737	4930
927.843	4877
927.95	4809
928.056	4847
928.162	4889
928.267	4873
928.373	5197
928.479	4858
928.585	4694
928.69	4793
928.796	4805
928.901	4702
929.007	4630
929.112	4721
929.218	4649
929.323	4584
929.428	4618
929.533	4706
929.638	4550
929.743	4497
929.848	4550
929.953	4508
930.058	4451
930.163	4322
930.267	4337
930.372	4432
930.477	4306
930.581	4512
930.685	4386
930.79	4280
930.894	4310
930.998	4223
931.103	4436
931.207	4128
931.311	4112
931.415	4044
931.519	3945
931.623	3956
