Data from glass_V78500241_190.txt Node
Date: Wed Sep 01 19:15:48 CST 2021
User: usil
Spectrometer: V785-0024
Trigger mode: 0
Integration Time (sec): 4.000000E-1
Scans to average: 1
Nonlinearity correction enabled: false
Boxcar width: 0
Storing dark spectrum: false
XAxis mode: Wavelengths
Number of Pixels in Spectrum: 1024
>>>>>Begin Spectral Data<<<<<
801.071	3736
801.214	3770
801.356	3709
801.499	3755
801.641	3732
801.783	3781
801.926	3892
802.068	3857
802.211	3846
802.353	3915
802.496	3827
802.638	3896
802.78	3934
802.923	3968
803.065	3903
803.208	3892
803.35	3915
803.492	3937
803.635	3930
803.777	3804
803.919	3888
804.061	4158
804.204	4010
804.346	3941
804.488	3960
804.63	4040
804.773	4006
804.915	4044
805.057	4120
805.199	4112
805.341	4093
805.483	4112
805.626	4101
805.768	4150
805.91	4234
806.052	4242
806.194	4230
806.336	4379
806.478	4242
806.62	4207
806.762	4192
806.904	4211
807.046	4333
807.188	4268
807.33	4196
807.472	4238
807.614	4219
807.756	4295
807.898	4185
808.04	4268
808.182	4280
808.324	4352
808.465	4386
808.607	4470
808.749	4508
808.891	4500
809.033	4485
809.174	4459
809.316	4291
809.458	4268
809.6	4173
809.741	4185
809.883	4177
810.025	4246
810.166	4196
810.308	4242
810.45	4265
810.591	4227
810.733	4299
810.875	4474
811.016	4835
811.158	5159
811.299	5242
811.441	5337
811.582	5079
811.724	4714
811.865	4504
812.007	4481
812.148	4459
812.29	4398
812.431	4394
812.573	4432
812.714	4367
812.855	4447
812.997	4428
813.138	4497
813.279	4440
813.421	4386
813.562	4398
813.703	4363
813.845	4352
813.986	4242
814.127	4207
814.268	4257
814.41	4280
814.551	4261
814.692	4325
814.833	4238
814.974	4371
815.115	4390
815.256	4234
815.397	4272
815.539	4268
815.68	4181
815.821	4287
815.962	4318
816.103	4314
816.244	4253
816.385	4246
816.526	4306
816.666	4188
816.807	4105
816.948	4158
817.089	4158
817.23	4128
817.371	4074
817.512	4074
817.653	4097
817.793	4086
817.934	4055
818.075	4071
818.216	4139
818.356	4074
818.497	4002
818.638	3960
818.778	3979
818.919	3934
819.06	3880
819.2	3915
819.341	3861
819.481	3842
819.622	3884
819.762	4051
819.903	3979
820.043	3907
820.184	3876
820.324	3827
820.465	3899
820.605	3937
820.746	3880
820.886	3800
821.026	3964
821.167	3949
821.307	4032
821.447	3983
821.588	3979
821.728	3983
821.868	3983
822.008	3831
822.149	3880
822.289	3922
822.429	3755
822.569	3778
822.709	3770
822.849	3717
822.99	3728
823.13	3793
823.27	3800
823.41	3713
823.55	3781
823.69	3728
823.83	3755
823.97	3705
824.11	3625
824.25	3637
824.389	3633
824.529	3671
824.669	3652
824.809	3751
824.949	3793
825.089	3797
825.228	3713
825.368	3606
825.508	3542
825.648	3587
825.787	3660
825.927	3682
826.067	3648
826.206	3709
826.346	3819
826.485	3846
826.625	3888
826.765	3930
826.904	3888
827.044	3629
827.183	3553
827.323	3420
827.462	3515
827.601	3443
827.741	3462
827.88	3454
828.02	3386
828.159	3462
828.298	3557
828.437	3553
828.577	3511
828.716	3641
828.855	3523
828.994	3401
829.134	3382
829.273	3393
829.412	3351
829.551	3348
829.69	3370
829.829	3443
829.968	3545
830.107	3439
830.246	3443
830.385	3416
830.524	3351
830.663	3302
830.802	3294
830.941	3214
831.08	3199
831.219	3283
831.357	3272
831.496	3431
831.635	3230
831.774	3203
831.913	3218
832.051	3142
832.19	3154
832.329	3260
832.467	3180
832.606	3089
832.744	3180
832.883	3146
833.022	3214
833.16	3275
833.299	3321
833.437	3336
833.576	3363
833.714	3401
833.852	3424
833.991	3412
834.129	3485
834.267	3462
834.406	3428
834.544	3428
834.682	3416
834.821	3393
834.959	3622
835.097	3469
835.235	3549
835.373	3492
835.511	3542
835.65	3454
835.788	3526
835.926	3416
836.064	3409
836.202	3439
836.34	3561
836.478	3625
836.615	3561
836.753	3599
836.891	3644
837.029	3614
837.167	3603
837.305	3568
837.443	3564
837.58	3538
837.718	3557
837.856	3549
837.993	3542
838.131	3633
838.269	3606
838.406	3606
838.544	3591
838.681	3477
838.819	3454
838.956	3386
839.094	3416
839.231	3481
839.369	3553
839.506	3732
839.643	3675
839.781	3549
839.918	3511
840.055	3564
840.193	3545
840.33	3545
840.467	3580
840.604	3591
840.742	3812
840.879	3576
841.016	3591
841.153	3584
841.29	3736
841.427	3717
841.564	3720
841.701	3755
841.838	3679
841.975	3694
842.112	3736
842.249	3671
842.385	3660
842.522	3876
842.659	3724
842.796	3671
842.933	3732
843.069	3724
843.206	3728
843.343	3869
843.479	3812
843.616	3804
843.752	3724
843.889	3698
844.025	3865
844.162	3747
844.298	3827
844.435	3827
844.571	3785
844.708	3915
844.844	4010
844.98	4040
845.117	4029
845.253	3979
845.389	3911
845.525	3953
845.661	4002
845.798	3945
845.934	4006
846.07	3987
846.206	4021
846.342	4135
846.478	4055
846.614	3991
846.75	3915
846.886	3937
847.022	4051
847.158	3960
847.294	3991
847.429	4040
847.565	3968
847.701	4265
847.837	3968
847.972	3857
848.108	4029
848.244	3983
848.379	3880
848.515	3827
848.65	3816
848.786	3838
848.921	3876
849.057	3934
849.192	3975
849.328	3941
849.463	3922
849.598	3896
849.734	3861
849.869	3842
850.004	3808
850.14	3819
850.275	3774
850.41	3770
850.545	3778
850.68	3762
850.815	3854
850.95	3869
851.085	3941
851.22	3888
851.355	3888
851.49	3823
851.625	3789
851.76	3781
851.895	3740
852.03	3732
852.165	3842
852.299	3831
852.434	3934
852.569	3846
852.703	3922
852.838	3926
852.973	4051
853.107	3998
853.242	3911
853.376	3892
853.511	3789
853.645	3823
853.78	4002
853.914	3937
854.048	3915
854.183	3937
854.317	3926
854.451	4082
854.585	3956
854.72	3968
854.854	4086
854.988	3930
855.122	4017
855.256	3941
855.39	4025
855.524	4131
855.658	4109
855.792	4090
855.926	4116
856.06	4211
856.194	4211
856.327	4147
856.461	4143
856.595	4188
856.729	4169
856.862	4291
856.996	4310
857.13	4276
857.263	4276
857.397	4386
857.53	4280
857.664	4379
857.797	4424
857.931	4470
858.064	4402
858.197	4474
858.331	4383
858.464	4405
858.597	4379
858.731	4436
858.864	4462
858.997	4504
859.13	4516
859.263	4569
859.396	4615
859.529	4519
859.662	4527
859.795	4580
859.928	4588
860.061	4717
860.194	4786
860.327	4691
860.46	4653
860.592	4706
860.725	4790
860.858	4786
860.99	4698
861.123	4721
861.256	4733
861.388	4801
861.521	5459
861.653	4744
861.786	4710
861.918	4755
862.05	4828
862.183	4873
862.315	4911
862.447	4908
862.58	4896
862.712	4793
862.844	4755
862.976	4900
863.108	4892
863.24	5284
863.372	4824
863.504	4911
863.636	4892
863.768	5025
863.9	4953
864.032	4908
864.164	4927
864.296	5022
864.428	5079
864.559	5121
864.691	5143
864.823	5121
864.954	5117
865.086	5124
865.217	5159
865.349	5105
865.48	5174
865.612	5246
865.743	5273
865.875	5231
866.006	5162
866.137	5254
866.269	5273
866.4	5273
866.531	5258
866.662	5288
866.793	5273
866.924	5326
867.055	5318
867.186	5391
867.317	5368
867.448	5326
867.579	5322
867.71	5391
867.841	5402
867.972	5474
868.103	5459
868.233	5455
868.364	5520
868.495	5566
868.625	5703
868.756	5779
868.886	5707
869.017	5718
869.147	5904
869.278	5847
869.408	5874
869.539	5821
869.669	5893
869.799	5961
869.929	6019
870.06	6045
870.19	6186
870.32	6247
870.45	6254
870.58	6403
870.71	6380
870.84	6456
870.97	6414
871.1	6490
871.23	6631
871.36	6669
871.489	6646
871.619	6776
871.749	6878
871.879	6837
872.008	6977
872.138	6993
872.267	6989
872.397	6977
872.526	7050
872.656	7122
872.785	7312
872.915	7377
873.044	7563
873.173	7582
873.303	7689
873.432	7742
873.561	7871
873.69	7917
873.819	7955
873.948	8210
874.077	8275
874.206	8286
874.335	8446
874.464	8648
874.593	8845
874.722	8925
874.851	9161
874.979	9207
875.108	9469
875.237	9401
875.365	9542
875.494	9667
875.623	9808
875.751	9831
875.88	10006
876.008	10188
876.136	10295
876.265	10508
876.393	10698
876.521	10668
876.65	10862
876.778	10858
876.906	10987
877.034	11121
877.162	11132
877.29	11193
877.418	11220
877.546	11360
877.674	11486
877.802	11448
877.93	11486
878.058	11585
878.185	11543
878.313	11638
878.441	11733
878.568	11680
878.696	11783
878.824	11855
878.951	11988
879.079	12041
879.206	12110
879.333	12026
879.461	12057
879.588	12155
879.715	12064
879.842	12182
879.97	12072
880.097	11889
880.224	11813
880.351	11942
880.478	11942
880.605	11901
880.732	11851
880.859	11988
880.986	11855
881.112	11866
881.239	11786
881.366	11638
881.493	11630
881.619	11539
881.746	11528
881.872	11516
881.999	11535
882.125	11497
882.252	11592
882.378	11501
882.505	11554
882.631	11429
882.757	11269
882.883	11379
883.01	11280
883.136	11181
883.262	11136
883.388	11159
883.514	11155
883.64	11208
883.766	11117
883.892	10919
884.018	10995
884.143	11109
884.269	11052
884.395	10824
884.52	10820
884.646	10812
884.772	10710
884.897	10599
885.023	10702
885.148	10679
885.274	10771
885.399	10649
885.524	10634
885.65	10599
885.775	10675
885.9	10523
886.025	10554
886.15	10542
886.275	10531
886.4	10382
886.525	10417
886.65	10333
886.775	10360
886.9	10402
887.025	10481
887.149	10386
887.274	10188
887.399	10261
887.523	10128
887.648	10215
887.773	10109
887.897	10280
888.021	10230
888.146	10131
888.27	10223
888.395	10272
888.519	10177
888.643	10238
888.767	10219
888.891	10090
889.015	10044
889.139	10063
889.263	10055
889.387	10036
889.511	10192
889.635	10074
889.759	9964
889.883	9991
890.006	9994
890.13	10101
890.254	9964
890.377	9956
890.501	9831
890.624	9949
890.748	9876
890.871	9759
890.995	9800
891.118	9709
891.241	9747
891.364	9797
891.488	9819
891.611	9728
891.734	9720
891.857	9812
891.98	9720
892.103	9880
892.226	9747
892.349	9682
892.471	9519
892.594	9599
892.717	9701
892.839	9637
892.962	9648
893.085	9698
893.207	9606
893.33	9584
893.452	9526
893.575	9652
893.697	9485
893.819	9568
893.941	9595
894.064	9610
894.186	9511
894.308	9389
894.43	9542
894.552	9530
894.674	9507
894.796	9458
894.918	9374
895.04	9393
895.161	9393
895.283	9348
895.405	9348
895.526	9291
895.648	9291
895.769	9222
895.891	9264
896.012	9386
896.134	9230
896.255	9241
896.376	9157
896.498	9081
896.619	9161
896.74	9131
896.861	9100
896.982	9249
897.103	9294
897.224	9138
897.345	9142
897.466	9001
897.587	9055
897.708	9138
897.828	9058
897.949	8937
898.07	8861
898.19	8933
898.311	9062
898.431	8956
898.552	9013
898.672	9009
898.792	8963
898.913	8868
899.033	8834
899.153	8804
899.273	8686
899.393	8739
899.513	8739
899.633	8796
899.753	8716
899.873	8705
899.993	8682
900.113	8708
900.232	8754
900.352	8670
900.472	8606
900.591	8598
900.711	8594
900.83	8568
900.95	8682
901.069	8758
901.189	8575
901.308	8450
901.427	8339
901.546	8431
901.665	8530
901.784	8560
901.904	8396
902.023	8324
902.141	8279
902.26	8218
902.379	8267
902.498	8191
902.617	8164
902.735	8317
902.854	8309
902.973	8259
903.091	8115
903.21	8145
903.328	8149
903.446	8130
903.565	8134
903.683	8100
903.801	8073
903.919	8126
904.038	8126
904.156	8062
904.274	8088
904.392	8020
904.51	8031
904.627	8069
904.745	8168
904.863	8077
904.981	7925
905.098	7951
905.216	7822
905.334	7959
905.451	7898
905.569	7959
905.686	7974
905.803	7982
905.921	7784
906.038	7860
906.155	7811
906.272	7723
906.389	7731
906.506	7685
906.623	7636
906.74	7639
906.857	7567
906.974	7609
907.091	7658
907.208	7719
907.324	7628
907.441	7556
907.557	7453
907.674	7449
907.79	7438
907.907	7445
908.023	7510
908.139	7468
908.256	7388
908.372	7285
908.488	7293
908.604	7236
908.72	7278
908.836	7266
908.952	7232
909.068	7198
909.184	7297
909.3	7259
909.415	7285
909.531	7274
909.647	7126
909.762	7122
909.878	7114
909.993	7190
910.108	7069
910.224	7080
910.339	7133
910.454	7076
910.57	6958
910.685	7015
910.8	7126
910.915	7137
911.03	7015
911.145	6886
911.259	6928
911.374	6897
911.489	6894
911.604	6837
911.718	6719
911.833	6795
911.947	6654
912.062	6585
912.176	6677
912.291	6791
912.405	6669
912.519	6859
912.633	6787
912.748	6719
912.862	6669
912.976	6593
913.09	6574
913.204	6601
913.318	6646
913.431	6623
913.545	6673
913.659	6722
913.772	6635
913.886	6559
914	6525
914.113	6639
914.226	6726
914.34	6631
914.453	6528
914.566	6627
914.68	6544
914.793	6506
914.906	6471
915.019	6445
915.132	6376
915.245	6422
915.358	6467
915.47	6479
915.583	6464
915.696	6494
915.809	6563
915.921	6517
916.034	6395
916.146	6414
916.259	6410
916.371	6426
916.483	6490
916.595	6403
916.708	6441
916.82	6460
916.932	6369
917.044	6429
917.156	6422
917.268	6342
917.38	6418
917.491	6323
917.603	6357
917.715	6445
917.826	6483
917.938	6346
918.049	6266
918.161	6388
918.272	6471
918.384	6464
918.495	6334
918.606	6304
918.717	6209
918.828	6251
918.939	6289
919.05	6205
919.161	6254
919.272	6167
919.383	6163
919.494	6311
919.604	6388
919.715	6311
919.826	6277
919.936	6300
920.047	6391
920.157	6232
920.267	6475
920.378	6304
920.488	6319
920.598	6475
920.708	6498
920.818	6448
920.928	6528
921.038	6601
921.148	6620
921.258	6388
921.368	6315
921.477	6239
921.587	6171
921.697	6110
921.806	6190
921.916	6091
922.025	5965
922.134	5912
922.244	5973
922.353	6011
922.462	5855
922.571	5836
922.68	5764
922.789	5733
922.898	5672
923.007	5661
923.116	5729
923.224	5733
923.333	5707
923.442	5539
923.55	5585
923.659	5623
923.767	5665
923.876	5539
923.984	5649
924.092	5455
924.201	5547
924.309	5581
924.417	5566
924.525	5516
924.633	5551
924.741	6114
924.849	5372
924.956	5490
925.064	5391
925.172	5315
925.279	5349
925.387	5406
925.494	5360
925.602	5474
925.709	5376
925.816	5307
925.924	5360
926.031	5421
926.138	5345
926.245	5330
926.352	5239
926.459	5341
926.566	5318
926.673	5261
926.779	5151
926.886	5174
926.993	5041
927.099	5056
927.206	4972
927.312	4927
927.419	5025
927.525	4987
927.631	4968
927.737	4900
927.843	4835
927.95	4824
928.056	4866
928.162	4809
928.267	4870
928.373	5273
928.479	4866
928.585	4698
928.69	4797
928.796	4763
928.901	4672
929.007	4622
929.112	4721
929.218	4653
929.323	4664
929.428	4596
929.533	4687
929.638	4546
929.743	4519
929.848	4535
929.953	4519
930.058	4451
930.163	4329
930.267	4360
930.372	4424
930.477	4310
930.581	4459
930.685	4333
930.79	4284
930.894	4310
930.998	4299
931.103	4402
931.207	4112
931.311	4032
931.415	4025
931.519	3975
931.623	3949
