Data from glass_V78500241_1940.txt Node
Date: Wed Sep 01 19:27:56 CST 2021
User: usil
Spectrometer: V785-0024
Trigger mode: 0
Integration Time (sec): 4.000000E-1
Scans to average: 1
Nonlinearity correction enabled: false
Boxcar width: 0
Storing dark spectrum: false
XAxis mode: Wavelengths
Number of Pixels in Spectrum: 1024
>>>>>Begin Spectral Data<<<<<
801.071	3743
801.214	3713
801.356	3682
801.499	3728
801.641	3717
801.783	3785
801.926	3831
802.068	3797
802.211	3823
802.353	3884
802.496	3831
802.638	3899
802.78	3873
802.923	3941
803.065	3907
803.208	3888
803.35	3854
803.492	3857
803.635	3918
803.777	3770
803.919	3896
804.061	4158
804.204	3934
804.346	3911
804.488	3896
804.63	4021
804.773	3964
804.915	4013
805.057	4169
805.199	3983
805.341	4093
805.483	4162
805.626	4120
805.768	4105
805.91	4215
806.052	4173
806.194	4173
806.336	4375
806.478	4238
806.62	4207
806.762	4173
806.904	4238
807.046	4325
807.188	4204
807.33	4147
807.472	4207
807.614	4207
807.756	4223
807.898	4223
808.04	4246
808.182	4295
808.324	4299
808.465	4394
808.607	4443
808.749	4428
808.891	4451
809.033	4493
809.174	4383
809.316	4227
809.458	4242
809.6	4135
809.741	4154
809.883	4097
810.025	4234
810.166	4177
810.308	4211
810.45	4223
810.591	4227
810.733	4303
810.875	4489
811.016	4843
811.158	5113
811.299	5292
811.441	5284
811.582	5113
811.724	4721
811.865	4561
812.007	4493
812.148	4451
812.29	4421
812.431	4447
812.573	4413
812.714	4386
812.855	4390
812.997	4436
813.138	4493
813.279	4375
813.421	4383
813.562	4405
813.703	4337
813.845	4306
813.986	4272
814.127	4204
814.268	4249
814.41	4299
814.551	4272
814.692	4341
814.833	4272
814.974	4272
815.115	4287
815.256	4295
815.397	4207
815.539	4230
815.68	4177
815.821	4253
815.962	4333
816.103	4314
816.244	4246
816.385	4249
816.526	4265
816.666	4253
816.807	4074
816.948	4173
817.089	4173
817.23	4063
817.371	4040
817.512	4021
817.653	4105
817.793	4051
817.934	4063
818.075	4105
818.216	4120
818.356	4063
818.497	4013
818.638	3911
818.778	3934
818.919	3949
819.06	3876
819.2	3907
819.341	3812
819.481	3831
819.622	3922
819.762	4010
819.903	3926
820.043	3869
820.184	3850
820.324	3838
820.465	3918
820.605	3842
820.746	3880
820.886	3804
821.026	3892
821.167	3949
821.307	3934
821.447	3972
821.588	3915
821.728	3979
821.868	3896
822.008	3857
822.149	3907
822.289	3907
822.429	3766
822.569	3740
822.709	3819
822.849	3679
822.99	3732
823.13	3732
823.27	3785
823.41	3675
823.55	3736
823.69	3705
823.83	3732
823.97	3682
824.11	3622
824.25	3576
824.389	3648
824.529	3637
824.669	3656
824.809	3724
824.949	3732
825.089	3720
825.228	3690
825.368	3591
825.508	3549
825.648	3553
825.787	3610
825.927	3633
826.067	3549
826.206	3644
826.346	3747
826.485	3804
826.625	3876
826.765	3968
826.904	3842
827.044	3625
827.183	3545
827.323	3439
827.462	3504
827.601	3420
827.741	3416
827.88	3401
828.02	3363
828.159	3443
828.298	3431
828.437	3538
828.577	3443
828.716	3580
828.855	3477
828.994	3389
829.134	3344
829.273	3389
829.412	3351
829.551	3340
829.69	3386
829.829	3409
829.968	3500
830.107	3420
830.246	3397
830.385	3401
830.524	3367
830.663	3317
830.802	3230
830.941	3207
831.08	3207
831.219	3268
831.357	3249
831.496	3367
831.635	3241
831.774	3214
831.913	3157
832.051	3123
832.19	3127
832.329	3241
832.467	3150
832.606	3116
832.744	3154
832.883	3165
833.022	3188
833.16	3253
833.299	3268
833.437	3332
833.576	3374
833.714	3416
833.852	3424
833.991	3435
834.129	3507
834.267	3462
834.406	3420
834.544	3428
834.682	3447
834.821	3412
834.959	3580
835.097	3416
835.235	3553
835.373	3454
835.511	3473
835.65	3443
835.788	3492
835.926	3386
836.064	3397
836.202	3420
836.34	3530
836.478	3595
836.615	3538
836.753	3584
836.891	3648
837.029	3637
837.167	3572
837.305	3511
837.443	3545
837.58	3507
837.718	3606
837.856	3530
837.993	3504
838.131	3549
838.269	3610
838.406	3606
838.544	3584
838.681	3473
838.819	3443
838.956	3389
839.094	3401
839.231	3435
839.369	3500
839.506	3713
839.643	3622
839.781	3523
839.918	3447
840.055	3526
840.193	3534
840.33	3530
840.467	3519
840.604	3572
840.742	3762
840.879	3564
841.016	3557
841.153	3603
841.29	3728
841.427	3736
841.564	3724
841.701	3724
841.838	3709
841.975	3663
842.112	3705
842.249	3629
842.385	3660
842.522	3778
842.659	3717
842.796	3667
842.933	3709
843.069	3690
843.206	3728
843.343	3804
843.479	3797
843.616	3800
843.752	3660
843.889	3652
844.025	3842
844.162	3682
844.298	3827
844.435	3819
844.571	3781
844.708	3899
844.844	3983
844.98	4013
845.117	4029
845.253	3915
845.389	3842
845.525	3956
845.661	3960
845.798	3922
845.934	4002
846.07	3960
846.206	4055
846.342	4105
846.478	4032
846.614	3945
846.75	3937
846.886	3896
847.022	4032
847.158	3972
847.294	3983
847.429	4029
847.565	3987
847.701	4204
847.837	3918
847.972	3816
848.108	3926
848.244	3911
848.379	3892
848.515	3816
848.65	3785
848.786	3827
848.921	3838
849.057	3937
849.192	3907
849.328	3896
849.463	3888
849.598	3888
849.734	3892
849.869	3827
850.004	3770
850.14	3778
850.275	3732
850.41	3709
850.545	3785
850.68	3774
850.815	3808
850.95	3808
851.085	3926
851.22	3911
851.355	3842
851.49	3854
851.625	3766
851.76	3827
851.895	3717
852.03	3705
852.165	3781
852.299	3816
852.434	3892
852.569	3850
852.703	3888
852.838	3945
852.973	4002
853.107	3998
853.242	3842
853.376	3857
853.511	3770
853.645	3808
853.78	4010
853.914	3899
854.048	3842
854.183	3896
854.317	3915
854.451	4071
854.585	3941
854.72	3922
854.854	4059
854.988	3918
855.122	4025
855.256	3953
855.39	4036
855.524	4101
855.658	4086
855.792	4109
855.926	4128
856.06	4173
856.194	4207
856.327	4128
856.461	4071
856.595	4131
856.729	4120
856.862	4253
856.996	4253
857.13	4246
857.263	4318
857.397	4348
857.53	4257
857.664	4348
857.797	4390
857.931	4440
858.064	4360
858.197	4417
858.331	4356
858.464	4383
858.597	4341
858.731	4466
858.864	4417
858.997	4459
859.13	4504
859.263	4523
859.396	4550
859.529	4516
859.662	4470
859.795	4474
859.928	4607
860.061	4710
860.194	4748
860.327	4653
860.46	4622
860.592	4672
860.725	4717
860.858	4721
860.99	4710
861.123	4710
861.256	4675
861.388	4710
861.521	5391
861.653	4706
861.786	4710
861.918	4725
862.05	4805
862.183	4828
862.315	4847
862.447	4908
862.58	4900
862.712	4805
862.844	4790
862.976	4831
863.108	4900
863.24	5193
863.372	4858
863.504	4858
863.636	4911
863.768	4965
863.9	4972
864.032	4915
864.164	4896
864.296	4991
864.428	5056
864.559	5094
864.691	5105
864.823	5090
864.954	5102
865.086	5121
865.217	5094
865.349	5136
865.48	5147
865.612	5197
865.743	5288
865.875	5216
866.006	5197
866.137	5265
866.269	5231
866.4	5258
866.531	5216
866.662	5216
866.793	5280
866.924	5288
867.055	5334
867.186	5341
867.317	5288
867.448	5265
867.579	5353
867.71	5383
867.841	5372
867.972	5448
868.103	5436
868.233	5471
868.364	5520
868.495	5535
868.625	5668
868.756	5794
868.886	5691
869.017	5733
869.147	5874
869.278	5859
869.408	5783
869.539	5802
869.669	5920
869.799	5863
869.929	5973
870.06	5992
870.19	6197
870.32	6152
870.45	6220
870.58	6338
870.71	6464
870.84	6407
870.97	6441
871.1	6517
871.23	6654
871.36	6681
871.489	6639
871.619	6700
871.749	6802
871.879	6894
872.008	6913
872.138	6932
872.267	7015
872.397	6989
872.526	6966
872.656	7118
872.785	7206
872.915	7369
873.044	7556
873.173	7594
873.303	7594
873.432	7731
873.561	7883
873.69	7955
873.819	8077
873.948	8168
874.077	8275
874.206	8275
874.335	8476
874.464	8579
874.593	8868
874.722	8872
874.851	9097
874.979	9264
875.108	9378
875.237	9439
875.365	9534
875.494	9656
875.623	9888
875.751	9743
875.88	10025
876.008	10112
876.136	10215
876.265	10402
876.393	10725
876.521	10634
876.65	10816
876.778	10843
876.906	10866
877.034	10949
877.162	11121
877.29	11151
877.418	11250
877.546	11372
877.674	11417
877.802	11425
877.93	11528
878.058	11482
878.185	11646
878.313	11710
878.441	11718
878.568	11684
878.696	11813
878.824	11821
878.951	11851
879.079	11870
879.206	12114
879.333	12087
879.461	11996
879.588	12060
879.715	11973
879.842	12216
879.97	12038
880.097	11916
880.224	11866
880.351	11939
880.478	11889
880.605	11828
880.732	11783
880.859	12022
880.986	11786
881.112	11870
881.239	11642
881.366	11649
881.493	11642
881.619	11623
881.746	11619
881.872	11581
881.999	11547
882.125	11486
882.252	11539
882.378	11573
882.505	11551
882.631	11376
882.757	11398
882.883	11315
883.01	11273
883.136	11132
883.262	11094
883.388	11128
883.514	11212
883.64	11212
883.766	11083
883.892	10987
884.018	11003
884.143	11056
884.269	11105
884.395	10896
884.52	10805
884.646	10805
884.772	10706
884.897	10626
885.023	10721
885.148	10698
885.274	10706
885.399	10691
885.524	10672
885.65	10668
885.775	10531
885.9	10592
886.025	10542
886.15	10497
886.275	10443
886.4	10405
886.525	10440
886.65	10249
886.775	10333
886.9	10443
887.025	10535
887.149	10291
887.274	10211
887.399	10112
887.523	10143
887.648	10120
887.773	10181
887.897	10192
888.021	10211
888.146	10090
888.27	10261
888.395	10215
888.519	10150
888.643	10169
888.767	10185
888.891	10055
889.015	9975
889.139	10025
889.263	9956
889.387	10071
889.511	10166
889.635	10082
889.759	9987
889.883	9915
890.006	10010
890.13	10025
890.254	9964
890.377	9899
890.501	9789
890.624	9838
890.748	9869
890.871	9694
890.995	9713
891.118	9667
891.241	9732
891.364	9705
891.488	9819
891.611	9690
891.734	9679
891.857	9819
891.98	9641
892.103	9812
892.226	9751
892.349	9679
892.471	9511
892.594	9625
892.717	9629
892.839	9538
892.962	9599
893.085	9553
893.207	9580
893.33	9523
893.452	9545
893.575	9587
893.697	9519
893.819	9622
893.941	9648
894.064	9610
894.186	9408
894.308	9431
894.43	9481
894.552	9606
894.674	9473
894.796	9492
894.918	9428
895.04	9321
895.161	9336
895.283	9348
895.405	9233
895.526	9222
895.648	9260
895.769	9207
895.891	9222
896.012	9253
896.134	9298
896.255	9230
896.376	9142
896.498	9180
896.619	9127
896.74	9028
896.861	9119
896.982	9245
897.103	9321
897.224	9192
897.345	9074
897.466	8971
897.587	9024
897.708	9051
897.828	9036
897.949	8902
898.07	8963
898.19	8933
898.311	9039
898.431	8785
898.552	8891
898.672	8921
898.792	8956
898.913	8861
899.033	8720
899.153	8754
899.273	8678
899.393	8712
899.513	8769
899.633	8754
899.753	8762
899.873	8781
899.993	8815
900.113	8746
900.232	8625
900.352	8701
900.472	8590
900.591	8545
900.711	8549
900.83	8526
900.95	8655
901.069	8663
901.189	8492
901.308	8434
901.427	8393
901.546	8431
901.665	8457
901.784	8473
901.904	8427
902.023	8355
902.141	8210
902.26	8237
902.379	8317
902.498	8206
902.617	8290
902.735	8309
902.854	8233
902.973	8134
903.091	8107
903.21	8134
903.328	8176
903.446	8027
903.565	8096
903.683	8103
903.801	8073
903.919	8050
904.038	8180
904.156	8088
904.274	8111
904.392	8005
904.51	8005
904.627	8050
904.745	8084
904.863	8050
904.981	7909
905.098	7860
905.216	7871
905.334	7822
905.451	7883
905.569	7868
905.686	7967
905.803	7959
905.921	7727
906.038	7898
906.155	7811
906.272	7708
906.389	7738
906.506	7647
906.623	7594
906.74	7636
906.857	7510
906.974	7571
907.091	7696
907.208	7693
907.324	7696
907.441	7533
907.557	7460
907.674	7449
907.79	7350
907.907	7438
908.023	7460
908.139	7415
908.256	7346
908.372	7324
908.488	7316
908.604	7221
908.72	7244
908.836	7289
908.952	7232
909.068	7255
909.184	7411
909.3	7259
909.415	7305
909.531	7297
909.647	7156
909.762	7103
909.878	7080
909.993	7133
910.108	7050
910.224	7103
910.339	7099
910.454	7027
910.57	7012
910.685	6981
910.8	7141
910.915	7133
911.03	7004
911.145	6833
911.259	6818
911.374	6837
911.489	6837
911.604	6749
911.718	6741
911.833	6764
911.947	6677
912.062	6525
912.176	6665
912.291	6665
912.405	6764
912.519	6806
912.633	6814
912.748	6764
912.862	6620
912.976	6604
913.09	6551
913.204	6688
913.318	6631
913.431	6616
913.545	6677
913.659	6681
913.772	6639
913.886	6525
914	6532
914.113	6547
914.226	6604
914.34	6593
914.453	6486
914.566	6563
914.68	6540
914.793	6540
914.906	6486
915.019	6361
915.132	6365
915.245	6475
915.358	6418
915.47	6410
915.583	6467
915.696	6479
915.809	6604
915.921	6532
916.034	6365
916.146	6384
916.259	6338
916.371	6494
916.483	6407
916.595	6361
916.708	6361
916.82	6403
916.932	6380
917.044	6456
917.156	6426
917.268	6304
917.38	6334
917.491	6308
917.603	6384
917.715	6323
917.826	6418
917.938	6327
918.049	6235
918.161	6311
918.272	6369
918.384	6399
918.495	6304
918.606	6243
918.717	6262
918.828	6258
918.939	6235
919.05	6171
919.161	6247
919.272	6136
919.383	6216
919.494	6251
919.604	6486
919.715	6201
919.826	6190
919.936	6228
920.047	6292
920.157	6262
920.267	6467
920.378	6315
920.488	6296
920.598	6467
920.708	6502
920.818	6426
920.928	6445
921.038	6578
921.148	6555
921.258	6350
921.368	6308
921.477	6220
921.587	6148
921.697	6060
921.806	6144
921.916	6053
922.025	5920
922.134	5866
922.244	5863
922.353	5908
922.462	5832
922.571	5745
922.68	5748
922.789	5688
922.898	5680
923.007	5623
923.116	5710
923.224	5684
923.333	5707
923.442	5596
923.55	5558
923.659	5638
923.767	5638
923.876	5520
923.984	5570
924.092	5490
924.201	5520
924.309	5509
924.417	5528
924.525	5455
924.633	5516
924.741	6304
924.849	5360
924.956	5444
925.064	5360
925.172	5341
925.279	5273
925.387	5368
925.494	5303
925.602	5436
925.709	5341
925.816	5242
925.924	5353
926.031	5368
926.138	5254
926.245	5337
926.352	5220
926.459	5334
926.566	5273
926.673	5239
926.779	5132
926.886	5098
926.993	5056
927.099	4999
927.206	4984
927.312	4995
927.419	4984
927.525	4934
927.631	4961
927.737	4904
927.843	4831
927.95	4778
928.056	4858
928.162	4843
928.267	4809
928.373	5326
928.479	4820
928.585	4664
928.69	4809
928.796	4755
928.901	4679
929.007	4550
929.112	4698
929.218	4630
929.323	4645
929.428	4565
929.533	4653
929.638	4485
929.743	4493
929.848	4554
929.953	4493
930.058	4466
930.163	4299
930.267	4344
930.372	4394
930.477	4314
930.581	4455
930.685	4356
930.79	4261
930.894	4276
930.998	4261
931.103	4379
931.207	4116
931.311	4067
931.415	4071
931.519	3911
931.623	3903
