Data from glass_V78500241_2370.txt Node
Date: Wed Sep 01 19:30:55 CST 2021
User: usil
Spectrometer: V785-0024
Trigger mode: 0
Integration Time (sec): 4.000000E-1
Scans to average: 1
Nonlinearity correction enabled: false
Boxcar width: 0
Storing dark spectrum: false
XAxis mode: Wavelengths
Number of Pixels in Spectrum: 1024
>>>>>Begin Spectral Data<<<<<
801.071	3701
801.214	3774
801.356	3682
801.499	3751
801.641	3694
801.783	3755
801.926	3804
802.068	3778
802.211	3861
802.353	3873
802.496	3907
802.638	3876
802.78	3865
802.923	3873
803.065	3892
803.208	3842
803.35	3903
803.492	3854
803.635	3903
803.777	3743
803.919	3899
804.061	4169
804.204	3960
804.346	3941
804.488	3953
804.63	4010
804.773	3949
804.915	3979
805.057	4135
805.199	4044
805.341	4109
805.483	4128
805.626	4105
805.768	4086
805.91	4242
806.052	4207
806.194	4192
806.336	4325
806.478	4200
806.62	4135
806.762	4177
806.904	4230
807.046	4329
807.188	4223
807.33	4196
807.472	4215
807.614	4173
807.756	4268
807.898	4188
808.04	4227
808.182	4223
808.324	4310
808.465	4383
808.607	4466
808.749	4462
808.891	4478
809.033	4500
809.174	4352
809.316	4249
809.458	4188
809.6	4154
809.741	4120
809.883	4120
810.025	4230
810.166	4211
810.308	4204
810.45	4246
810.591	4204
810.733	4242
810.875	4538
811.016	4816
811.158	5121
811.299	5239
811.441	5265
811.582	5067
811.724	4714
811.865	4485
812.007	4402
812.148	4398
812.29	4379
812.431	4348
812.573	4360
812.714	4314
812.855	4413
812.997	4405
813.138	4459
813.279	4367
813.421	4402
813.562	4405
813.703	4329
813.845	4284
813.986	4246
814.127	4230
814.268	4276
814.41	4242
814.551	4295
814.692	4325
814.833	4261
814.974	4284
815.115	4329
815.256	4230
815.397	4211
815.539	4257
815.68	4162
815.821	4188
815.962	4276
816.103	4314
816.244	4215
816.385	4238
816.526	4272
816.666	4257
816.807	4074
816.948	4177
817.089	4215
817.23	4093
817.371	4006
817.512	4051
817.653	4021
817.793	4090
817.934	4063
818.075	4093
818.216	4082
818.356	4086
818.497	4010
818.638	3918
818.778	3915
818.919	3922
819.06	3846
819.2	3918
819.341	3907
819.481	3808
819.622	3915
819.762	3994
819.903	3964
820.043	3915
820.184	3808
820.324	3838
820.465	3873
820.605	3846
820.746	3857
820.886	3766
821.026	3934
821.167	3888
821.307	3975
821.447	3998
821.588	3911
821.728	3979
821.868	3934
822.008	3896
822.149	3915
822.289	3915
822.429	3728
822.569	3728
822.709	3804
822.849	3694
822.99	3701
823.13	3751
823.27	3778
823.41	3724
823.55	3679
823.69	3720
823.83	3736
823.97	3652
824.11	3576
824.25	3603
824.389	3610
824.529	3667
824.669	3629
824.809	3667
824.949	3751
825.089	3701
825.228	3724
825.368	3595
825.508	3545
825.648	3591
825.787	3580
825.927	3629
826.067	3629
826.206	3637
826.346	3835
826.485	3808
826.625	3827
826.765	3915
826.904	3835
827.044	3610
827.183	3538
827.323	3450
827.462	3477
827.601	3412
827.741	3424
827.88	3485
828.02	3416
828.159	3439
828.298	3496
828.437	3488
828.577	3469
828.716	3610
828.855	3473
828.994	3363
829.134	3340
829.273	3370
829.412	3348
829.551	3294
829.69	3378
829.829	3389
829.968	3488
830.107	3447
830.246	3439
830.385	3363
830.524	3340
830.663	3268
830.802	3233
830.941	3192
831.08	3192
831.219	3207
831.357	3237
831.496	3397
831.635	3233
831.774	3180
831.913	3173
832.051	3119
832.19	3142
832.329	3211
832.467	3123
832.606	3085
832.744	3165
832.883	3161
833.022	3176
833.16	3230
833.299	3272
833.437	3310
833.576	3397
833.714	3401
833.852	3435
833.991	3420
834.129	3458
834.267	3412
834.406	3428
834.544	3412
834.682	3416
834.821	3374
834.959	3534
835.097	3424
835.235	3542
835.373	3507
835.511	3496
835.65	3462
835.788	3492
835.926	3370
836.064	3359
836.202	3386
836.34	3561
836.478	3580
836.615	3553
836.753	3572
836.891	3656
837.029	3606
837.167	3591
837.305	3534
837.443	3545
837.58	3496
837.718	3591
837.856	3568
837.993	3515
838.131	3587
838.269	3584
838.406	3580
838.544	3576
838.681	3454
838.819	3481
838.956	3412
839.094	3393
839.231	3458
839.369	3526
839.506	3660
839.643	3629
839.781	3500
839.918	3481
840.055	3496
840.193	3526
840.33	3462
840.467	3561
840.604	3629
840.742	3789
840.879	3545
841.016	3561
841.153	3591
841.29	3732
841.427	3743
841.564	3728
841.701	3720
841.838	3671
841.975	3705
842.112	3732
842.249	3587
842.385	3644
842.522	3846
842.659	3679
842.796	3648
842.933	3701
843.069	3709
843.206	3720
843.343	3793
843.479	3728
843.616	3808
843.752	3652
843.889	3663
844.025	3857
844.162	3705
844.298	3831
844.435	3751
844.571	3743
844.708	3896
844.844	4021
844.98	4017
845.117	4002
845.253	3922
845.389	3850
845.525	3972
845.661	3949
845.798	3941
845.934	4002
846.07	3926
846.206	3994
846.342	4131
846.478	4044
846.614	3972
846.75	3956
846.886	3854
847.022	3998
847.158	3945
847.294	3972
847.429	3994
847.565	3975
847.701	4196
847.837	3888
847.972	3846
848.108	3983
848.244	3987
848.379	3869
848.515	3838
848.65	3778
848.786	3865
848.921	3854
849.057	3884
849.192	3941
849.328	3892
849.463	3892
849.598	3850
849.734	3873
849.869	3831
850.004	3778
850.14	3838
850.275	3751
850.41	3751
850.545	3724
850.68	3781
850.815	3778
850.95	3759
851.085	3983
851.22	3850
851.355	3827
851.49	3793
851.625	3838
851.76	3778
851.895	3751
852.03	3747
852.165	3816
852.299	3804
852.434	3911
852.569	3838
852.703	3865
852.838	3911
852.973	3972
853.107	3968
853.242	3899
853.376	3827
853.511	3770
853.645	3861
853.78	3911
853.914	3873
854.048	3892
854.183	3876
854.317	3918
854.451	4040
854.585	3922
854.72	3975
854.854	4040
854.988	3934
855.122	3987
855.256	3934
855.39	4006
855.524	4101
855.658	4097
855.792	4124
855.926	4109
856.06	4166
856.194	4219
856.327	4173
856.461	4120
856.595	4177
856.729	4169
856.862	4299
856.996	4246
857.13	4299
857.263	4287
857.397	4383
857.53	4284
857.664	4390
857.797	4352
857.931	4436
858.064	4394
858.197	4413
858.331	4417
858.464	4344
858.597	4386
858.731	4447
858.864	4405
858.997	4447
859.13	4538
859.263	4519
859.396	4542
859.529	4531
859.662	4504
859.795	4527
859.928	4611
860.061	4691
860.194	4755
860.327	4569
860.46	4618
860.592	4725
860.725	4736
860.858	4733
860.99	4653
861.123	4694
861.256	4721
861.388	4778
861.521	5490
861.653	4729
861.786	4687
861.918	4721
862.05	4778
862.183	4862
862.315	4850
862.447	4896
862.58	4892
862.712	4835
862.844	4816
862.976	4831
863.108	4892
863.24	5140
863.372	4778
863.504	4892
863.636	4854
863.768	4942
863.9	4946
864.032	4900
864.164	4953
864.296	4984
864.428	5033
864.559	5079
864.691	5102
864.823	5098
864.954	5109
865.086	5128
865.217	5113
865.349	5121
865.48	5121
865.612	5143
865.743	5258
865.875	5174
866.006	5155
866.137	5265
866.269	5208
866.4	5273
866.531	5242
866.662	5223
866.793	5288
866.924	5284
867.055	5372
867.186	5349
867.317	5277
867.448	5254
867.579	5391
867.71	5360
867.841	5303
867.972	5421
868.103	5436
868.233	5463
868.364	5524
868.495	5551
868.625	5668
868.756	5745
868.886	5661
869.017	5726
869.147	5866
869.278	5863
869.408	5790
869.539	5836
869.669	5935
869.799	5878
869.929	5935
870.06	5965
870.19	6163
870.32	6159
870.45	6266
870.58	6323
870.71	6395
870.84	6441
870.97	6422
871.1	6437
871.23	6616
871.36	6696
871.489	6639
871.619	6745
871.749	6779
871.879	6833
872.008	6970
872.138	6970
872.267	6981
872.397	7027
872.526	7088
872.656	7050
872.785	7236
872.915	7400
873.044	7533
873.173	7567
873.303	7639
873.432	7727
873.561	7860
873.69	7940
873.819	8043
873.948	8161
874.077	8210
874.206	8332
874.335	8423
874.464	8697
874.593	8872
874.722	8883
874.851	9237
874.979	9142
875.108	9389
875.237	9439
875.365	9443
875.494	9618
875.623	9804
875.751	9907
875.88	9987
876.008	10128
876.136	10303
876.265	10519
876.393	10573
876.521	10744
876.65	10839
876.778	10847
876.906	10946
877.034	10911
877.162	11113
877.29	11136
877.418	11280
877.546	11387
877.674	11417
877.802	11471
877.93	11471
878.058	11589
878.185	11554
878.313	11630
878.441	11668
878.568	11623
878.696	11756
878.824	11946
878.951	11931
879.079	12072
879.206	12125
879.333	12049
879.461	11988
879.588	12110
879.715	12060
879.842	12232
879.97	11958
880.097	11954
880.224	11798
880.351	11942
880.478	11885
880.605	11920
880.732	11771
880.859	12003
880.986	11840
881.112	11790
881.239	11691
881.366	11703
881.493	11524
881.619	11467
881.746	11558
881.872	11581
881.999	11493
882.125	11444
882.252	11471
882.378	11493
882.505	11566
882.631	11402
882.757	11284
882.883	11303
883.01	11307
883.136	11189
883.262	11151
883.388	11117
883.514	11136
883.64	11124
883.766	11098
883.892	11067
884.018	10938
884.143	11029
884.269	11056
884.395	10805
884.52	10759
884.646	10763
884.772	10687
884.897	10679
885.023	10607
885.148	10649
885.274	10721
885.399	10683
885.524	10607
885.65	10611
885.775	10577
885.9	10569
886.025	10580
886.15	10550
886.275	10470
886.4	10367
886.525	10379
886.65	10348
886.775	10394
886.9	10390
887.025	10474
887.149	10272
887.274	10261
887.399	10162
887.523	10124
887.648	10188
887.773	10116
887.897	10268
888.021	10185
888.146	10063
888.27	10272
888.395	10215
888.519	10238
888.643	10188
888.767	10276
888.891	10025
889.015	9953
889.139	10013
889.263	10036
889.387	10013
889.511	10120
889.635	10032
889.759	9930
889.883	9937
890.006	9975
890.13	10143
890.254	9964
890.377	9983
890.501	9762
890.624	9915
890.748	9915
890.871	9808
890.995	9736
891.118	9694
891.241	9751
891.364	9804
891.488	9842
891.611	9762
891.734	9675
891.857	9747
891.98	9713
892.103	9713
892.226	9663
892.349	9713
892.471	9511
892.594	9584
892.717	9572
892.839	9610
892.962	9603
893.085	9614
893.207	9500
893.33	9500
893.452	9523
893.575	9629
893.697	9447
893.819	9580
893.941	9595
894.064	9545
894.186	9428
894.308	9439
894.43	9545
894.552	9564
894.674	9515
894.796	9412
894.918	9397
895.04	9291
895.161	9374
895.283	9428
895.405	9222
895.526	9249
895.648	9260
895.769	9230
895.891	9253
896.012	9237
896.134	9256
896.255	9230
896.376	9188
896.498	9150
896.619	9127
896.74	9062
896.861	9108
896.982	9207
897.103	9294
897.224	9157
897.345	9032
897.466	8998
897.587	8971
897.708	9055
897.828	9066
897.949	8937
898.07	8872
898.19	8944
898.311	9005
898.431	8868
898.552	8956
898.672	8952
898.792	9024
898.913	8876
899.033	8804
899.153	8826
899.273	8648
899.393	8781
899.513	8670
899.633	8762
899.753	8739
899.873	8689
899.993	8720
900.113	8705
900.232	8693
900.352	8648
900.472	8598
900.591	8568
900.711	8571
900.83	8522
900.95	8686
901.069	8590
901.189	8530
901.308	8434
901.427	8404
901.546	8423
901.665	8419
901.784	8473
901.904	8362
902.023	8301
902.141	8233
902.26	8168
902.379	8202
902.498	8248
902.617	8301
902.735	8324
902.854	8324
902.973	8328
903.091	8069
903.21	8145
903.328	8077
903.446	8088
903.565	8031
903.683	8088
903.801	8016
903.919	8180
904.038	8142
904.156	8001
904.274	8046
904.392	8039
904.51	7959
904.627	8073
904.745	8077
904.863	8058
904.981	7868
905.098	7852
905.216	7833
905.334	7936
905.451	7890
905.569	7928
905.686	7868
905.803	7879
905.921	7818
906.038	7909
906.155	7795
906.272	7719
906.389	7731
906.506	7662
906.623	7647
906.74	7613
906.857	7578
906.974	7559
907.091	7712
907.208	7700
907.324	7620
907.441	7594
907.557	7506
907.674	7396
907.79	7381
907.907	7373
908.023	7472
908.139	7362
908.256	7343
908.372	7354
908.488	7331
908.604	7209
908.72	7270
908.836	7297
908.952	7285
909.068	7206
909.184	7263
909.3	7209
909.415	7259
909.531	7282
909.647	7053
909.762	7099
909.878	7099
909.993	7126
910.108	7122
910.224	7072
910.339	7095
910.454	7019
910.57	7019
910.685	6951
910.8	7080
910.915	7129
911.03	7000
911.145	6875
911.259	6859
911.374	6856
911.489	6833
911.604	6825
911.718	6722
911.833	6673
911.947	6566
912.062	6669
912.176	6665
912.291	6707
912.405	6627
912.519	6798
912.633	6863
912.748	6707
912.862	6677
912.976	6620
913.09	6517
913.204	6578
913.318	6593
913.431	6665
913.545	6673
913.659	6726
913.772	6635
913.886	6566
914	6574
914.113	6597
914.226	6654
914.34	6601
914.453	6540
914.566	6593
914.68	6502
914.793	6494
914.906	6403
915.019	6372
915.132	6338
915.245	6410
915.358	6407
915.47	6437
915.583	6456
915.696	6525
915.809	6525
915.921	6540
916.034	6429
916.146	6433
916.259	6437
916.371	6429
916.483	6441
916.595	6433
916.708	6357
916.82	6365
916.932	6361
917.044	6365
917.156	6350
917.268	6285
917.38	6338
917.491	6350
917.603	6338
917.715	6331
917.826	6429
917.938	6311
918.049	6205
918.161	6327
918.272	6433
918.384	6471
918.495	6365
918.606	6232
918.717	6201
918.828	6209
918.939	6266
919.05	6144
919.161	6239
919.272	6045
919.383	6148
919.494	6304
919.604	6452
919.715	6311
919.826	6228
919.936	6175
920.047	6357
920.157	6281
920.267	6456
920.378	6361
920.488	6289
920.598	6445
920.708	6589
920.818	6475
920.928	6509
921.038	6593
921.148	6631
921.258	6304
921.368	6247
921.477	6209
921.587	6220
921.697	6098
921.806	6190
921.916	6038
922.025	5927
922.134	5878
922.244	5920
922.353	5901
922.462	5851
922.571	5748
922.68	5642
922.789	5707
922.898	5672
923.007	5604
923.116	5680
923.224	5665
923.333	5665
923.442	5570
923.55	5543
923.659	5581
923.767	5589
923.876	5493
923.984	5592
924.092	5501
924.201	5566
924.309	5543
924.417	5528
924.525	5463
924.633	5448
924.741	6285
924.849	5368
924.956	5520
925.064	5383
925.172	5284
925.279	5311
925.387	5357
925.494	5341
925.602	5421
925.709	5395
925.816	5223
925.924	5345
926.031	5322
926.138	5311
926.245	5277
926.352	5216
926.459	5318
926.566	5318
926.673	5181
926.779	5121
926.886	5079
926.993	4999
927.099	4972
927.206	4938
927.312	4900
927.419	5025
927.525	4999
927.631	4999
927.737	4915
927.843	4820
927.95	4752
928.056	4831
928.162	4831
928.267	4896
928.373	5242
928.479	4828
928.585	4672
928.69	4774
928.796	4778
928.901	4645
929.007	4577
929.112	4634
929.218	4672
929.323	4630
929.428	4546
929.533	4683
929.638	4527
929.743	4550
929.848	4558
929.953	4497
930.058	4436
930.163	4329
930.267	4356
930.372	4398
930.477	4310
930.581	4443
930.685	4367
930.79	4261
930.894	4299
930.998	4177
931.103	4440
931.207	4093
931.311	4097
931.415	4021
931.519	3941
931.623	3930
