Data from glass_V78500241_1571.txt Node
Date: Wed Sep 01 19:25:23 CST 2021
User: usil
Spectrometer: V785-0024
Trigger mode: 0
Integration Time (sec): 4.000000E-1
Scans to average: 1
Nonlinearity correction enabled: false
Boxcar width: 0
Storing dark spectrum: false
XAxis mode: Wavelengths
Number of Pixels in Spectrum: 1024
>>>>>Begin Spectral Data<<<<<
801.071	3762
801.214	3740
801.356	3656
801.499	3732
801.641	3720
801.783	3804
801.926	3831
802.068	3793
802.211	3880
802.353	3857
802.496	3876
802.638	3918
802.78	3953
802.923	3937
803.065	3884
803.208	3873
803.35	3888
803.492	3857
803.635	3911
803.777	3831
803.919	3915
804.061	4147
804.204	3975
804.346	3994
804.488	3937
804.63	4025
804.773	3930
804.915	4055
805.057	4116
805.199	4006
805.341	4097
805.483	4162
805.626	4131
805.768	4166
805.91	4192
806.052	4230
806.194	4204
806.336	4386
806.478	4249
806.62	4223
806.762	4169
806.904	4219
807.046	4314
807.188	4207
807.33	4188
807.472	4249
807.614	4192
807.756	4227
807.898	4207
808.04	4230
808.182	4284
808.324	4303
808.465	4348
808.607	4447
808.749	4478
808.891	4440
809.033	4535
809.174	4432
809.316	4261
809.458	4223
809.6	4131
809.741	4090
809.883	4211
810.025	4227
810.166	4204
810.308	4211
810.45	4265
810.591	4272
810.733	4257
810.875	4500
811.016	4828
811.158	5121
811.299	5258
811.441	5273
811.582	5079
811.724	4702
811.865	4542
812.007	4497
812.148	4459
812.29	4398
812.431	4436
812.573	4344
812.714	4375
812.855	4379
812.997	4405
813.138	4512
813.279	4390
813.421	4402
813.562	4413
813.703	4337
813.845	4383
813.986	4253
814.127	4234
814.268	4234
814.41	4295
814.551	4219
814.692	4344
814.833	4253
814.974	4253
815.115	4383
815.256	4287
815.397	4234
815.539	4295
815.68	4227
815.821	4268
815.962	4303
816.103	4276
816.244	4253
816.385	4196
816.526	4268
816.666	4177
816.807	4093
816.948	4200
817.089	4147
817.23	4120
817.371	4074
817.512	4055
817.653	4097
817.793	4086
817.934	4036
818.075	4116
818.216	4139
818.356	4086
818.497	4010
818.638	3918
818.778	3956
818.919	3915
819.06	3873
819.2	3880
819.341	3876
819.481	3861
819.622	3915
819.762	3979
819.903	3922
820.043	3876
820.184	3827
820.324	3823
820.465	3880
820.605	3880
820.746	3869
820.886	3785
821.026	3949
821.167	3930
821.307	4021
821.447	3979
821.588	3998
821.728	3994
821.868	3922
822.008	3865
822.149	3873
822.289	3876
822.429	3789
822.569	3800
822.709	3785
822.849	3694
822.99	3717
823.13	3755
823.27	3804
823.41	3690
823.55	3732
823.69	3698
823.83	3732
823.97	3671
824.11	3603
824.25	3599
824.389	3652
824.529	3667
824.669	3637
824.809	3717
824.949	3743
825.089	3724
825.228	3717
825.368	3629
825.508	3568
825.648	3584
825.787	3625
825.927	3641
826.067	3641
826.206	3682
826.346	3812
826.485	3819
826.625	3857
826.765	3994
826.904	3819
827.044	3622
827.183	3526
827.323	3439
827.462	3485
827.601	3431
827.741	3447
827.88	3481
828.02	3378
828.159	3450
828.298	3481
828.437	3538
828.577	3458
828.716	3584
828.855	3469
828.994	3370
829.134	3355
829.273	3382
829.412	3348
829.551	3367
829.69	3351
829.829	3420
829.968	3549
830.107	3439
830.246	3443
830.385	3351
830.524	3363
830.663	3294
830.802	3264
830.941	3199
831.08	3203
831.219	3272
831.357	3287
831.496	3409
831.635	3253
831.774	3226
831.913	3199
832.051	3161
832.19	3165
832.329	3218
832.467	3131
832.606	3123
832.744	3199
832.883	3207
833.022	3180
833.16	3241
833.299	3272
833.437	3332
833.576	3374
833.714	3374
833.852	3389
833.991	3435
834.129	3466
834.267	3435
834.406	3393
834.544	3447
834.682	3409
834.821	3405
834.959	3538
835.097	3416
835.235	3564
835.373	3500
835.511	3507
835.65	3420
835.788	3458
835.926	3416
836.064	3359
836.202	3370
836.34	3576
836.478	3633
836.615	3580
836.753	3610
836.891	3633
837.029	3614
837.167	3648
837.305	3538
837.443	3515
837.58	3500
837.718	3603
837.856	3538
837.993	3549
838.131	3557
838.269	3545
838.406	3553
838.544	3564
838.681	3492
838.819	3477
838.956	3367
839.094	3363
839.231	3450
839.369	3511
839.506	3724
839.643	3625
839.781	3530
839.918	3488
840.055	3488
840.193	3549
840.33	3496
840.467	3549
840.604	3572
840.742	3785
840.879	3545
841.016	3538
841.153	3603
841.29	3762
841.427	3717
841.564	3713
841.701	3740
841.838	3667
841.975	3667
842.112	3732
842.249	3637
842.385	3648
842.522	3823
842.659	3663
842.796	3660
842.933	3709
843.069	3698
843.206	3736
843.343	3812
843.479	3823
843.616	3785
843.752	3656
843.889	3671
844.025	3850
844.162	3713
844.298	3804
844.435	3819
844.571	3774
844.708	3865
844.844	3964
844.98	3998
845.117	4006
845.253	3956
845.389	3941
845.525	3968
845.661	3960
845.798	3960
845.934	4010
846.07	3953
846.206	4074
846.342	4086
846.478	4055
846.614	3949
846.75	3934
846.886	3896
847.022	4032
847.158	3975
847.294	4017
847.429	3979
847.565	4029
847.701	4234
847.837	3884
847.972	3892
848.108	3968
848.244	3960
848.379	3854
848.515	3888
848.65	3789
848.786	3846
848.921	3854
849.057	3911
849.192	3934
849.328	3949
849.463	3926
849.598	3896
849.734	3861
849.869	3857
850.004	3797
850.14	3850
850.275	3766
850.41	3724
850.545	3713
850.68	3823
850.815	3793
850.95	3789
851.085	3956
851.22	3846
851.355	3816
851.49	3789
851.625	3797
851.76	3800
851.895	3728
852.03	3774
852.165	3781
852.299	3831
852.434	3888
852.569	3873
852.703	3892
852.838	3880
852.973	4036
853.107	3998
853.242	3876
853.376	3873
853.511	3759
853.645	3846
853.78	3968
853.914	3888
854.048	3918
854.183	3880
854.317	3968
854.451	4071
854.585	3968
854.72	3956
854.854	4048
854.988	3892
855.122	4002
855.256	3945
855.39	3994
855.524	4082
855.658	4112
855.792	4082
855.926	4101
856.06	4128
856.194	4150
856.327	4162
856.461	4135
856.595	4158
856.729	4181
856.862	4272
856.996	4192
857.13	4287
857.263	4360
857.397	4337
857.53	4291
857.664	4394
857.797	4367
857.931	4421
858.064	4386
858.197	4409
858.331	4413
858.464	4348
858.597	4367
858.731	4440
858.864	4478
858.997	4451
859.13	4538
859.263	4584
859.396	4603
859.529	4523
859.662	4527
859.795	4554
859.928	4580
860.061	4664
860.194	4748
860.327	4626
860.46	4637
860.592	4740
860.725	4774
860.858	4801
860.99	4733
861.123	4698
861.256	4660
861.388	4790
861.521	5490
861.653	4729
861.786	4733
861.918	4767
862.05	4736
862.183	4820
862.315	4908
862.447	4911
862.58	4877
862.712	4805
862.844	4755
862.976	4854
863.108	4877
863.24	5250
863.372	4858
863.504	4892
863.636	4892
863.768	4927
863.9	4965
864.032	4904
864.164	4961
864.296	5025
864.428	5117
864.559	5083
864.691	5109
864.823	5128
864.954	5090
865.086	5117
865.217	5109
865.349	5132
865.48	5193
865.612	5178
865.743	5299
865.875	5303
866.006	5208
866.137	5239
866.269	5212
866.4	5292
866.531	5185
866.662	5239
866.793	5280
866.924	5254
867.055	5353
867.186	5376
867.317	5357
867.448	5284
867.579	5364
867.71	5357
867.841	5429
867.972	5421
868.103	5421
868.233	5478
868.364	5459
868.495	5604
868.625	5634
868.756	5805
868.886	5691
869.017	5722
869.147	5904
869.278	5885
869.408	5866
869.539	5893
869.669	5939
869.799	5889
869.929	6007
870.06	5992
870.19	6194
870.32	6152
870.45	6262
870.58	6380
870.71	6448
870.84	6437
870.97	6441
871.1	6445
871.23	6650
871.36	6753
871.489	6639
871.619	6726
871.749	6764
871.879	6894
872.008	6935
872.138	6996
872.267	7031
872.397	6973
872.526	6996
872.656	6996
872.785	7183
872.915	7396
873.044	7506
873.173	7499
873.303	7666
873.432	7769
873.561	7887
873.69	7868
873.819	7967
873.948	8142
874.077	8221
874.206	8313
874.335	8484
874.464	8610
874.593	8849
874.722	8918
874.851	9123
874.979	9241
875.108	9428
875.237	9458
875.365	9447
875.494	9679
875.623	9797
875.751	9880
875.88	9941
876.008	10109
876.136	10310
876.265	10516
876.393	10679
876.521	10755
876.65	10771
876.778	10850
876.906	10908
877.034	11041
877.162	11083
877.29	11143
877.418	11242
877.546	11322
877.674	11406
877.802	11501
877.93	11474
878.058	11524
878.185	11528
878.313	11672
878.441	11752
878.568	11680
878.696	11783
878.824	11923
878.951	12011
879.079	12022
879.206	12148
879.333	11992
879.461	12057
879.588	12106
879.715	12125
879.842	12258
879.97	12083
880.097	11882
880.224	11958
880.351	11874
880.478	11821
880.605	11752
880.732	11783
880.859	12026
880.986	11726
881.112	11874
881.239	11707
881.366	11668
881.493	11767
881.619	11577
881.746	11551
881.872	11600
881.999	11551
882.125	11467
882.252	11577
882.378	11436
882.505	11589
882.631	11402
882.757	11337
882.883	11299
883.01	11307
883.136	11151
883.262	11136
883.388	10965
883.514	11227
883.64	11231
883.766	11037
883.892	11018
884.018	11010
884.143	11041
884.269	11178
884.395	10843
884.52	10881
884.646	10782
884.772	10725
884.897	10656
885.023	10691
885.148	10710
885.274	10725
885.399	10649
885.524	10577
885.65	10607
885.775	10599
885.9	10550
886.025	10577
886.15	10558
886.275	10489
886.4	10382
886.525	10394
886.65	10382
886.775	10276
886.9	10508
887.025	10550
887.149	10356
887.274	10268
887.399	10169
887.523	10204
887.648	10120
887.773	10097
887.897	10211
888.021	10227
888.146	10090
888.27	10249
888.395	10230
888.519	10169
888.643	10166
888.767	10230
888.891	10150
889.015	10017
889.139	10078
889.263	9941
889.387	10040
889.511	10105
889.635	10002
889.759	10017
889.883	9979
890.006	9972
890.13	10097
890.254	10010
890.377	10017
890.501	9899
890.624	9899
890.748	9918
890.871	9759
890.995	9774
891.118	9701
891.241	9728
891.364	9770
891.488	9838
891.611	9625
891.734	9812
891.857	9789
891.98	9690
892.103	9732
892.226	9831
892.349	9580
892.471	9549
892.594	9587
892.717	9599
892.839	9530
892.962	9644
893.085	9637
893.207	9595
893.33	9504
893.452	9534
893.575	9603
893.697	9507
893.819	9591
893.941	9622
894.064	9641
894.186	9378
894.308	9431
894.43	9549
894.552	9511
894.674	9538
894.796	9386
894.918	9351
895.04	9298
895.161	9374
895.283	9291
895.405	9233
895.526	9123
895.648	9199
895.769	9264
895.891	9218
896.012	9214
896.134	9287
896.255	9272
896.376	9104
896.498	9169
896.619	9142
896.74	9100
896.861	9157
896.982	9207
897.103	9256
897.224	9135
897.345	9024
897.466	9085
897.587	9028
897.708	9039
897.828	9066
897.949	9017
898.07	8910
898.19	8902
898.311	9047
898.431	8842
898.552	8941
898.672	8941
898.792	8948
898.913	8910
899.033	8811
899.153	8727
899.273	8705
899.393	8739
899.513	8716
899.633	8735
899.753	8823
899.873	8712
899.993	8716
900.113	8746
900.232	8720
900.352	8682
900.472	8598
900.591	8587
900.711	8575
900.83	8545
900.95	8686
901.069	8682
901.189	8552
901.308	8461
901.427	8427
901.546	8415
901.665	8473
901.784	8533
901.904	8358
902.023	8415
902.141	8202
902.26	8267
902.379	8252
902.498	8237
902.617	8240
902.735	8351
902.854	8259
902.973	8233
903.091	8161
903.21	8130
903.328	8111
903.446	8031
903.565	8096
903.683	8096
903.801	8039
903.919	8115
904.038	8073
904.156	7970
904.274	8096
904.392	8005
904.51	8088
904.627	8065
904.745	8130
904.863	8088
904.981	7902
905.098	7868
905.216	7856
905.334	7852
905.451	7932
905.569	7928
905.686	7875
905.803	7921
905.921	7795
906.038	7845
906.155	7753
906.272	7677
906.389	7818
906.506	7666
906.623	7620
906.74	7636
906.857	7605
906.974	7597
907.091	7624
907.208	7689
907.324	7571
907.441	7510
907.557	7491
907.674	7460
907.79	7350
907.907	7377
908.023	7449
908.139	7365
908.256	7381
908.372	7320
908.488	7381
908.604	7259
908.72	7221
908.836	7301
908.952	7297
909.068	7255
909.184	7327
909.3	7225
909.415	7259
909.531	7236
909.647	7152
909.762	7187
909.878	7118
909.993	7152
910.108	7091
910.224	7012
910.339	7129
910.454	7046
910.57	6993
910.685	6989
910.8	7156
910.915	7080
911.03	7038
911.145	6958
911.259	6913
911.374	6901
911.489	6890
911.604	6833
911.718	6684
911.833	6722
911.947	6639
912.062	6646
912.176	6684
912.291	6677
912.405	6684
912.519	6787
912.633	6802
912.748	6783
912.862	6753
912.976	6608
913.09	6536
913.204	6650
913.318	6616
913.431	6627
913.545	6627
913.659	6745
913.772	6662
913.886	6559
914	6601
914.113	6631
914.226	6631
914.34	6623
914.453	6498
914.566	6658
914.68	6532
914.793	6540
914.906	6471
915.019	6414
915.132	6369
915.245	6403
915.358	6456
915.47	6403
915.583	6464
915.696	6422
915.809	6544
915.921	6566
916.034	6418
916.146	6357
916.259	6376
916.371	6433
916.483	6426
916.595	6414
916.708	6388
916.82	6361
916.932	6388
917.044	6372
917.156	6410
917.268	6292
917.38	6315
917.491	6357
917.603	6365
917.715	6380
917.826	6388
917.938	6372
918.049	6254
918.161	6296
918.272	6448
918.384	6429
918.495	6369
918.606	6273
918.717	6205
918.828	6247
918.939	6258
919.05	6251
919.161	6289
919.272	6175
919.383	6148
919.494	6296
919.604	6471
919.715	6281
919.826	6224
919.936	6258
920.047	6350
920.157	6277
920.267	6414
920.378	6350
920.488	6277
920.598	6506
920.708	6570
920.818	6464
920.928	6452
921.038	6631
921.148	6582
921.258	6369
921.368	6357
921.477	6251
921.587	6201
921.697	6076
921.806	6228
921.916	6057
922.025	5973
922.134	5904
922.244	5901
922.353	5931
922.462	5859
922.571	5794
922.68	5699
922.789	5688
922.898	5661
923.007	5649
923.116	5680
923.224	5653
923.333	5680
923.442	5562
923.55	5543
923.659	5615
923.767	5585
923.876	5558
923.984	5570
924.092	5505
924.201	5543
924.309	5535
924.417	5547
924.525	5478
924.633	5516
924.741	6152
924.849	5395
924.956	5429
925.064	5360
925.172	5330
925.279	5341
925.387	5368
925.494	5341
925.602	5448
925.709	5364
925.816	5303
925.924	5341
926.031	5337
926.138	5258
926.245	5280
926.352	5143
926.459	5315
926.566	5337
926.673	5235
926.779	5189
926.886	5098
926.993	5033
927.099	5003
927.206	5022
927.312	4938
927.419	5060
927.525	4949
927.631	5033
927.737	4889
927.843	4900
927.95	4801
928.056	4862
928.162	4809
928.267	4839
928.373	5345
928.479	4915
928.585	4694
928.69	4835
928.796	4767
928.901	4683
929.007	4596
929.112	4660
929.218	4618
929.323	4577
929.428	4577
929.533	4717
929.638	4508
929.743	4615
929.848	4603
929.953	4443
930.058	4402
930.163	4371
930.267	4360
930.372	4459
930.477	4303
930.581	4428
930.685	4360
930.79	4219
930.894	4265
930.998	4284
931.103	4375
931.207	4112
931.311	4021
931.415	4021
931.519	3930
931.623	3896
