Data from glass_V78500241_2047.txt Node
Date: Wed Sep 01 19:28:41 CST 2021
User: usil
Spectrometer: V785-0024
Trigger mode: 0
Integration Time (sec): 4.000000E-1
Scans to average: 1
Nonlinearity correction enabled: false
Boxcar width: 0
Storing dark spectrum: false
XAxis mode: Wavelengths
Number of Pixels in Spectrum: 1024
>>>>>Begin Spectral Data<<<<<
801.071	3732
801.214	3736
801.356	3698
801.499	3698
801.641	3701
801.783	3770
801.926	3880
802.068	3812
802.211	3892
802.353	3876
802.496	3846
802.638	3850
802.78	3876
802.923	3930
803.065	3911
803.208	3850
803.35	3911
803.492	3926
803.635	3896
803.777	3793
803.919	3903
804.061	4185
804.204	3964
804.346	3922
804.488	3911
804.63	4067
804.773	3941
804.915	4010
805.057	4181
805.199	4036
805.341	4051
805.483	4158
805.626	4116
805.768	4086
805.91	4169
806.052	4246
806.194	4185
806.336	4333
806.478	4185
806.62	4177
806.762	4200
806.904	4230
807.046	4348
807.188	4154
807.33	4147
807.472	4238
807.614	4196
807.756	4257
807.898	4238
808.04	4215
808.182	4299
808.324	4295
808.465	4386
808.607	4504
808.749	4394
808.891	4497
809.033	4462
809.174	4428
809.316	4337
809.458	4276
809.6	4147
809.741	4150
809.883	4158
810.025	4223
810.166	4169
810.308	4158
810.45	4249
810.591	4192
810.733	4299
810.875	4550
811.016	4801
811.158	5128
811.299	5261
811.441	5273
811.582	5060
811.724	4687
811.865	4500
812.007	4428
812.148	4405
812.29	4428
812.431	4405
812.573	4413
812.714	4360
812.855	4451
812.997	4432
813.138	4459
813.279	4443
813.421	4379
813.562	4360
813.703	4318
813.845	4333
813.986	4227
814.127	4215
814.268	4276
814.41	4303
814.551	4257
814.692	4284
814.833	4268
814.974	4268
815.115	4337
815.256	4227
815.397	4192
815.539	4265
815.68	4200
815.821	4223
815.962	4280
816.103	4253
816.244	4272
816.385	4242
816.526	4242
816.666	4211
816.807	4090
816.948	4162
817.089	4185
817.23	4082
817.371	4040
817.512	4071
817.653	4055
817.793	4006
817.934	4021
818.075	4097
818.216	4082
818.356	4120
818.497	4002
818.638	3911
818.778	3907
818.919	3892
819.06	3827
819.2	3892
819.341	3907
819.481	3857
819.622	3911
819.762	3983
819.903	3930
820.043	3869
820.184	3835
820.324	3835
820.465	3880
820.605	3854
820.746	3880
820.886	3800
821.026	3915
821.167	3880
821.307	3987
821.447	3949
821.588	3968
821.728	3926
821.868	3922
822.008	3884
822.149	3964
822.289	3915
822.429	3751
822.569	3778
822.709	3774
822.849	3694
822.99	3732
823.13	3740
823.27	3781
823.41	3694
823.55	3747
823.69	3717
823.83	3747
823.97	3641
824.11	3595
824.25	3580
824.389	3671
824.529	3686
824.669	3644
824.809	3698
824.949	3751
825.089	3728
825.228	3690
825.368	3561
825.508	3610
825.648	3561
825.787	3587
825.927	3648
826.067	3633
826.206	3625
826.346	3800
826.485	3846
826.625	3842
826.765	3956
826.904	3827
827.044	3633
827.183	3492
827.323	3469
827.462	3466
827.601	3454
827.741	3405
827.88	3462
828.02	3393
828.159	3458
828.298	3473
828.437	3511
828.577	3450
828.716	3572
828.855	3477
828.994	3344
829.134	3355
829.273	3393
829.412	3363
829.551	3325
829.69	3374
829.829	3374
829.968	3477
830.107	3412
830.246	3458
830.385	3382
830.524	3332
830.663	3291
830.802	3249
830.941	3157
831.08	3180
831.219	3279
831.357	3272
831.496	3389
831.635	3253
831.774	3203
831.913	3214
832.051	3108
832.19	3131
832.329	3165
832.467	3161
832.606	3077
832.744	3176
832.883	3173
833.022	3184
833.16	3249
833.299	3298
833.437	3275
833.576	3351
833.714	3382
833.852	3409
833.991	3443
834.129	3435
834.267	3473
834.406	3359
834.544	3389
834.682	3393
834.821	3420
834.959	3564
835.097	3431
835.235	3530
835.373	3530
835.511	3488
835.65	3458
835.788	3488
835.926	3378
836.064	3416
836.202	3393
836.34	3603
836.478	3580
836.615	3549
836.753	3568
836.891	3656
837.029	3648
837.167	3587
837.305	3564
837.443	3542
837.58	3523
837.718	3587
837.856	3580
837.993	3545
838.131	3576
838.269	3587
838.406	3595
838.544	3557
838.681	3477
838.819	3439
838.956	3374
839.094	3363
839.231	3439
839.369	3504
839.506	3701
839.643	3591
839.781	3488
839.918	3462
840.055	3561
840.193	3488
840.33	3515
840.467	3557
840.604	3599
840.742	3804
840.879	3542
841.016	3564
841.153	3576
841.29	3781
841.427	3720
841.564	3713
841.701	3675
841.838	3736
841.975	3633
842.112	3660
842.249	3648
842.385	3599
842.522	3850
842.659	3660
842.796	3648
842.933	3705
843.069	3694
843.206	3671
843.343	3831
843.479	3774
843.616	3827
843.752	3705
843.889	3713
844.025	3827
844.162	3736
844.298	3827
844.435	3793
844.571	3789
844.708	3937
844.844	3987
844.98	4051
845.117	4010
845.253	3899
845.389	3934
845.525	3975
845.661	3926
845.798	3930
845.934	3987
846.07	3979
846.206	4040
846.342	4116
846.478	4055
846.614	3937
846.75	3956
846.886	3884
847.022	4002
847.158	3937
847.294	3972
847.429	3994
847.565	4013
847.701	4242
847.837	3823
847.972	3842
848.108	3934
848.244	3991
848.379	3850
848.515	3835
848.65	3800
848.786	3831
848.921	3899
849.057	3922
849.192	3941
849.328	3865
849.463	3911
849.598	3876
849.734	3861
849.869	3789
850.004	3766
850.14	3785
850.275	3774
850.41	3728
850.545	3732
850.68	3778
850.815	3816
850.95	3751
851.085	3926
851.22	3869
851.355	3778
851.49	3804
851.625	3812
851.76	3785
851.895	3717
852.03	3740
852.165	3804
852.299	3899
852.434	3888
852.569	3808
852.703	3899
852.838	3922
852.973	3998
853.107	3991
853.242	3903
853.376	3873
853.511	3800
853.645	3838
853.78	3968
853.914	3869
854.048	3861
854.183	3865
854.317	3979
854.451	4051
854.585	3926
854.72	3930
854.854	4032
854.988	3945
855.122	4040
855.256	3960
855.39	4002
855.524	4093
855.658	4074
855.792	4131
855.926	4097
856.06	4143
856.194	4177
856.327	4154
856.461	4120
856.595	4169
856.729	4162
856.862	4246
856.996	4238
857.13	4291
857.263	4341
857.397	4371
857.53	4219
857.664	4322
857.797	4394
857.931	4352
858.064	4394
858.197	4470
858.331	4371
858.464	4386
858.597	4318
858.731	4417
858.864	4466
858.997	4409
859.13	4550
859.263	4481
859.396	4565
859.529	4493
859.662	4516
859.795	4504
859.928	4596
860.061	4714
860.194	4702
860.327	4660
860.46	4618
860.592	4752
860.725	4736
860.858	4767
860.99	4702
861.123	4687
861.256	4691
861.388	4793
861.521	5345
861.653	4706
861.786	4675
861.918	4774
862.05	4820
862.183	4850
862.315	4858
862.447	4938
862.58	4904
862.712	4759
862.844	4748
862.976	4881
863.108	4889
863.24	5155
863.372	4820
863.504	4885
863.636	4877
863.768	4953
863.9	4938
864.032	4957
864.164	4957
864.296	4972
864.428	5018
864.559	5121
864.691	5067
864.823	5102
864.954	5136
865.086	5136
865.217	5132
865.349	5086
865.48	5162
865.612	5193
865.743	5250
865.875	5204
866.006	5155
866.137	5204
866.269	5220
866.4	5258
866.531	5174
866.662	5220
866.793	5269
866.924	5273
867.055	5391
867.186	5318
867.317	5299
867.448	5254
867.579	5345
867.71	5357
867.841	5372
867.972	5459
868.103	5410
868.233	5493
868.364	5535
868.495	5535
868.625	5665
868.756	5775
868.886	5691
869.017	5783
869.147	5870
869.278	5813
869.408	5828
869.539	5851
869.669	5916
869.799	5901
869.929	5984
870.06	5999
870.19	6201
870.32	6213
870.45	6281
870.58	6254
870.71	6448
870.84	6509
870.97	6388
871.1	6467
871.23	6642
871.36	6623
871.489	6658
871.619	6719
871.749	6814
871.879	6859
872.008	6897
872.138	7000
872.267	6977
872.397	6989
872.526	7076
872.656	7145
872.785	7171
872.915	7369
873.044	7567
873.173	7537
873.303	7620
873.432	7738
873.561	7875
873.69	7879
873.819	8073
873.948	8142
874.077	8237
874.206	8301
874.335	8495
874.464	8663
874.593	8887
874.722	8967
874.851	9119
874.979	9253
875.108	9370
875.237	9374
875.365	9496
875.494	9648
875.623	9816
875.751	9884
875.88	9956
876.008	10177
876.136	10291
876.265	10455
876.393	10626
876.521	10752
876.65	10767
876.778	10896
876.906	10927
877.034	10980
877.162	11098
877.29	11151
877.418	11227
877.546	11337
877.674	11452
877.802	11391
877.93	11490
878.058	11528
878.185	11554
878.313	11608
878.441	11767
878.568	11596
878.696	11737
878.824	11813
878.951	12026
879.079	12007
879.206	12129
879.333	12011
879.461	11939
879.588	12106
879.715	12030
879.842	12228
879.97	12095
880.097	11889
880.224	11882
880.351	11802
880.478	11866
880.605	11927
880.732	11870
880.859	11923
880.986	11828
881.112	11832
881.239	11737
881.366	11695
881.493	11657
881.619	11448
881.746	11528
881.872	11501
881.999	11516
882.125	11516
882.252	11516
882.378	11486
882.505	11581
882.631	11425
882.757	11330
882.883	11299
883.01	11204
883.136	11136
883.262	11132
883.388	11071
883.514	11197
883.64	11170
883.766	11166
883.892	11003
884.018	11003
884.143	11086
884.269	11140
884.395	10824
884.52	10752
884.646	10771
884.772	10721
884.897	10618
885.023	10641
885.148	10717
885.274	10740
885.399	10782
885.524	10599
885.65	10577
885.775	10599
885.9	10493
886.025	10569
886.15	10554
886.275	10466
886.4	10325
886.525	10462
886.65	10344
886.775	10356
886.9	10489
887.025	10519
887.149	10386
887.274	10188
887.399	10337
887.523	10166
887.648	10211
887.773	10090
887.897	10169
888.021	10215
888.146	10185
888.27	10185
888.395	10196
888.519	10147
888.643	10200
888.767	10173
888.891	10063
889.015	10017
889.139	10036
889.263	9972
889.387	10090
889.511	10135
889.635	10097
889.759	9945
889.883	10021
890.006	9926
890.13	10120
890.254	9922
890.377	9979
890.501	9816
890.624	9892
890.748	9915
890.871	9819
890.995	9743
891.118	9701
891.241	9781
891.364	9720
891.488	9823
891.611	9736
891.734	9701
891.857	9770
891.98	9770
892.103	9778
892.226	9694
892.349	9671
892.471	9542
892.594	9610
892.717	9644
892.839	9625
892.962	9584
893.085	9542
893.207	9557
893.33	9622
893.452	9507
893.575	9599
893.697	9462
893.819	9614
893.941	9599
894.064	9572
894.186	9389
894.308	9386
894.43	9507
894.552	9534
894.674	9538
894.796	9405
894.918	9428
895.04	9355
895.161	9279
895.283	9298
895.405	9154
895.526	9184
895.648	9192
895.769	9214
895.891	9283
896.012	9321
896.134	9169
896.255	9237
896.376	9097
896.498	9188
896.619	9108
896.74	9055
896.861	9051
896.982	9214
897.103	9245
897.224	9180
897.345	9100
897.466	9051
897.587	9001
897.708	9024
897.828	8937
897.949	8971
898.07	8906
898.19	8876
898.311	9009
898.431	8864
898.552	8906
898.672	8914
898.792	8921
898.913	8872
899.033	8735
899.153	8712
899.273	8693
899.393	8750
899.513	8750
899.633	8720
899.753	8758
899.873	8739
899.993	8720
900.113	8735
900.232	8686
900.352	8625
900.472	8530
900.591	8560
900.711	8625
900.83	8526
900.95	8594
901.069	8644
901.189	8522
901.308	8419
901.427	8347
901.546	8423
901.665	8454
901.784	8461
901.904	8366
902.023	8400
902.141	8214
902.26	8214
902.379	8320
902.498	8191
902.617	8252
902.735	8271
902.854	8248
902.973	8267
903.091	8096
903.21	8176
903.328	8168
903.446	8107
903.565	8073
903.683	8157
903.801	8020
903.919	8126
904.038	8142
904.156	8008
904.274	8073
904.392	7989
904.51	8001
904.627	8115
904.745	8119
904.863	8035
904.981	7894
905.098	7944
905.216	7868
905.334	7940
905.451	7837
905.569	7837
905.686	7932
905.803	7963
905.921	7792
906.038	7940
906.155	7776
906.272	7742
906.389	7655
906.506	7677
906.623	7636
906.74	7586
906.857	7559
906.974	7571
907.091	7651
907.208	7696
907.324	7624
907.441	7559
907.557	7457
907.674	7453
907.79	7422
907.907	7396
908.023	7457
908.139	7430
908.256	7377
908.372	7335
908.488	7430
908.604	7259
908.72	7251
908.836	7263
908.952	7255
909.068	7263
909.184	7274
909.3	7301
909.415	7289
909.531	7293
909.647	7145
909.762	7084
909.878	7095
909.993	7099
910.108	7110
910.224	7050
910.339	7110
910.454	7057
910.57	6901
910.685	6939
910.8	7107
910.915	7156
911.03	7057
911.145	6905
911.259	6829
911.374	6886
911.489	6825
911.604	6776
911.718	6703
911.833	6772
911.947	6616
912.062	6646
912.176	6692
912.291	6715
912.405	6696
912.519	6829
912.633	6795
912.748	6722
912.862	6692
912.976	6604
913.09	6506
913.204	6563
913.318	6673
913.431	6681
913.545	6681
913.659	6719
913.772	6665
913.886	6589
914	6601
914.113	6608
914.226	6620
914.34	6642
914.453	6498
914.566	6570
914.68	6464
914.793	6547
914.906	6448
915.019	6388
915.132	6319
915.245	6395
915.358	6486
915.47	6437
915.583	6437
915.696	6452
915.809	6479
915.921	6597
916.034	6395
916.146	6380
916.259	6380
916.371	6410
916.483	6380
916.595	6433
916.708	6399
916.82	6399
916.932	6357
917.044	6460
917.156	6334
917.268	6285
917.38	6323
917.491	6281
917.603	6346
917.715	6407
917.826	6407
917.938	6353
918.049	6262
918.161	6395
918.272	6403
918.384	6445
918.495	6365
918.606	6289
918.717	6205
918.828	6273
918.939	6277
919.05	6194
919.161	6258
919.272	6117
919.383	6220
919.494	6308
919.604	6369
919.715	6285
919.826	6258
919.936	6201
920.047	6315
920.157	6224
920.267	6441
920.378	6258
920.488	6311
920.598	6456
920.708	6570
920.818	6460
920.928	6498
921.038	6563
921.148	6544
921.258	6357
921.368	6289
921.477	6205
921.587	6148
921.697	6060
921.806	6167
921.916	6049
922.025	5920
922.134	5863
922.244	5855
922.353	5961
922.462	5824
922.571	5733
922.68	5718
922.789	5703
922.898	5756
923.007	5604
923.116	5695
923.224	5630
923.333	5657
923.442	5551
923.55	5611
923.659	5520
923.767	5619
923.876	5535
923.984	5577
924.092	5509
924.201	5539
924.309	5573
924.417	5592
924.525	5562
924.633	5474
924.741	6292
924.849	5326
924.956	5486
925.064	5337
925.172	5334
925.279	5292
925.387	5341
925.494	5372
925.602	5402
925.709	5383
925.816	5277
925.924	5315
926.031	5364
926.138	5303
926.245	5334
926.352	5250
926.459	5387
926.566	5273
926.673	5151
926.779	5151
926.886	5121
926.993	5018
927.099	4938
927.206	4949
927.312	4995
927.419	4991
927.525	4942
927.631	4972
927.737	4870
927.843	4873
927.95	4782
928.056	4854
928.162	4847
928.267	4831
928.373	5246
928.479	4854
928.585	4698
928.69	4763
928.796	4740
928.901	4679
929.007	4622
929.112	4626
929.218	4656
929.323	4599
929.428	4546
929.533	4641
929.638	4470
929.743	4580
929.848	4519
929.953	4542
930.058	4459
930.163	4341
930.267	4333
930.372	4436
930.477	4333
930.581	4481
930.685	4348
930.79	4230
930.894	4291
930.998	4246
931.103	4371
931.207	4147
931.311	4109
931.415	4067
931.519	3934
931.623	3922
