Data from glass_V78500241_687.txt Node
Date: Wed Sep 01 19:19:15 CST 2021
User: usil
Spectrometer: V785-0024
Trigger mode: 0
Integration Time (sec): 4.000000E-1
Scans to average: 1
Nonlinearity correction enabled: false
Boxcar width: 0
Storing dark spectrum: false
XAxis mode: Wavelengths
Number of Pixels in Spectrum: 1024
>>>>>Begin Spectral Data<<<<<
801.071	3740
801.214	3743
801.356	3724
801.499	3770
801.641	3770
801.783	3747
801.926	3842
802.068	3835
802.211	3876
802.353	3899
802.496	3831
802.638	3869
802.78	3880
802.923	3968
803.065	3926
803.208	3880
803.35	3884
803.492	3896
803.635	3907
803.777	3819
803.919	3922
804.061	4116
804.204	3960
804.346	3949
804.488	3953
804.63	4074
804.773	3983
804.915	4044
805.057	4154
805.199	4032
805.341	4101
805.483	4135
805.626	4128
805.768	4169
805.91	4246
806.052	4234
806.194	4219
806.336	4375
806.478	4268
806.62	4192
806.762	4276
806.904	4257
807.046	4344
807.188	4227
807.33	4173
807.472	4238
807.614	4196
807.756	4287
807.898	4257
808.04	4173
808.182	4287
808.324	4375
808.465	4386
808.607	4470
808.749	4447
808.891	4489
809.033	4542
809.174	4424
809.316	4325
809.458	4230
809.6	4143
809.741	4150
809.883	4162
810.025	4196
810.166	4204
810.308	4204
810.45	4265
810.591	4227
810.733	4295
810.875	4512
811.016	4805
811.158	5140
811.299	5318
811.441	5315
811.582	5105
811.724	4687
811.865	4500
812.007	4466
812.148	4405
812.29	4424
812.431	4394
812.573	4417
812.714	4421
812.855	4459
812.997	4398
813.138	4478
813.279	4443
813.421	4394
813.562	4436
813.703	4367
813.845	4341
813.986	4196
814.127	4253
814.268	4265
814.41	4272
814.551	4253
814.692	4314
814.833	4303
814.974	4291
815.115	4363
815.256	4265
815.397	4227
815.539	4303
815.68	4166
815.821	4219
815.962	4291
816.103	4295
816.244	4268
816.385	4249
816.526	4310
816.666	4230
816.807	4196
816.948	4188
817.089	4192
817.23	4116
817.371	4055
817.512	3983
817.653	4097
817.793	4040
817.934	4055
818.075	4120
818.216	4105
818.356	4071
818.497	4006
818.638	3953
818.778	3915
818.919	3888
819.06	3869
819.2	3941
819.341	3888
819.481	3857
819.622	3953
819.762	4032
819.903	3972
820.043	3903
820.184	3888
820.324	3823
820.465	3884
820.605	3819
820.746	3880
820.886	3804
821.026	3907
821.167	3953
821.307	4036
821.447	3987
821.588	3972
821.728	3975
821.868	3945
822.008	3880
822.149	3892
822.289	3964
822.429	3774
822.569	3747
822.709	3808
822.849	3709
822.99	3732
823.13	3736
823.27	3785
823.41	3759
823.55	3747
823.69	3747
823.83	3740
823.97	3717
824.11	3641
824.25	3610
824.389	3641
824.529	3675
824.669	3644
824.809	3743
824.949	3781
825.089	3785
825.228	3667
825.368	3561
825.508	3519
825.648	3526
825.787	3641
825.927	3633
826.067	3606
826.206	3663
826.346	3804
826.485	3869
826.625	3827
826.765	3964
826.904	3831
827.044	3633
827.183	3519
827.323	3424
827.462	3519
827.601	3450
827.741	3412
827.88	3481
828.02	3363
828.159	3458
828.298	3504
828.437	3553
828.577	3526
828.716	3610
828.855	3500
828.994	3389
829.134	3412
829.273	3435
829.412	3340
829.551	3329
829.69	3420
829.829	3409
829.968	3557
830.107	3462
830.246	3439
830.385	3389
830.524	3367
830.663	3291
830.802	3272
830.941	3211
831.08	3226
831.219	3272
831.357	3275
831.496	3374
831.635	3222
831.774	3207
831.913	3256
832.051	3138
832.19	3142
832.329	3222
832.467	3146
832.606	3131
832.744	3176
832.883	3173
833.022	3233
833.16	3275
833.299	3279
833.437	3382
833.576	3431
833.714	3412
833.852	3504
833.991	3439
834.129	3492
834.267	3447
834.406	3386
834.544	3405
834.682	3428
834.821	3420
834.959	3576
835.097	3431
835.235	3511
835.373	3511
835.511	3526
835.65	3488
835.788	3530
835.926	3409
836.064	3374
836.202	3412
836.34	3553
836.478	3633
836.615	3553
836.753	3622
836.891	3633
837.029	3603
837.167	3591
837.305	3538
837.443	3534
837.58	3515
837.718	3606
837.856	3576
837.993	3530
838.131	3572
838.269	3557
838.406	3587
838.544	3599
838.681	3473
838.819	3481
838.956	3412
839.094	3435
839.231	3458
839.369	3538
839.506	3751
839.643	3656
839.781	3542
839.918	3500
840.055	3530
840.193	3534
840.33	3496
840.467	3591
840.604	3618
840.742	3819
840.879	3538
841.016	3564
841.153	3549
841.29	3789
841.427	3717
841.564	3751
841.701	3747
841.838	3717
841.975	3671
842.112	3740
842.249	3671
842.385	3652
842.522	3865
842.659	3690
842.796	3671
842.933	3728
843.069	3732
843.206	3694
843.343	3800
843.479	3759
843.616	3850
843.752	3671
843.889	3671
844.025	3888
844.162	3728
844.298	3842
844.435	3808
844.571	3797
844.708	3899
844.844	3964
844.98	4044
845.117	3994
845.253	3911
845.389	3926
845.525	3972
845.661	3960
845.798	3968
845.934	4040
846.07	3979
846.206	4051
846.342	4158
846.478	4112
846.614	3968
846.75	3956
846.886	3934
847.022	4063
847.158	3991
847.294	4044
847.429	4006
847.565	4017
847.701	4249
847.837	3945
847.972	3865
848.108	3998
848.244	3945
848.379	3850
848.515	3831
848.65	3831
848.786	3846
848.921	3899
849.057	3934
849.192	3983
849.328	3953
849.463	3888
849.598	3907
849.734	3896
849.869	3827
850.004	3797
850.14	3823
850.275	3785
850.41	3762
850.545	3717
850.68	3835
850.815	3808
850.95	3793
851.085	3960
851.22	3892
851.355	3869
851.49	3797
851.625	3819
851.76	3793
851.895	3732
852.03	3720
852.165	3804
852.299	3865
852.434	3903
852.569	3846
852.703	3941
852.838	3968
852.973	4002
853.107	3979
853.242	3926
853.376	3861
853.511	3770
853.645	3842
853.78	3987
853.914	3915
854.048	3922
854.183	3857
854.317	3968
854.451	4078
854.585	4025
854.72	3949
854.854	4051
854.988	3953
855.122	4036
855.256	3922
855.39	4025
855.524	4143
855.658	4086
855.792	4105
855.926	4116
856.06	4200
856.194	4207
856.327	4173
856.461	4150
856.595	4173
856.729	4173
856.862	4276
856.996	4261
857.13	4341
857.263	4310
857.397	4405
857.53	4306
857.664	4352
857.797	4417
857.931	4459
858.064	4417
858.197	4462
858.331	4394
858.464	4383
858.597	4344
858.731	4440
858.864	4424
858.997	4447
859.13	4554
859.263	4527
859.396	4527
859.529	4542
859.662	4538
859.795	4542
859.928	4634
860.061	4767
860.194	4748
860.327	4698
860.46	4679
860.592	4736
860.725	4759
860.858	4831
860.99	4679
861.123	4691
861.256	4721
861.388	4744
861.521	5212
861.653	4729
861.786	4694
861.918	4740
862.05	4786
862.183	4873
862.315	4923
862.447	4999
862.58	4915
862.712	4843
862.844	4763
862.976	4911
863.108	4892
863.24	5254
863.372	4892
863.504	4904
863.636	4892
863.768	5033
863.9	4972
864.032	4938
864.164	4991
864.296	5010
864.428	5113
864.559	5124
864.691	5090
864.823	5159
864.954	5155
865.086	5170
865.217	5113
865.349	5117
865.48	5193
865.612	5185
865.743	5341
865.875	5155
866.006	5201
866.137	5223
866.269	5292
866.4	5280
866.531	5239
866.662	5265
866.793	5284
866.924	5341
867.055	5357
867.186	5322
867.317	5341
867.448	5307
867.579	5360
867.71	5364
867.841	5436
867.972	5455
868.103	5467
868.233	5512
868.364	5524
868.495	5524
868.625	5699
868.756	5824
868.886	5653
869.017	5741
869.147	5844
869.278	5878
869.408	5832
869.539	5885
869.669	5946
869.799	5958
869.929	5999
870.06	6038
870.19	6178
870.32	6171
870.45	6239
870.58	6353
870.71	6448
870.84	6464
870.97	6506
871.1	6395
871.23	6597
871.36	6673
871.489	6730
871.619	6741
871.749	6768
871.879	6905
872.008	7050
872.138	7046
872.267	7050
872.397	7027
872.526	7031
872.656	7080
872.785	7251
872.915	7381
873.044	7521
873.173	7571
873.303	7689
873.432	7731
873.561	7902
873.69	7860
873.819	7993
873.948	8176
874.077	8240
874.206	8343
874.335	8442
874.464	8659
874.593	8773
874.722	8982
874.851	9135
874.979	9230
875.108	9439
875.237	9496
875.365	9428
875.494	9713
875.623	9804
875.751	9861
875.88	10051
876.008	10158
876.136	10360
876.265	10531
876.393	10694
876.521	10717
876.65	10892
876.778	10881
876.906	10934
877.034	10961
877.162	11109
877.29	11147
877.418	11330
877.546	11311
877.674	11459
877.802	11440
877.93	11611
878.058	11562
878.185	11665
878.313	11665
878.441	11794
878.568	11710
878.696	11779
878.824	11828
878.951	11965
879.079	12030
879.206	12159
879.333	12030
879.461	11969
879.588	12171
879.715	12083
879.842	12175
879.97	12030
880.097	11874
880.224	11980
880.351	11996
880.478	11901
880.605	11794
880.732	11790
880.859	12049
880.986	11855
881.112	11817
881.239	11718
881.366	11676
881.493	11630
881.619	11604
881.746	11619
881.872	11543
881.999	11467
882.125	11596
882.252	11562
882.378	11512
882.505	11615
882.631	11406
882.757	11364
882.883	11303
883.01	11242
883.136	11223
883.262	11204
883.388	11041
883.514	11197
883.64	11296
883.766	11056
883.892	11006
884.018	11067
884.143	11041
884.269	11162
884.395	10881
884.52	10778
884.646	10782
884.772	10725
884.897	10729
885.023	10698
885.148	10778
885.274	10812
885.399	10656
885.524	10637
885.65	10660
885.775	10649
885.9	10580
886.025	10622
886.15	10592
886.275	10428
886.4	10443
886.525	10478
886.65	10382
886.775	10447
886.9	10561
887.025	10603
887.149	10386
887.274	10280
887.399	10284
887.523	10227
887.648	10116
887.773	10139
887.897	10234
888.021	10257
888.146	10154
888.27	10249
888.395	10280
888.519	10143
888.643	10207
888.767	10204
888.891	10139
889.015	10048
889.139	10063
889.263	10036
889.387	10055
889.511	10173
889.635	10082
889.759	9930
889.883	9994
890.006	9979
890.13	10059
890.254	10021
890.377	10025
890.501	9895
890.624	9884
890.748	9903
890.871	9835
890.995	9869
891.118	9728
891.241	9751
891.364	9812
891.488	9903
891.611	9728
891.734	9694
891.857	9789
891.98	9732
892.103	9800
892.226	9728
892.349	9675
892.471	9500
892.594	9564
892.717	9679
892.839	9564
892.962	9606
893.085	9637
893.207	9622
893.33	9542
893.452	9511
893.575	9576
893.697	9507
893.819	9633
893.941	9637
894.064	9599
894.186	9477
894.308	9504
894.43	9526
894.552	9618
894.674	9564
894.796	9420
894.918	9424
895.04	9420
895.161	9393
895.283	9405
895.405	9260
895.526	9317
895.648	9283
895.769	9332
895.891	9256
896.012	9275
896.134	9233
896.255	9169
896.376	9146
896.498	9146
896.619	9104
896.74	9138
896.861	9154
896.982	9268
897.103	9317
897.224	9203
897.345	9131
897.466	9028
897.587	9066
897.708	9074
897.828	8982
897.949	8899
898.07	8872
898.19	8975
898.311	9074
898.431	8857
898.552	8982
898.672	8929
898.792	9001
898.913	8853
899.033	8762
899.153	8777
899.273	8663
899.393	8716
899.513	8727
899.633	8720
899.753	8781
899.873	8644
899.993	8731
900.113	8716
900.232	8716
900.352	8640
900.472	8617
900.591	8568
900.711	8606
900.83	8484
900.95	8644
901.069	8720
901.189	8613
901.308	8442
901.427	8377
901.546	8526
901.665	8511
901.784	8541
901.904	8415
902.023	8374
902.141	8271
902.26	8290
902.379	8301
902.498	8206
902.617	8214
902.735	8355
902.854	8282
902.973	8237
903.091	8153
903.21	8187
903.328	8244
903.446	8149
903.565	8039
903.683	8123
903.801	8088
903.919	8107
904.038	8180
904.156	8046
904.274	8134
904.392	8073
904.51	8065
904.627	8096
904.745	8077
904.863	8054
904.981	7928
905.098	7860
905.216	7845
905.334	7978
905.451	7902
905.569	7871
905.686	7936
905.803	7925
905.921	7761
906.038	7864
906.155	7856
906.272	7723
906.389	7731
906.506	7643
906.623	7689
906.74	7636
906.857	7571
906.974	7636
907.091	7715
907.208	7742
907.324	7662
907.441	7521
907.557	7396
907.674	7411
907.79	7396
907.907	7419
908.023	7415
908.139	7464
908.256	7362
908.372	7411
908.488	7415
908.604	7339
908.72	7183
908.836	7282
908.952	7217
909.068	7259
909.184	7251
909.3	7244
909.415	7324
909.531	7289
909.647	7129
909.762	7110
909.878	7129
909.993	7129
910.108	7133
910.224	7091
910.339	7095
910.454	7042
910.57	7053
910.685	6954
910.8	7160
910.915	7053
911.03	7080
911.145	6924
911.259	6920
911.374	6943
911.489	6856
911.604	6795
911.718	6726
911.833	6711
911.947	6677
912.062	6639
912.176	6711
912.291	6715
912.405	6730
912.519	6856
912.633	6814
912.748	6696
912.862	6700
912.976	6627
913.09	6601
913.204	6578
913.318	6585
913.431	6642
913.545	6658
913.659	6768
913.772	6692
913.886	6570
914	6540
914.113	6601
914.226	6673
914.34	6601
914.453	6547
914.566	6604
914.68	6540
914.793	6517
914.906	6479
915.019	6429
915.132	6456
915.245	6426
915.358	6429
915.47	6513
915.583	6475
915.696	6486
915.809	6582
915.921	6589
916.034	6437
916.146	6509
916.259	6365
916.371	6452
916.483	6467
916.595	6353
916.708	6414
916.82	6410
916.932	6365
917.044	6460
917.156	6391
917.268	6319
917.38	6350
917.491	6357
917.603	6372
917.715	6437
917.826	6403
917.938	6426
918.049	6254
918.161	6353
918.272	6426
918.384	6490
918.495	6334
918.606	6285
918.717	6220
918.828	6300
918.939	6300
919.05	6266
919.161	6296
919.272	6110
919.383	6091
919.494	6285
919.604	6372
919.715	6311
919.826	6232
919.936	6311
920.047	6357
920.157	6311
920.267	6490
920.378	6388
920.488	6277
920.598	6467
920.708	6525
920.818	6479
920.928	6547
921.038	6608
921.148	6608
921.258	6315
921.368	6296
921.477	6273
921.587	6182
921.697	6144
921.806	6197
921.916	6072
922.025	5969
922.134	5939
922.244	5893
922.353	5977
922.462	5855
922.571	5847
922.68	5722
922.789	5688
922.898	5733
923.007	5608
923.116	5764
923.224	5726
923.333	5592
923.442	5592
923.55	5566
923.659	5581
923.767	5619
923.876	5551
923.984	5638
924.092	5482
924.201	5589
924.309	5520
924.417	5528
924.525	5497
924.633	5474
924.741	6125
924.849	5334
924.956	5512
925.064	5364
925.172	5315
925.279	5353
925.387	5334
925.494	5341
925.602	5406
925.709	5455
925.816	5292
925.924	5326
926.031	5357
926.138	5315
926.245	5330
926.352	5208
926.459	5288
926.566	5345
926.673	5174
926.779	5128
926.886	5140
926.993	5025
927.099	5033
927.206	4953
927.312	4961
927.419	5010
927.525	5037
927.631	4972
927.737	4919
927.843	4889
927.95	4782
928.056	4835
928.162	4885
928.267	4843
928.373	5395
928.479	4866
928.585	4729
928.69	4797
928.796	4812
928.901	4725
929.007	4653
929.112	4679
929.218	4599
929.323	4649
929.428	4660
929.533	4637
929.638	4512
929.743	4542
929.848	4573
929.953	4527
930.058	4489
930.163	4337
930.267	4348
930.372	4424
930.477	4287
930.581	4527
930.685	4344
930.79	4295
930.894	4276
930.998	4246
931.103	4405
931.207	4192
931.311	4082
931.415	4055
931.519	3964
931.623	3975
