Data from glass_V78500241_813.txt Node
Date: Wed Sep 01 19:20:08 CST 2021
User: usil
Spectrometer: V785-0024
Trigger mode: 0
Integration Time (sec): 4.000000E-1
Scans to average: 1
Nonlinearity correction enabled: false
Boxcar width: 0
Storing dark spectrum: false
XAxis mode: Wavelengths
Number of Pixels in Spectrum: 1024
>>>>>Begin Spectral Data<<<<<
801.071	3698
801.214	3766
801.356	3679
801.499	3770
801.641	3747
801.783	3724
801.926	3861
802.068	3835
802.211	3846
802.353	3918
802.496	3880
802.638	3896
802.78	3903
802.923	3960
803.065	3922
803.208	3842
803.35	3850
803.492	3930
803.635	3911
803.777	3838
803.919	3934
804.061	4188
804.204	3991
804.346	3930
804.488	3888
804.63	4040
804.773	3972
804.915	3991
805.057	4105
805.199	4051
805.341	4120
805.483	4158
805.626	4143
805.768	4124
805.91	4227
806.052	4253
806.194	4196
806.336	4390
806.478	4223
806.62	4181
806.762	4211
806.904	4257
807.046	4303
807.188	4238
807.33	4173
807.472	4230
807.614	4204
807.756	4253
807.898	4238
808.04	4223
808.182	4314
808.324	4314
808.465	4390
808.607	4493
808.749	4489
808.891	4489
809.033	4500
809.174	4455
809.316	4261
809.458	4242
809.6	4173
809.741	4177
809.883	4181
810.025	4204
810.166	4238
810.308	4230
810.45	4230
810.591	4268
810.733	4329
810.875	4512
811.016	4812
811.158	5166
811.299	5269
811.441	5292
811.582	5079
811.724	4679
811.865	4459
812.007	4443
812.148	4421
812.29	4436
812.431	4432
812.573	4436
812.714	4386
812.855	4462
812.997	4474
813.138	4489
813.279	4462
813.421	4371
813.562	4436
813.703	4341
813.845	4344
813.986	4268
814.127	4219
814.268	4272
814.41	4299
814.551	4253
814.692	4337
814.833	4291
814.974	4333
815.115	4367
815.256	4291
815.397	4230
815.539	4276
815.68	4204
815.821	4207
815.962	4310
816.103	4227
816.244	4219
816.385	4219
816.526	4280
816.666	4204
816.807	4135
816.948	4211
817.089	4211
817.23	4105
817.371	4074
817.512	4086
817.653	4055
817.793	4013
817.934	4017
818.075	4116
818.216	4051
818.356	4086
818.497	4025
818.638	3960
818.778	3915
818.919	3876
819.06	3876
819.2	3964
819.341	3880
819.481	3884
819.622	3918
819.762	4013
819.903	3949
820.043	3873
820.184	3850
820.324	3835
820.465	3911
820.605	3934
820.746	3892
820.886	3819
821.026	3937
821.167	3907
821.307	3953
821.447	3994
821.588	3979
821.728	3964
821.868	3960
822.008	3903
822.149	3941
822.289	3937
822.429	3804
822.569	3774
822.709	3838
822.849	3694
822.99	3720
823.13	3762
823.27	3804
823.41	3724
823.55	3766
823.69	3736
823.83	3728
823.97	3701
824.11	3648
824.25	3587
824.389	3686
824.529	3690
824.669	3633
824.809	3713
824.949	3785
825.089	3740
825.228	3690
825.368	3584
825.508	3591
825.648	3622
825.787	3637
825.927	3648
826.067	3622
826.206	3698
826.346	3846
826.485	3873
826.625	3903
826.765	3953
826.904	3873
827.044	3580
827.183	3557
827.323	3500
827.462	3526
827.601	3416
827.741	3397
827.88	3462
828.02	3363
828.159	3485
828.298	3469
828.437	3564
828.577	3485
828.716	3618
828.855	3481
828.994	3409
829.134	3382
829.273	3412
829.412	3332
829.551	3310
829.69	3374
829.829	3416
829.968	3473
830.107	3443
830.246	3424
830.385	3405
830.524	3363
830.663	3302
830.802	3272
830.941	3192
831.08	3226
831.219	3298
831.357	3283
831.496	3397
831.635	3260
831.774	3169
831.913	3222
832.051	3165
832.19	3165
832.329	3192
832.467	3131
832.606	3138
832.744	3218
832.883	3203
833.022	3203
833.16	3287
833.299	3291
833.437	3336
833.576	3378
833.714	3382
833.852	3466
833.991	3450
834.129	3488
834.267	3447
834.406	3401
834.544	3439
834.682	3428
834.821	3401
834.959	3587
835.097	3466
835.235	3561
835.373	3511
835.511	3538
835.65	3511
835.788	3511
835.926	3405
836.064	3367
836.202	3409
836.34	3603
836.478	3606
836.615	3568
836.753	3614
836.891	3652
837.029	3622
837.167	3599
837.305	3580
837.443	3534
837.58	3507
837.718	3584
837.856	3610
837.993	3542
838.131	3618
838.269	3614
838.406	3599
838.544	3564
838.681	3485
838.819	3504
838.956	3389
839.094	3428
839.231	3454
839.369	3496
839.506	3751
839.643	3648
839.781	3496
839.918	3466
840.055	3542
840.193	3530
840.33	3584
840.467	3576
840.604	3603
840.742	3842
840.879	3557
841.016	3553
841.153	3595
841.29	3759
841.427	3720
841.564	3751
841.701	3747
841.838	3736
841.975	3713
842.112	3728
842.249	3637
842.385	3622
842.522	3880
842.659	3709
842.796	3705
842.933	3694
843.069	3728
843.206	3781
843.343	3876
843.479	3800
843.616	3835
843.752	3682
843.889	3705
844.025	3831
844.162	3755
844.298	3831
844.435	3846
844.571	3800
844.708	3880
844.844	3975
844.98	4048
845.117	4036
845.253	3956
845.389	3922
845.525	3994
845.661	3983
845.798	3953
845.934	4025
846.07	3968
846.206	4040
846.342	4120
846.478	4044
846.614	3979
846.75	3968
846.886	3930
847.022	4048
847.158	3972
847.294	4032
847.429	4036
847.565	4017
847.701	4219
847.837	3869
847.972	3827
848.108	3979
848.244	3953
848.379	3819
848.515	3781
848.65	3800
848.786	3873
848.921	3888
849.057	3903
849.192	3956
849.328	3880
849.463	3930
849.598	3899
849.734	3869
849.869	3808
850.004	3861
850.14	3823
850.275	3781
850.41	3759
850.545	3736
850.68	3770
850.815	3804
850.95	3804
851.085	3953
851.22	3876
851.355	3816
851.49	3766
851.625	3797
851.76	3781
851.895	3743
852.03	3724
852.165	3816
852.299	3861
852.434	3926
852.569	3873
852.703	3903
852.838	3953
852.973	3983
853.107	4021
853.242	3873
853.376	3850
853.511	3797
853.645	3831
853.78	3987
853.914	3865
854.048	3888
854.183	3896
854.317	3987
854.451	4109
854.585	3991
854.72	3941
854.854	4048
854.988	3926
855.122	4021
855.256	3915
855.39	4036
855.524	4158
855.658	4078
855.792	4116
855.926	4131
856.06	4181
856.194	4223
856.327	4135
856.461	4158
856.595	4147
856.729	4188
856.862	4329
856.996	4268
857.13	4329
857.263	4344
857.397	4360
857.53	4318
857.664	4329
857.797	4417
857.931	4417
858.064	4348
858.197	4481
858.331	4424
858.464	4428
858.597	4337
858.731	4440
858.864	4478
858.997	4497
859.13	4535
859.263	4577
859.396	4577
859.529	4500
859.662	4550
859.795	4527
859.928	4603
860.061	4660
860.194	4694
860.327	4660
860.46	4664
860.592	4786
860.725	4733
860.858	4774
860.99	4725
861.123	4675
861.256	4733
861.388	4767
861.521	5452
861.653	4752
861.786	4687
861.918	4748
862.05	4828
862.183	4850
862.315	4858
862.447	4934
862.58	4911
862.712	4778
862.844	4831
862.976	4892
863.108	4892
863.24	5280
863.372	4877
863.504	4927
863.636	4900
863.768	5010
863.9	4927
864.032	4972
864.164	4961
864.296	4999
864.428	5098
864.559	5105
864.691	5102
864.823	5166
864.954	5174
865.086	5174
865.217	5094
865.349	5121
865.48	5170
865.612	5185
865.743	5299
865.875	5212
866.006	5239
866.137	5265
866.269	5242
866.4	5261
866.531	5280
866.662	5231
866.793	5239
866.924	5288
867.055	5345
867.186	5288
867.317	5315
867.448	5284
867.579	5410
867.71	5414
867.841	5433
867.972	5425
868.103	5512
868.233	5474
868.364	5455
868.495	5528
868.625	5695
868.756	5771
868.886	5684
869.017	5684
869.147	5821
869.278	5851
869.408	5828
869.539	5836
869.669	5931
869.799	5935
869.929	5969
870.06	6038
870.19	6201
870.32	6190
870.45	6239
870.58	6388
870.71	6426
870.84	6494
870.97	6414
871.1	6486
871.23	6673
871.36	6722
871.489	6616
871.619	6749
871.749	6802
871.879	6825
872.008	7004
872.138	6966
872.267	7015
872.397	6981
872.526	7012
872.656	7118
872.785	7202
872.915	7369
873.044	7537
873.173	7624
873.303	7696
873.432	7761
873.561	7894
873.69	7928
873.819	8035
873.948	8214
874.077	8275
874.206	8385
874.335	8530
874.464	8655
874.593	8906
874.722	8914
874.851	9066
874.979	9275
875.108	9412
875.237	9401
875.365	9450
875.494	9656
875.623	9728
875.751	9888
875.88	10040
876.008	10143
876.136	10280
876.265	10550
876.393	10717
876.521	10717
876.65	10850
876.778	10869
876.906	10858
877.034	10976
877.162	11102
877.29	11197
877.418	11307
877.546	11349
877.674	11425
877.802	11474
877.93	11520
878.058	11566
878.185	11562
878.313	11619
878.441	11752
878.568	11657
878.696	11843
878.824	11870
878.951	11927
879.079	12019
879.206	12072
879.333	12106
879.461	11999
879.588	12106
879.715	12155
879.842	12216
879.97	12194
880.097	11866
880.224	11859
880.351	11878
880.478	11863
880.605	11885
880.732	11824
880.859	12011
880.986	11824
881.112	11897
881.239	11684
881.366	11729
881.493	11668
881.619	11585
881.746	11558
881.872	11505
881.999	11558
882.125	11528
882.252	11528
882.378	11509
882.505	11619
882.631	11368
882.757	11349
882.883	11345
883.01	11349
883.136	11113
883.262	11143
883.388	11212
883.514	11227
883.64	11193
883.766	11128
883.892	10980
884.018	10961
884.143	11048
884.269	11143
884.395	10866
884.52	10771
884.646	10771
884.772	10672
884.897	10679
885.023	10679
885.148	10793
885.274	10755
885.399	10706
885.524	10653
885.65	10599
885.775	10512
885.9	10531
886.025	10580
886.15	10535
886.275	10424
886.4	10382
886.525	10363
886.65	10295
886.775	10360
886.9	10489
887.025	10550
887.149	10344
887.274	10325
887.399	10257
887.523	10150
887.648	10242
887.773	10143
887.897	10295
888.021	10223
888.146	10105
888.27	10242
888.395	10242
888.519	10249
888.643	10154
888.767	10284
888.891	10090
889.015	9949
889.139	10109
889.263	10013
889.387	10112
889.511	10230
889.635	10109
889.759	10013
889.883	10044
890.006	9998
890.13	10086
890.254	9987
890.377	10013
890.501	9873
890.624	9850
890.748	9873
890.871	9850
890.995	9743
891.118	9671
891.241	9793
891.364	9732
891.488	9857
891.611	9762
891.734	9740
891.857	9743
891.98	9656
892.103	9800
892.226	9759
892.349	9698
892.471	9530
892.594	9656
892.717	9648
892.839	9584
892.962	9576
893.085	9724
893.207	9526
893.33	9439
893.452	9587
893.575	9644
893.697	9511
893.819	9701
893.941	9610
894.064	9633
894.186	9519
894.308	9416
894.43	9545
894.552	9614
894.674	9488
894.796	9325
894.918	9424
895.04	9443
895.161	9393
895.283	9378
895.405	9287
895.526	9256
895.648	9233
895.769	9264
895.891	9359
896.012	9291
896.134	9161
896.255	9157
896.376	9123
896.498	9146
896.619	9131
896.74	9097
896.861	9131
896.982	9249
897.103	9317
897.224	9192
897.345	9131
897.466	8994
897.587	9024
897.708	9131
897.828	9093
897.949	9028
898.07	8845
898.19	8899
898.311	8986
898.431	8963
898.552	8971
898.672	8910
898.792	8895
898.913	8918
899.033	8830
899.153	8708
899.273	8716
899.393	8788
899.513	8796
899.633	8762
899.753	8731
899.873	8708
899.993	8674
900.113	8705
900.232	8750
900.352	8655
900.472	8613
900.591	8583
900.711	8590
900.83	8571
900.95	8640
901.069	8716
901.189	8560
901.308	8454
901.427	8461
901.546	8408
901.665	8450
901.784	8484
901.904	8408
902.023	8339
902.141	8195
902.26	8218
902.379	8332
902.498	8221
902.617	8195
902.735	8305
902.854	8248
902.973	8275
903.091	8161
903.21	8134
903.328	8221
903.446	8119
903.565	8123
903.683	8100
903.801	8043
903.919	8123
904.038	8081
904.156	8024
904.274	8031
904.392	8077
904.51	8031
904.627	8005
904.745	8092
904.863	8096
904.981	7890
905.098	7875
905.216	7894
905.334	7909
905.451	7932
905.569	7894
905.686	7967
905.803	7902
905.921	7761
906.038	7898
906.155	7750
906.272	7704
906.389	7670
906.506	7670
906.623	7651
906.74	7616
906.857	7537
906.974	7624
907.091	7647
907.208	7757
907.324	7586
907.441	7628
907.557	7476
907.674	7468
907.79	7430
907.907	7384
908.023	7411
908.139	7411
908.256	7392
908.372	7441
908.488	7346
908.604	7270
908.72	7209
908.836	7350
908.952	7217
909.068	7232
909.184	7274
909.3	7312
909.415	7285
909.531	7320
909.647	7114
909.762	7149
909.878	7057
909.993	7107
910.108	7129
910.224	7088
910.339	7187
910.454	7050
910.57	7038
910.685	6943
910.8	7126
910.915	7095
911.03	7072
911.145	6939
911.259	6875
911.374	6909
911.489	6825
911.604	6802
911.718	6764
911.833	6722
911.947	6658
912.062	6639
912.176	6703
912.291	6719
912.405	6700
912.519	6810
912.633	6844
912.748	6772
912.862	6681
912.976	6616
913.09	6559
913.204	6578
913.318	6627
913.431	6768
913.545	6662
913.659	6722
913.772	6700
913.886	6582
914	6597
914.113	6616
914.226	6642
914.34	6646
914.453	6528
914.566	6563
914.68	6528
914.793	6585
914.906	6475
915.019	6369
915.132	6376
915.245	6452
915.358	6456
915.47	6460
915.583	6445
915.696	6502
915.809	6525
915.921	6578
916.034	6445
916.146	6433
916.259	6353
916.371	6517
916.483	6471
916.595	6369
916.708	6494
916.82	6448
916.932	6372
917.044	6384
917.156	6407
917.268	6327
917.38	6388
917.491	6319
917.603	6391
917.715	6384
917.826	6342
917.938	6365
918.049	6243
918.161	6372
918.272	6422
918.384	6490
918.495	6331
918.606	6296
918.717	6209
918.828	6308
918.939	6292
919.05	6186
919.161	6251
919.272	6098
919.383	6186
919.494	6311
919.604	6460
919.715	6239
919.826	6243
919.936	6281
920.047	6334
920.157	6315
920.267	6486
920.378	6410
920.488	6289
920.598	6441
920.708	6601
920.818	6456
920.928	6479
921.038	6646
921.148	6601
921.258	6380
921.368	6315
921.477	6224
921.587	6140
921.697	6098
921.806	6125
921.916	6098
922.025	5958
922.134	5973
922.244	5901
922.353	5973
922.462	5855
922.571	5870
922.68	5756
922.789	5634
922.898	5699
923.007	5653
923.116	5703
923.224	5748
923.333	5688
923.442	5543
923.55	5596
923.659	5661
923.767	5627
923.876	5570
923.984	5608
924.092	5452
924.201	5558
924.309	5520
924.417	5520
924.525	5474
924.633	5520
924.741	6178
924.849	5326
924.956	5490
925.064	5372
925.172	5345
925.279	5280
925.387	5395
925.494	5322
925.602	5459
925.709	5414
925.816	5299
925.924	5284
926.031	5353
926.138	5326
926.245	5341
926.352	5204
926.459	5368
926.566	5315
926.673	5201
926.779	5121
926.886	5102
926.993	5014
927.099	5022
927.206	4968
927.312	4915
927.419	4987
927.525	4984
927.631	4965
927.737	4949
927.843	4877
927.95	4805
928.056	4850
928.162	4786
928.267	4839
928.373	5345
928.479	4854
928.585	4710
928.69	4790
928.796	4831
928.901	4710
929.007	4592
929.112	4672
929.218	4664
929.323	4630
929.428	4561
929.533	4668
929.638	4519
929.743	4588
929.848	4577
929.953	4504
930.058	4436
930.163	4371
930.267	4360
930.372	4417
930.477	4310
930.581	4474
930.685	4348
930.79	4280
930.894	4333
930.998	4299
931.103	4394
931.207	4109
931.311	4101
931.415	4040
931.519	3934
931.623	3941
