Data from glass_V78500241_1867.txt Node
Date: Wed Sep 01 19:27:26 CST 2021
User: usil
Spectrometer: V785-0024
Trigger mode: 0
Integration Time (sec): 4.000000E-1
Scans to average: 1
Nonlinearity correction enabled: false
Boxcar width: 0
Storing dark spectrum: false
XAxis mode: Wavelengths
Number of Pixels in Spectrum: 1024
>>>>>Begin Spectral Data<<<<<
801.071	3743
801.214	3774
801.356	3743
801.499	3743
801.641	3724
801.783	3804
801.926	3865
802.068	3888
802.211	3861
802.353	3899
802.496	3827
802.638	3918
802.78	3876
802.923	3941
803.065	3930
803.208	3854
803.35	3861
803.492	3918
803.635	3934
803.777	3793
803.919	3869
804.061	4128
804.204	3968
804.346	3964
804.488	3899
804.63	4044
804.773	3934
804.915	4040
805.057	4135
805.199	4051
805.341	4074
805.483	4173
805.626	4147
805.768	4112
805.91	4158
806.052	4223
806.194	4192
806.336	4367
806.478	4200
806.62	4173
806.762	4185
806.904	4268
807.046	4367
807.188	4238
807.33	4166
807.472	4261
807.614	4147
807.756	4287
807.898	4246
808.04	4215
808.182	4299
808.324	4329
808.465	4367
808.607	4405
808.749	4470
808.891	4489
809.033	4508
809.174	4383
809.316	4276
809.458	4284
809.6	4128
809.741	4169
809.883	4188
810.025	4234
810.166	4230
810.308	4177
810.45	4310
810.591	4242
810.733	4272
810.875	4531
811.016	4824
811.158	5105
811.299	5284
811.441	5265
811.582	5056
811.724	4729
811.865	4466
812.007	4466
812.148	4421
812.29	4421
812.431	4432
812.573	4436
812.714	4386
812.855	4344
812.997	4390
813.138	4478
813.279	4405
813.421	4405
813.562	4383
813.703	4344
813.845	4333
813.986	4280
814.127	4253
814.268	4230
814.41	4284
814.551	4249
814.692	4344
814.833	4253
814.974	4352
815.115	4344
815.256	4261
815.397	4230
815.539	4272
815.68	4188
815.821	4207
815.962	4344
816.103	4272
816.244	4242
816.385	4280
816.526	4230
816.666	4234
816.807	4097
816.948	4173
817.089	4162
817.23	4093
817.371	4055
817.512	4006
817.653	4105
817.793	4063
817.934	4021
818.075	4086
818.216	4059
818.356	4071
818.497	4032
818.638	3941
818.778	3907
818.919	3880
819.06	3876
819.2	3876
819.341	3842
819.481	3774
819.622	3880
819.762	4036
819.903	3945
820.043	3873
820.184	3827
820.324	3857
820.465	3873
820.605	3842
820.746	3827
820.886	3789
821.026	3941
821.167	3899
821.307	3975
821.447	3979
821.588	3937
821.728	3918
821.868	3945
822.008	3880
822.149	3915
822.289	3869
822.429	3793
822.569	3736
822.709	3819
822.849	3728
822.99	3720
823.13	3736
823.27	3778
823.41	3709
823.55	3759
823.69	3720
823.83	3713
823.97	3690
824.11	3618
824.25	3610
824.389	3618
824.529	3652
824.669	3625
824.809	3705
824.949	3743
825.089	3724
825.228	3675
825.368	3545
825.508	3557
825.648	3618
825.787	3629
825.927	3622
826.067	3576
826.206	3625
826.346	3785
826.485	3793
826.625	3888
826.765	3972
826.904	3808
827.044	3614
827.183	3534
827.323	3447
827.462	3466
827.601	3424
827.741	3447
827.88	3469
828.02	3359
828.159	3458
828.298	3500
828.437	3545
828.577	3485
828.716	3637
828.855	3469
828.994	3359
829.134	3370
829.273	3355
829.412	3378
829.551	3336
829.69	3344
829.829	3420
829.968	3496
830.107	3401
830.246	3435
830.385	3355
830.524	3363
830.663	3298
830.802	3233
830.941	3195
831.08	3176
831.219	3283
831.357	3306
831.496	3409
831.635	3245
831.774	3214
831.913	3173
832.051	3131
832.19	3097
832.329	3249
832.467	3116
832.606	3112
832.744	3161
832.883	3188
833.022	3207
833.16	3241
833.299	3336
833.437	3332
833.576	3340
833.714	3367
833.852	3431
833.991	3439
834.129	3447
834.267	3428
834.406	3348
834.544	3378
834.682	3405
834.821	3420
834.959	3549
835.097	3447
835.235	3542
835.373	3447
835.511	3500
835.65	3431
835.788	3538
835.926	3393
836.064	3405
836.202	3378
836.34	3610
836.478	3587
836.615	3511
836.753	3568
836.891	3633
837.029	3633
837.167	3568
837.305	3549
837.443	3507
837.58	3538
837.718	3591
837.856	3549
837.993	3549
838.131	3606
838.269	3553
838.406	3599
838.544	3553
838.681	3428
838.819	3454
838.956	3367
839.094	3416
839.231	3439
839.369	3538
839.506	3705
839.643	3637
839.781	3523
839.918	3428
840.055	3488
840.193	3488
840.33	3519
840.467	3568
840.604	3603
840.742	3819
840.879	3564
841.016	3538
841.153	3564
841.29	3774
841.427	3751
841.564	3682
841.701	3751
841.838	3694
841.975	3690
842.112	3682
842.249	3652
842.385	3629
842.522	3846
842.659	3663
842.796	3682
842.933	3660
843.069	3701
843.206	3728
843.343	3778
843.479	3774
843.616	3816
843.752	3644
843.889	3671
844.025	3819
844.162	3690
844.298	3854
844.435	3751
844.571	3797
844.708	3892
844.844	3975
844.98	3987
845.117	3991
845.253	3945
845.389	3922
845.525	3979
845.661	3964
845.798	3861
845.934	4025
846.07	3964
846.206	4010
846.342	4131
846.478	4074
846.614	3979
846.75	3987
846.886	3907
847.022	4025
847.158	3953
847.294	3998
847.429	4017
847.565	3994
847.701	4246
847.837	3888
847.972	3857
848.108	3987
848.244	3956
848.379	3819
848.515	3827
848.65	3804
848.786	3819
848.921	3827
849.057	3945
849.192	3968
849.328	3888
849.463	3922
849.598	3888
849.734	3869
849.869	3797
850.004	3759
850.14	3793
850.275	3804
850.41	3781
850.545	3770
850.68	3797
850.815	3800
850.95	3793
851.085	3907
851.22	3831
851.355	3816
851.49	3743
851.625	3804
851.76	3819
851.895	3705
852.03	3728
852.165	3793
852.299	3812
852.434	3907
852.569	3873
852.703	3861
852.838	3915
852.973	3987
853.107	3945
853.242	3876
853.376	3846
853.511	3781
853.645	3903
853.78	3987
853.914	3899
854.048	3876
854.183	3911
854.317	3926
854.451	4055
854.585	3968
854.72	3953
854.854	4017
854.988	3888
855.122	4010
855.256	3937
855.39	4021
855.524	4074
855.658	4086
855.792	4097
855.926	4147
856.06	4173
856.194	4173
856.327	4128
856.461	4147
856.595	4139
856.729	4147
856.862	4253
856.996	4246
857.13	4280
857.263	4329
857.397	4352
857.53	4284
857.664	4363
857.797	4424
857.931	4432
858.064	4383
858.197	4462
858.331	4363
858.464	4360
858.597	4356
858.731	4405
858.864	4474
858.997	4497
859.13	4493
859.263	4493
859.396	4516
859.529	4459
859.662	4504
859.795	4455
859.928	4588
860.061	4698
860.194	4683
860.327	4694
860.46	4599
860.592	4706
860.725	4812
860.858	4782
860.99	4679
861.123	4653
861.256	4733
861.388	4774
861.521	5391
861.653	4694
861.786	4702
861.918	4725
862.05	4797
862.183	4904
862.315	4873
862.447	4911
862.58	4889
862.712	4797
862.844	4755
862.976	4858
863.108	4850
863.24	5231
863.372	4835
863.504	4911
863.636	4885
863.768	4946
863.9	4961
864.032	4927
864.164	5006
864.296	4987
864.428	5064
864.559	5124
864.691	5083
864.823	5109
864.954	5132
865.086	5132
865.217	5094
865.349	5109
865.48	5166
865.612	5201
865.743	5265
865.875	5216
866.006	5147
866.137	5242
866.269	5216
866.4	5181
866.531	5231
866.662	5204
866.793	5269
866.924	5273
867.055	5330
867.186	5311
867.317	5280
867.448	5303
867.579	5341
867.71	5376
867.841	5376
867.972	5440
868.103	5474
868.233	5539
868.364	5490
868.495	5528
868.625	5688
868.756	5790
868.886	5699
869.017	5688
869.147	5882
869.278	5893
869.408	5813
869.539	5817
869.669	5935
869.799	5965
869.929	5992
870.06	5999
870.19	6148
870.32	6239
870.45	6239
870.58	6357
870.71	6334
870.84	6483
870.97	6429
871.1	6445
871.23	6639
871.36	6662
871.489	6574
871.619	6745
871.749	6749
871.879	6882
872.008	7008
872.138	6977
872.267	7038
872.397	7031
872.526	7034
872.656	7057
872.785	7225
872.915	7457
873.044	7544
873.173	7601
873.303	7578
873.432	7742
873.561	7906
873.69	7864
873.819	7989
873.948	8168
874.077	8240
874.206	8336
874.335	8446
874.464	8629
874.593	8842
874.722	8853
874.851	9089
874.979	9268
875.108	9340
875.237	9340
875.365	9504
875.494	9648
875.623	9861
875.751	9842
875.88	9945
876.008	10120
876.136	10265
876.265	10550
876.393	10599
876.521	10736
876.65	10889
876.778	10889
876.906	10953
877.034	10995
877.162	11128
877.29	11235
877.418	11254
877.546	11337
877.674	11448
877.802	11372
877.93	11482
878.058	11562
878.185	11547
878.313	11642
878.441	11718
878.568	11592
878.696	11817
878.824	11870
878.951	12083
879.079	12011
879.206	12076
879.333	11992
879.461	12022
879.588	12049
879.715	12034
879.842	12201
879.97	12083
880.097	11859
880.224	11961
880.351	11931
880.478	11851
880.605	11855
880.732	11840
880.859	12022
880.986	11748
881.112	11855
881.239	11855
881.366	11642
881.493	11657
881.619	11551
881.746	11440
881.872	11535
881.999	11486
882.125	11417
882.252	11520
882.378	11497
882.505	11516
882.631	11376
882.757	11337
882.883	11383
883.01	11204
883.136	11193
883.262	11071
883.388	11064
883.514	11181
883.64	11174
883.766	11124
883.892	11010
884.018	10923
884.143	11048
884.269	11041
884.395	10835
884.52	10835
884.646	10790
884.772	10675
884.897	10634
885.023	10763
885.148	10683
885.274	10729
885.399	10675
885.524	10588
885.65	10561
885.775	10504
885.9	10538
886.025	10634
886.15	10493
886.275	10538
886.4	10299
886.525	10394
886.65	10325
886.775	10325
886.9	10413
887.025	10519
887.149	10367
887.274	10207
887.399	10173
887.523	10215
887.648	10139
887.773	10139
887.897	10238
888.021	10177
888.146	10097
888.27	10257
888.395	10211
888.519	10253
888.643	10158
888.767	10181
888.891	10112
889.015	9968
889.139	10082
889.263	10021
889.387	10055
889.511	10078
889.635	10013
889.759	9994
889.883	9960
890.006	10002
890.13	10090
890.254	9899
890.377	9895
890.501	9876
890.624	9892
890.748	9903
890.871	9793
890.995	9785
891.118	9686
891.241	9732
891.364	9789
891.488	9800
891.611	9747
891.734	9812
891.857	9797
891.98	9751
892.103	9793
892.226	9682
892.349	9675
892.471	9500
892.594	9591
892.717	9580
892.839	9603
892.962	9633
893.085	9698
893.207	9603
893.33	9481
893.452	9469
893.575	9580
893.697	9466
893.819	9610
893.941	9568
894.064	9587
894.186	9405
894.308	9359
894.43	9481
894.552	9523
894.674	9542
894.796	9405
894.918	9431
895.04	9268
895.161	9389
895.283	9325
895.405	9211
895.526	9256
895.648	9283
895.769	9237
895.891	9188
896.012	9245
896.134	9233
896.255	9150
896.376	9154
896.498	9180
896.619	9116
896.74	9020
896.861	9028
896.982	9298
897.103	9313
897.224	9245
897.345	9013
897.466	9055
897.587	8986
897.708	9047
897.828	8918
897.949	8876
898.07	8807
898.19	8845
898.311	9104
898.431	8845
898.552	8857
898.672	9017
898.792	9001
898.913	8933
899.033	8758
899.153	8712
899.273	8716
899.393	8716
899.513	8781
899.633	8697
899.753	8788
899.873	8682
899.993	8701
900.113	8640
900.232	8640
900.352	8594
900.472	8640
900.591	8568
900.711	8655
900.83	8549
900.95	8701
901.069	8659
901.189	8583
901.308	8465
901.427	8385
901.546	8454
901.665	8503
901.784	8530
901.904	8355
902.023	8301
902.141	8218
902.26	8214
902.379	8259
902.498	8248
902.617	8267
902.735	8290
902.854	8301
902.973	8275
903.091	8100
903.21	8195
903.328	8107
903.446	8027
903.565	8062
903.683	8073
903.801	8031
903.919	8134
904.038	8062
904.156	8008
904.274	8046
904.392	8031
904.51	7997
904.627	8027
904.745	8084
904.863	8046
904.981	7906
905.098	7887
905.216	7890
905.334	7955
905.451	7879
905.569	7928
905.686	7902
905.803	7894
905.921	7757
906.038	7852
906.155	7776
906.272	7685
906.389	7712
906.506	7620
906.623	7597
906.74	7605
906.857	7552
906.974	7525
907.091	7636
907.208	7738
907.324	7594
907.441	7613
907.557	7407
907.674	7422
907.79	7354
907.907	7381
908.023	7445
908.139	7407
908.256	7381
908.372	7339
908.488	7365
908.604	7289
908.72	7225
908.836	7285
908.952	7228
909.068	7305
909.184	7282
909.3	7202
909.415	7282
909.531	7244
909.647	7114
909.762	7069
909.878	7076
909.993	7080
910.108	7095
910.224	7091
910.339	7107
910.454	7015
910.57	6981
910.685	6951
910.8	7137
910.915	7118
911.03	7061
911.145	6856
911.259	6901
911.374	6901
911.489	6772
911.604	6757
911.718	6741
911.833	6703
911.947	6642
912.062	6620
912.176	6631
912.291	6703
912.405	6692
912.519	6791
912.633	6806
912.748	6726
912.862	6722
912.976	6601
913.09	6589
913.204	6608
913.318	6536
913.431	6684
913.545	6730
913.659	6715
913.772	6646
913.886	6616
914	6566
914.113	6601
914.226	6673
914.34	6658
914.453	6502
914.566	6642
914.68	6509
914.793	6589
914.906	6399
915.019	6403
915.132	6384
915.245	6445
915.358	6448
915.47	6407
915.583	6422
915.696	6441
915.809	6563
915.921	6506
916.034	6391
916.146	6410
916.259	6372
916.371	6471
916.483	6422
916.595	6399
916.708	6365
916.82	6395
916.932	6350
917.044	6403
917.156	6384
917.268	6323
917.38	6350
917.491	6304
917.603	6369
917.715	6407
917.826	6410
917.938	6266
918.049	6262
918.161	6338
918.272	6414
918.384	6437
918.495	6315
918.606	6285
918.717	6232
918.828	6296
918.939	6285
919.05	6163
919.161	6232
919.272	6106
919.383	6171
919.494	6323
919.604	6422
919.715	6350
919.826	6281
919.936	6182
920.047	6338
920.157	6296
920.267	6391
920.378	6292
920.488	6228
920.598	6422
920.708	6563
920.818	6471
920.928	6448
921.038	6559
921.148	6525
921.258	6304
921.368	6270
921.477	6213
921.587	6197
921.697	6053
921.806	6175
921.916	6087
922.025	5908
922.134	5851
922.244	5844
922.353	5882
922.462	5851
922.571	5756
922.68	5695
922.789	5619
922.898	5623
923.007	5585
923.116	5684
923.224	5691
923.333	5653
923.442	5547
923.55	5604
923.659	5585
923.767	5642
923.876	5589
923.984	5589
924.092	5573
924.201	5512
924.309	5592
924.417	5596
924.525	5497
924.633	5478
924.741	6262
924.849	5379
924.956	5486
925.064	5368
925.172	5288
925.279	5296
925.387	5334
925.494	5334
925.602	5414
925.709	5406
925.816	5311
925.924	5277
926.031	5334
926.138	5296
926.245	5277
926.352	5223
926.459	5299
926.566	5357
926.673	5189
926.779	5094
926.886	5105
926.993	4991
927.099	5003
927.206	4995
927.312	4968
927.419	5048
927.525	4965
927.631	4991
927.737	4839
927.843	4793
927.95	4786
928.056	4797
928.162	4858
928.267	4862
928.373	5242
928.479	4850
928.585	4687
928.69	4790
928.796	4786
928.901	4687
929.007	4618
929.112	4645
929.218	4630
929.323	4611
929.428	4512
929.533	4630
929.638	4542
929.743	4481
929.848	4538
929.953	4531
930.058	4451
930.163	4310
930.267	4348
930.372	4394
930.477	4284
930.581	4470
930.685	4371
930.79	4261
930.894	4348
930.998	4211
931.103	4360
931.207	4124
931.311	4097
931.415	4029
931.519	3964
931.623	3945
