Data from glass_V78500241_1609.txt Node
Date: Wed Sep 01 19:25:39 CST 2021
User: usil
Spectrometer: V785-0024
Trigger mode: 0
Integration Time (sec): 4.000000E-1
Scans to average: 1
Nonlinearity correction enabled: false
Boxcar width: 0
Storing dark spectrum: false
XAxis mode: Wavelengths
Number of Pixels in Spectrum: 1024
>>>>>Begin Spectral Data<<<<<
801.071	3747
801.214	3732
801.356	3690
801.499	3755
801.641	3762
801.783	3751
801.926	3884
802.068	3842
802.211	3842
802.353	3861
802.496	3827
802.638	3869
802.78	3876
802.923	3922
803.065	3869
803.208	3857
803.35	3911
803.492	3930
803.635	3884
803.777	3842
803.919	3857
804.061	4124
804.204	3934
804.346	3945
804.488	3983
804.63	4025
804.773	4010
804.915	3987
805.057	4112
805.199	4044
805.341	4090
805.483	4124
805.626	4116
805.768	4063
805.91	4177
806.052	4215
806.194	4169
806.336	4375
806.478	4204
806.62	4154
806.762	4196
806.904	4234
807.046	4344
807.188	4211
807.33	4188
807.472	4211
807.614	4204
807.756	4272
807.898	4238
808.04	4265
808.182	4325
808.324	4329
808.465	4337
808.607	4443
808.749	4428
808.891	4432
809.033	4554
809.174	4360
809.316	4261
809.458	4249
809.6	4162
809.741	4105
809.883	4147
810.025	4238
810.166	4200
810.308	4223
810.45	4246
810.591	4223
810.733	4234
810.875	4493
811.016	4812
811.158	5147
811.299	5246
811.441	5280
811.582	5048
811.724	4687
811.865	4443
812.007	4462
812.148	4462
812.29	4428
812.431	4413
812.573	4421
812.714	4383
812.855	4466
812.997	4394
813.138	4485
813.279	4356
813.421	4375
813.562	4356
813.703	4371
813.845	4299
813.986	4227
814.127	4211
814.268	4303
814.41	4257
814.551	4253
814.692	4303
814.833	4265
814.974	4310
815.115	4329
815.256	4276
815.397	4246
815.539	4280
815.68	4204
815.821	4215
815.962	4253
816.103	4295
816.244	4230
816.385	4242
816.526	4287
816.666	4192
816.807	4097
816.948	4162
817.089	4185
817.23	4105
817.371	4074
817.512	4074
817.653	4090
817.793	4067
817.934	4021
818.075	4116
818.216	4067
818.356	4097
818.497	4021
818.638	3937
818.778	3876
818.919	3892
819.06	3854
819.2	3934
819.341	3873
819.481	3804
819.622	3896
819.762	4010
819.903	3934
820.043	3896
820.184	3869
820.324	3838
820.465	3880
820.605	3846
820.746	3892
820.886	3800
821.026	3922
821.167	3880
821.307	3991
821.447	3960
821.588	3930
821.728	3960
821.868	3930
822.008	3903
822.149	3956
822.289	3937
822.429	3823
822.569	3804
822.709	3804
822.849	3713
822.99	3724
823.13	3774
823.27	3793
823.41	3781
823.55	3747
823.69	3762
823.83	3740
823.97	3656
824.11	3553
824.25	3648
824.389	3656
824.529	3660
824.669	3682
824.809	3732
824.949	3759
825.089	3751
825.228	3717
825.368	3591
825.508	3545
825.648	3591
825.787	3599
825.927	3671
826.067	3648
826.206	3660
826.346	3762
826.485	3846
826.625	3831
826.765	3968
826.904	3823
827.044	3629
827.183	3538
827.323	3443
827.462	3504
827.601	3447
827.741	3469
827.88	3454
828.02	3378
828.159	3424
828.298	3447
828.437	3553
828.577	3462
828.716	3580
828.855	3488
828.994	3367
829.134	3363
829.273	3382
829.412	3363
829.551	3370
829.69	3336
829.829	3424
829.968	3485
830.107	3458
830.246	3462
830.385	3374
830.524	3363
830.663	3306
830.802	3260
830.941	3150
831.08	3188
831.219	3279
831.357	3233
831.496	3397
831.635	3226
831.774	3169
831.913	3154
832.051	3161
832.19	3161
832.329	3203
832.467	3131
832.606	3119
832.744	3188
832.883	3192
833.022	3173
833.16	3230
833.299	3306
833.437	3294
833.576	3359
833.714	3405
833.852	3420
833.991	3431
834.129	3469
834.267	3447
834.406	3359
834.544	3424
834.682	3386
834.821	3424
834.959	3564
835.097	3450
835.235	3519
835.373	3454
835.511	3500
835.65	3447
835.788	3473
835.926	3370
836.064	3397
836.202	3409
836.34	3561
836.478	3606
836.615	3526
836.753	3606
836.891	3663
837.029	3641
837.167	3557
837.305	3561
837.443	3538
837.58	3500
837.718	3603
837.856	3538
837.993	3485
838.131	3576
838.269	3622
838.406	3572
838.544	3580
838.681	3488
838.819	3485
838.956	3389
839.094	3428
839.231	3462
839.369	3545
839.506	3732
839.643	3622
839.781	3519
839.918	3447
840.055	3519
840.193	3515
840.33	3603
840.467	3545
840.604	3614
840.742	3819
840.879	3576
841.016	3584
841.153	3610
841.29	3762
841.427	3728
841.564	3740
841.701	3736
841.838	3728
841.975	3671
842.112	3709
842.249	3629
842.385	3637
842.522	3819
842.659	3667
842.796	3682
842.933	3679
843.069	3713
843.206	3743
843.343	3831
843.479	3762
843.616	3762
843.752	3667
843.889	3694
844.025	3816
844.162	3713
844.298	3835
844.435	3740
844.571	3743
844.708	3911
844.844	3983
844.98	4071
845.117	4032
845.253	3876
845.389	3918
845.525	3968
845.661	3937
845.798	3922
845.934	3998
846.07	3949
846.206	4063
846.342	4135
846.478	4051
846.614	3998
846.75	3934
846.886	3934
847.022	4017
847.158	3979
847.294	4029
847.429	4040
847.565	3972
847.701	4265
847.837	3915
847.972	3888
848.108	3964
848.244	3983
848.379	3861
848.515	3838
848.65	3804
848.786	3816
848.921	3823
849.057	3926
849.192	3937
849.328	3941
849.463	3930
849.598	3865
849.734	3888
849.869	3865
850.004	3774
850.14	3785
850.275	3766
850.41	3755
850.545	3755
850.68	3778
850.815	3808
850.95	3816
851.085	3945
851.22	3892
851.355	3800
851.49	3793
851.625	3831
851.76	3789
851.895	3728
852.03	3759
852.165	3804
852.299	3854
852.434	3918
852.569	3846
852.703	3892
852.838	3926
852.973	4040
853.107	3968
853.242	3884
853.376	3857
853.511	3747
853.645	3827
853.78	4021
853.914	3865
854.048	3861
854.183	3896
854.317	3960
854.451	4112
854.585	3956
854.72	3941
854.854	4044
854.988	3926
855.122	3991
855.256	3934
855.39	3998
855.524	4078
855.658	4067
855.792	4082
855.926	4158
856.06	4169
856.194	4192
856.327	4128
856.461	4105
856.595	4162
856.729	4230
856.862	4276
856.996	4272
857.13	4322
857.263	4291
857.397	4356
857.53	4261
857.664	4329
857.797	4352
857.931	4436
858.064	4394
858.197	4451
858.331	4371
858.464	4363
858.597	4383
858.731	4481
858.864	4474
858.997	4417
859.13	4470
859.263	4546
859.396	4592
859.529	4485
859.662	4558
859.795	4546
859.928	4607
860.061	4717
860.194	4748
860.327	4653
860.46	4630
860.592	4733
860.725	4763
860.858	4759
860.99	4694
861.123	4725
861.256	4721
861.388	4763
861.521	5520
861.653	4714
861.786	4698
861.918	4721
862.05	4797
862.183	4828
862.315	4927
862.447	4915
862.58	4908
862.712	4816
862.844	4759
862.976	4847
863.108	4858
863.24	5265
863.372	4828
863.504	4881
863.636	4904
863.768	4953
863.9	5022
864.032	4961
864.164	4942
864.296	5041
864.428	5083
864.559	5098
864.691	5113
864.823	5052
864.954	5121
865.086	5151
865.217	5090
865.349	5151
865.48	5147
865.612	5166
865.743	5318
865.875	5216
866.006	5231
866.137	5216
866.269	5254
866.4	5216
866.531	5246
866.662	5239
866.793	5269
866.924	5250
867.055	5330
867.186	5353
867.317	5303
867.448	5303
867.579	5395
867.71	5379
867.841	5383
867.972	5482
868.103	5436
868.233	5512
868.364	5516
868.495	5524
868.625	5672
868.756	5733
868.886	5680
869.017	5756
869.147	5889
869.278	5840
869.408	5809
869.539	5790
869.669	5965
869.799	5958
869.929	5992
870.06	6007
870.19	6197
870.32	6186
870.45	6258
870.58	6323
870.71	6395
870.84	6448
870.97	6410
871.1	6445
871.23	6719
871.36	6665
871.489	6639
871.619	6753
871.749	6871
871.879	6856
872.008	6924
872.138	6970
872.267	7027
872.397	6951
872.526	7080
872.656	7095
872.785	7228
872.915	7407
873.044	7499
873.173	7506
873.303	7658
873.432	7700
873.561	7868
873.69	7928
873.819	8024
873.948	8187
874.077	8256
874.206	8355
874.335	8465
874.464	8636
874.593	8883
874.722	8921
874.851	9104
874.979	9214
875.108	9473
875.237	9496
875.365	9481
875.494	9686
875.623	9850
875.751	9827
875.88	10013
876.008	10162
876.136	10272
876.265	10550
876.393	10706
876.521	10672
876.65	10812
876.778	10889
876.906	10927
877.034	10999
877.162	11083
877.29	11132
877.418	11269
877.546	11326
877.674	11417
877.802	11425
877.93	11524
878.058	11581
878.185	11547
878.313	11653
878.441	11729
878.568	11653
878.696	11783
878.824	11821
878.951	11908
879.079	12087
879.206	12133
879.333	12034
879.461	12038
879.588	12072
879.715	12068
879.842	12205
879.97	12110
880.097	11870
880.224	11840
880.351	11851
880.478	11893
880.605	11885
880.732	11904
880.859	12045
880.986	11836
881.112	11817
881.239	11771
881.366	11649
881.493	11695
881.619	11512
881.746	11558
881.872	11505
881.999	11520
882.125	11493
882.252	11589
882.378	11551
882.505	11596
882.631	11383
882.757	11273
882.883	11318
883.01	11273
883.136	11121
883.262	11113
883.388	11025
883.514	11189
883.64	11208
883.766	11060
883.892	11105
884.018	10923
884.143	11003
884.269	11067
884.395	10824
884.52	10820
884.646	10839
884.772	10729
884.897	10698
885.023	10702
885.148	10790
885.274	10793
885.399	10660
885.524	10653
885.65	10531
885.775	10656
885.9	10558
886.025	10618
886.15	10565
886.275	10478
886.4	10402
886.525	10344
886.65	10371
886.775	10371
886.9	10500
887.025	10584
887.149	10348
887.274	10185
887.399	10207
887.523	10204
887.648	10143
887.773	10135
887.897	10177
888.021	10257
888.146	10143
888.27	10215
888.395	10242
888.519	10200
888.643	10177
888.767	10173
888.891	10048
889.015	10002
889.139	10032
889.263	9941
889.387	10044
889.511	10150
889.635	10029
889.759	9937
889.883	10017
890.006	10010
890.13	10090
890.254	9945
890.377	9968
890.501	9892
890.624	9873
890.748	9842
890.871	9823
890.995	9838
891.118	9713
891.241	9778
891.364	9694
891.488	9880
891.611	9766
891.734	9759
891.857	9766
891.98	9667
892.103	9747
892.226	9705
892.349	9633
892.471	9568
892.594	9610
892.717	9610
892.839	9553
892.962	9705
893.085	9698
893.207	9572
893.33	9511
893.452	9580
893.575	9610
893.697	9500
893.819	9591
893.941	9625
894.064	9568
894.186	9454
894.308	9382
894.43	9462
894.552	9568
894.674	9496
894.796	9382
894.918	9405
895.04	9416
895.161	9340
895.283	9313
895.405	9237
895.526	9310
895.648	9203
895.769	9226
895.891	9302
896.012	9279
896.134	9249
896.255	9169
896.376	9226
896.498	9112
896.619	9058
896.74	9074
896.861	9123
896.982	9275
897.103	9214
897.224	9157
897.345	9077
897.466	8990
897.587	9028
897.708	9195
897.828	9055
897.949	8948
898.07	8902
898.19	8971
898.311	9039
898.431	8960
898.552	8967
898.672	9028
898.792	8895
898.913	8914
899.033	8857
899.153	8716
899.273	8663
899.393	8754
899.513	8785
899.633	8712
899.753	8716
899.873	8731
899.993	8693
900.113	8727
900.232	8716
900.352	8705
900.472	8621
900.591	8518
900.711	8549
900.83	8530
900.95	8674
901.069	8678
901.189	8575
901.308	8385
901.427	8476
901.546	8431
901.665	8434
901.784	8484
901.904	8404
902.023	8355
902.141	8180
902.26	8172
902.379	8301
902.498	8229
902.617	8180
902.735	8290
902.854	8244
902.973	8275
903.091	8161
903.21	8123
903.328	8103
903.446	8164
903.565	8031
903.683	8145
903.801	8081
903.919	8096
904.038	8202
904.156	8039
904.274	8092
904.392	8031
904.51	8084
904.627	8065
904.745	8035
904.863	8157
904.981	7909
905.098	7890
905.216	7894
905.334	7883
905.451	7913
905.569	7856
905.686	7890
905.803	7906
905.921	7761
906.038	7849
906.155	7780
906.272	7765
906.389	7761
906.506	7681
906.623	7651
906.74	7578
906.857	7559
906.974	7609
907.091	7700
907.208	7715
907.324	7590
907.441	7544
907.557	7449
907.674	7525
907.79	7449
907.907	7430
908.023	7464
908.139	7460
908.256	7411
908.372	7335
908.488	7320
908.604	7282
908.72	7206
908.836	7228
908.952	7240
909.068	7156
909.184	7362
909.3	7308
909.415	7278
909.531	7301
909.647	7061
909.762	7129
909.878	7088
909.993	7038
910.108	7065
910.224	7038
910.339	7156
910.454	7038
910.57	7034
910.685	6943
910.8	7179
910.915	7225
911.03	6932
911.145	6913
911.259	6882
911.374	6882
911.489	6821
911.604	6772
911.718	6688
911.833	6700
911.947	6730
912.062	6585
912.176	6684
912.291	6722
912.405	6669
912.519	6829
912.633	6806
912.748	6726
912.862	6753
912.976	6601
913.09	6544
913.204	6585
913.318	6677
913.431	6662
913.545	6696
913.659	6783
913.772	6627
913.886	6544
914	6517
914.113	6555
914.226	6608
914.34	6578
914.453	6471
914.566	6574
914.68	6494
914.793	6559
914.906	6448
915.019	6407
915.132	6414
915.245	6407
915.358	6460
915.47	6452
915.583	6460
915.696	6479
915.809	6506
915.921	6547
916.034	6353
916.146	6372
916.259	6391
916.371	6414
916.483	6437
916.595	6376
916.708	6429
916.82	6441
916.932	6353
917.044	6426
917.156	6361
917.268	6327
917.38	6304
917.491	6338
917.603	6361
917.715	6380
917.826	6395
917.938	6365
918.049	6258
918.161	6315
918.272	6471
918.384	6429
918.495	6334
918.606	6235
918.717	6235
918.828	6292
918.939	6315
919.05	6247
919.161	6232
919.272	6121
919.383	6144
919.494	6266
919.604	6471
919.715	6319
919.826	6209
919.936	6243
920.047	6304
920.157	6281
920.267	6479
920.378	6258
920.488	6262
920.598	6471
920.708	6544
920.818	6494
920.928	6506
921.038	6578
921.148	6566
921.258	6369
921.368	6300
921.477	6190
921.587	6133
921.697	6095
921.806	6213
921.916	6053
922.025	5988
922.134	5878
922.244	5916
922.353	5927
922.462	5855
922.571	5790
922.68	5714
922.789	5653
922.898	5695
923.007	5665
923.116	5707
923.224	5684
923.333	5707
923.442	5592
923.55	5547
923.659	5551
923.767	5688
923.876	5516
923.984	5638
924.092	5512
924.201	5611
924.309	5566
924.417	5539
924.525	5421
924.633	5516
924.741	6258
924.849	5315
924.956	5455
925.064	5360
925.172	5303
925.279	5280
925.387	5334
925.494	5341
925.602	5452
925.709	5379
925.816	5269
925.924	5322
926.031	5349
926.138	5277
926.245	5368
926.352	5242
926.459	5322
926.566	5330
926.673	5170
926.779	5181
926.886	5147
926.993	5014
927.099	4991
927.206	4957
927.312	5003
927.419	5029
927.525	4984
927.631	5006
927.737	4858
927.843	4881
927.95	4752
928.056	4835
928.162	4805
928.267	4839
928.373	5337
928.479	4835
928.585	4653
928.69	4710
928.796	4774
928.901	4706
929.007	4599
929.112	4687
929.218	4588
929.323	4634
929.428	4558
929.533	4694
929.638	4527
929.743	4535
929.848	4531
929.953	4519
930.058	4447
930.163	4284
930.267	4344
930.372	4455
930.477	4360
930.581	4481
930.685	4379
930.79	4265
930.894	4295
930.998	4284
931.103	4402
931.207	4082
931.311	4105
931.415	4013
931.519	3937
931.623	3926
