Data from glass_V78500241_2895.txt Node
Date: Wed Sep 01 19:34:34 CST 2021
User: usil
Spectrometer: V785-0024
Trigger mode: 0
Integration Time (sec): 4.000000E-1
Scans to average: 1
Nonlinearity correction enabled: false
Boxcar width: 0
Storing dark spectrum: false
XAxis mode: Wavelengths
Number of Pixels in Spectrum: 1024
>>>>>Begin Spectral Data<<<<<
801.071	3736
801.214	3709
801.356	3686
801.499	3698
801.641	3690
801.783	3778
801.926	3857
802.068	3793
802.211	3869
802.353	3857
802.496	3816
802.638	3857
802.78	3922
802.923	3854
803.065	3899
803.208	3804
803.35	3842
803.492	3888
803.635	3911
803.777	3793
803.919	3831
804.061	4105
804.204	3987
804.346	3949
804.488	3896
804.63	3975
804.773	3922
804.915	4017
805.057	4112
805.199	3991
805.341	4082
805.483	4120
805.626	4093
805.768	4086
805.91	4173
806.052	4207
806.194	4177
806.336	4284
806.478	4181
806.62	4097
806.762	4181
806.904	4204
807.046	4356
807.188	4158
807.33	4166
807.472	4234
807.614	4154
807.756	4227
807.898	4223
808.04	4204
808.182	4284
808.324	4348
808.465	4318
808.607	4447
808.749	4455
808.891	4447
809.033	4485
809.174	4367
809.316	4265
809.458	4185
809.6	4150
809.741	4169
809.883	4109
810.025	4227
810.166	4219
810.308	4169
810.45	4230
810.591	4211
810.733	4230
810.875	4497
811.016	4835
811.158	5075
811.299	5212
811.441	5178
811.582	5067
811.724	4687
811.865	4451
812.007	4440
812.148	4428
812.29	4390
812.431	4398
812.573	4367
812.714	4383
812.855	4379
812.997	4386
813.138	4474
813.279	4409
813.421	4348
813.562	4398
813.703	4318
813.845	4287
813.986	4249
814.127	4211
814.268	4276
814.41	4253
814.551	4253
814.692	4295
814.833	4246
814.974	4249
815.115	4329
815.256	4211
815.397	4188
815.539	4227
815.68	4227
815.821	4181
815.962	4253
816.103	4295
816.244	4200
816.385	4177
816.526	4268
816.666	4230
816.807	4101
816.948	4147
817.089	4143
817.23	4036
817.371	4002
817.512	4032
817.653	4090
817.793	4032
817.934	3987
818.075	4086
818.216	4093
818.356	4048
818.497	3983
818.638	3907
818.778	3907
818.919	3842
819.06	3880
819.2	3884
819.341	3842
819.481	3800
819.622	3884
819.762	4017
819.903	3896
820.043	3869
820.184	3819
820.324	3819
820.465	3838
820.605	3846
820.746	3865
820.886	3781
821.026	3892
821.167	3854
821.307	3975
821.447	3956
821.588	3884
821.728	3937
821.868	3930
822.008	3880
822.149	3888
822.289	3884
822.429	3778
822.569	3732
822.709	3793
822.849	3694
822.99	3720
823.13	3698
823.27	3747
823.41	3660
823.55	3709
823.69	3694
823.83	3709
823.97	3641
824.11	3587
824.25	3603
824.389	3641
824.529	3641
824.669	3633
824.809	3690
824.949	3736
825.089	3690
825.228	3690
825.368	3614
825.508	3576
825.648	3545
825.787	3584
825.927	3614
826.067	3606
826.206	3633
826.346	3789
826.485	3816
826.625	3850
826.765	3903
826.904	3827
827.044	3599
827.183	3500
827.323	3401
827.462	3450
827.601	3424
827.741	3397
827.88	3462
828.02	3344
828.159	3409
828.298	3481
828.437	3519
828.577	3450
828.716	3568
828.855	3473
828.994	3310
829.134	3329
829.273	3382
829.412	3321
829.551	3329
829.69	3351
829.829	3397
829.968	3504
830.107	3393
830.246	3416
830.385	3317
830.524	3325
830.663	3283
830.802	3199
830.941	3154
831.08	3157
831.219	3218
831.357	3226
831.496	3367
831.635	3237
831.774	3192
831.913	3207
832.051	3089
832.19	3123
832.329	3161
832.467	3157
832.606	3104
832.744	3127
832.883	3176
833.022	3188
833.16	3249
833.299	3310
833.437	3344
833.576	3363
833.714	3424
833.852	3428
833.991	3416
834.129	3488
834.267	3462
834.406	3367
834.544	3447
834.682	3401
834.821	3363
834.959	3584
835.097	3386
835.235	3500
835.373	3458
835.511	3469
835.65	3412
835.788	3450
835.926	3351
836.064	3378
836.202	3405
836.34	3568
836.478	3564
836.615	3481
836.753	3545
836.891	3587
837.029	3603
837.167	3504
837.305	3511
837.443	3549
837.58	3507
837.718	3587
837.856	3542
837.993	3504
838.131	3576
838.269	3568
838.406	3614
838.544	3542
838.681	3405
838.819	3428
838.956	3363
839.094	3386
839.231	3473
839.369	3492
839.506	3686
839.643	3553
839.781	3473
839.918	3492
840.055	3500
840.193	3500
840.33	3515
840.467	3488
840.604	3549
840.742	3781
840.879	3549
841.016	3526
841.153	3584
841.29	3717
841.427	3675
841.564	3709
841.701	3743
841.838	3694
841.975	3671
842.112	3686
842.249	3591
842.385	3603
842.522	3800
842.659	3660
842.796	3656
842.933	3698
843.069	3671
843.206	3698
843.343	3759
843.479	3720
843.616	3804
843.752	3641
843.889	3656
844.025	3842
844.162	3675
844.298	3880
844.435	3759
844.571	3774
844.708	3907
844.844	3937
844.98	4010
845.117	3998
845.253	3896
845.389	3880
845.525	3975
845.661	3941
845.798	3934
845.934	3987
846.07	3945
846.206	4025
846.342	4090
846.478	4025
846.614	3972
846.75	3880
846.886	3854
847.022	4010
847.158	3953
847.294	3987
847.429	4021
847.565	3987
847.701	4234
847.837	3850
847.972	3892
848.108	3956
848.244	3945
848.379	3812
848.515	3766
848.65	3755
848.786	3800
848.921	3835
849.057	3915
849.192	3907
849.328	3873
849.463	3876
849.598	3888
849.734	3835
849.869	3823
850.004	3785
850.14	3759
850.275	3774
850.41	3755
850.545	3747
850.68	3755
850.815	3819
850.95	3751
851.085	3953
851.22	3861
851.355	3812
851.49	3770
851.625	3751
851.76	3774
851.895	3724
852.03	3736
852.165	3789
852.299	3835
852.434	3884
852.569	3842
852.703	3823
852.838	3869
852.973	3937
853.107	4006
853.242	3869
853.376	3846
853.511	3709
853.645	3804
853.78	3930
853.914	3808
854.048	3903
854.183	3854
854.317	3918
854.451	4017
854.585	3945
854.72	3953
854.854	4044
854.988	3922
855.122	3979
855.256	3941
855.39	3956
855.524	4093
855.658	4032
855.792	4059
855.926	4143
856.06	4131
856.194	4185
856.327	4105
856.461	4074
856.595	4116
856.729	4162
856.862	4238
856.996	4143
857.13	4318
857.263	4352
857.397	4341
857.53	4272
857.664	4360
857.797	4383
857.931	4440
858.064	4337
858.197	4409
858.331	4421
858.464	4367
858.597	4310
858.731	4413
858.864	4428
858.997	4413
859.13	4485
859.263	4481
859.396	4584
859.529	4413
859.662	4527
859.795	4474
859.928	4592
860.061	4683
860.194	4736
860.327	4622
860.46	4596
860.592	4698
860.725	4759
860.858	4752
860.99	4725
861.123	4668
861.256	4653
861.388	4759
861.521	5421
861.653	4706
861.786	4687
861.918	4660
862.05	4767
862.183	4839
862.315	4816
862.447	4968
862.58	4870
862.712	4771
862.844	4755
862.976	4816
863.108	4881
863.24	5181
863.372	4801
863.504	4881
863.636	4873
863.768	4961
863.9	4942
864.032	4919
864.164	4934
864.296	5014
864.428	5075
864.559	5033
864.691	5041
864.823	5109
864.954	5109
865.086	5090
865.217	5117
865.349	5086
865.48	5132
865.612	5151
865.743	5277
865.875	5185
866.006	5223
866.137	5193
866.269	5239
866.4	5212
866.531	5132
866.662	5212
866.793	5261
866.924	5189
867.055	5379
867.186	5307
867.317	5311
867.448	5330
867.579	5349
867.71	5334
867.841	5337
867.972	5452
868.103	5444
868.233	5391
868.364	5512
868.495	5474
868.625	5657
868.756	5786
868.886	5649
869.017	5672
869.147	5844
869.278	5813
869.408	5767
869.539	5840
869.669	5908
869.799	5855
869.929	5988
870.06	6030
870.19	6152
870.32	6140
870.45	6239
870.58	6292
870.71	6384
870.84	6433
870.97	6407
871.1	6395
871.23	6566
871.36	6646
871.489	6642
871.619	6703
871.749	6757
871.879	6814
872.008	6928
872.138	6989
872.267	6951
872.397	6943
872.526	6985
872.656	7069
872.785	7152
872.915	7354
873.044	7472
873.173	7594
873.303	7620
873.432	7685
873.561	7902
873.69	7894
873.819	8012
873.948	8138
874.077	8210
874.206	8294
874.335	8450
874.464	8610
874.593	8781
874.722	8811
874.851	9066
874.979	9176
875.108	9291
875.237	9439
875.365	9443
875.494	9599
875.623	9827
875.751	9816
875.88	9956
876.008	10048
876.136	10242
876.265	10538
876.393	10668
876.521	10774
876.65	10847
876.778	10767
876.906	10873
877.034	10942
877.162	11060
877.29	11124
877.418	11265
877.546	11246
877.674	11383
877.802	11448
877.93	11455
878.058	11532
878.185	11630
878.313	11630
878.441	11707
878.568	11668
878.696	11775
878.824	11836
878.951	11889
879.079	11950
879.206	12140
879.333	12041
879.461	11954
879.588	11999
879.715	12076
879.842	12205
879.97	12030
880.097	11824
880.224	11931
880.351	11889
880.478	11832
880.605	11798
880.732	11802
880.859	11961
880.986	11695
881.112	11783
881.239	11771
881.366	11630
881.493	11657
881.619	11482
881.746	11562
881.872	11558
881.999	11497
882.125	11478
882.252	11516
882.378	11535
882.505	11547
882.631	11307
882.757	11315
882.883	11269
883.01	11246
883.136	11162
883.262	11143
883.388	10991
883.514	11128
883.64	11136
883.766	11029
883.892	10900
884.018	11006
884.143	11094
884.269	11086
884.395	10790
884.52	10733
884.646	10778
884.772	10675
884.897	10672
885.023	10607
885.148	10656
885.274	10706
885.399	10672
885.524	10622
885.65	10584
885.775	10531
885.9	10527
886.025	10481
886.15	10500
886.275	10421
886.4	10382
886.525	10390
886.65	10272
886.775	10337
886.9	10394
887.025	10455
887.149	10284
887.274	10246
887.399	10185
887.523	10109
887.648	10093
887.773	10051
887.897	10185
888.021	10253
888.146	10074
888.27	10169
888.395	10295
888.519	10169
888.643	10067
888.767	10090
888.891	10173
889.015	9964
889.139	10059
889.263	9949
889.387	10013
889.511	10036
889.635	9975
889.759	9956
889.883	9960
890.006	10021
890.13	10017
890.254	9987
890.377	10002
890.501	9861
890.624	9854
890.748	9892
890.871	9755
890.995	9789
891.118	9652
891.241	9682
891.364	9713
891.488	9808
891.611	9842
891.734	9732
891.857	9728
891.98	9656
892.103	9713
892.226	9705
892.349	9549
892.471	9572
892.594	9534
892.717	9644
892.839	9542
892.962	9610
893.085	9599
893.207	9584
893.33	9469
893.452	9466
893.575	9526
893.697	9431
893.819	9629
893.941	9587
894.064	9610
894.186	9359
894.308	9386
894.43	9473
894.552	9599
894.674	9485
894.796	9317
894.918	9393
895.04	9268
895.161	9317
895.283	9367
895.405	9199
895.526	9211
895.648	9245
895.769	9165
895.891	9241
896.012	9218
896.134	9256
896.255	9070
896.376	9131
896.498	9119
896.619	9112
896.74	9047
896.861	9051
896.982	9230
897.103	9256
897.224	9135
897.345	9036
897.466	8986
897.587	9032
897.708	9047
897.828	8990
897.949	9013
898.07	8864
898.19	8845
898.311	8982
898.431	8941
898.552	8861
898.672	8880
898.792	8895
898.913	8914
899.033	8746
899.153	8727
899.273	8549
899.393	8651
899.513	8792
899.633	8705
899.753	8731
899.873	8693
899.993	8678
900.113	8629
900.232	8743
900.352	8617
900.472	8587
900.591	8583
900.711	8511
900.83	8564
900.95	8636
901.069	8568
901.189	8568
901.308	8469
901.427	8374
901.546	8351
901.665	8431
901.784	8412
901.904	8301
902.023	8282
902.141	8252
902.26	8157
902.379	8282
902.498	8176
902.617	8256
902.735	8301
902.854	8263
902.973	8206
903.091	8054
903.21	8100
903.328	8130
903.446	8111
903.565	8024
903.683	8043
903.801	8024
903.919	8039
904.038	8039
904.156	7947
904.274	8050
904.392	7978
904.51	7993
904.627	8024
904.745	8046
904.863	8062
904.981	7871
905.098	7814
905.216	7890
905.334	7894
905.451	7894
905.569	7849
905.686	7890
905.803	7890
905.921	7742
906.038	7780
906.155	7715
906.272	7685
906.389	7655
906.506	7609
906.623	7609
906.74	7639
906.857	7537
906.974	7567
907.091	7605
907.208	7681
907.324	7613
907.441	7529
907.557	7476
907.674	7430
907.79	7377
907.907	7422
908.023	7381
908.139	7377
908.256	7384
908.372	7369
908.488	7285
908.604	7213
908.72	7255
908.836	7263
908.952	7217
909.068	7206
909.184	7346
909.3	7194
909.415	7232
909.531	7179
909.647	7099
909.762	7107
909.878	7061
909.993	7107
910.108	7038
910.224	7019
910.339	7069
910.454	7031
910.57	6958
910.685	6878
910.8	7164
910.915	7061
911.03	6993
911.145	6871
911.259	6897
911.374	6943
911.489	6848
911.604	6840
911.718	6654
911.833	6692
911.947	6635
912.062	6582
912.176	6681
912.291	6722
912.405	6681
912.519	6760
912.633	6814
912.748	6722
912.862	6642
912.976	6585
913.09	6509
913.204	6585
913.318	6585
913.431	6601
913.545	6623
913.659	6688
913.772	6635
913.886	6563
914	6460
914.113	6566
914.226	6646
914.34	6612
914.453	6547
914.566	6631
914.68	6479
914.793	6464
914.906	6361
915.019	6388
915.132	6365
915.245	6403
915.358	6437
915.47	6410
915.583	6445
915.696	6433
915.809	6467
915.921	6513
916.034	6445
916.146	6395
916.259	6395
916.371	6418
916.483	6441
916.595	6407
916.708	6365
916.82	6384
916.932	6380
917.044	6331
917.156	6296
917.268	6285
917.38	6285
917.491	6300
917.603	6327
917.715	6304
917.826	6350
917.938	6319
918.049	6251
918.161	6247
918.272	6357
918.384	6456
918.495	6281
918.606	6224
918.717	6167
918.828	6216
918.939	6277
919.05	6152
919.161	6247
919.272	6076
919.383	6171
919.494	6254
919.604	6372
919.715	6197
919.826	6152
919.936	6266
920.047	6327
920.157	6213
920.267	6452
920.378	6319
920.488	6228
920.598	6441
920.708	6513
920.818	6422
920.928	6475
921.038	6559
921.148	6563
921.258	6369
921.368	6296
921.477	6194
921.587	6171
921.697	6102
921.806	6114
921.916	5996
922.025	5916
922.134	5897
922.244	5870
922.353	5912
922.462	5813
922.571	5726
922.68	5661
922.789	5630
922.898	5657
923.007	5619
923.116	5608
923.224	5558
923.333	5668
923.442	5589
923.55	5493
923.659	5558
923.767	5566
923.876	5539
923.984	5627
924.092	5429
924.201	5554
924.309	5524
924.417	5486
924.525	5452
924.633	5497
924.741	6087
924.849	5318
924.956	5467
925.064	5345
925.172	5288
925.279	5311
925.387	5296
925.494	5208
925.602	5364
925.709	5330
925.816	5311
925.924	5303
926.031	5307
926.138	5299
926.245	5326
926.352	5189
926.459	5258
926.566	5315
926.673	5208
926.779	5109
926.886	5045
926.993	5006
927.099	5022
927.206	4980
927.312	4927
927.419	5029
927.525	4938
927.631	4953
927.737	4904
927.843	4767
927.95	4812
928.056	4805
928.162	4797
928.267	4793
928.373	5322
928.479	4812
928.585	4660
928.69	4767
928.796	4733
928.901	4649
929.007	4554
929.112	4653
929.218	4580
929.323	4554
929.428	4588
929.533	4630
929.638	4500
929.743	4519
929.848	4527
929.953	4500
930.058	4386
930.163	4329
930.267	4318
930.372	4363
930.477	4257
930.581	4443
930.685	4356
930.79	4223
930.894	4276
930.998	4227
931.103	4375
931.207	4101
931.311	4048
931.415	4029
931.519	3930
931.623	3907
