Data from glass_V78500241_1551.txt Node
Date: Wed Sep 01 19:25:15 CST 2021
User: usil
Spectrometer: V785-0024
Trigger mode: 0
Integration Time (sec): 4.000000E-1
Scans to average: 1
Nonlinearity correction enabled: false
Boxcar width: 0
Storing dark spectrum: false
XAxis mode: Wavelengths
Number of Pixels in Spectrum: 1024
>>>>>Begin Spectral Data<<<<<
801.071	3755
801.214	3743
801.356	3736
801.499	3766
801.641	3759
801.783	3781
801.926	3876
802.068	3804
802.211	3869
802.353	3918
802.496	3816
802.638	3850
802.78	3907
802.923	3926
803.065	3911
803.208	3838
803.35	3930
803.492	3941
803.635	3930
803.777	3827
803.919	3911
804.061	4181
804.204	3964
804.346	3945
804.488	3892
804.63	4002
804.773	3987
804.915	4048
805.057	4150
805.199	4036
805.341	4105
805.483	4105
805.626	4135
805.768	4177
805.91	4204
806.052	4257
806.194	4215
806.336	4363
806.478	4196
806.62	4177
806.762	4169
806.904	4287
807.046	4363
807.188	4230
807.33	4150
807.472	4223
807.614	4173
807.756	4257
807.898	4177
808.04	4188
808.182	4280
808.324	4337
808.465	4421
808.607	4447
808.749	4455
808.891	4443
809.033	4481
809.174	4360
809.316	4234
809.458	4227
809.6	4154
809.741	4181
809.883	4181
810.025	4204
810.166	4219
810.308	4204
810.45	4272
810.591	4253
810.733	4284
810.875	4531
811.016	4809
811.158	5132
811.299	5311
811.441	5322
811.582	5086
811.724	4706
811.865	4493
812.007	4432
812.148	4455
812.29	4386
812.431	4409
812.573	4413
812.714	4375
812.855	4447
812.997	4405
813.138	4519
813.279	4413
813.421	4371
813.562	4383
813.703	4303
813.845	4318
813.986	4227
814.127	4211
814.268	4257
814.41	4291
814.551	4287
814.692	4310
814.833	4284
814.974	4341
815.115	4409
815.256	4272
815.397	4253
815.539	4299
815.68	4169
815.821	4227
815.962	4325
816.103	4287
816.244	4322
816.385	4200
816.526	4284
816.666	4211
816.807	4063
816.948	4192
817.089	4200
817.23	4105
817.371	4044
817.512	4059
817.653	4051
817.793	4074
817.934	4051
818.075	4116
818.216	4093
818.356	4097
818.497	3964
818.638	3926
818.778	3896
818.919	3892
819.06	3861
819.2	3888
819.341	3861
819.481	3854
819.622	3922
819.762	3991
819.903	3945
820.043	3835
820.184	3819
820.324	3861
820.465	3907
820.605	3857
820.746	3876
820.886	3808
821.026	3922
821.167	3949
821.307	3945
821.447	3998
821.588	3968
821.728	3934
821.868	3907
822.008	3869
822.149	3903
822.289	3926
822.429	3793
822.569	3755
822.709	3812
822.849	3701
822.99	3717
823.13	3724
823.27	3770
823.41	3709
823.55	3728
823.69	3717
823.83	3747
823.97	3694
824.11	3625
824.25	3633
824.389	3625
824.529	3671
824.669	3633
824.809	3717
824.949	3751
825.089	3747
825.228	3732
825.368	3595
825.508	3549
825.648	3591
825.787	3618
825.927	3660
826.067	3671
826.206	3629
826.346	3800
826.485	3827
826.625	3876
826.765	3937
826.904	3819
827.044	3576
827.183	3580
827.323	3431
827.462	3454
827.601	3424
827.741	3409
827.88	3405
828.02	3382
828.159	3443
828.298	3488
828.437	3557
828.577	3469
828.716	3572
828.855	3466
828.994	3374
829.134	3344
829.273	3363
829.412	3340
829.551	3336
829.69	3344
829.829	3450
829.968	3515
830.107	3477
830.246	3443
830.385	3378
830.524	3370
830.663	3317
830.802	3279
830.941	3222
831.08	3192
831.219	3249
831.357	3245
831.496	3401
831.635	3241
831.774	3192
831.913	3195
832.051	3157
832.19	3123
832.329	3192
832.467	3154
832.606	3123
832.744	3150
832.883	3188
833.022	3184
833.16	3279
833.299	3313
833.437	3344
833.576	3393
833.714	3389
833.852	3439
833.991	3477
834.129	3500
834.267	3428
834.406	3367
834.544	3454
834.682	3439
834.821	3374
834.959	3572
835.097	3420
835.235	3534
835.373	3481
835.511	3504
835.65	3439
835.788	3500
835.926	3401
836.064	3374
836.202	3420
836.34	3603
836.478	3614
836.615	3572
836.753	3595
836.891	3637
837.029	3599
837.167	3584
837.305	3584
837.443	3545
837.58	3488
837.718	3610
837.856	3557
837.993	3519
838.131	3618
838.269	3610
838.406	3568
838.544	3580
838.681	3473
838.819	3466
838.956	3393
839.094	3401
839.231	3420
839.369	3519
839.506	3762
839.643	3660
839.781	3496
839.918	3511
840.055	3519
840.193	3511
840.33	3526
840.467	3507
840.604	3614
840.742	3808
840.879	3557
841.016	3542
841.153	3591
841.29	3747
841.427	3709
841.564	3740
841.701	3755
841.838	3701
841.975	3644
842.112	3701
842.249	3629
842.385	3637
842.522	3823
842.659	3675
842.796	3701
842.933	3675
843.069	3713
843.206	3720
843.343	3865
843.479	3770
843.616	3854
843.752	3652
843.889	3682
844.025	3884
844.162	3679
844.298	3831
844.435	3823
844.571	3804
844.708	3888
844.844	4032
844.98	4006
845.117	4032
845.253	3956
845.389	3953
845.525	3941
845.661	3991
845.798	3918
845.934	4010
846.07	3930
846.206	4093
846.342	4124
846.478	4078
846.614	3998
846.75	3922
846.886	3926
847.022	4059
847.158	3953
847.294	4025
847.429	4025
847.565	4013
847.701	4211
847.837	3861
847.972	3850
848.108	3987
848.244	3960
848.379	3854
848.515	3793
848.65	3842
848.786	3827
848.921	3846
849.057	3968
849.192	3941
849.328	3918
849.463	3888
849.598	3880
849.734	3880
849.869	3831
850.004	3819
850.14	3823
850.275	3797
850.41	3720
850.545	3755
850.68	3759
850.815	3778
850.95	3778
851.085	3972
851.22	3907
851.355	3819
851.49	3797
851.625	3785
851.76	3812
851.895	3701
852.03	3736
852.165	3778
852.299	3869
852.434	3888
852.569	3888
852.703	3884
852.838	3987
852.973	4002
853.107	3991
853.242	3937
853.376	3804
853.511	3762
853.645	3842
853.78	3930
853.914	3915
854.048	3926
854.183	3884
854.317	3979
854.451	4109
854.585	3945
854.72	3960
854.854	4036
854.988	3949
855.122	3987
855.256	3934
855.39	4048
855.524	4097
855.658	4059
855.792	4139
855.926	4169
856.06	4185
856.194	4173
856.327	4150
856.461	4109
856.595	4154
856.729	4181
856.862	4230
856.996	4219
857.13	4284
857.263	4310
857.397	4386
857.53	4272
857.664	4367
857.797	4371
857.931	4417
858.064	4424
858.197	4440
858.331	4367
858.464	4424
858.597	4363
858.731	4451
858.864	4455
858.997	4443
859.13	4481
859.263	4500
859.396	4554
859.529	4561
859.662	4535
859.795	4478
859.928	4603
860.061	4717
860.194	4721
860.327	4664
860.46	4607
860.592	4710
860.725	4744
860.858	4759
860.99	4759
861.123	4679
861.256	4626
861.388	4736
861.521	5501
861.653	4729
861.786	4725
861.918	4706
862.05	4797
862.183	4873
862.315	4854
862.447	4858
862.58	4904
862.712	4801
862.844	4744
862.976	4900
863.108	4866
863.24	5231
863.372	4801
863.504	4889
863.636	4870
863.768	4915
863.9	4923
864.032	4980
864.164	4946
864.296	5045
864.428	5086
864.559	5113
864.691	5090
864.823	5162
864.954	5113
865.086	5140
865.217	5147
865.349	5117
865.48	5170
865.612	5113
865.743	5299
865.875	5155
866.006	5155
866.137	5235
866.269	5231
866.4	5269
866.531	5258
866.662	5235
866.793	5284
866.924	5315
867.055	5307
867.186	5303
867.317	5299
867.448	5311
867.579	5368
867.71	5425
867.841	5421
867.972	5501
868.103	5452
868.233	5501
868.364	5539
868.495	5539
868.625	5672
868.756	5771
868.886	5642
869.017	5767
869.147	5908
869.278	5863
869.408	5866
869.539	5855
869.669	5866
869.799	5920
869.929	5996
870.06	5984
870.19	6159
870.32	6125
870.45	6270
870.58	6357
870.71	6464
870.84	6490
870.97	6441
871.1	6376
871.23	6597
871.36	6700
871.489	6696
871.619	6764
871.749	6791
871.879	6810
872.008	6970
872.138	7012
872.267	6970
872.397	7031
872.526	7061
872.656	7152
872.785	7194
872.915	7339
873.044	7499
873.173	7616
873.303	7620
873.432	7822
873.561	7875
873.69	7955
873.819	8046
873.948	8176
874.077	8240
874.206	8385
874.335	8488
874.464	8640
874.593	8788
874.722	8956
874.851	9093
874.979	9203
875.108	9359
875.237	9443
875.365	9496
875.494	9656
875.623	9835
875.751	9804
875.88	9991
876.008	10124
876.136	10215
876.265	10500
876.393	10656
876.521	10721
876.65	10767
876.778	10816
876.906	10911
877.034	10984
877.162	11094
877.29	11124
877.418	11231
877.546	11341
877.674	11429
877.802	11459
877.93	11562
878.058	11528
878.185	11634
878.313	11649
878.441	11699
878.568	11661
878.696	11802
878.824	11863
878.951	11942
879.079	11946
879.206	12117
879.333	12045
879.461	11958
879.588	12015
879.715	12144
879.842	12258
879.97	12057
880.097	11832
880.224	11878
880.351	11851
880.478	11885
880.605	11847
880.732	11745
880.859	11920
880.986	11767
881.112	11889
881.239	11729
881.366	11668
881.493	11585
881.619	11512
881.746	11520
881.872	11539
881.999	11532
882.125	11524
882.252	11573
882.378	11615
882.505	11524
882.631	11406
882.757	11337
882.883	11223
883.01	11292
883.136	11143
883.262	11121
883.388	11132
883.514	11185
883.64	11242
883.766	11113
883.892	11075
884.018	11014
884.143	11113
884.269	11086
884.395	10790
884.52	10816
884.646	10748
884.772	10710
884.897	10626
885.023	10634
885.148	10778
885.274	10740
885.399	10752
885.524	10641
885.65	10584
885.775	10592
885.9	10550
886.025	10573
886.15	10592
886.275	10402
886.4	10337
886.525	10371
886.65	10398
886.775	10291
886.9	10447
887.025	10504
887.149	10402
887.274	10188
887.399	10185
887.523	10169
887.648	10074
887.773	10120
887.897	10303
888.021	10223
888.146	10116
888.27	10169
888.395	10177
888.519	10196
888.643	10211
888.767	10154
888.891	10128
889.015	9994
889.139	10139
889.263	9972
889.387	10082
889.511	10078
889.635	10154
889.759	9953
889.883	9915
890.006	9945
890.13	10002
890.254	9975
890.377	9930
890.501	9846
890.624	9873
890.748	9861
890.871	9778
890.995	9709
891.118	9728
891.241	9804
891.364	9747
891.488	9747
891.611	9713
891.734	9732
891.857	9709
891.98	9694
892.103	9747
892.226	9709
892.349	9740
892.471	9523
892.594	9538
892.717	9603
892.839	9549
892.962	9641
893.085	9553
893.207	9618
893.33	9477
893.452	9481
893.575	9553
893.697	9485
893.819	9572
893.941	9564
894.064	9553
894.186	9401
894.308	9473
894.43	9542
894.552	9656
894.674	9496
894.796	9420
894.918	9348
895.04	9374
895.161	9374
895.283	9397
895.405	9302
895.526	9302
895.648	9245
895.769	9245
895.891	9291
896.012	9294
896.134	9226
896.255	9203
896.376	9085
896.498	9214
896.619	9150
896.74	9036
896.861	9074
896.982	9230
897.103	9294
897.224	9142
897.345	9116
897.466	8914
897.587	9047
897.708	9058
897.828	8948
897.949	8937
898.07	8815
898.19	8975
898.311	8994
898.431	8910
898.552	8902
898.672	8952
898.792	8902
898.913	8891
899.033	8849
899.153	8701
899.273	8716
899.393	8724
899.513	8807
899.633	8655
899.753	8785
899.873	8701
899.993	8716
900.113	8720
900.232	8754
900.352	8648
900.472	8655
900.591	8484
900.711	8594
900.83	8533
900.95	8689
901.069	8689
901.189	8651
901.308	8393
901.427	8404
901.546	8404
901.665	8549
901.784	8469
901.904	8396
902.023	8332
902.141	8313
902.26	8240
902.379	8290
902.498	8164
902.617	8240
902.735	8362
902.854	8286
902.973	8244
903.091	8115
903.21	8123
903.328	8138
903.446	8096
903.565	8050
903.683	8081
903.801	8050
903.919	8145
904.038	8180
904.156	8005
904.274	8100
904.392	8077
904.51	8054
904.627	8020
904.745	8096
904.863	8046
904.981	7932
905.098	7871
905.216	7879
905.334	7902
905.451	7913
905.569	7860
905.686	7894
905.803	7925
905.921	7792
906.038	7928
906.155	7784
906.272	7753
906.389	7681
906.506	7605
906.623	7636
906.74	7613
906.857	7468
906.974	7597
907.091	7704
907.208	7731
907.324	7681
907.441	7571
907.557	7476
907.674	7502
907.79	7430
907.907	7529
908.023	7445
908.139	7415
908.256	7392
908.372	7365
908.488	7339
908.604	7331
908.72	7285
908.836	7285
908.952	7232
909.068	7255
909.184	7324
909.3	7228
909.415	7320
909.531	7274
909.647	7080
909.762	7129
909.878	7091
909.993	7126
910.108	7088
910.224	7103
910.339	7118
910.454	7034
910.57	7034
910.685	6970
910.8	7179
910.915	7129
911.03	7004
911.145	6859
911.259	6852
911.374	6882
911.489	6798
911.604	6776
911.718	6719
911.833	6745
911.947	6681
912.062	6635
912.176	6688
912.291	6772
912.405	6741
912.519	6821
912.633	6886
912.748	6738
912.862	6684
912.976	6620
913.09	6521
913.204	6585
913.318	6593
913.431	6703
913.545	6703
913.659	6730
913.772	6627
913.886	6555
914	6536
914.113	6623
914.226	6639
914.34	6559
914.453	6433
914.566	6642
914.68	6486
914.793	6525
914.906	6414
915.019	6372
915.132	6346
915.245	6479
915.358	6456
915.47	6521
915.583	6410
915.696	6456
915.809	6525
915.921	6506
916.034	6391
916.146	6418
916.259	6369
916.371	6479
916.483	6410
916.595	6395
916.708	6445
916.82	6418
916.932	6414
917.044	6395
917.156	6369
917.268	6296
917.38	6308
917.491	6331
917.603	6342
917.715	6399
917.826	6426
917.938	6266
918.049	6266
918.161	6350
918.272	6445
918.384	6433
918.495	6334
918.606	6289
918.717	6220
918.828	6239
918.939	6228
919.05	6243
919.161	6205
919.272	6068
919.383	6178
919.494	6258
919.604	6448
919.715	6281
919.826	6186
919.936	6175
920.047	6319
920.157	6315
920.267	6426
920.378	6315
920.488	6258
920.598	6395
920.708	6551
920.818	6475
920.928	6452
921.038	6623
921.148	6578
921.258	6323
921.368	6327
921.477	6159
921.587	6186
921.697	6072
921.806	6216
921.916	6045
922.025	5992
922.134	5927
922.244	5882
922.353	5961
922.462	5855
922.571	5798
922.68	5733
922.789	5638
922.898	5737
923.007	5661
923.116	5672
923.224	5729
923.333	5668
923.442	5665
923.55	5611
923.659	5570
923.767	5695
923.876	5516
923.984	5551
924.092	5497
924.201	5627
924.309	5532
924.417	5516
924.525	5471
924.633	5433
924.741	6190
924.849	5372
924.956	5478
925.064	5318
925.172	5341
925.279	5326
925.387	5341
925.494	5322
925.602	5448
925.709	5433
925.816	5303
925.924	5258
926.031	5391
926.138	5353
926.245	5357
926.352	5261
926.459	5303
926.566	5372
926.673	5189
926.779	5117
926.886	5147
926.993	5022
927.099	4999
927.206	4968
927.312	4915
927.419	5037
927.525	5010
927.631	4965
927.737	4949
927.843	4870
927.95	4771
928.056	4881
928.162	4812
928.267	4812
928.373	5360
928.479	4828
928.585	4637
928.69	4805
928.796	4729
928.901	4698
929.007	4596
929.112	4668
929.218	4649
929.323	4558
929.428	4611
929.533	4710
929.638	4497
929.743	4538
929.848	4592
929.953	4519
930.058	4466
930.163	4318
930.267	4383
930.372	4451
930.477	4303
930.581	4466
930.685	4314
930.79	4261
930.894	4268
930.998	4242
931.103	4383
931.207	4120
931.311	4082
931.415	4017
931.519	3903
931.623	3979
