Data from glass_V78500241_2367.txt Node
Date: Wed Sep 01 19:30:54 CST 2021
User: usil
Spectrometer: V785-0024
Trigger mode: 0
Integration Time (sec): 4.000000E-1
Scans to average: 1
Nonlinearity correction enabled: false
Boxcar width: 0
Storing dark spectrum: false
XAxis mode: Wavelengths
Number of Pixels in Spectrum: 1024
>>>>>Begin Spectral Data<<<<<
801.071	3740
801.214	3736
801.356	3690
801.499	3766
801.641	3720
801.783	3747
801.926	3865
802.068	3846
802.211	3846
802.353	3850
802.496	3789
802.638	3827
802.78	3918
802.923	3896
803.065	3861
803.208	3816
803.35	3823
803.492	3896
803.635	3941
803.777	3804
803.919	3922
804.061	4124
804.204	3915
804.346	3941
804.488	3922
804.63	4044
804.773	3953
804.915	3998
805.057	4135
805.199	4021
805.341	4078
805.483	4166
805.626	4135
805.768	4112
805.91	4242
806.052	4284
806.194	4219
806.336	4329
806.478	4192
806.62	4219
806.762	4139
806.904	4268
807.046	4287
807.188	4242
807.33	4177
807.472	4261
807.614	4211
807.756	4234
807.898	4242
808.04	4211
808.182	4261
808.324	4318
808.465	4409
808.607	4451
808.749	4447
808.891	4436
809.033	4485
809.174	4413
809.316	4253
809.458	4219
809.6	4154
809.741	4109
809.883	4162
810.025	4177
810.166	4200
810.308	4234
810.45	4242
810.591	4200
810.733	4299
810.875	4497
811.016	4835
811.158	5185
811.299	5258
811.441	5277
811.582	5048
811.724	4714
811.865	4417
812.007	4478
812.148	4424
812.29	4436
812.431	4402
812.573	4390
812.714	4371
812.855	4394
812.997	4424
813.138	4451
813.279	4352
813.421	4436
813.562	4333
813.703	4348
813.845	4363
813.986	4272
814.127	4192
814.268	4261
814.41	4314
814.551	4253
814.692	4356
814.833	4249
814.974	4295
815.115	4360
815.256	4192
815.397	4272
815.539	4265
815.68	4246
815.821	4253
815.962	4276
816.103	4242
816.244	4238
816.385	4238
816.526	4223
816.666	4230
816.807	4086
816.948	4166
817.089	4196
817.23	4112
817.371	4032
817.512	4059
817.653	4067
817.793	4010
817.934	4055
818.075	4101
818.216	4090
818.356	4059
818.497	3987
818.638	3922
818.778	3896
818.919	3884
819.06	3835
819.2	3956
819.341	3888
819.481	3857
819.622	3892
819.762	4006
819.903	3937
820.043	3854
820.184	3812
820.324	3812
820.465	3899
820.605	3861
820.746	3880
820.886	3770
821.026	3956
821.167	3915
821.307	3945
821.447	3987
821.588	3937
821.728	3922
821.868	3945
822.008	3922
822.149	3899
822.289	3899
822.429	3827
822.569	3781
822.709	3709
822.849	3698
822.99	3679
823.13	3759
823.27	3759
823.41	3713
823.55	3747
823.69	3698
823.83	3766
823.97	3694
824.11	3599
824.25	3595
824.389	3663
824.529	3644
824.669	3641
824.809	3690
824.949	3759
825.089	3717
825.228	3652
825.368	3599
825.508	3557
825.648	3545
825.787	3572
825.927	3614
826.067	3625
826.206	3656
826.346	3781
826.485	3793
826.625	3876
826.765	3998
826.904	3816
827.044	3599
827.183	3488
827.323	3428
827.462	3473
827.601	3469
827.741	3378
827.88	3443
828.02	3370
828.159	3435
828.298	3458
828.437	3511
828.577	3431
828.716	3580
828.855	3492
828.994	3374
829.134	3389
829.273	3412
829.412	3344
829.551	3332
829.69	3405
829.829	3431
829.968	3477
830.107	3397
830.246	3412
830.385	3382
830.524	3340
830.663	3287
830.802	3226
830.941	3237
831.08	3214
831.219	3218
831.357	3241
831.496	3412
831.635	3222
831.774	3176
831.913	3173
832.051	3104
832.19	3127
832.329	3222
832.467	3127
832.606	3108
832.744	3207
832.883	3195
833.022	3199
833.16	3222
833.299	3336
833.437	3329
833.576	3382
833.714	3363
833.852	3412
833.991	3481
834.129	3492
834.267	3431
834.406	3416
834.544	3401
834.682	3405
834.821	3393
834.959	3561
835.097	3462
835.235	3481
835.373	3477
835.511	3549
835.65	3431
835.788	3473
835.926	3378
836.064	3386
836.202	3420
836.34	3507
836.478	3599
836.615	3542
836.753	3591
836.891	3610
837.029	3648
837.167	3572
837.305	3568
837.443	3511
837.58	3496
837.718	3591
837.856	3523
837.993	3545
838.131	3557
838.269	3572
838.406	3553
838.544	3557
838.681	3477
838.819	3439
838.956	3332
839.094	3428
839.231	3409
839.369	3523
839.506	3728
839.643	3614
839.781	3469
839.918	3458
840.055	3492
840.193	3507
840.33	3500
840.467	3564
840.604	3591
840.742	3785
840.879	3515
841.016	3564
841.153	3530
841.29	3762
841.427	3724
841.564	3717
841.701	3747
841.838	3709
841.975	3709
842.112	3743
842.249	3652
842.385	3629
842.522	3816
842.659	3629
842.796	3629
842.933	3732
843.069	3679
843.206	3663
843.343	3816
843.479	3755
843.616	3789
843.752	3663
843.889	3675
844.025	3831
844.162	3675
844.298	3884
844.435	3755
844.571	3755
844.708	3915
844.844	3945
844.98	4074
845.117	4025
845.253	3979
845.389	3903
845.525	3930
845.661	3915
845.798	3899
845.934	4002
846.07	3915
846.206	4044
846.342	4128
846.478	4071
846.614	3941
846.75	3949
846.886	3896
847.022	4006
847.158	3994
847.294	4002
847.429	3987
847.565	4032
847.701	4242
847.837	3873
847.972	3846
848.108	3987
848.244	3968
848.379	3819
848.515	3823
848.65	3793
848.786	3800
848.921	3819
849.057	3930
849.192	3949
849.328	3873
849.463	3937
849.598	3907
849.734	3857
849.869	3835
850.004	3785
850.14	3812
850.275	3785
850.41	3728
850.545	3762
850.68	3793
850.815	3751
850.95	3781
851.085	3953
851.22	3861
851.355	3823
851.49	3785
851.625	3819
851.76	3774
851.895	3690
852.03	3732
852.165	3797
852.299	3835
852.434	3873
852.569	3846
852.703	3835
852.838	3907
852.973	4013
853.107	3975
853.242	3899
853.376	3827
853.511	3759
853.645	3785
853.78	3930
853.914	3907
854.048	3880
854.183	3873
854.317	3903
854.451	4071
854.585	3953
854.72	3937
854.854	4059
854.988	3937
855.122	3968
855.256	3915
855.39	4010
855.524	4135
855.658	4063
855.792	4116
855.926	4128
856.06	4143
856.194	4219
856.327	4120
856.461	4124
856.595	4147
856.729	4150
856.862	4265
856.996	4265
857.13	4291
857.263	4325
857.397	4333
857.53	4272
857.664	4379
857.797	4390
857.931	4436
858.064	4383
858.197	4405
858.331	4348
858.464	4424
858.597	4386
858.731	4432
858.864	4421
858.997	4440
859.13	4527
859.263	4508
859.396	4569
859.529	4554
859.662	4500
859.795	4519
859.928	4584
860.061	4687
860.194	4691
860.327	4656
860.46	4603
860.592	4714
860.725	4729
860.858	4793
860.99	4672
861.123	4683
861.256	4683
861.388	4782
861.521	5425
861.653	4683
861.786	4683
861.918	4752
862.05	4790
862.183	4885
862.315	4839
862.447	4915
862.58	4854
862.712	4748
862.844	4748
862.976	4889
863.108	4908
863.24	5193
863.372	4843
863.504	4923
863.636	4870
863.768	4980
863.9	4934
864.032	4946
864.164	4957
864.296	5060
864.428	5075
864.559	5124
864.691	5132
864.823	5124
864.954	5079
865.086	5143
865.217	5105
865.349	5090
865.48	5159
865.612	5170
865.743	5318
865.875	5231
866.006	5136
866.137	5231
866.269	5250
866.4	5227
866.531	5250
866.662	5223
866.793	5299
866.924	5307
867.055	5299
867.186	5337
867.317	5349
867.448	5299
867.579	5364
867.71	5421
867.841	5364
867.972	5471
868.103	5429
868.233	5490
868.364	5512
868.495	5577
868.625	5611
868.756	5786
868.886	5672
869.017	5741
869.147	5836
869.278	5882
869.408	5767
869.539	5866
869.669	5965
869.799	5866
869.929	5931
870.06	5999
870.19	6232
870.32	6182
870.45	6273
870.58	6319
870.71	6365
870.84	6433
870.97	6410
871.1	6388
871.23	6654
871.36	6650
871.489	6700
871.619	6696
871.749	6833
871.879	6943
872.008	7027
872.138	6951
872.267	7004
872.397	6920
872.526	6996
872.656	7103
872.785	7171
872.915	7354
873.044	7552
873.173	7544
873.303	7632
873.432	7738
873.561	7814
873.69	7807
873.819	7963
873.948	8142
874.077	8294
874.206	8355
874.335	8408
874.464	8629
874.593	8868
874.722	8899
874.851	9100
874.979	9291
875.108	9405
875.237	9405
875.365	9439
875.494	9633
875.623	9857
875.751	9827
875.88	10025
876.008	10147
876.136	10215
876.265	10489
876.393	10641
876.521	10691
876.65	10748
876.778	10961
876.906	10873
877.034	10968
877.162	11052
877.29	11140
877.418	11261
877.546	11337
877.674	11535
877.802	11410
877.93	11455
878.058	11520
878.185	11535
878.313	11604
878.441	11745
878.568	11653
878.696	11767
878.824	11840
878.951	11996
879.079	11999
879.206	12064
879.333	11980
879.461	11961
879.588	12072
879.715	12049
879.842	12121
879.97	12072
880.097	11904
880.224	11961
880.351	11942
880.478	11866
880.605	11764
880.732	11874
880.859	12007
880.986	11786
881.112	11817
881.239	11726
881.366	11680
881.493	11653
881.619	11570
881.746	11596
881.872	11554
881.999	11452
882.125	11429
882.252	11608
882.378	11558
882.505	11585
882.631	11250
882.757	11280
882.883	11360
883.01	11212
883.136	11204
883.262	11147
883.388	11083
883.514	11258
883.64	11151
883.766	11128
883.892	10980
884.018	10987
884.143	11029
884.269	11117
884.395	10889
884.52	10771
884.646	10755
884.772	10759
884.897	10679
885.023	10660
885.148	10710
885.274	10771
885.399	10675
885.524	10630
885.65	10599
885.775	10603
885.9	10538
886.025	10592
886.15	10546
886.275	10402
886.4	10394
886.525	10341
886.65	10409
886.775	10348
886.9	10417
887.025	10599
887.149	10367
887.274	10185
887.399	10188
887.523	10173
887.648	10150
887.773	10166
887.897	10192
888.021	10246
888.146	10135
888.27	10192
888.395	10219
888.519	10196
888.643	10188
888.767	10219
888.891	10101
889.015	9972
889.139	10063
889.263	9972
889.387	10067
889.511	10093
889.635	10105
889.759	9960
889.883	9964
890.006	9987
890.13	10086
890.254	9911
890.377	9994
890.501	9854
890.624	9800
890.748	9934
890.871	9823
890.995	9762
891.118	9682
891.241	9774
891.364	9755
891.488	9800
891.611	9766
891.734	9732
891.857	9751
891.98	9705
892.103	9797
892.226	9747
892.349	9625
892.471	9504
892.594	9553
892.717	9561
892.839	9595
892.962	9644
893.085	9625
893.207	9584
893.33	9530
893.452	9515
893.575	9519
893.697	9523
893.819	9564
893.941	9591
894.064	9580
894.186	9443
894.308	9344
894.43	9458
894.552	9542
894.674	9515
894.796	9435
894.918	9420
895.04	9420
895.161	9382
895.283	9351
895.405	9218
895.526	9287
895.648	9203
895.769	9157
895.891	9203
896.012	9287
896.134	9207
896.255	9176
896.376	9131
896.498	9199
896.619	9135
896.74	9097
896.861	9013
896.982	9321
897.103	9283
897.224	9222
897.345	9036
897.466	8990
897.587	8967
897.708	9043
897.828	8990
897.949	8872
898.07	8788
898.19	8979
898.311	8990
898.431	8960
898.552	8937
898.672	8944
898.792	8899
898.913	8918
899.033	8750
899.153	8762
899.273	8697
899.393	8731
899.513	8674
899.633	8701
899.753	8754
899.873	8689
899.993	8712
900.113	8651
900.232	8697
900.352	8625
900.472	8598
900.591	8492
900.711	8556
900.83	8522
900.95	8663
901.069	8644
901.189	8598
901.308	8377
901.427	8415
901.546	8465
901.665	8385
901.784	8488
901.904	8381
902.023	8290
902.141	8161
902.26	8233
902.379	8225
902.498	8202
902.617	8256
902.735	8279
902.854	8240
902.973	8282
903.091	8081
903.21	8149
903.328	8149
903.446	8149
903.565	8088
903.683	8062
903.801	8123
903.919	8142
904.038	8134
904.156	8046
904.274	8134
904.392	7970
904.51	8039
904.627	8039
904.745	8100
904.863	8046
904.981	7902
905.098	7902
905.216	7909
905.334	7898
905.451	7890
905.569	7875
905.686	7875
905.803	7932
905.921	7757
906.038	7879
906.155	7761
906.272	7685
906.389	7708
906.506	7628
906.623	7651
906.74	7556
906.857	7510
906.974	7597
907.091	7674
907.208	7738
907.324	7670
907.441	7567
907.557	7384
907.674	7422
907.79	7400
907.907	7434
908.023	7438
908.139	7460
908.256	7354
908.372	7346
908.488	7362
908.604	7278
908.72	7266
908.836	7274
908.952	7217
909.068	7213
909.184	7327
909.3	7160
909.415	7297
909.531	7327
909.647	7118
909.762	7122
909.878	7065
909.993	7126
910.108	7084
910.224	7004
910.339	7114
910.454	7072
910.57	7023
910.685	6932
910.8	7152
910.915	7069
911.03	7057
911.145	6897
911.259	6848
911.374	6871
911.489	6787
911.604	6848
911.718	6684
911.833	6764
911.947	6669
912.062	6601
912.176	6688
912.291	6719
912.405	6700
912.519	6878
912.633	6798
912.748	6764
912.862	6696
912.976	6589
913.09	6532
913.204	6604
913.318	6616
913.431	6642
913.545	6692
913.659	6673
913.772	6593
913.886	6566
914	6540
914.113	6593
914.226	6635
914.34	6555
914.453	6506
914.566	6574
914.68	6486
914.793	6566
914.906	6414
915.019	6410
915.132	6418
915.245	6433
915.358	6399
915.47	6429
915.583	6422
915.696	6483
915.809	6555
915.921	6517
916.034	6376
916.146	6399
916.259	6369
916.371	6437
916.483	6441
916.595	6448
916.708	6407
916.82	6353
916.932	6384
917.044	6361
917.156	6414
917.268	6319
917.38	6296
917.491	6232
917.603	6308
917.715	6391
917.826	6437
917.938	6369
918.049	6338
918.161	6372
918.272	6395
918.384	6395
918.495	6292
918.606	6243
918.717	6155
918.828	6292
918.939	6338
919.05	6163
919.161	6247
919.272	6114
919.383	6102
919.494	6346
919.604	6395
919.715	6323
919.826	6171
919.936	6270
920.047	6327
920.157	6232
920.267	6426
920.378	6308
920.488	6296
920.598	6471
920.708	6490
920.818	6407
920.928	6479
921.038	6658
921.148	6601
921.258	6334
921.368	6311
921.477	6213
921.587	6186
921.697	6121
921.806	6182
921.916	6038
922.025	5916
922.134	5920
922.244	5866
922.353	5927
922.462	5802
922.571	5798
922.68	5676
922.789	5695
922.898	5741
923.007	5600
923.116	5680
923.224	5653
923.333	5665
923.442	5551
923.55	5573
923.659	5608
923.767	5634
923.876	5497
923.984	5623
924.092	5490
924.201	5543
924.309	5562
924.417	5551
924.525	5493
924.633	5570
924.741	6213
924.849	5353
924.956	5482
925.064	5334
925.172	5284
925.279	5288
925.387	5360
925.494	5322
925.602	5436
925.709	5326
925.816	5277
925.924	5296
926.031	5315
926.138	5280
926.245	5341
926.352	5193
926.459	5284
926.566	5326
926.673	5261
926.779	5117
926.886	5143
926.993	5064
927.099	4968
927.206	4991
927.312	4949
927.419	4953
927.525	5029
927.631	4942
927.737	4885
927.843	4870
927.95	4816
928.056	4793
928.162	4862
928.267	4809
928.373	5239
928.479	4843
928.585	4653
928.69	4729
928.796	4736
928.901	4698
929.007	4561
929.112	4687
929.218	4668
929.323	4618
929.428	4569
929.533	4698
929.638	4512
929.743	4554
929.848	4512
929.953	4527
930.058	4466
930.163	4371
930.267	4341
930.372	4424
930.477	4238
930.581	4440
930.685	4379
930.79	4291
930.894	4265
930.998	4261
931.103	4371
931.207	4131
931.311	4044
931.415	4029
931.519	3896
931.623	3911
