Data from glass_V78500241_1043.txt Node
Date: Wed Sep 01 19:21:43 CST 2021
User: usil
Spectrometer: V785-0024
Trigger mode: 0
Integration Time (sec): 4.000000E-1
Scans to average: 1
Nonlinearity correction enabled: false
Boxcar width: 0
Storing dark spectrum: false
XAxis mode: Wavelengths
Number of Pixels in Spectrum: 1024
>>>>>Begin Spectral Data<<<<<
801.071	3785
801.214	3778
801.356	3728
801.499	3736
801.641	3751
801.783	3728
801.926	3892
802.068	3876
802.211	3854
802.353	3899
802.496	3854
802.638	3854
802.78	3892
802.923	3964
803.065	3907
803.208	3884
803.35	3857
803.492	3884
803.635	3934
803.777	3854
803.919	3934
804.061	4150
804.204	3972
804.346	3930
804.488	3926
804.63	4055
804.773	4002
804.915	4040
805.057	4158
805.199	4105
805.341	4090
805.483	4135
805.626	4101
805.768	4128
805.91	4261
806.052	4253
806.194	4204
806.336	4379
806.478	4185
806.62	4188
806.762	4173
806.904	4246
807.046	4371
807.188	4219
807.33	4249
807.472	4249
807.614	4181
807.756	4322
807.898	4219
808.04	4246
808.182	4253
808.324	4333
808.465	4367
808.607	4470
808.749	4436
808.891	4459
809.033	4516
809.174	4421
809.316	4299
809.458	4306
809.6	4177
809.741	4192
809.883	4143
810.025	4215
810.166	4230
810.308	4192
810.45	4249
810.591	4188
810.733	4356
810.875	4542
811.016	4850
811.158	5170
811.299	5334
811.441	5277
811.582	5075
811.724	4710
811.865	4516
812.007	4428
812.148	4462
812.29	4432
812.431	4371
812.573	4379
812.714	4383
812.855	4440
812.997	4405
813.138	4489
813.279	4451
813.421	4436
813.562	4417
813.703	4337
813.845	4344
813.986	4276
814.127	4238
814.268	4204
814.41	4249
814.551	4272
814.692	4329
814.833	4204
814.974	4318
815.115	4314
815.256	4314
815.397	4196
815.539	4230
815.68	4265
815.821	4223
815.962	4310
816.103	4303
816.244	4280
816.385	4215
816.526	4306
816.666	4204
816.807	4105
816.948	4223
817.089	4181
817.23	4158
817.371	4029
817.512	4032
817.653	4177
817.793	4090
817.934	4082
818.075	4086
818.216	4071
818.356	4105
818.497	4002
818.638	3941
818.778	3907
818.919	3926
819.06	3896
819.2	3896
819.341	3869
819.481	3804
819.622	3911
819.762	3998
819.903	3964
820.043	3899
820.184	3816
820.324	3800
820.465	3850
820.605	3808
820.746	3880
820.886	3781
821.026	3956
821.167	3945
821.307	3956
821.447	3937
821.588	4013
821.728	3876
821.868	3941
822.008	3869
822.149	3922
822.289	3956
822.429	3793
822.569	3774
822.709	3747
822.849	3686
822.99	3705
823.13	3755
823.27	3816
823.41	3709
823.55	3705
823.69	3705
823.83	3720
823.97	3755
824.11	3618
824.25	3606
824.389	3641
824.529	3705
824.669	3641
824.809	3736
824.949	3755
825.089	3747
825.228	3732
825.368	3564
825.508	3553
825.648	3591
825.787	3637
825.927	3644
826.067	3648
826.206	3667
826.346	3823
826.485	3827
826.625	3873
826.765	3975
826.904	3899
827.044	3606
827.183	3564
827.323	3435
827.462	3515
827.601	3481
827.741	3469
827.88	3473
828.02	3393
828.159	3458
828.298	3454
828.437	3526
828.577	3469
828.716	3625
828.855	3488
828.994	3386
829.134	3401
829.273	3409
829.412	3405
829.551	3351
829.69	3389
829.829	3462
829.968	3492
830.107	3466
830.246	3435
830.385	3428
830.524	3351
830.663	3302
830.802	3275
830.941	3180
831.08	3233
831.219	3298
831.357	3264
831.496	3393
831.635	3260
831.774	3260
831.913	3245
832.051	3173
832.19	3146
832.329	3268
832.467	3112
832.606	3138
832.744	3203
832.883	3199
833.022	3146
833.16	3241
833.299	3317
833.437	3367
833.576	3382
833.714	3431
833.852	3431
833.991	3462
834.129	3454
834.267	3458
834.406	3431
834.544	3454
834.682	3439
834.821	3424
834.959	3580
835.097	3420
835.235	3523
835.373	3526
835.511	3488
835.65	3485
835.788	3507
835.926	3409
836.064	3393
836.202	3412
836.34	3603
836.478	3603
836.615	3584
836.753	3599
836.891	3641
837.029	3599
837.167	3618
837.305	3561
837.443	3561
837.58	3481
837.718	3572
837.856	3553
837.993	3561
838.131	3561
838.269	3591
838.406	3591
838.544	3561
838.681	3450
838.819	3511
838.956	3374
839.094	3386
839.231	3492
839.369	3534
839.506	3766
839.643	3629
839.781	3557
839.918	3473
840.055	3515
840.193	3523
840.33	3618
840.467	3576
840.604	3660
840.742	3793
840.879	3526
841.016	3564
841.153	3564
841.29	3724
841.427	3732
841.564	3736
841.701	3759
841.838	3679
841.975	3660
842.112	3762
842.249	3663
842.385	3637
842.522	3861
842.659	3720
842.796	3698
842.933	3709
843.069	3713
843.206	3713
843.343	3823
843.479	3785
843.616	3819
843.752	3656
843.889	3736
844.025	3892
844.162	3694
844.298	3827
844.435	3778
844.571	3793
844.708	3911
844.844	3960
844.98	4048
845.117	4032
845.253	3949
845.389	3884
845.525	3964
845.661	3964
845.798	3941
845.934	3979
846.07	3972
846.206	4040
846.342	4154
846.478	4101
846.614	4017
846.75	3991
846.886	3922
847.022	4036
847.158	3949
847.294	4040
847.429	4032
847.565	4029
847.701	4261
847.837	3850
847.972	3873
848.108	3979
848.244	3975
848.379	3846
848.515	3797
848.65	3846
848.786	3869
848.921	3922
849.057	3915
849.192	3998
849.328	3907
849.463	3915
849.598	3884
849.734	3861
849.869	3838
850.004	3762
850.14	3819
850.275	3785
850.41	3762
850.545	3743
850.68	3759
850.815	3861
850.95	3812
851.085	3918
851.22	3873
851.355	3827
851.49	3808
851.625	3819
851.76	3800
851.895	3793
852.03	3728
852.165	3857
852.299	3854
852.434	3941
852.569	3911
852.703	3892
852.838	3934
852.973	4010
853.107	4010
853.242	3907
853.376	3857
853.511	3762
853.645	3857
853.78	3956
853.914	3918
854.048	3857
854.183	3880
854.317	3972
854.451	4082
854.585	3949
854.72	4006
854.854	4074
854.988	3991
855.122	4002
855.256	3876
855.39	4029
855.524	4093
855.658	4135
855.792	4090
855.926	4124
856.06	4162
856.194	4234
856.327	4112
856.461	4120
856.595	4139
856.729	4200
856.862	4306
856.996	4234
857.13	4337
857.263	4341
857.397	4360
857.53	4306
857.664	4383
857.797	4417
857.931	4451
858.064	4432
858.197	4451
858.331	4455
858.464	4390
858.597	4390
858.731	4470
858.864	4436
858.997	4455
859.13	4485
859.263	4523
859.396	4573
859.529	4508
859.662	4546
859.795	4478
859.928	4607
860.061	4706
860.194	4759
860.327	4672
860.46	4675
860.592	4801
860.725	4786
860.858	4759
860.99	4675
861.123	4637
861.256	4725
861.388	4755
861.521	5410
861.653	4748
861.786	4759
861.918	4790
862.05	4786
862.183	4847
862.315	4919
862.447	4934
862.58	4896
862.712	4736
862.844	4736
862.976	4877
863.108	4877
863.24	5254
863.372	4847
863.504	4927
863.636	4908
863.768	5029
863.9	5003
864.032	4938
864.164	4961
864.296	5060
864.428	5079
864.559	5064
864.691	5121
864.823	5105
864.954	5124
865.086	5151
865.217	5109
865.349	5071
865.48	5166
865.612	5216
865.743	5254
865.875	5174
866.006	5235
866.137	5250
866.269	5239
866.4	5223
866.531	5220
866.662	5254
866.793	5292
866.924	5273
867.055	5349
867.186	5303
867.317	5341
867.448	5299
867.579	5357
867.71	5406
867.841	5383
867.972	5463
868.103	5505
868.233	5524
868.364	5524
868.495	5520
868.625	5661
868.756	5752
868.886	5703
869.017	5786
869.147	5836
869.278	5805
869.408	5824
869.539	5874
869.669	5931
869.799	5920
869.929	6011
870.06	6022
870.19	6220
870.32	6205
870.45	6224
870.58	6327
870.71	6376
870.84	6433
870.97	6399
871.1	6475
871.23	6673
871.36	6703
871.489	6635
871.619	6741
871.749	6776
871.879	6916
872.008	6966
872.138	7046
872.267	7012
872.397	7000
872.526	7069
872.656	7042
872.785	7164
872.915	7384
873.044	7586
873.173	7525
873.303	7677
873.432	7761
873.561	7845
873.69	7940
873.819	8062
873.948	8195
874.077	8267
874.206	8320
874.335	8393
874.464	8689
874.593	8876
874.722	8948
874.851	9066
874.979	9260
875.108	9477
875.237	9420
875.365	9534
875.494	9720
875.623	9759
875.751	9842
875.88	10048
876.008	10150
876.136	10322
876.265	10459
876.393	10774
876.521	10691
876.65	10797
876.778	10957
876.906	10972
877.034	11033
877.162	11147
877.29	11136
877.418	11250
877.546	11356
877.674	11474
877.802	11539
877.93	11520
878.058	11566
878.185	11600
878.313	11684
878.441	11684
878.568	11737
878.696	11821
878.824	11832
878.951	11965
879.079	12011
879.206	12167
879.333	12079
879.461	11999
879.588	12125
879.715	12098
879.842	12308
879.97	12110
880.097	11832
880.224	11920
880.351	11954
880.478	11939
880.605	11870
880.732	11821
880.859	12011
880.986	11817
881.112	11809
881.239	11760
881.366	11665
881.493	11608
881.619	11528
881.746	11566
881.872	11646
881.999	11474
882.125	11455
882.252	11585
882.378	11524
882.505	11539
882.631	11383
882.757	11368
882.883	11280
883.01	11239
883.136	11132
883.262	11117
883.388	11128
883.514	11231
883.64	11132
883.766	11052
883.892	10942
884.018	11033
884.143	11094
884.269	11159
884.395	10896
884.52	10755
884.646	10824
884.772	10694
884.897	10618
885.023	10702
885.148	10782
885.274	10782
885.399	10725
885.524	10577
885.65	10538
885.775	10607
885.9	10542
886.025	10554
886.15	10577
886.275	10428
886.4	10428
886.525	10466
886.65	10386
886.775	10371
886.9	10447
887.025	10512
887.149	10356
887.274	10158
887.399	10173
887.523	10169
887.648	10192
887.773	10101
887.897	10261
888.021	10200
888.146	10124
888.27	10257
888.395	10299
888.519	10124
888.643	10207
888.767	10150
888.891	10044
889.015	10017
889.139	10074
889.263	10010
889.387	10055
889.511	10116
889.635	10032
889.759	9991
889.883	10044
890.006	9979
890.13	10116
890.254	9972
890.377	10010
890.501	9892
890.624	9907
890.748	9888
890.871	9842
890.995	9713
891.118	9743
891.241	9690
891.364	9778
891.488	9850
891.611	9736
891.734	9736
891.857	9743
891.98	9682
892.103	9759
892.226	9728
892.349	9732
892.471	9507
892.594	9629
892.717	9603
892.839	9633
892.962	9720
893.085	9660
893.207	9526
893.33	9504
893.452	9500
893.575	9610
893.697	9542
893.819	9599
893.941	9682
894.064	9641
894.186	9443
894.308	9443
894.43	9500
894.552	9606
894.674	9469
894.796	9397
894.918	9393
895.04	9340
895.161	9389
895.283	9370
895.405	9313
895.526	9279
895.648	9272
895.769	9291
895.891	9363
896.012	9253
896.134	9279
896.255	9230
896.376	9070
896.498	9135
896.619	9169
896.74	9032
896.861	9150
896.982	9260
897.103	9321
897.224	9154
897.345	9058
897.466	9013
897.587	9013
897.708	9116
897.828	9066
897.949	9032
898.07	8845
898.19	8914
898.311	9043
898.431	8853
898.552	8986
898.672	8986
898.792	8933
898.913	8941
899.033	8834
899.153	8766
899.273	8648
899.393	8720
899.513	8796
899.633	8781
899.753	8750
899.873	8739
899.993	8746
900.113	8701
900.232	8655
900.352	8663
900.472	8629
900.591	8594
900.711	8648
900.83	8571
900.95	8629
901.069	8674
901.189	8568
901.308	8492
901.427	8404
901.546	8412
901.665	8514
901.784	8450
901.904	8355
902.023	8381
902.141	8229
902.26	8221
902.379	8279
902.498	8221
902.617	8263
902.735	8305
902.854	8259
902.973	8244
903.091	8138
903.21	8199
903.328	8145
903.446	8073
903.565	8145
903.683	8103
903.801	8073
903.919	8172
904.038	8164
904.156	8024
904.274	8088
904.392	8103
904.51	8005
904.627	8065
904.745	8138
904.863	8119
904.981	7909
905.098	7883
905.216	7887
905.334	7909
905.451	7879
905.569	7898
905.686	7932
905.803	7925
905.921	7841
906.038	7875
906.155	7799
906.272	7681
906.389	7723
906.506	7651
906.623	7578
906.74	7616
906.857	7537
906.974	7582
907.091	7693
907.208	7723
907.324	7590
907.441	7575
907.557	7529
907.674	7457
907.79	7373
907.907	7422
908.023	7529
908.139	7460
908.256	7415
908.372	7384
908.488	7339
908.604	7293
908.72	7232
908.836	7301
908.952	7225
909.068	7308
909.184	7384
909.3	7274
909.415	7308
909.531	7320
909.647	7091
909.762	7122
909.878	7126
909.993	7164
910.108	7057
910.224	7126
910.339	7069
910.454	7038
910.57	7012
910.685	6989
910.8	7164
910.915	7107
911.03	7080
911.145	6871
911.259	6852
911.374	6897
911.489	6886
911.604	6890
911.718	6707
911.833	6707
911.947	6654
912.062	6681
912.176	6711
912.291	6688
912.405	6726
912.519	6829
912.633	6802
912.748	6715
912.862	6711
912.976	6646
913.09	6525
913.204	6563
913.318	6612
913.431	6639
913.545	6631
913.659	6684
913.772	6658
913.886	6597
914	6559
914.113	6620
914.226	6707
914.34	6601
914.453	6521
914.566	6578
914.68	6517
914.793	6486
914.906	6441
915.019	6467
915.132	6353
915.245	6384
915.358	6456
915.47	6460
915.583	6391
915.696	6502
915.809	6574
915.921	6589
916.034	6441
916.146	6426
916.259	6369
916.371	6471
916.483	6475
916.595	6509
916.708	6464
916.82	6426
916.932	6414
917.044	6410
917.156	6391
917.268	6388
917.38	6353
917.491	6380
917.603	6350
917.715	6384
917.826	6403
917.938	6372
918.049	6178
918.161	6342
918.272	6395
918.384	6460
918.495	6350
918.606	6228
918.717	6194
918.828	6273
918.939	6235
919.05	6224
919.161	6213
919.272	6072
919.383	6163
919.494	6319
919.604	6445
919.715	6342
919.826	6216
919.936	6338
920.047	6391
920.157	6327
920.267	6460
920.378	6292
920.488	6262
920.598	6418
920.708	6627
920.818	6498
920.928	6441
921.038	6623
921.148	6555
921.258	6384
921.368	6308
921.477	6273
921.587	6133
921.697	6007
921.806	6182
921.916	6057
922.025	5939
922.134	5969
922.244	5893
922.353	5935
922.462	5874
922.571	5847
922.68	5703
922.789	5630
922.898	5733
923.007	5703
923.116	5710
923.224	5649
923.333	5684
923.442	5604
923.55	5562
923.659	5600
923.767	5623
923.876	5532
923.984	5604
924.092	5543
924.201	5581
924.309	5581
924.417	5539
924.525	5478
924.633	5467
924.741	6235
924.849	5398
924.956	5463
925.064	5379
925.172	5341
925.279	5261
925.387	5315
925.494	5337
925.602	5429
925.709	5372
925.816	5292
925.924	5337
926.031	5368
926.138	5322
926.245	5345
926.352	5265
926.459	5299
926.566	5364
926.673	5273
926.779	5212
926.886	5151
926.993	5041
927.099	5006
927.206	4984
927.312	4984
927.419	4938
927.525	4987
927.631	5022
927.737	4885
927.843	4923
927.95	4805
928.056	4786
928.162	4816
928.267	4885
928.373	5357
928.479	4828
928.585	4717
928.69	4774
928.796	4786
928.901	4683
929.007	4573
929.112	4694
929.218	4645
929.323	4649
929.428	4603
929.533	4683
929.638	4523
929.743	4538
929.848	4592
929.953	4596
930.058	4421
930.163	4352
930.267	4375
930.372	4474
930.477	4318
930.581	4519
930.685	4363
930.79	4230
930.894	4363
930.998	4261
931.103	4390
931.207	4143
931.311	4093
931.415	4044
931.519	3934
931.623	3964
