Data from glass_V78500241_821.txt Node
Date: Wed Sep 01 19:20:11 CST 2021
User: usil
Spectrometer: V785-0024
Trigger mode: 0
Integration Time (sec): 4.000000E-1
Scans to average: 1
Nonlinearity correction enabled: false
Boxcar width: 0
Storing dark spectrum: false
XAxis mode: Wavelengths
Number of Pixels in Spectrum: 1024
>>>>>Begin Spectral Data<<<<<
801.071	3759
801.214	3770
801.356	3740
801.499	3774
801.641	3736
801.783	3778
801.926	3892
802.068	3861
802.211	3854
802.353	3884
802.496	3797
802.638	3907
802.78	3903
802.923	3930
803.065	3911
803.208	3911
803.35	3846
803.492	3888
803.635	3907
803.777	3823
803.919	3892
804.061	4188
804.204	3960
804.346	3930
804.488	3892
804.63	4059
804.773	3991
804.915	4036
805.057	4128
805.199	4074
805.341	4112
805.483	4143
805.626	4143
805.768	4131
805.91	4219
806.052	4253
806.194	4196
806.336	4322
806.478	4234
806.62	4181
806.762	4181
806.904	4223
807.046	4325
807.188	4242
807.33	4181
807.472	4253
807.614	4204
807.756	4295
807.898	4185
808.04	4291
808.182	4287
808.324	4333
808.465	4402
808.607	4459
808.749	4443
808.891	4447
809.033	4519
809.174	4421
809.316	4268
809.458	4257
809.6	4116
809.741	4131
809.883	4158
810.025	4219
810.166	4204
810.308	4238
810.45	4261
810.591	4207
810.733	4310
810.875	4542
811.016	4809
811.158	5102
811.299	5280
811.441	5280
811.582	5067
811.724	4698
811.865	4451
812.007	4455
812.148	4417
812.29	4428
812.431	4413
812.573	4466
812.714	4402
812.855	4455
812.997	4493
813.138	4516
813.279	4447
813.421	4371
813.562	4356
813.703	4344
813.845	4356
813.986	4249
814.127	4230
814.268	4276
814.41	4284
814.551	4249
814.692	4337
814.833	4257
814.974	4287
815.115	4394
815.256	4192
815.397	4249
815.539	4276
815.68	4207
815.821	4261
815.962	4318
816.103	4299
816.244	4246
816.385	4265
816.526	4284
816.666	4219
816.807	4063
816.948	4173
817.089	4162
817.23	4090
817.371	4074
817.512	4097
817.653	4059
817.793	4021
817.934	4013
818.075	4071
818.216	4093
818.356	4147
818.497	4017
818.638	3918
818.778	3880
818.919	3903
819.06	3876
819.2	3949
819.341	3850
819.481	3816
819.622	3937
819.762	4040
819.903	3987
820.043	3876
820.184	3827
820.324	3827
820.465	3850
820.605	3861
820.746	3915
820.886	3797
821.026	3880
821.167	3934
821.307	3998
821.447	4006
821.588	3937
821.728	3975
821.868	3960
822.008	3884
822.149	3930
822.289	3949
822.429	3785
822.569	3774
822.709	3842
822.849	3694
822.99	3728
823.13	3762
823.27	3854
823.41	3701
823.55	3732
823.69	3713
823.83	3766
823.97	3671
824.11	3648
824.25	3614
824.389	3637
824.529	3694
824.669	3675
824.809	3709
824.949	3720
825.089	3766
825.228	3701
825.368	3564
825.508	3538
825.648	3572
825.787	3644
825.927	3709
826.067	3633
826.206	3667
826.346	3797
826.485	3842
826.625	3888
826.765	3972
826.904	3854
827.044	3614
827.183	3549
827.323	3416
827.462	3485
827.601	3481
827.741	3447
827.88	3447
828.02	3389
828.159	3477
828.298	3477
828.437	3496
828.577	3500
828.716	3591
828.855	3515
828.994	3412
829.134	3378
829.273	3416
829.412	3355
829.551	3321
829.69	3401
829.829	3450
829.968	3507
830.107	3439
830.246	3447
830.385	3420
830.524	3340
830.663	3321
830.802	3275
830.941	3237
831.08	3222
831.219	3275
831.357	3249
831.496	3397
831.635	3264
831.774	3211
831.913	3218
832.051	3138
832.19	3173
832.329	3249
832.467	3112
832.606	3131
832.744	3146
832.883	3222
833.022	3207
833.16	3253
833.299	3340
833.437	3363
833.576	3363
833.714	3428
833.852	3431
833.991	3481
834.129	3458
834.267	3435
834.406	3428
834.544	3409
834.682	3462
834.821	3401
834.959	3561
835.097	3397
835.235	3530
835.373	3473
835.511	3488
835.65	3462
835.788	3504
835.926	3409
836.064	3374
836.202	3393
836.34	3584
836.478	3606
836.615	3523
836.753	3644
836.891	3663
837.029	3584
837.167	3587
837.305	3572
837.443	3553
837.58	3519
837.718	3561
837.856	3610
837.993	3580
838.131	3625
838.269	3637
838.406	3618
838.544	3576
838.681	3492
838.819	3492
838.956	3382
839.094	3435
839.231	3477
839.369	3504
839.506	3778
839.643	3663
839.781	3492
839.918	3450
840.055	3557
840.193	3545
840.33	3568
840.467	3538
840.604	3633
840.742	3781
840.879	3545
841.016	3584
841.153	3576
841.29	3762
841.427	3751
841.564	3740
841.701	3762
841.838	3755
841.975	3705
842.112	3732
842.249	3663
842.385	3663
842.522	3835
842.659	3698
842.796	3675
842.933	3747
843.069	3728
843.206	3724
843.343	3827
843.479	3816
843.616	3850
843.752	3679
843.889	3709
844.025	3850
844.162	3720
844.298	3846
844.435	3785
844.571	3838
844.708	3937
844.844	4029
844.98	4032
845.117	4017
845.253	3945
845.389	3899
845.525	3998
845.661	3926
845.798	3945
845.934	4055
846.07	3949
846.206	4074
846.342	4105
846.478	4093
846.614	4013
846.75	3945
846.886	3915
847.022	4006
847.158	3975
847.294	4017
847.429	4051
847.565	3979
847.701	4268
847.837	3911
847.972	3876
848.108	3953
848.244	3937
848.379	3857
848.515	3854
848.65	3827
848.786	3827
848.921	3888
849.057	3888
849.192	3899
849.328	3907
849.463	3960
849.598	3880
849.734	3888
849.869	3838
850.004	3800
850.14	3789
850.275	3816
850.41	3743
850.545	3770
850.68	3808
850.815	3785
850.95	3808
851.085	3949
851.22	3892
851.355	3865
851.49	3789
851.625	3781
851.76	3759
851.895	3724
852.03	3720
852.165	3789
852.299	3888
852.434	3934
852.569	3896
852.703	3876
852.838	3953
852.973	3983
853.107	4025
853.242	3934
853.376	3857
853.511	3766
853.645	3865
853.78	3949
853.914	3903
854.048	3930
854.183	3876
854.317	3979
854.451	4078
854.585	3983
854.72	3956
854.854	4040
854.988	3953
855.122	4006
855.256	3915
855.39	4067
855.524	4143
855.658	4101
855.792	4093
855.926	4204
856.06	4188
856.194	4185
856.327	4154
856.461	4150
856.595	4188
856.729	4162
856.862	4295
856.996	4268
857.13	4303
857.263	4310
857.397	4386
857.53	4303
857.664	4390
857.797	4356
857.931	4424
858.064	4367
858.197	4443
858.331	4428
858.464	4348
858.597	4325
858.731	4424
858.864	4459
858.997	4432
859.13	4535
859.263	4611
859.396	4615
859.529	4508
859.662	4580
859.795	4519
859.928	4607
860.061	4702
860.194	4748
860.327	4649
860.46	4698
860.592	4778
860.725	4812
860.858	4809
860.99	4714
861.123	4694
861.256	4698
861.388	4771
861.521	5455
861.653	4698
861.786	4710
861.918	4714
862.05	4812
862.183	4828
862.315	4877
862.447	4923
862.58	4892
862.712	4824
862.844	4793
862.976	4927
863.108	4892
863.24	5242
863.372	4843
863.504	4915
863.636	4904
863.768	4976
863.9	4968
864.032	4904
864.164	4961
864.296	5029
864.428	5098
864.559	5166
864.691	5105
864.823	5174
864.954	5113
865.086	5147
865.217	5155
865.349	5193
865.48	5162
865.612	5193
865.743	5299
865.875	5212
866.006	5216
866.137	5254
866.269	5208
866.4	5208
866.531	5204
866.662	5212
866.793	5227
866.924	5261
867.055	5368
867.186	5360
867.317	5391
867.448	5341
867.579	5345
867.71	5387
867.841	5406
867.972	5493
868.103	5512
868.233	5501
868.364	5505
868.495	5558
868.625	5657
868.756	5790
868.886	5691
869.017	5783
869.147	5847
869.278	5874
869.408	5859
869.539	5840
869.669	5870
869.799	5969
869.929	5969
870.06	6038
870.19	6235
870.32	6262
870.45	6304
870.58	6331
870.71	6486
870.84	6486
870.97	6426
871.1	6464
871.23	6669
871.36	6711
871.489	6642
871.619	6825
871.749	6825
871.879	6913
872.008	6977
872.138	6966
872.267	6993
872.397	6981
872.526	7042
872.656	7152
872.785	7198
872.915	7354
873.044	7582
873.173	7537
873.303	7651
873.432	7738
873.561	7936
873.69	7856
873.819	7974
873.948	8149
874.077	8290
874.206	8286
874.335	8419
874.464	8697
874.593	8864
874.722	8929
874.851	9142
874.979	9298
875.108	9351
875.237	9561
875.365	9557
875.494	9580
875.623	9884
875.751	9838
875.88	9983
876.008	10131
876.136	10272
876.265	10500
876.393	10675
876.521	10736
876.65	10809
876.778	10919
876.906	10869
877.034	11010
877.162	11048
877.29	11162
877.418	11261
877.546	11273
877.674	11486
877.802	11433
877.93	11562
878.058	11581
878.185	11573
878.313	11668
878.441	11764
878.568	11710
878.696	11722
878.824	11874
878.951	11950
879.079	11958
879.206	12136
879.333	12087
879.461	11996
879.588	12064
879.715	12091
879.842	12338
879.97	12114
880.097	11889
880.224	11908
880.351	11901
880.478	11904
880.605	11893
880.732	11779
880.859	12038
880.986	11866
881.112	11870
881.239	11726
881.366	11695
881.493	11623
881.619	11615
881.746	11592
881.872	11452
881.999	11490
882.125	11524
882.252	11615
882.378	11429
882.505	11581
882.631	11376
882.757	11303
882.883	11330
883.01	11299
883.136	11166
883.262	11136
883.388	11102
883.514	11151
883.64	11136
883.766	11098
883.892	10987
884.018	11052
884.143	11060
884.269	11124
884.395	10866
884.52	10790
884.646	10805
884.772	10740
884.897	10660
885.023	10630
885.148	10812
885.274	10774
885.399	10698
885.524	10660
885.65	10584
885.775	10637
885.9	10622
886.025	10634
886.15	10565
886.275	10455
886.4	10382
886.525	10459
886.65	10333
886.775	10310
886.9	10527
887.025	10592
887.149	10421
887.274	10242
887.399	10219
887.523	10207
887.648	10158
887.773	10147
887.897	10280
888.021	10215
888.146	10177
888.27	10196
888.395	10265
888.519	10059
888.643	10230
888.767	10215
888.891	10078
889.015	10002
889.139	10173
889.263	10040
889.387	10116
889.511	10074
889.635	9987
889.759	9994
889.883	9991
890.006	10036
890.13	10109
890.254	9918
890.377	9861
890.501	9892
890.624	9937
890.748	9827
890.871	9831
890.995	9762
891.118	9732
891.241	9686
891.364	9728
891.488	9827
891.611	9736
891.734	9759
891.857	9789
891.98	9804
892.103	9766
892.226	9736
892.349	9679
892.471	9462
892.594	9572
892.717	9637
892.839	9603
892.962	9614
893.085	9679
893.207	9610
893.33	9469
893.452	9538
893.575	9625
893.697	9511
893.819	9671
893.941	9641
894.064	9580
894.186	9519
894.308	9412
894.43	9530
894.552	9648
894.674	9580
894.796	9405
894.918	9447
895.04	9393
895.161	9443
895.283	9378
895.405	9233
895.526	9241
895.648	9230
895.769	9226
895.891	9260
896.012	9370
896.134	9233
896.255	9192
896.376	9154
896.498	9150
896.619	9146
896.74	9108
896.861	9150
896.982	9245
897.103	9447
897.224	9253
897.345	9089
897.466	9013
897.587	9093
897.708	9028
897.828	9036
897.949	9017
898.07	8929
898.19	8982
898.311	9093
898.431	8944
898.552	8853
898.672	8975
898.792	8944
898.913	8986
899.033	8788
899.153	8773
899.273	8663
899.393	8777
899.513	8750
899.633	8766
899.753	8758
899.873	8686
899.993	8788
900.113	8754
900.232	8731
900.352	8670
900.472	8583
900.591	8556
900.711	8583
900.83	8533
900.95	8674
901.069	8762
901.189	8617
901.308	8438
901.427	8366
901.546	8450
901.665	8454
901.784	8476
901.904	8404
902.023	8332
902.141	8320
902.26	8279
902.379	8313
902.498	8233
902.617	8259
902.735	8381
902.854	8218
902.973	8237
903.091	8115
903.21	8153
903.328	8130
903.446	8130
903.565	8062
903.683	8138
903.801	8077
903.919	8195
904.038	8161
904.156	8081
904.274	8138
904.392	7967
904.51	8065
904.627	8092
904.745	8126
904.863	8046
904.981	7879
905.098	7864
905.216	7864
905.334	7963
905.451	7925
905.569	7909
905.686	7959
905.803	7936
905.921	7719
906.038	7833
906.155	7742
906.272	7727
906.389	7753
906.506	7681
906.623	7666
906.74	7677
906.857	7563
906.974	7544
907.091	7693
907.208	7742
907.324	7590
907.441	7563
907.557	7495
907.674	7464
907.79	7453
907.907	7411
908.023	7468
908.139	7430
908.256	7320
908.372	7305
908.488	7377
908.604	7312
908.72	7266
908.836	7270
908.952	7240
909.068	7187
909.184	7301
909.3	7251
909.415	7297
909.531	7278
909.647	7076
909.762	7069
909.878	7095
909.993	7137
910.108	7145
910.224	7080
910.339	7088
910.454	7103
910.57	6966
910.685	7015
910.8	7194
910.915	7171
911.03	7095
911.145	6867
911.259	6859
911.374	6962
911.489	6848
911.604	6806
911.718	6722
911.833	6772
911.947	6669
912.062	6608
912.176	6711
912.291	6715
912.405	6749
912.519	6856
912.633	6829
912.748	6749
912.862	6734
912.976	6642
913.09	6517
913.204	6585
913.318	6582
913.431	6719
913.545	6673
913.659	6738
913.772	6642
913.886	6559
914	6601
914.113	6604
914.226	6669
914.34	6612
914.453	6521
914.566	6658
914.68	6566
914.793	6570
914.906	6437
915.019	6426
915.132	6407
915.245	6418
915.358	6437
915.47	6486
915.583	6490
915.696	6498
915.809	6513
915.921	6521
916.034	6407
916.146	6361
916.259	6365
916.371	6483
916.483	6494
916.595	6399
916.708	6433
916.82	6445
916.932	6414
917.044	6403
917.156	6437
917.268	6369
917.38	6319
917.491	6365
917.603	6372
917.715	6464
917.826	6452
917.938	6300
918.049	6285
918.161	6361
918.272	6422
918.384	6479
918.495	6342
918.606	6232
918.717	6232
918.828	6273
918.939	6281
919.05	6228
919.161	6247
919.272	6140
919.383	6186
919.494	6285
919.604	6441
919.715	6311
919.826	6209
919.936	6216
920.047	6331
920.157	6209
920.267	6414
920.378	6365
920.488	6289
920.598	6414
920.708	6616
920.818	6452
920.928	6441
921.038	6642
921.148	6627
921.258	6342
921.368	6331
921.477	6239
921.587	6194
921.697	6098
921.806	6239
921.916	6057
922.025	5923
922.134	5931
922.244	5916
922.353	5946
922.462	5840
922.571	5779
922.68	5672
922.789	5703
922.898	5745
923.007	5627
923.116	5745
923.224	5707
923.333	5714
923.442	5710
923.55	5585
923.659	5596
923.767	5661
923.876	5562
923.984	5634
924.092	5490
924.201	5554
924.309	5570
924.417	5573
924.525	5528
924.633	5520
924.741	6155
924.849	5436
924.956	5474
925.064	5341
925.172	5357
925.279	5284
925.387	5357
925.494	5345
925.602	5482
925.709	5414
925.816	5318
925.924	5311
926.031	5410
926.138	5311
926.245	5357
926.352	5185
926.459	5315
926.566	5303
926.673	5261
926.779	5159
926.886	5189
926.993	4995
927.099	5033
927.206	4953
927.312	4995
927.419	5006
927.525	5029
927.631	4980
927.737	4873
927.843	4862
927.95	4801
928.056	4809
928.162	4839
928.267	4892
928.373	5368
928.479	4835
928.585	4736
928.69	4809
928.796	4790
928.901	4668
929.007	4607
929.112	4660
929.218	4622
929.323	4599
929.428	4599
929.533	4679
929.638	4542
929.743	4580
929.848	4550
929.953	4508
930.058	4424
930.163	4360
930.267	4341
930.372	4451
930.477	4337
930.581	4474
930.685	4352
930.79	4284
930.894	4318
930.998	4265
931.103	4371
931.207	4109
931.311	4112
931.415	4093
931.519	3896
931.623	3953
