Data from glass_V78500241_2493.txt Node
Date: Wed Sep 01 19:31:46 CST 2021
User: usil
Spectrometer: V785-0024
Trigger mode: 0
Integration Time (sec): 4.000000E-1
Scans to average: 1
Nonlinearity correction enabled: false
Boxcar width: 0
Storing dark spectrum: false
XAxis mode: Wavelengths
Number of Pixels in Spectrum: 1024
>>>>>Begin Spectral Data<<<<<
801.071	3751
801.214	3728
801.356	3686
801.499	3751
801.641	3732
801.783	3785
801.926	3812
802.068	3823
802.211	3842
802.353	3907
802.496	3823
802.638	3865
802.78	3876
802.923	3880
803.065	3918
803.208	3823
803.35	3861
803.492	3869
803.635	3899
803.777	3812
803.919	3873
804.061	4120
804.204	3945
804.346	3964
804.488	3896
804.63	4040
804.773	3975
804.915	4013
805.057	4090
805.199	4055
805.341	4051
805.483	4109
805.626	4063
805.768	4109
805.91	4219
806.052	4280
806.194	4207
806.336	4341
806.478	4207
806.62	4188
806.762	4169
806.904	4230
807.046	4363
807.188	4204
807.33	4150
807.472	4253
807.614	4188
807.756	4253
807.898	4223
808.04	4268
808.182	4287
808.324	4337
808.465	4360
808.607	4474
808.749	4432
808.891	4478
809.033	4470
809.174	4398
809.316	4242
809.458	4207
809.6	4128
809.741	4101
809.883	4147
810.025	4230
810.166	4169
810.308	4192
810.45	4253
810.591	4249
810.733	4287
810.875	4504
811.016	4809
811.158	5098
811.299	5246
811.441	5269
811.582	5079
811.724	4691
811.865	4443
812.007	4459
812.148	4405
812.29	4485
812.431	4424
812.573	4405
812.714	4413
812.855	4428
812.997	4379
813.138	4489
813.279	4424
813.421	4402
813.562	4363
813.703	4303
813.845	4295
813.986	4230
814.127	4211
814.268	4280
814.41	4249
814.551	4291
814.692	4333
814.833	4268
814.974	4291
815.115	4337
815.256	4253
815.397	4192
815.539	4249
815.68	4223
815.821	4188
815.962	4299
816.103	4295
816.244	4234
816.385	4223
816.526	4303
816.666	4181
816.807	4120
816.948	4139
817.089	4177
817.23	4082
817.371	4082
817.512	4006
817.653	4055
817.793	4017
817.934	4036
818.075	4074
818.216	4093
818.356	4082
818.497	3941
818.638	3903
818.778	3915
818.919	3857
819.06	3861
819.2	3873
819.341	3865
819.481	3831
819.622	3964
819.762	4010
819.903	3964
820.043	3838
820.184	3842
820.324	3816
820.465	3876
820.605	3854
820.746	3876
820.886	3774
821.026	3903
821.167	3934
821.307	3964
821.447	3979
821.588	3922
821.728	3903
821.868	3949
822.008	3850
822.149	3896
822.289	3888
822.429	3778
822.569	3759
822.709	3793
822.849	3656
822.99	3701
823.13	3755
823.27	3751
823.41	3679
823.55	3747
823.69	3728
823.83	3698
823.97	3660
824.11	3587
824.25	3606
824.389	3633
824.529	3656
824.669	3618
824.809	3698
824.949	3740
825.089	3778
825.228	3690
825.368	3564
825.508	3564
825.648	3549
825.787	3595
825.927	3614
826.067	3587
826.206	3652
826.346	3755
826.485	3835
826.625	3861
826.765	3941
826.904	3778
827.044	3629
827.183	3507
827.323	3443
827.462	3435
827.601	3405
827.741	3462
827.88	3439
828.02	3348
828.159	3416
828.298	3500
828.437	3526
828.577	3450
828.716	3599
828.855	3481
828.994	3382
829.134	3348
829.273	3386
829.412	3306
829.551	3367
829.69	3329
829.829	3439
829.968	3519
830.107	3435
830.246	3466
830.385	3351
830.524	3370
830.663	3306
830.802	3237
830.941	3211
831.08	3195
831.219	3256
831.357	3287
831.496	3370
831.635	3260
831.774	3154
831.913	3211
832.051	3146
832.19	3108
832.329	3184
832.467	3146
832.606	3070
832.744	3180
832.883	3184
833.022	3184
833.16	3241
833.299	3287
833.437	3294
833.576	3397
833.714	3393
833.852	3409
833.991	3424
834.129	3458
834.267	3397
834.406	3374
834.544	3439
834.682	3386
834.821	3393
834.959	3568
835.097	3412
835.235	3469
835.373	3447
835.511	3500
835.65	3431
835.788	3466
835.926	3355
836.064	3386
836.202	3386
836.34	3534
836.478	3614
836.615	3511
836.753	3576
836.891	3633
837.029	3633
837.167	3572
837.305	3549
837.443	3507
837.58	3500
837.718	3606
837.856	3504
837.993	3515
838.131	3572
838.269	3576
838.406	3568
838.544	3557
838.681	3477
838.819	3435
838.956	3370
839.094	3420
839.231	3458
839.369	3515
839.506	3728
839.643	3576
839.781	3488
839.918	3481
840.055	3523
840.193	3523
840.33	3504
840.467	3568
840.604	3614
840.742	3762
840.879	3526
841.016	3557
841.153	3572
841.29	3717
841.427	3694
841.564	3701
841.701	3743
841.838	3679
841.975	3644
842.112	3709
842.249	3644
842.385	3656
842.522	3819
842.659	3694
842.796	3698
842.933	3701
843.069	3743
843.206	3709
843.343	3819
843.479	3759
843.616	3789
843.752	3652
843.889	3675
844.025	3831
844.162	3690
844.298	3819
844.435	3797
844.571	3774
844.708	3949
844.844	4017
844.98	4002
845.117	3998
845.253	3937
845.389	3903
845.525	3941
845.661	3941
845.798	3892
845.934	3949
846.07	3949
846.206	4044
846.342	4082
846.478	4074
846.614	3960
846.75	3926
846.886	3934
847.022	4048
847.158	3926
847.294	3983
847.429	4021
847.565	4006
847.701	4242
847.837	3854
847.972	3816
848.108	3979
848.244	3953
848.379	3861
848.515	3835
848.65	3838
848.786	3827
848.921	3838
849.057	3880
849.192	3956
849.328	3869
849.463	3926
849.598	3896
849.734	3842
849.869	3857
850.004	3778
850.14	3819
850.275	3762
850.41	3759
850.545	3774
850.68	3713
850.815	3755
850.95	3800
851.085	3884
851.22	3884
851.355	3823
851.49	3736
851.625	3781
851.76	3812
851.895	3728
852.03	3713
852.165	3778
852.299	3838
852.434	3892
852.569	3850
852.703	3899
852.838	3922
852.973	4044
853.107	3987
853.242	3888
853.376	3827
853.511	3755
853.645	3861
853.78	3949
853.914	3888
854.048	3930
854.183	3857
854.317	3930
854.451	4029
854.585	3972
854.72	3953
854.854	4032
854.988	3918
855.122	3998
855.256	3888
855.39	4029
855.524	4071
855.658	4055
855.792	4101
855.926	4128
856.06	4124
856.194	4211
856.327	4093
856.461	4124
856.595	4143
856.729	4135
856.862	4242
856.996	4249
857.13	4272
857.263	4318
857.397	4333
857.53	4253
857.664	4356
857.797	4390
857.931	4379
858.064	4360
858.197	4440
858.331	4383
858.464	4341
858.597	4363
858.731	4428
858.864	4462
858.997	4436
859.13	4531
859.263	4531
859.396	4596
859.529	4523
859.662	4504
859.795	4493
859.928	4626
860.061	4675
860.194	4736
860.327	4611
860.46	4649
860.592	4714
860.725	4748
860.858	4774
860.99	4656
861.123	4641
861.256	4672
861.388	4717
861.521	5497
861.653	4706
861.786	4721
861.918	4694
862.05	4793
862.183	4854
862.315	4866
862.447	4885
862.58	4900
862.712	4831
862.844	4763
862.976	4904
863.108	4847
863.24	5212
863.372	4820
863.504	4908
863.636	4923
863.768	5010
863.9	4972
864.032	4877
864.164	4904
864.296	5029
864.428	5102
864.559	5086
864.691	5147
864.823	5121
864.954	5143
865.086	5048
865.217	5105
865.349	5090
865.48	5155
865.612	5147
865.743	5265
865.875	5181
866.006	5174
866.137	5239
866.269	5193
866.4	5220
866.531	5181
866.662	5250
866.793	5273
866.924	5239
867.055	5307
867.186	5299
867.317	5261
867.448	5265
867.579	5368
867.71	5395
867.841	5337
867.972	5436
868.103	5421
868.233	5512
868.364	5444
868.495	5543
868.625	5653
868.756	5790
868.886	5668
869.017	5733
869.147	5851
869.278	5908
869.408	5790
869.539	5840
869.669	5901
869.799	5901
869.929	6003
870.06	5996
870.19	6178
870.32	6148
870.45	6213
870.58	6365
870.71	6395
870.84	6445
870.97	6376
871.1	6384
871.23	6555
871.36	6623
871.489	6631
871.619	6810
871.749	6798
871.879	6875
872.008	6973
872.138	6947
872.267	6977
872.397	6966
872.526	7000
872.656	7137
872.785	7202
872.915	7343
873.044	7445
873.173	7647
873.303	7647
873.432	7693
873.561	7818
873.69	7902
873.819	8008
873.948	8069
874.077	8240
874.206	8290
874.335	8393
874.464	8674
874.593	8838
874.722	8925
874.851	9119
874.979	9188
875.108	9401
875.237	9443
875.365	9428
875.494	9701
875.623	9835
875.751	9838
875.88	9972
876.008	10067
876.136	10196
876.265	10478
876.393	10656
876.521	10679
876.65	10824
876.778	10858
876.906	10885
877.034	10976
877.162	11090
877.29	11083
877.418	11330
877.546	11383
877.674	11474
877.802	11429
877.93	11474
878.058	11570
878.185	11611
878.313	11608
878.441	11699
878.568	11604
878.696	11817
878.824	11889
878.951	11931
879.079	11980
879.206	12102
879.333	12003
879.461	11961
879.588	11999
879.715	12022
879.842	12201
879.97	11958
880.097	11916
880.224	11882
880.351	11901
880.478	11893
880.605	11828
880.732	11843
880.859	11923
880.986	11718
881.112	11824
881.239	11691
881.366	11710
881.493	11570
881.619	11478
881.746	11604
881.872	11570
881.999	11528
882.125	11474
882.252	11516
882.378	11429
882.505	11463
882.631	11368
882.757	11341
882.883	11284
883.01	11330
883.136	11189
883.262	11056
883.388	11098
883.514	11159
883.64	11181
883.766	11124
883.892	10999
884.018	10949
884.143	11128
884.269	10995
884.395	10733
884.52	10835
884.646	10797
884.772	10622
884.897	10649
885.023	10740
885.148	10691
885.274	10778
885.399	10645
885.524	10588
885.65	10565
885.775	10599
885.9	10580
886.025	10554
886.15	10546
886.275	10497
886.4	10447
886.525	10348
886.65	10344
886.775	10341
886.9	10474
887.025	10550
887.149	10413
887.274	10150
887.399	10185
887.523	10124
887.648	10204
887.773	10139
887.897	10219
888.021	10112
888.146	10169
888.27	10207
888.395	10181
888.519	10196
888.643	10158
888.767	10169
888.891	10067
889.015	10013
889.139	10048
889.263	9915
889.387	10032
889.511	10147
889.635	10090
889.759	9903
889.883	9945
890.006	9987
890.13	10040
890.254	9876
890.377	9945
890.501	9819
890.624	9838
890.748	9816
890.871	9869
890.995	9686
891.118	9720
891.241	9713
891.364	9728
891.488	9774
891.611	9686
891.734	9709
891.857	9797
891.98	9698
892.103	9713
892.226	9671
892.349	9732
892.471	9515
892.594	9580
892.717	9606
892.839	9523
892.962	9572
893.085	9595
893.207	9557
893.33	9515
893.452	9523
893.575	9587
893.697	9515
893.819	9599
893.941	9663
894.064	9545
894.186	9367
894.308	9374
894.43	9526
894.552	9549
894.674	9477
894.796	9344
894.918	9408
895.04	9389
895.161	9355
895.283	9332
895.405	9260
895.526	9370
895.648	9279
895.769	9245
895.891	9203
896.012	9294
896.134	9272
896.255	9142
896.376	9097
896.498	9127
896.619	9089
896.74	9066
896.861	9074
896.982	9253
897.103	9287
897.224	9142
897.345	9066
897.466	8921
897.587	8933
897.708	9131
897.828	9017
897.949	8910
898.07	8746
898.19	8853
898.311	8971
898.431	8902
898.552	8937
898.672	8948
898.792	8921
898.913	8880
899.033	8750
899.153	8712
899.273	8708
899.393	8724
899.513	8701
899.633	8682
899.753	8716
899.873	8720
899.993	8701
900.113	8693
900.232	8743
900.352	8659
900.472	8606
900.591	8537
900.711	8541
900.83	8552
900.95	8644
901.069	8625
901.189	8575
901.308	8457
901.427	8366
901.546	8374
901.665	8484
901.784	8469
901.904	8351
902.023	8362
902.141	8248
902.26	8168
902.379	8309
902.498	8168
902.617	8225
902.735	8282
902.854	8298
902.973	8210
903.091	8210
903.21	8149
903.328	8206
903.446	8123
903.565	8065
903.683	8092
903.801	8046
903.919	8100
904.038	8149
904.156	7978
904.274	8069
904.392	7993
904.51	8039
904.627	7986
904.745	8062
904.863	8081
904.981	7894
905.098	7856
905.216	7841
905.334	7852
905.451	7788
905.569	7906
905.686	7928
905.803	7860
905.921	7753
906.038	7932
906.155	7784
906.272	7723
906.389	7712
906.506	7616
906.623	7578
906.74	7559
906.857	7495
906.974	7597
907.091	7628
907.208	7639
907.324	7609
907.441	7594
907.557	7441
907.674	7362
907.79	7403
907.907	7407
908.023	7445
908.139	7384
908.256	7354
908.372	7335
908.488	7362
908.604	7282
908.72	7145
908.836	7251
908.952	7232
909.068	7282
909.184	7312
909.3	7217
909.415	7278
909.531	7327
909.647	7126
909.762	7133
909.878	7038
909.993	7107
910.108	7110
910.224	7050
910.339	7103
910.454	7031
910.57	7038
910.685	6962
910.8	7126
910.915	7152
911.03	7027
911.145	6947
911.259	6916
911.374	6901
911.489	6829
911.604	6825
911.718	6745
911.833	6700
911.947	6654
912.062	6616
912.176	6791
912.291	6658
912.405	6692
912.519	6779
912.633	6840
912.748	6703
912.862	6662
912.976	6582
913.09	6517
913.204	6616
913.318	6574
913.431	6662
913.545	6635
913.659	6730
913.772	6631
913.886	6525
914	6517
914.113	6627
914.226	6593
914.34	6589
914.453	6490
914.566	6551
914.68	6521
914.793	6555
914.906	6426
915.019	6429
915.132	6441
915.245	6426
915.358	6433
915.47	6376
915.583	6475
915.696	6422
915.809	6528
915.921	6483
916.034	6429
916.146	6498
916.259	6319
916.371	6517
916.483	6452
916.595	6369
916.708	6376
916.82	6361
916.932	6334
917.044	6388
917.156	6422
917.268	6285
917.38	6266
917.491	6308
917.603	6281
917.715	6399
917.826	6372
917.938	6296
918.049	6289
918.161	6315
918.272	6342
918.384	6445
918.495	6292
918.606	6224
918.717	6235
918.828	6270
918.939	6296
919.05	6152
919.161	6285
919.272	6171
919.383	6148
919.494	6254
919.604	6384
919.715	6285
919.826	6213
919.936	6171
920.047	6323
920.157	6186
920.267	6460
920.378	6273
920.488	6262
920.598	6414
920.708	6551
920.818	6456
920.928	6448
921.038	6631
921.148	6604
921.258	6338
921.368	6304
921.477	6144
921.587	6190
921.697	6060
921.806	6148
921.916	6022
922.025	5923
922.134	5920
922.244	5851
922.353	5931
922.462	5847
922.571	5824
922.68	5661
922.789	5653
922.898	5657
923.007	5570
923.116	5688
923.224	5676
923.333	5676
923.442	5611
923.55	5520
923.659	5558
923.767	5600
923.876	5543
923.984	5623
924.092	5509
924.201	5539
924.309	5482
924.417	5509
924.525	5501
924.633	5482
924.741	6273
924.849	5379
924.956	5474
925.064	5345
925.172	5303
925.279	5265
925.387	5337
925.494	5292
925.602	5391
925.709	5345
925.816	5280
925.924	5311
926.031	5364
926.138	5269
926.245	5296
926.352	5197
926.459	5299
926.566	5288
926.673	5197
926.779	5067
926.886	5136
926.993	5041
927.099	4995
927.206	5014
927.312	4942
927.419	4968
927.525	4927
927.631	4900
927.737	4896
927.843	4854
927.95	4774
928.056	4816
928.162	4835
928.267	4847
928.373	5254
928.479	4847
928.585	4706
928.69	4721
928.796	4752
928.901	4679
929.007	4565
929.112	4702
929.218	4592
929.323	4577
929.428	4504
929.533	4694
929.638	4512
929.743	4538
929.848	4542
929.953	4527
930.058	4466
930.163	4344
930.267	4356
930.372	4436
930.477	4299
930.581	4459
930.685	4318
930.79	4272
930.894	4291
930.998	4249
931.103	4363
931.207	4135
931.311	4059
931.415	4059
931.519	3880
931.623	3941
