Data from glass_V78500241_2423.txt Node
Date: Wed Sep 01 19:31:17 CST 2021
User: usil
Spectrometer: V785-0024
Trigger mode: 0
Integration Time (sec): 4.000000E-1
Scans to average: 1
Nonlinearity correction enabled: false
Boxcar width: 0
Storing dark spectrum: false
XAxis mode: Wavelengths
Number of Pixels in Spectrum: 1024
>>>>>Begin Spectral Data<<<<<
801.071	3732
801.214	3743
801.356	3717
801.499	3766
801.641	3724
801.783	3720
801.926	3819
802.068	3797
802.211	3861
802.353	3896
802.496	3827
802.638	3884
802.78	3876
802.923	3934
803.065	3918
803.208	3800
803.35	3899
803.492	3869
803.635	3903
803.777	3762
803.919	3865
804.061	4158
804.204	3968
804.346	3918
804.488	3960
804.63	4040
804.773	4006
804.915	4021
805.057	4135
805.199	4006
805.341	4082
805.483	4173
805.626	4090
805.768	4109
805.91	4188
806.052	4200
806.194	4177
806.336	4383
806.478	4181
806.62	4181
806.762	4181
806.904	4246
807.046	4291
807.188	4173
807.33	4181
807.472	4207
807.614	4188
807.756	4280
807.898	4204
808.04	4215
808.182	4246
808.324	4310
808.465	4363
808.607	4451
808.749	4447
808.891	4440
809.033	4504
809.174	4375
809.316	4242
809.458	4223
809.6	4135
809.741	4093
809.883	4135
810.025	4204
810.166	4230
810.308	4234
810.45	4223
810.591	4185
810.733	4246
810.875	4478
811.016	4824
811.158	5136
811.299	5261
811.441	5296
811.582	5098
811.724	4736
811.865	4440
812.007	4497
812.148	4443
812.29	4428
812.431	4344
812.573	4371
812.714	4360
812.855	4405
812.997	4386
813.138	4455
813.279	4421
813.421	4405
813.562	4383
813.703	4352
813.845	4303
813.986	4242
814.127	4215
814.268	4230
814.41	4299
814.551	4268
814.692	4322
814.833	4272
814.974	4303
815.115	4291
815.256	4211
815.397	4246
815.539	4242
815.68	4211
815.821	4200
815.962	4306
816.103	4230
816.244	4211
816.385	4257
816.526	4257
816.666	4219
816.807	4120
816.948	4162
817.089	4162
817.23	4135
817.371	4036
817.512	4071
817.653	4082
817.793	4032
817.934	4017
818.075	4116
818.216	4086
818.356	4082
818.497	4002
818.638	3949
818.778	3873
818.919	3918
819.06	3861
819.2	3873
819.341	3873
819.481	3835
819.622	3907
819.762	4017
819.903	3896
820.043	3865
820.184	3785
820.324	3846
820.465	3854
820.605	3850
820.746	3865
820.886	3800
821.026	3945
821.167	3903
821.307	3945
821.447	3949
821.588	3949
821.728	3896
821.868	3926
822.008	3865
822.149	3907
822.289	3907
822.429	3781
822.569	3743
822.709	3774
822.849	3713
822.99	3724
823.13	3774
823.27	3755
823.41	3701
823.55	3709
823.69	3698
823.83	3717
823.97	3622
824.11	3568
824.25	3622
824.389	3675
824.529	3648
824.669	3641
824.809	3751
824.949	3747
825.089	3698
825.228	3694
825.368	3606
825.508	3564
825.648	3534
825.787	3587
825.927	3618
826.067	3610
826.206	3709
826.346	3759
826.485	3797
826.625	3869
826.765	3907
826.904	3819
827.044	3633
827.183	3496
827.323	3424
827.462	3492
827.601	3447
827.741	3420
827.88	3439
828.02	3348
828.159	3458
828.298	3477
828.437	3545
828.577	3443
828.716	3564
828.855	3477
828.994	3370
829.134	3359
829.273	3374
829.412	3313
829.551	3355
829.69	3367
829.829	3420
829.968	3534
830.107	3393
830.246	3393
830.385	3355
830.524	3344
830.663	3294
830.802	3222
830.941	3195
831.08	3161
831.219	3237
831.357	3268
831.496	3435
831.635	3207
831.774	3192
831.913	3192
832.051	3135
832.19	3161
832.329	3218
832.467	3112
832.606	3093
832.744	3173
832.883	3138
833.022	3161
833.16	3214
833.299	3313
833.437	3321
833.576	3386
833.714	3397
833.852	3405
833.991	3393
834.129	3473
834.267	3412
834.406	3450
834.544	3393
834.682	3393
834.821	3393
834.959	3576
835.097	3397
835.235	3519
835.373	3473
835.511	3454
835.65	3469
835.788	3496
835.926	3382
836.064	3378
836.202	3386
836.34	3557
836.478	3572
836.615	3534
836.753	3610
836.891	3637
837.029	3625
837.167	3580
837.305	3538
837.443	3538
837.58	3523
837.718	3561
837.856	3587
837.993	3534
838.131	3545
838.269	3526
838.406	3564
838.544	3542
838.681	3454
838.819	3409
838.956	3378
839.094	3378
839.231	3473
839.369	3507
839.506	3701
839.643	3667
839.781	3504
839.918	3462
840.055	3561
840.193	3507
840.33	3469
840.467	3564
840.604	3584
840.742	3770
840.879	3542
841.016	3606
841.153	3606
841.29	3766
841.427	3698
841.564	3709
841.701	3762
841.838	3682
841.975	3667
842.112	3682
842.249	3572
842.385	3622
842.522	3842
842.659	3671
842.796	3671
842.933	3713
843.069	3679
843.206	3671
843.343	3793
843.479	3717
843.616	3797
843.752	3671
843.889	3724
844.025	3835
844.162	3694
844.298	3831
844.435	3781
844.571	3819
844.708	3880
844.844	3953
844.98	3953
845.117	4044
845.253	3930
845.389	3892
845.525	3937
845.661	3892
845.798	3937
845.934	4006
846.07	3960
846.206	4040
846.342	4093
846.478	4059
846.614	3998
846.75	3884
846.886	3960
847.022	4036
847.158	3972
847.294	4002
847.429	4032
847.565	3979
847.701	4234
847.837	3888
847.972	3838
848.108	3987
848.244	3964
848.379	3861
848.515	3812
848.65	3831
848.786	3857
848.921	3876
849.057	3930
849.192	3918
849.328	3907
849.463	3873
849.598	3865
849.734	3831
849.869	3789
850.004	3778
850.14	3804
850.275	3774
850.41	3740
850.545	3762
850.68	3770
850.815	3766
850.95	3781
851.085	3953
851.22	3857
851.355	3778
851.49	3816
851.625	3778
851.76	3766
851.895	3717
852.03	3720
852.165	3831
852.299	3797
852.434	3934
852.569	3857
852.703	3827
852.838	3918
852.973	3975
853.107	4006
853.242	3892
853.376	3838
853.511	3743
853.645	3770
853.78	4013
853.914	3888
854.048	3880
854.183	3865
854.317	3922
854.451	4063
854.585	3937
854.72	3937
854.854	4025
854.988	3941
855.122	3983
855.256	3915
855.39	3994
855.524	4055
855.658	4112
855.792	4074
855.926	4158
856.06	4158
856.194	4196
856.327	4173
856.461	4105
856.595	4139
856.729	4185
856.862	4253
856.996	4227
857.13	4276
857.263	4272
857.397	4337
857.53	4291
857.664	4325
857.797	4409
857.931	4394
858.064	4352
858.197	4363
858.331	4394
858.464	4363
858.597	4299
858.731	4451
858.864	4455
858.997	4436
859.13	4527
859.263	4523
859.396	4550
859.529	4504
859.662	4485
859.795	4500
859.928	4577
860.061	4752
860.194	4687
860.327	4664
860.46	4656
860.592	4675
860.725	4790
860.858	4733
860.99	4710
861.123	4714
861.256	4694
861.388	4816
861.521	5520
861.653	4733
861.786	4698
861.918	4725
862.05	4767
862.183	4816
862.315	4896
862.447	4896
862.58	4911
862.712	4771
862.844	4721
862.976	4828
863.108	4885
863.24	5151
863.372	4816
863.504	4934
863.636	4892
863.768	4938
863.9	4957
864.032	4877
864.164	4984
864.296	5048
864.428	5094
864.559	5075
864.691	5147
864.823	5105
864.954	5143
865.086	5124
865.217	5151
865.349	5060
865.48	5178
865.612	5216
865.743	5318
865.875	5208
866.006	5136
866.137	5227
866.269	5212
866.4	5231
866.531	5201
866.662	5174
866.793	5258
866.924	5284
867.055	5318
867.186	5379
867.317	5277
867.448	5296
867.579	5353
867.71	5337
867.841	5395
867.972	5406
868.103	5459
868.233	5429
868.364	5501
868.495	5570
868.625	5642
868.756	5710
868.886	5672
869.017	5756
869.147	5851
869.278	5878
869.408	5847
869.539	5821
869.669	5882
869.799	5901
869.929	5931
870.06	6019
870.19	6163
870.32	6163
870.45	6224
870.58	6262
870.71	6460
870.84	6479
870.97	6346
871.1	6422
871.23	6627
871.36	6692
871.489	6650
871.619	6741
871.749	6791
871.879	6848
872.008	6928
872.138	6947
872.267	7019
872.397	6973
872.526	7031
872.656	7072
872.785	7213
872.915	7346
873.044	7578
873.173	7510
873.303	7609
873.432	7746
873.561	7871
873.69	7871
873.819	8001
873.948	8176
874.077	8256
874.206	8339
874.335	8454
874.464	8678
874.593	8811
874.722	8876
874.851	9032
874.979	9272
875.108	9370
875.237	9450
875.365	9534
875.494	9606
875.623	9808
875.751	9759
875.88	10017
876.008	10181
876.136	10375
876.265	10443
876.393	10664
876.521	10714
876.65	10774
876.778	10797
876.906	10809
877.034	10968
877.162	11086
877.29	11079
877.418	11299
877.546	11406
877.674	11410
877.802	11497
877.93	11486
878.058	11509
878.185	11570
878.313	11638
878.441	11790
878.568	11589
878.696	11836
878.824	11783
878.951	11954
879.079	12022
879.206	12106
879.333	12049
879.461	12011
879.588	12106
879.715	12110
879.842	12213
879.97	12068
880.097	11923
880.224	11828
880.351	11893
880.478	11889
880.605	11813
880.732	11828
880.859	12030
880.986	11786
881.112	11897
881.239	11665
881.366	11665
881.493	11600
881.619	11577
881.746	11573
881.872	11512
881.999	11482
882.125	11471
882.252	11497
882.378	11410
882.505	11528
882.631	11395
882.757	11280
882.883	11292
883.01	11216
883.136	11140
883.262	11098
883.388	11113
883.514	11128
883.64	11121
883.766	11124
883.892	10896
884.018	10987
884.143	10987
884.269	11048
884.395	10854
884.52	10820
884.646	10782
884.772	10656
884.897	10645
885.023	10626
885.148	10725
885.274	10736
885.399	10691
885.524	10615
885.65	10599
885.775	10508
885.9	10516
886.025	10561
886.15	10622
886.275	10436
886.4	10432
886.525	10417
886.65	10455
886.775	10394
886.9	10432
887.025	10455
887.149	10329
887.274	10162
887.399	10192
887.523	10143
887.648	10139
887.773	10143
887.897	10188
888.021	10211
888.146	10177
888.27	10162
888.395	10185
888.519	10105
888.643	10185
888.767	10143
888.891	10074
889.015	10051
889.139	10017
889.263	10025
889.387	10032
889.511	10135
889.635	10025
889.759	9949
889.883	9960
890.006	10002
890.13	10021
890.254	9945
890.377	9899
890.501	9869
890.624	9941
890.748	9895
890.871	9789
890.995	9751
891.118	9728
891.241	9747
891.364	9751
891.488	9838
891.611	9690
891.734	9701
891.857	9713
891.98	9682
892.103	9755
892.226	9720
892.349	9675
892.471	9549
892.594	9553
892.717	9622
892.839	9545
892.962	9610
893.085	9629
893.207	9584
893.33	9500
893.452	9545
893.575	9568
893.697	9424
893.819	9584
893.941	9644
894.064	9584
894.186	9378
894.308	9363
894.43	9511
894.552	9568
894.674	9538
894.796	9416
894.918	9386
895.04	9386
895.161	9370
895.283	9291
895.405	9222
895.526	9211
895.648	9283
895.769	9222
895.891	9325
896.012	9237
896.134	9207
896.255	9146
896.376	9100
896.498	9066
896.619	9138
896.74	9005
896.861	9062
896.982	9230
897.103	9306
897.224	9199
897.345	9062
897.466	8986
897.587	8941
897.708	9074
897.828	8952
897.949	8941
898.07	8914
898.19	8868
898.311	8948
898.431	8834
898.552	8956
898.672	9009
898.792	8921
898.913	8880
899.033	8876
899.153	8720
899.273	8667
899.393	8670
899.513	8743
899.633	8693
899.753	8724
899.873	8724
899.993	8705
900.113	8708
900.232	8640
900.352	8602
900.472	8594
900.591	8533
900.711	8579
900.83	8495
900.95	8640
901.069	8693
901.189	8541
901.308	8473
901.427	8298
901.546	8431
901.665	8488
901.784	8495
901.904	8343
902.023	8328
902.141	8195
902.26	8229
902.379	8248
902.498	8176
902.617	8263
902.735	8225
902.854	8271
902.973	8298
903.091	8168
903.21	8088
903.328	8180
903.446	8088
903.565	8138
903.683	8081
903.801	8058
903.919	8153
904.038	8164
904.156	8043
904.274	8035
904.392	7963
904.51	8020
904.627	7974
904.745	8100
904.863	8073
904.981	7932
905.098	7845
905.216	7852
905.334	7890
905.451	7849
905.569	7849
905.686	7936
905.803	7849
905.921	7807
906.038	7849
906.155	7772
906.272	7696
906.389	7723
906.506	7636
906.623	7586
906.74	7567
906.857	7499
906.974	7590
907.091	7616
907.208	7753
907.324	7605
907.441	7578
907.557	7529
907.674	7381
907.79	7358
907.907	7354
908.023	7434
908.139	7346
908.256	7369
908.372	7312
908.488	7339
908.604	7282
908.72	7187
908.836	7251
908.952	7282
909.068	7255
909.184	7350
909.3	7228
909.415	7259
909.531	7289
909.647	7095
909.762	7149
909.878	7023
909.993	7057
910.108	7061
910.224	7015
910.339	7088
910.454	7080
910.57	7095
910.685	6947
910.8	7133
910.915	7061
911.03	7088
911.145	6916
911.259	6882
911.374	6848
911.489	6844
911.604	6753
911.718	6726
911.833	6715
911.947	6589
912.062	6627
912.176	6669
912.291	6696
912.405	6684
912.519	6818
912.633	6856
912.748	6639
912.862	6665
912.976	6547
913.09	6464
913.204	6555
913.318	6673
913.431	6627
913.545	6726
913.659	6696
913.772	6604
913.886	6582
914	6570
914.113	6612
914.226	6642
914.34	6551
914.453	6483
914.566	6578
914.68	6540
914.793	6498
914.906	6388
915.019	6388
915.132	6323
915.245	6414
915.358	6513
915.47	6410
915.583	6437
915.696	6483
915.809	6509
915.921	6502
916.034	6407
916.146	6426
916.259	6327
916.371	6384
916.483	6445
916.595	6437
916.708	6376
916.82	6414
916.932	6361
917.044	6433
917.156	6338
917.268	6334
917.38	6323
917.491	6262
917.603	6319
917.715	6403
917.826	6350
917.938	6350
918.049	6239
918.161	6232
918.272	6361
918.384	6403
918.495	6342
918.606	6239
918.717	6182
918.828	6262
918.939	6273
919.05	6144
919.161	6281
919.272	6110
919.383	6152
919.494	6285
919.604	6388
919.715	6285
919.826	6239
919.936	6270
920.047	6311
920.157	6277
920.267	6395
920.378	6251
920.488	6266
920.598	6418
920.708	6555
920.818	6513
920.928	6544
921.038	6555
921.148	6536
921.258	6319
921.368	6247
921.477	6205
921.587	6178
921.697	6057
921.806	6133
921.916	6049
922.025	5931
922.134	5923
922.244	5901
922.353	5893
922.462	5824
922.571	5779
922.68	5710
922.789	5672
922.898	5684
923.007	5638
923.116	5733
923.224	5726
923.333	5672
923.442	5608
923.55	5547
923.659	5532
923.767	5634
923.876	5532
923.984	5600
924.092	5436
924.201	5501
924.309	5532
924.417	5535
924.525	5528
924.633	5482
924.741	6262
924.849	5383
924.956	5482
925.064	5368
925.172	5364
925.279	5360
925.387	5364
925.494	5334
925.602	5440
925.709	5379
925.816	5277
925.924	5280
926.031	5379
926.138	5296
926.245	5326
926.352	5143
926.459	5311
926.566	5372
926.673	5197
926.779	5132
926.886	5147
926.993	5052
927.099	4991
927.206	4999
927.312	4911
927.419	4946
927.525	5025
927.631	4965
927.737	4824
927.843	4866
927.95	4771
928.056	4828
928.162	4824
928.267	4881
928.373	5231
928.479	4835
928.585	4694
928.69	4759
928.796	4763
928.901	4702
929.007	4607
929.112	4675
929.218	4622
929.323	4596
929.428	4561
929.533	4698
929.638	4531
929.743	4474
929.848	4519
929.953	4478
930.058	4413
930.163	4310
930.267	4314
930.372	4405
930.477	4272
930.581	4451
930.685	4352
930.79	4261
930.894	4318
930.998	4261
931.103	4383
931.207	4082
931.311	4036
931.415	4010
931.519	3888
931.623	3945
