Data from glass_V78500241_2442.txt Node
Date: Wed Sep 01 19:31:25 CST 2021
User: usil
Spectrometer: V785-0024
Trigger mode: 0
Integration Time (sec): 4.000000E-1
Scans to average: 1
Nonlinearity correction enabled: false
Boxcar width: 0
Storing dark spectrum: false
XAxis mode: Wavelengths
Number of Pixels in Spectrum: 1024
>>>>>Begin Spectral Data<<<<<
801.071	3698
801.214	3736
801.356	3709
801.499	3713
801.641	3686
801.783	3724
801.926	3842
802.068	3842
802.211	3808
802.353	3876
802.496	3854
802.638	3827
802.78	3888
802.923	3892
803.065	3846
803.208	3876
803.35	3850
803.492	3884
803.635	3907
803.777	3778
803.919	3861
804.061	4139
804.204	3964
804.346	3937
804.488	3888
804.63	3987
804.773	4002
804.915	4025
805.057	4071
805.199	4002
805.341	4074
805.483	4135
805.626	4185
805.768	4101
805.91	4215
806.052	4246
806.194	4200
806.336	4337
806.478	4188
806.62	4162
806.762	4150
806.904	4249
807.046	4295
807.188	4249
807.33	4143
807.472	4204
807.614	4200
807.756	4257
807.898	4181
808.04	4188
808.182	4265
808.324	4325
808.465	4398
808.607	4485
808.749	4459
808.891	4451
809.033	4485
809.174	4360
809.316	4230
809.458	4219
809.6	4181
809.741	4128
809.883	4090
810.025	4154
810.166	4211
810.308	4219
810.45	4181
810.591	4204
810.733	4242
810.875	4478
811.016	4816
811.158	5117
811.299	5269
811.441	5227
811.582	5056
811.724	4714
811.865	4481
812.007	4462
812.148	4443
812.29	4421
812.431	4386
812.573	4360
812.714	4379
812.855	4383
812.997	4375
813.138	4462
813.279	4379
813.421	4390
813.562	4341
813.703	4352
813.845	4333
813.986	4215
814.127	4230
814.268	4242
814.41	4303
814.551	4223
814.692	4291
814.833	4291
814.974	4261
815.115	4333
815.256	4265
815.397	4211
815.539	4242
815.68	4181
815.821	4223
815.962	4284
816.103	4276
816.244	4204
816.385	4223
816.526	4287
816.666	4181
816.807	4124
816.948	4139
817.089	4196
817.23	4128
817.371	4032
817.512	3994
817.653	4048
817.793	4013
817.934	4036
818.075	4112
818.216	4051
818.356	4051
818.497	3964
818.638	3892
818.778	3907
818.919	3888
819.06	3861
819.2	3922
819.341	3869
819.481	3842
819.622	3892
819.762	4029
819.903	3960
820.043	3816
820.184	3827
820.324	3804
820.465	3823
820.605	3835
820.746	3842
820.886	3816
821.026	3918
821.167	3937
821.307	3983
821.447	3991
821.588	3922
821.728	3953
821.868	3926
822.008	3869
822.149	3922
822.289	3892
822.429	3759
822.569	3774
822.709	3770
822.849	3675
822.99	3709
823.13	3781
823.27	3755
823.41	3736
823.55	3713
823.69	3713
823.83	3755
823.97	3625
824.11	3637
824.25	3614
824.389	3641
824.529	3652
824.669	3603
824.809	3709
824.949	3720
825.089	3717
825.228	3667
825.368	3580
825.508	3511
825.648	3580
825.787	3572
825.927	3614
826.067	3614
826.206	3660
826.346	3728
826.485	3804
826.625	3835
826.765	3926
826.904	3816
827.044	3625
827.183	3515
827.323	3454
827.462	3488
827.601	3454
827.741	3469
827.88	3424
828.02	3359
828.159	3462
828.298	3507
828.437	3515
828.577	3473
828.716	3576
828.855	3473
828.994	3374
829.134	3348
829.273	3382
829.412	3351
829.551	3351
829.69	3329
829.829	3405
829.968	3507
830.107	3397
830.246	3458
830.385	3370
830.524	3355
830.663	3287
830.802	3222
830.941	3211
831.08	3161
831.219	3253
831.357	3291
831.496	3370
831.635	3214
831.774	3211
831.913	3173
832.051	3119
832.19	3154
832.329	3256
832.467	3138
832.606	3131
832.744	3146
832.883	3150
833.022	3203
833.16	3272
833.299	3294
833.437	3325
833.576	3340
833.714	3370
833.852	3401
833.991	3443
834.129	3439
834.267	3393
834.406	3359
834.544	3431
834.682	3386
834.821	3386
834.959	3564
835.097	3401
835.235	3530
835.373	3496
835.511	3500
835.65	3500
835.788	3477
835.926	3389
836.064	3348
836.202	3386
836.34	3576
836.478	3625
836.615	3545
836.753	3572
836.891	3633
837.029	3591
837.167	3557
837.305	3545
837.443	3507
837.58	3485
837.718	3606
837.856	3523
837.993	3553
838.131	3625
838.269	3549
838.406	3603
838.544	3557
838.681	3462
838.819	3435
838.956	3355
839.094	3389
839.231	3416
839.369	3507
839.506	3720
839.643	3557
839.781	3492
839.918	3492
840.055	3523
840.193	3519
840.33	3523
840.467	3534
840.604	3568
840.742	3793
840.879	3538
841.016	3534
841.153	3580
841.29	3736
841.427	3698
841.564	3701
841.701	3694
841.838	3705
841.975	3660
842.112	3770
842.249	3595
842.385	3637
842.522	3812
842.659	3698
842.796	3675
842.933	3698
843.069	3686
843.206	3667
843.343	3766
843.479	3717
843.616	3789
843.752	3682
843.889	3736
844.025	3857
844.162	3755
844.298	3827
844.435	3797
844.571	3774
844.708	3892
844.844	3953
844.98	3983
845.117	3998
845.253	3903
845.389	3846
845.525	4006
845.661	3911
845.798	3934
845.934	4017
846.07	3918
846.206	4013
846.342	4105
846.478	4078
846.614	3960
846.75	3926
846.886	3892
847.022	4010
847.158	3991
847.294	3975
847.429	4040
847.565	3960
847.701	4185
847.837	3876
847.972	3804
848.108	3991
848.244	3991
848.379	3854
848.515	3835
848.65	3804
848.786	3850
848.921	3846
849.057	3880
849.192	3915
849.328	3873
849.463	3918
849.598	3835
849.734	3857
849.869	3793
850.004	3774
850.14	3816
850.275	3831
850.41	3732
850.545	3785
850.68	3808
850.815	3797
850.95	3759
851.085	3911
851.22	3857
851.355	3823
851.49	3755
851.625	3743
851.76	3778
851.895	3728
852.03	3694
852.165	3774
852.299	3850
852.434	3846
852.569	3876
852.703	3884
852.838	3880
852.973	3953
853.107	3953
853.242	3903
853.376	3842
853.511	3743
853.645	3797
853.78	3937
853.914	3918
854.048	3873
854.183	3903
854.317	4010
854.451	4051
854.585	3922
854.72	3979
854.854	4055
854.988	3911
855.122	4006
855.256	3945
855.39	4048
855.524	4063
855.658	4090
855.792	4109
855.926	4135
856.06	4135
856.194	4188
856.327	4158
856.461	4128
856.595	4158
856.729	4215
856.862	4299
856.996	4246
857.13	4303
857.263	4318
857.397	4409
857.53	4242
857.664	4371
857.797	4379
857.931	4390
858.064	4398
858.197	4455
858.331	4405
858.464	4390
858.597	4352
858.731	4424
858.864	4440
858.997	4409
859.13	4538
859.263	4493
859.396	4607
859.529	4546
859.662	4519
859.795	4599
859.928	4580
860.061	4679
860.194	4710
860.327	4630
860.46	4683
860.592	4721
860.725	4759
860.858	4736
860.99	4702
861.123	4706
861.256	4622
861.388	4801
861.521	5554
861.653	4698
861.786	4672
861.918	4759
862.05	4786
862.183	4839
862.315	4892
862.447	4911
862.58	4831
862.712	4706
862.844	4717
862.976	4866
863.108	4858
863.24	5155
863.372	4816
863.504	4949
863.636	4915
863.768	4961
863.9	4968
864.032	4896
864.164	4889
864.296	5029
864.428	5037
864.559	5136
864.691	5166
864.823	5147
864.954	5143
865.086	5208
865.217	5124
865.349	5102
865.48	5128
865.612	5189
865.743	5227
865.875	5201
866.006	5216
866.137	5239
866.269	5212
866.4	5273
866.531	5197
866.662	5250
866.793	5223
866.924	5288
867.055	5318
867.186	5322
867.317	5345
867.448	5296
867.579	5360
867.71	5307
867.841	5357
867.972	5433
868.103	5421
868.233	5467
868.364	5524
868.495	5558
868.625	5634
868.756	5752
868.886	5722
869.017	5699
869.147	5821
869.278	5878
869.408	5851
869.539	5790
869.669	5889
869.799	5912
869.929	5950
870.06	5965
870.19	6232
870.32	6175
870.45	6247
870.58	6327
870.71	6490
870.84	6414
870.97	6380
871.1	6433
871.23	6623
871.36	6692
871.489	6627
871.619	6677
871.749	6810
871.879	6863
872.008	6939
872.138	6890
872.267	6985
872.397	6985
872.526	6954
872.656	7095
872.785	7213
872.915	7266
873.044	7582
873.173	7578
873.303	7639
873.432	7734
873.561	7826
873.69	7902
873.819	8065
873.948	8138
874.077	8298
874.206	8240
874.335	8389
874.464	8613
874.593	8891
874.722	8914
874.851	9085
874.979	9218
875.108	9340
875.237	9477
875.365	9511
875.494	9633
875.623	9770
875.751	9789
875.88	9998
876.008	10181
876.136	10211
876.265	10493
876.393	10733
876.521	10710
876.65	10771
876.778	10839
876.906	10847
877.034	10889
877.162	11117
877.29	11208
877.418	11322
877.546	11387
877.674	11402
877.802	11516
877.93	11573
878.058	11528
878.185	11539
878.313	11649
878.441	11710
878.568	11710
878.696	11840
878.824	11882
878.951	11897
879.079	11950
879.206	12114
879.333	11980
879.461	11893
879.588	12133
879.715	12045
879.842	12129
879.97	12125
880.097	11874
880.224	11920
880.351	11893
880.478	11874
880.605	11901
880.732	11813
880.859	12019
880.986	11870
881.112	11843
881.239	11726
881.366	11608
881.493	11581
881.619	11703
881.746	11543
881.872	11440
881.999	11570
882.125	11490
882.252	11532
882.378	11467
882.505	11600
882.631	11387
882.757	11220
882.883	11254
883.01	11250
883.136	11117
883.262	11155
883.388	11048
883.514	11159
883.64	11166
883.766	11025
883.892	11022
884.018	11086
884.143	11041
884.269	11121
884.395	10805
884.52	10801
884.646	10801
884.772	10702
884.897	10618
885.023	10736
885.148	10630
885.274	10763
885.399	10653
885.524	10618
885.65	10584
885.775	10618
885.9	10554
886.025	10588
886.15	10546
886.275	10436
886.4	10348
886.525	10333
886.65	10402
886.775	10363
886.9	10493
887.025	10569
887.149	10402
887.274	10204
887.399	10181
887.523	10128
887.648	10090
887.773	10109
887.897	10230
888.021	10253
888.146	10131
888.27	10154
888.395	10249
888.519	10192
888.643	10227
888.767	10128
888.891	10044
889.015	9994
889.139	10006
889.263	9994
889.387	10032
889.511	10086
889.635	9968
889.759	9941
889.883	9964
890.006	10051
890.13	10010
890.254	9865
890.377	10021
890.501	9880
890.624	9899
890.748	9865
890.871	9827
890.995	9762
891.118	9675
891.241	9736
891.364	9732
891.488	9835
891.611	9720
891.734	9732
891.857	9823
891.98	9762
892.103	9759
892.226	9682
892.349	9606
892.471	9545
892.594	9545
892.717	9610
892.839	9614
892.962	9610
893.085	9564
893.207	9519
893.33	9542
893.452	9568
893.575	9618
893.697	9534
893.819	9622
893.941	9618
894.064	9618
894.186	9393
894.308	9393
894.43	9561
894.552	9523
894.674	9511
894.796	9329
894.918	9340
895.04	9317
895.161	9344
895.283	9329
895.405	9188
895.526	9249
895.648	9188
895.769	9203
895.891	9249
896.012	9233
896.134	9157
896.255	9165
896.376	9138
896.498	9127
896.619	9055
896.74	9089
896.861	9089
896.982	9256
897.103	9294
897.224	9135
897.345	9077
897.466	8956
897.587	9036
897.708	9100
897.828	8971
897.949	8906
898.07	8941
898.19	8861
898.311	8998
898.431	8925
898.552	8971
898.672	8994
898.792	8971
898.913	8902
899.033	8731
899.153	8735
899.273	8663
899.393	8682
899.513	8678
899.633	8674
899.753	8720
899.873	8678
899.993	8640
900.113	8743
900.232	8720
900.352	8689
900.472	8610
900.591	8522
900.711	8530
900.83	8568
900.95	8659
901.069	8663
901.189	8476
901.308	8465
901.427	8347
901.546	8427
901.665	8408
901.784	8507
901.904	8408
902.023	8294
902.141	8244
902.26	8149
902.379	8244
902.498	8180
902.617	8237
902.735	8279
902.854	8279
902.973	8187
903.091	8092
903.21	8088
903.328	8145
903.446	8157
903.565	8069
903.683	8027
903.801	8024
903.919	8164
904.038	8153
904.156	8012
904.274	8081
904.392	7970
904.51	8020
904.627	7986
904.745	8024
904.863	8012
904.981	7913
905.098	7860
905.216	7887
905.334	7868
905.451	7906
905.569	7792
905.686	7868
905.803	7928
905.921	7803
906.038	7822
906.155	7750
906.272	7677
906.389	7757
906.506	7658
906.623	7605
906.74	7609
906.857	7525
906.974	7552
907.091	7609
907.208	7712
907.324	7624
907.441	7590
907.557	7483
907.674	7460
907.79	7400
907.907	7403
908.023	7438
908.139	7415
908.256	7324
908.372	7365
908.488	7324
908.604	7266
908.72	7179
908.836	7247
908.952	7263
909.068	7209
909.184	7289
909.3	7289
909.415	7301
909.531	7266
909.647	7084
909.762	7103
909.878	7133
909.993	7080
910.108	7118
910.224	7050
910.339	7053
910.454	7046
910.57	7027
910.685	6970
910.8	7149
910.915	7129
911.03	7019
911.145	6829
911.259	6856
911.374	6905
911.489	6787
911.604	6802
911.718	6688
911.833	6757
911.947	6639
912.062	6570
912.176	6700
912.291	6677
912.405	6684
912.519	6745
912.633	6840
912.748	6692
912.862	6673
912.976	6612
913.09	6467
913.204	6578
913.318	6544
913.431	6665
913.545	6639
913.659	6688
913.772	6635
913.886	6521
914	6544
914.113	6620
914.226	6570
914.34	6612
914.453	6486
914.566	6578
914.68	6544
914.793	6540
914.906	6422
915.019	6372
915.132	6357
915.245	6441
915.358	6483
915.47	6429
915.583	6517
915.696	6422
915.809	6494
915.921	6502
916.034	6372
916.146	6422
916.259	6418
916.371	6399
916.483	6437
916.595	6369
916.708	6391
916.82	6407
916.932	6338
917.044	6372
917.156	6380
917.268	6304
917.38	6399
917.491	6365
917.603	6334
917.715	6407
917.826	6388
917.938	6350
918.049	6232
918.161	6327
918.272	6422
918.384	6384
918.495	6327
918.606	6247
918.717	6190
918.828	6262
918.939	6296
919.05	6239
919.161	6254
919.272	6140
919.383	6129
919.494	6300
919.604	6460
919.715	6266
919.826	6175
919.936	6258
920.047	6334
920.157	6296
920.267	6494
920.378	6357
920.488	6232
920.598	6418
920.708	6551
920.818	6433
920.928	6414
921.038	6597
921.148	6509
921.258	6346
921.368	6266
921.477	6220
921.587	6140
921.697	6068
921.806	6186
921.916	6034
922.025	5942
922.134	5885
922.244	5912
922.353	5923
922.462	5901
922.571	5760
922.68	5668
922.789	5665
922.898	5684
923.007	5585
923.116	5680
923.224	5661
923.333	5642
923.442	5608
923.55	5554
923.659	5539
923.767	5661
923.876	5520
923.984	5570
924.092	5467
924.201	5577
924.309	5490
924.417	5524
924.525	5528
924.633	5505
924.741	6258
924.849	5379
924.956	5490
925.064	5292
925.172	5345
925.279	5277
925.387	5334
925.494	5326
925.602	5417
925.709	5391
925.816	5261
925.924	5239
926.031	5341
926.138	5269
926.245	5299
926.352	5170
926.459	5292
926.566	5326
926.673	5216
926.779	5128
926.886	5075
926.993	5029
927.099	4980
927.206	4999
927.312	4949
927.419	5018
927.525	4949
927.631	4999
927.737	4866
927.843	4854
927.95	4778
928.056	4790
928.162	4748
928.267	4824
928.373	5227
928.479	4809
928.585	4668
928.69	4759
928.796	4740
928.901	4698
929.007	4573
929.112	4691
929.218	4596
929.323	4618
929.428	4535
929.533	4679
929.638	4500
929.743	4519
929.848	4535
929.953	4474
930.058	4432
930.163	4360
930.267	4306
930.372	4443
930.477	4287
930.581	4451
930.685	4344
930.79	4207
930.894	4234
930.998	4242
931.103	4398
931.207	4173
931.311	4090
931.415	4090
931.519	3953
931.623	3975
