Data from glass_V78500241_2058.txt Node
Date: Wed Sep 01 19:28:46 CST 2021
User: usil
Spectrometer: V785-0024
Trigger mode: 0
Integration Time (sec): 4.000000E-1
Scans to average: 1
Nonlinearity correction enabled: false
Boxcar width: 0
Storing dark spectrum: false
XAxis mode: Wavelengths
Number of Pixels in Spectrum: 1024
>>>>>Begin Spectral Data<<<<<
801.071	3705
801.214	3751
801.356	3652
801.499	3709
801.641	3705
801.783	3755
801.926	3797
802.068	3804
802.211	3842
802.353	3861
802.496	3838
802.638	3880
802.78	3857
802.923	3903
803.065	3896
803.208	3827
803.35	3850
803.492	3892
803.635	3846
803.777	3785
803.919	3888
804.061	4139
804.204	3953
804.346	3945
804.488	3892
804.63	4006
804.773	4017
804.915	4006
805.057	4143
805.199	4059
805.341	4105
805.483	4166
805.626	4109
805.768	4101
805.91	4215
806.052	4249
806.194	4173
806.336	4398
806.478	4215
806.62	4204
806.762	4166
806.904	4249
807.046	4344
807.188	4219
807.33	4200
807.472	4227
807.614	4204
807.756	4223
807.898	4223
808.04	4211
808.182	4253
808.324	4249
808.465	4310
808.607	4413
808.749	4424
808.891	4493
809.033	4459
809.174	4402
809.316	4242
809.458	4246
809.6	4128
809.741	4158
809.883	4135
810.025	4135
810.166	4242
810.308	4154
810.45	4196
810.591	4192
810.733	4276
810.875	4462
811.016	4854
811.158	5151
811.299	5277
811.441	5280
811.582	5022
811.724	4725
811.865	4481
812.007	4466
812.148	4455
812.29	4379
812.431	4367
812.573	4379
812.714	4386
812.855	4367
812.997	4386
813.138	4443
813.279	4402
813.421	4413
813.562	4405
813.703	4329
813.845	4348
813.986	4246
814.127	4253
814.268	4249
814.41	4291
814.551	4249
814.692	4325
814.833	4261
814.974	4318
815.115	4341
815.256	4211
815.397	4242
815.539	4204
815.68	4196
815.821	4181
815.962	4295
816.103	4268
816.244	4246
816.385	4166
816.526	4276
816.666	4230
816.807	4112
816.948	4154
817.089	4185
817.23	4112
817.371	4044
817.512	4006
817.653	4067
817.793	4010
817.934	4059
818.075	4082
818.216	4090
818.356	4059
818.497	3975
818.638	3926
818.778	3907
818.919	3888
819.06	3838
819.2	3930
819.341	3842
819.481	3800
819.622	3918
819.762	3979
819.903	3953
820.043	3865
820.184	3816
820.324	3778
820.465	3892
820.605	3880
820.746	3846
820.886	3785
821.026	3907
821.167	3941
821.307	3983
821.447	3972
821.588	3922
821.728	3941
821.868	3953
822.008	3873
822.149	3892
822.289	3899
822.429	3808
822.569	3778
822.709	3759
822.849	3675
822.99	3679
823.13	3755
823.27	3728
823.41	3705
823.55	3762
823.69	3720
823.83	3766
823.97	3682
824.11	3671
824.25	3561
824.389	3610
824.529	3625
824.669	3622
824.809	3690
824.949	3717
825.089	3724
825.228	3701
825.368	3595
825.508	3545
825.648	3553
825.787	3603
825.927	3618
826.067	3641
826.206	3679
826.346	3789
826.485	3827
826.625	3903
826.765	3968
826.904	3797
827.044	3625
827.183	3561
827.323	3439
827.462	3473
827.601	3416
827.741	3420
827.88	3473
828.02	3386
828.159	3458
828.298	3473
828.437	3504
828.577	3454
828.716	3587
828.855	3496
828.994	3378
829.134	3344
829.273	3386
829.412	3340
829.551	3310
829.69	3386
829.829	3443
829.968	3515
830.107	3462
830.246	3458
830.385	3382
830.524	3355
830.663	3298
830.802	3264
830.941	3192
831.08	3184
831.219	3260
831.357	3245
831.496	3374
831.635	3218
831.774	3188
831.913	3195
832.051	3093
832.19	3135
832.329	3214
832.467	3142
832.606	3097
832.744	3173
832.883	3226
833.022	3169
833.16	3272
833.299	3287
833.437	3367
833.576	3374
833.714	3382
833.852	3420
833.991	3447
834.129	3469
834.267	3439
834.406	3386
834.544	3443
834.682	3420
834.821	3386
834.959	3553
835.097	3439
835.235	3511
835.373	3492
835.511	3481
835.65	3443
835.788	3485
835.926	3378
836.064	3389
836.202	3393
836.34	3580
836.478	3561
836.615	3557
836.753	3576
836.891	3656
837.029	3580
837.167	3576
837.305	3584
837.443	3534
837.58	3454
837.718	3629
837.856	3561
837.993	3526
838.131	3564
838.269	3534
838.406	3606
838.544	3545
838.681	3488
838.819	3466
838.956	3355
839.094	3393
839.231	3462
839.369	3485
839.506	3720
839.643	3576
839.781	3488
839.918	3477
840.055	3542
840.193	3545
840.33	3485
840.467	3500
840.604	3599
840.742	3812
840.879	3542
841.016	3542
841.153	3587
841.29	3743
841.427	3701
841.564	3705
841.701	3770
841.838	3701
841.975	3667
842.112	3686
842.249	3637
842.385	3667
842.522	3812
842.659	3682
842.796	3644
842.933	3682
843.069	3709
843.206	3637
843.343	3827
843.479	3778
843.616	3800
843.752	3713
843.889	3705
844.025	3850
844.162	3762
844.298	3838
844.435	3789
844.571	3804
844.708	3884
844.844	3979
844.98	4010
845.117	4059
845.253	3953
845.389	3896
845.525	3975
845.661	3968
845.798	3915
845.934	3983
846.07	3922
846.206	4074
846.342	4112
846.478	4036
846.614	3983
846.75	3903
846.886	3903
847.022	4013
847.158	3964
847.294	3972
847.429	4029
847.565	3991
847.701	4215
847.837	3861
847.972	3907
848.108	3953
848.244	3975
848.379	3861
848.515	3846
848.65	3800
848.786	3812
848.921	3804
849.057	3941
849.192	3918
849.328	3880
849.463	3899
849.598	3903
849.734	3861
849.869	3861
850.004	3774
850.14	3838
850.275	3751
850.41	3751
850.545	3762
850.68	3759
850.815	3728
850.95	3816
851.085	3876
851.22	3869
851.355	3823
851.49	3736
851.625	3800
851.76	3797
851.895	3743
852.03	3755
852.165	3827
852.299	3846
852.434	3880
852.569	3831
852.703	3907
852.838	3953
852.973	3991
853.107	3983
853.242	3865
853.376	3835
853.511	3797
853.645	3838
853.78	3998
853.914	3934
854.048	3915
854.183	3854
854.317	3941
854.451	4044
854.585	3930
854.72	3884
854.854	4010
854.988	3937
855.122	4017
855.256	3884
855.39	4040
855.524	4124
855.658	4029
855.792	4116
855.926	4120
856.06	4162
856.194	4200
856.327	4128
856.461	4128
856.595	4177
856.729	4154
856.862	4257
856.996	4230
857.13	4299
857.263	4348
857.397	4341
857.53	4284
857.664	4352
857.797	4383
857.931	4379
858.064	4363
858.197	4421
858.331	4344
858.464	4379
858.597	4360
858.731	4436
858.864	4462
858.997	4402
859.13	4538
859.263	4527
859.396	4588
859.529	4546
859.662	4500
859.795	4500
859.928	4573
860.061	4649
860.194	4736
860.327	4626
860.46	4607
860.592	4736
860.725	4740
860.858	4778
860.99	4691
861.123	4706
861.256	4729
861.388	4778
861.521	5379
861.653	4740
861.786	4729
861.918	4752
862.05	4774
862.183	4862
862.315	4896
862.447	4919
862.58	4889
862.712	4774
862.844	4771
862.976	4881
863.108	4843
863.24	5128
863.372	4801
863.504	4896
863.636	4904
863.768	4961
863.9	4938
864.032	4934
864.164	4980
864.296	5006
864.428	5117
864.559	5079
864.691	5109
864.823	5098
864.954	5094
865.086	5109
865.217	5098
865.349	5109
865.48	5124
865.612	5159
865.743	5280
865.875	5193
866.006	5185
866.137	5189
866.269	5254
866.4	5254
866.531	5193
866.662	5216
866.793	5280
866.924	5261
867.055	5376
867.186	5345
867.317	5345
867.448	5318
867.579	5372
867.71	5433
867.841	5414
867.972	5452
868.103	5478
868.233	5512
868.364	5482
868.495	5509
868.625	5729
868.756	5779
868.886	5642
869.017	5710
869.147	5889
869.278	5824
869.408	5783
869.539	5836
869.669	5923
869.799	5893
869.929	5954
870.06	5999
870.19	6175
870.32	6117
870.45	6247
870.58	6319
870.71	6391
870.84	6471
870.97	6433
871.1	6483
871.23	6585
871.36	6688
871.489	6696
871.619	6688
871.749	6783
871.879	6905
872.008	6966
872.138	6962
872.267	7008
872.397	6985
872.526	7110
872.656	7053
872.785	7213
872.915	7419
873.044	7533
873.173	7514
873.303	7651
873.432	7742
873.561	7807
873.69	7974
873.819	8024
873.948	8191
874.077	8214
874.206	8332
874.335	8377
874.464	8629
874.593	8849
874.722	8883
874.851	9173
874.979	9237
875.108	9386
875.237	9416
875.365	9534
875.494	9663
875.623	9762
875.751	9831
875.88	10025
876.008	10078
876.136	10227
876.265	10478
876.393	10683
876.521	10717
876.65	10828
876.778	10850
876.906	10854
877.034	11014
877.162	11140
877.29	11098
877.418	11299
877.546	11429
877.674	11482
877.802	11486
877.93	11554
878.058	11623
878.185	11570
878.313	11684
878.441	11741
878.568	11627
878.696	11832
878.824	11783
878.951	11939
879.079	12076
879.206	12098
879.333	12038
879.461	12019
879.588	11973
879.715	12041
879.842	12186
879.97	11969
880.097	11946
880.224	11935
880.351	11859
880.478	11935
880.605	11836
880.732	11824
880.859	11912
880.986	11836
881.112	11901
881.239	11741
881.366	11668
881.493	11592
881.619	11501
881.746	11684
881.872	11623
881.999	11463
882.125	11512
882.252	11566
882.378	11497
882.505	11551
882.631	11315
882.757	11307
882.883	11337
883.01	11296
883.136	11208
883.262	11105
883.388	10991
883.514	11201
883.64	11201
883.766	11147
883.892	11006
884.018	10946
884.143	11052
884.269	11193
884.395	10774
884.52	10759
884.646	10774
884.772	10771
884.897	10588
885.023	10634
885.148	10702
885.274	10683
885.399	10714
885.524	10611
885.65	10622
885.775	10531
885.9	10527
886.025	10588
886.15	10561
886.275	10443
886.4	10382
886.525	10360
886.65	10341
886.775	10341
886.9	10413
887.025	10558
887.149	10291
887.274	10280
887.399	10169
887.523	10166
887.648	10116
887.773	10063
887.897	10276
888.021	10211
888.146	10211
888.27	10227
888.395	10246
888.519	10185
888.643	10158
888.767	10211
888.891	10090
889.015	10032
889.139	10006
889.263	9972
889.387	10109
889.511	10124
889.635	10135
889.759	9991
889.883	9884
890.006	9987
890.13	10131
890.254	9838
890.377	9945
890.501	9838
890.624	9922
890.748	9907
890.871	9785
890.995	9717
891.118	9667
891.241	9713
891.364	9770
891.488	9842
891.611	9781
891.734	9720
891.857	9781
891.98	9641
892.103	9789
892.226	9679
892.349	9622
892.471	9485
892.594	9644
892.717	9572
892.839	9576
892.962	9549
893.085	9618
893.207	9519
893.33	9515
893.452	9488
893.575	9614
893.697	9473
893.819	9652
893.941	9591
894.064	9603
894.186	9420
894.308	9428
894.43	9473
894.552	9599
894.674	9534
894.796	9386
894.918	9344
895.04	9340
895.161	9386
895.283	9412
895.405	9207
895.526	9310
895.648	9329
895.769	9245
895.891	9211
896.012	9272
896.134	9226
896.255	9233
896.376	9173
896.498	9268
896.619	9119
896.74	9089
896.861	9093
896.982	9226
897.103	9313
897.224	9222
897.345	9051
897.466	9001
897.587	9039
897.708	9116
897.828	9108
897.949	8929
898.07	8834
898.19	8914
898.311	9047
898.431	8830
898.552	8906
898.672	8944
898.792	8967
898.913	8956
899.033	8842
899.153	8701
899.273	8648
899.393	8724
899.513	8701
899.633	8678
899.753	8750
899.873	8682
899.993	8739
900.113	8735
900.232	8655
900.352	8598
900.472	8575
900.591	8503
900.711	8613
900.83	8583
900.95	8670
901.069	8727
901.189	8514
901.308	8389
901.427	8381
901.546	8495
901.665	8461
901.784	8454
901.904	8343
902.023	8301
902.141	8214
902.26	8134
902.379	8324
902.498	8202
902.617	8225
902.735	8237
902.854	8275
902.973	8317
903.091	8096
903.21	8161
903.328	8164
903.446	8096
903.565	8024
903.683	8092
903.801	8043
903.919	8054
904.038	8142
904.156	7974
904.274	8073
904.392	8027
904.51	8008
904.627	8119
904.745	8096
904.863	8081
904.981	7883
905.098	7841
905.216	7833
905.334	7868
905.451	7875
905.569	7940
905.686	7947
905.803	7947
905.921	7727
906.038	7852
906.155	7780
906.272	7704
906.389	7700
906.506	7586
906.623	7601
906.74	7655
906.857	7548
906.974	7582
907.091	7643
907.208	7712
907.324	7605
907.441	7578
907.557	7411
907.674	7400
907.79	7396
907.907	7335
908.023	7453
908.139	7460
908.256	7411
908.372	7324
908.488	7282
908.604	7240
908.72	7244
908.836	7247
908.952	7202
909.068	7266
909.184	7331
909.3	7285
909.415	7228
909.531	7282
909.647	7133
909.762	7122
909.878	7084
909.993	7103
910.108	7122
910.224	7053
910.339	7095
910.454	6973
910.57	6981
910.685	6924
910.8	7156
910.915	7107
911.03	6996
911.145	6905
911.259	6890
911.374	6886
911.489	6829
911.604	6818
911.718	6749
911.833	6673
911.947	6616
912.062	6585
912.176	6681
912.291	6753
912.405	6658
912.519	6852
912.633	6848
912.748	6741
912.862	6741
912.976	6635
913.09	6544
913.204	6585
913.318	6566
913.431	6700
913.545	6684
913.659	6715
913.772	6578
913.886	6578
914	6532
914.113	6612
914.226	6673
914.34	6604
914.453	6448
914.566	6544
914.68	6494
914.793	6490
914.906	6391
915.019	6372
915.132	6399
915.245	6403
915.358	6418
915.47	6452
915.583	6452
915.696	6407
915.809	6521
915.921	6490
916.034	6369
916.146	6399
916.259	6346
916.371	6525
916.483	6513
916.595	6418
916.708	6445
916.82	6346
916.932	6391
917.044	6308
917.156	6399
917.268	6285
917.38	6365
917.491	6350
917.603	6342
917.715	6372
917.826	6380
917.938	6308
918.049	6277
918.161	6342
918.272	6395
918.384	6433
918.495	6384
918.606	6273
918.717	6197
918.828	6247
918.939	6243
919.05	6209
919.161	6247
919.272	6068
919.383	6117
919.494	6289
919.604	6399
919.715	6376
919.826	6247
919.936	6251
920.047	6395
920.157	6277
920.267	6422
920.378	6300
920.488	6266
920.598	6445
920.708	6551
920.818	6506
920.928	6502
921.038	6566
921.148	6582
921.258	6304
921.368	6296
921.477	6194
921.587	6163
921.697	6083
921.806	6182
921.916	6060
922.025	5935
922.134	5935
922.244	5893
922.353	5931
922.462	5805
922.571	5813
922.68	5722
922.789	5699
922.898	5668
923.007	5691
923.116	5714
923.224	5630
923.333	5707
923.442	5558
923.55	5600
923.659	5600
923.767	5653
923.876	5535
923.984	5600
924.092	5532
924.201	5551
924.309	5524
924.417	5596
924.525	5493
924.633	5512
924.741	6228
924.849	5383
924.956	5490
925.064	5326
925.172	5265
925.279	5307
925.387	5376
925.494	5326
925.602	5372
925.709	5372
925.816	5231
925.924	5303
926.031	5376
926.138	5239
926.245	5357
926.352	5254
926.459	5349
926.566	5315
926.673	5204
926.779	5102
926.886	5128
926.993	4999
927.099	4991
927.206	4911
927.312	4892
927.419	4987
927.525	5029
927.631	4927
927.737	4831
927.843	4835
927.95	4755
928.056	4824
928.162	4809
928.267	4847
928.373	5204
928.479	4850
928.585	4672
928.69	4759
928.796	4763
928.901	4691
929.007	4607
929.112	4641
929.218	4656
929.323	4630
929.428	4535
929.533	4664
929.638	4554
929.743	4561
929.848	4535
929.953	4538
930.058	4493
930.163	4295
930.267	4360
930.372	4394
930.477	4299
930.581	4455
930.685	4360
930.79	4238
930.894	4276
930.998	4234
931.103	4371
931.207	4135
931.311	4051
931.415	4013
931.519	3956
931.623	3945
