Data from glass_V78500241_1487.txt Node
Date: Wed Sep 01 19:24:48 CST 2021
User: usil
Spectrometer: V785-0024
Trigger mode: 0
Integration Time (sec): 4.000000E-1
Scans to average: 1
Nonlinearity correction enabled: false
Boxcar width: 0
Storing dark spectrum: false
XAxis mode: Wavelengths
Number of Pixels in Spectrum: 1024
>>>>>Begin Spectral Data<<<<<
801.071	3800
801.214	3724
801.356	3724
801.499	3743
801.641	3732
801.783	3785
801.926	3816
802.068	3823
802.211	3835
802.353	3884
802.496	3873
802.638	3888
802.78	3907
802.923	3956
803.065	3937
803.208	3835
803.35	3876
803.492	3903
803.635	3907
803.777	3759
803.919	3869
804.061	4150
804.204	3918
804.346	3934
804.488	3934
804.63	4055
804.773	3949
804.915	4010
805.057	4150
805.199	4082
805.341	4071
805.483	4116
805.626	4120
805.768	4097
805.91	4234
806.052	4268
806.194	4177
806.336	4352
806.478	4242
806.62	4147
806.762	4154
806.904	4276
807.046	4314
807.188	4223
807.33	4166
807.472	4253
807.614	4181
807.756	4242
807.898	4223
808.04	4257
808.182	4284
808.324	4268
808.465	4390
808.607	4481
808.749	4478
808.891	4417
809.033	4508
809.174	4447
809.316	4299
809.458	4242
809.6	4135
809.741	4109
809.883	4112
810.025	4188
810.166	4204
810.308	4219
810.45	4272
810.591	4223
810.733	4303
810.875	4519
811.016	4763
811.158	5155
811.299	5296
811.441	5284
811.582	5079
811.724	4714
811.865	4459
812.007	4466
812.148	4455
812.29	4371
812.431	4421
812.573	4371
812.714	4402
812.855	4421
812.997	4402
813.138	4421
813.279	4409
813.421	4394
813.562	4367
813.703	4303
813.845	4333
813.986	4265
814.127	4257
814.268	4253
814.41	4265
814.551	4276
814.692	4348
814.833	4253
814.974	4299
815.115	4352
815.256	4299
815.397	4223
815.539	4242
815.68	4188
815.821	4223
815.962	4310
816.103	4310
816.244	4215
816.385	4223
816.526	4249
816.666	4207
816.807	4097
816.948	4128
817.089	4135
817.23	4128
817.371	4074
817.512	4071
817.653	4120
817.793	4059
817.934	4044
818.075	4059
818.216	4082
818.356	4055
818.497	3972
818.638	3880
818.778	3911
818.919	3949
819.06	3888
819.2	3934
819.341	3846
819.481	3854
819.622	3918
819.762	4029
819.903	3960
820.043	3857
820.184	3789
820.324	3838
820.465	3857
820.605	3838
820.746	3892
820.886	3800
821.026	3907
821.167	3903
821.307	3994
821.447	3983
821.588	3979
821.728	3930
821.868	3987
822.008	3854
822.149	3880
822.289	3896
822.429	3808
822.569	3774
822.709	3781
822.849	3682
822.99	3736
823.13	3759
823.27	3808
823.41	3740
823.55	3755
823.69	3717
823.83	3766
823.97	3682
824.11	3622
824.25	3591
824.389	3675
824.529	3682
824.669	3682
824.809	3724
824.949	3740
825.089	3740
825.228	3728
825.368	3580
825.508	3534
825.648	3545
825.787	3591
825.927	3633
826.067	3576
826.206	3663
826.346	3793
826.485	3869
826.625	3857
826.765	3922
826.904	3808
827.044	3610
827.183	3557
827.323	3431
827.462	3511
827.601	3428
827.741	3431
827.88	3412
828.02	3397
828.159	3443
828.298	3488
828.437	3534
828.577	3496
828.716	3576
828.855	3515
828.994	3363
829.134	3409
829.273	3389
829.412	3363
829.551	3332
829.69	3359
829.829	3466
829.968	3515
830.107	3409
830.246	3454
830.385	3382
830.524	3370
830.663	3260
830.802	3275
830.941	3203
831.08	3207
831.219	3226
831.357	3237
831.496	3370
831.635	3226
831.774	3176
831.913	3199
832.051	3123
832.19	3184
832.329	3165
832.467	3146
832.606	3135
832.744	3184
832.883	3188
833.022	3237
833.16	3275
833.299	3294
833.437	3348
833.576	3336
833.714	3447
833.852	3443
833.991	3466
834.129	3435
834.267	3477
834.406	3378
834.544	3431
834.682	3435
834.821	3397
834.959	3564
835.097	3378
835.235	3488
835.373	3485
835.511	3492
835.65	3466
835.788	3492
835.926	3389
836.064	3386
836.202	3412
836.34	3580
836.478	3610
836.615	3572
836.753	3591
836.891	3633
837.029	3599
837.167	3591
837.305	3545
837.443	3534
837.58	3462
837.718	3622
837.856	3553
837.993	3519
838.131	3622
838.269	3629
838.406	3591
838.544	3538
838.681	3458
838.819	3447
838.956	3370
839.094	3397
839.231	3473
839.369	3526
839.506	3759
839.643	3606
839.781	3496
839.918	3454
840.055	3500
840.193	3519
840.33	3511
840.467	3549
840.604	3625
840.742	3793
840.879	3538
841.016	3614
841.153	3637
841.29	3762
841.427	3717
841.564	3713
841.701	3720
841.838	3728
841.975	3713
842.112	3709
842.249	3641
842.385	3622
842.522	3827
842.659	3698
842.796	3728
842.933	3713
843.069	3740
843.206	3690
843.343	3842
843.479	3766
843.616	3827
843.752	3709
843.889	3663
844.025	3831
844.162	3759
844.298	3819
844.435	3781
844.571	3747
844.708	3892
844.844	3983
844.98	3994
845.117	3972
845.253	3934
845.389	3888
845.525	3937
845.661	3937
845.798	3907
845.934	3975
846.07	3934
846.206	4006
846.342	4150
846.478	4036
846.614	4002
846.75	3922
846.886	3907
847.022	4055
847.158	4006
847.294	3991
847.429	4040
847.565	4002
847.701	4207
847.837	3861
847.972	3903
848.108	4010
848.244	3983
848.379	3857
848.515	3827
848.65	3835
848.786	3819
848.921	3880
849.057	3945
849.192	3934
849.328	3876
849.463	3953
849.598	3835
849.734	3854
849.869	3808
850.004	3762
850.14	3842
850.275	3789
850.41	3728
850.545	3743
850.68	3800
850.815	3812
850.95	3823
851.085	3934
851.22	3869
851.355	3778
851.49	3812
851.625	3819
851.76	3762
851.895	3728
852.03	3743
852.165	3751
852.299	3827
852.434	3915
852.569	3873
852.703	3915
852.838	3934
852.973	3968
853.107	4021
853.242	3884
853.376	3873
853.511	3800
853.645	3789
853.78	3960
853.914	3896
854.048	3926
854.183	3918
854.317	3949
854.451	4063
854.585	3926
854.72	3918
854.854	4017
854.988	3953
855.122	4017
855.256	3892
855.39	4032
855.524	4090
855.658	4086
855.792	4109
855.926	4135
856.06	4158
856.194	4242
856.327	4166
856.461	4135
856.595	4192
856.729	4154
856.862	4268
856.996	4268
857.13	4246
857.263	4329
857.397	4383
857.53	4287
857.664	4436
857.797	4402
857.931	4436
858.064	4402
858.197	4451
858.331	4352
858.464	4337
858.597	4341
858.731	4436
858.864	4466
858.997	4409
859.13	4485
859.263	4542
859.396	4565
859.529	4550
859.662	4512
859.795	4531
859.928	4584
860.061	4733
860.194	4744
860.327	4656
860.46	4592
860.592	4725
860.725	4748
860.858	4752
860.99	4725
861.123	4641
861.256	4675
861.388	4759
861.521	5337
861.653	4691
861.786	4759
861.918	4733
862.05	4850
862.183	4866
862.315	4835
862.447	4908
862.58	4889
862.712	4786
862.844	4763
862.976	4847
863.108	4915
863.24	5307
863.372	4831
863.504	4919
863.636	4908
863.768	5010
863.9	4995
864.032	4896
864.164	4995
864.296	5045
864.428	5113
864.559	5094
864.691	5162
864.823	5166
864.954	5109
865.086	5124
865.217	5166
865.349	5143
865.48	5128
865.612	5208
865.743	5258
865.875	5181
866.006	5201
866.137	5242
866.269	5197
866.4	5296
866.531	5299
866.662	5197
866.793	5265
866.924	5322
867.055	5433
867.186	5345
867.317	5315
867.448	5265
867.579	5334
867.71	5414
867.841	5364
867.972	5421
868.103	5493
868.233	5471
868.364	5539
868.495	5566
868.625	5691
868.756	5779
868.886	5684
869.017	5779
869.147	5889
869.278	5821
869.408	5824
869.539	5821
869.669	5935
869.799	5866
869.929	5984
870.06	6072
870.19	6201
870.32	6182
870.45	6258
870.58	6353
870.71	6467
870.84	6456
870.97	6506
871.1	6452
871.23	6604
871.36	6677
871.489	6604
871.619	6730
871.749	6764
871.879	6837
872.008	6977
872.138	6951
872.267	7012
872.397	6951
872.526	7042
872.656	7099
872.785	7187
872.915	7453
873.044	7464
873.173	7559
873.303	7693
873.432	7772
873.561	7849
873.69	7894
873.819	7997
873.948	8180
874.077	8275
874.206	8374
874.335	8434
874.464	8674
874.593	8807
874.722	8944
874.851	9055
874.979	9283
875.108	9458
875.237	9553
875.365	9473
875.494	9618
875.623	9911
875.751	9907
875.88	10017
876.008	10169
876.136	10284
876.265	10497
876.393	10729
876.521	10668
876.65	10850
876.778	10809
876.906	10885
877.034	11006
877.162	11060
877.29	11064
877.418	11356
877.546	11322
877.674	11455
877.802	11463
877.93	11638
878.058	11589
878.185	11573
878.313	11665
878.441	11760
878.568	11661
878.696	11817
878.824	11786
878.951	12007
879.079	12117
879.206	12110
879.333	12083
879.461	11996
879.588	12148
879.715	11977
879.842	12175
879.97	12041
880.097	11904
880.224	11874
880.351	11870
880.478	11885
880.605	11866
880.732	11771
880.859	12064
880.986	11832
881.112	11817
881.239	11699
881.366	11634
881.493	11661
881.619	11509
881.746	11604
881.872	11573
881.999	11520
882.125	11433
882.252	11604
882.378	11532
882.505	11596
882.631	11364
882.757	11307
882.883	11288
883.01	11261
883.136	11265
883.262	11109
883.388	11117
883.514	11216
883.64	11185
883.766	11147
883.892	11006
884.018	10927
884.143	11033
884.269	11109
884.395	10881
884.52	10786
884.646	10854
884.772	10752
884.897	10706
885.023	10710
885.148	10679
885.274	10744
885.399	10790
885.524	10630
885.65	10558
885.775	10603
885.9	10569
886.025	10630
886.15	10558
886.275	10405
886.4	10325
886.525	10390
886.65	10432
886.775	10348
886.9	10508
887.025	10542
887.149	10417
887.274	10238
887.399	10265
887.523	10227
887.648	10154
887.773	10230
887.897	10295
888.021	10166
888.146	10128
888.27	10253
888.395	10253
888.519	10162
888.643	10204
888.767	10200
888.891	10105
889.015	9968
889.139	10109
889.263	10013
889.387	10067
889.511	10131
889.635	10147
889.759	9892
889.883	9991
890.006	10036
890.13	10101
890.254	9922
890.377	9865
890.501	9774
890.624	9880
890.748	9869
890.871	9751
890.995	9759
891.118	9751
891.241	9778
891.364	9759
891.488	9819
891.611	9709
891.734	9701
891.857	9816
891.98	9831
892.103	9709
892.226	9770
892.349	9663
892.471	9530
892.594	9568
892.717	9591
892.839	9587
892.962	9576
893.085	9682
893.207	9633
893.33	9538
893.452	9549
893.575	9644
893.697	9545
893.819	9682
893.941	9679
894.064	9644
894.186	9431
894.308	9374
894.43	9553
894.552	9568
894.674	9496
894.796	9431
894.918	9310
895.04	9310
895.161	9431
895.283	9351
895.405	9256
895.526	9264
895.648	9245
895.769	9142
895.891	9317
896.012	9306
896.134	9313
896.255	9203
896.376	9081
896.498	9161
896.619	9192
896.74	9070
896.861	9146
896.982	9249
897.103	9245
897.224	9165
897.345	9043
897.466	9001
897.587	8914
897.708	9081
897.828	9009
897.949	8994
898.07	8895
898.19	8937
898.311	9028
898.431	8887
898.552	8834
898.672	8933
898.792	8986
898.913	8864
899.033	8830
899.153	8781
899.273	8663
899.393	8686
899.513	8716
899.633	8762
899.753	8746
899.873	8735
899.993	8773
900.113	8610
900.232	8682
900.352	8651
900.472	8613
900.591	8495
900.711	8674
900.83	8537
900.95	8659
901.069	8667
901.189	8594
901.308	8320
901.427	8347
901.546	8427
901.665	8427
901.784	8473
901.904	8377
902.023	8320
902.141	8256
902.26	8282
902.379	8263
902.498	8233
902.617	8259
902.735	8339
902.854	8309
902.973	8233
903.091	8130
903.21	8130
903.328	8183
903.446	8111
903.565	8096
903.683	8115
903.801	8084
903.919	8164
904.038	8153
904.156	7947
904.274	8145
904.392	7993
904.51	8107
904.627	8001
904.745	8016
904.863	8062
904.981	7921
905.098	7875
905.216	7879
905.334	7890
905.451	7913
905.569	7875
905.686	7955
905.803	7883
905.921	7788
906.038	7906
906.155	7830
906.272	7731
906.389	7742
906.506	7605
906.623	7624
906.74	7597
906.857	7552
906.974	7518
907.091	7666
907.208	7715
907.324	7594
907.441	7559
907.557	7476
907.674	7419
907.79	7419
907.907	7430
908.023	7449
908.139	7422
908.256	7430
908.372	7392
908.488	7400
908.604	7270
908.72	7255
908.836	7285
908.952	7270
909.068	7259
909.184	7316
909.3	7266
909.415	7316
909.531	7327
909.647	7084
909.762	7149
909.878	7088
909.993	7198
910.108	7164
910.224	7095
910.339	7171
910.454	7038
910.57	6996
910.685	6924
910.8	7126
910.915	7069
911.03	7012
911.145	6878
911.259	6897
911.374	6943
911.489	6905
911.604	6760
911.718	6715
911.833	6700
911.947	6658
912.062	6604
912.176	6696
912.291	6715
912.405	6677
912.519	6818
912.633	6753
912.748	6749
912.862	6696
912.976	6650
913.09	6540
913.204	6642
913.318	6608
913.431	6642
913.545	6658
913.659	6707
913.772	6688
913.886	6574
914	6582
914.113	6616
914.226	6639
914.34	6532
914.453	6532
914.566	6642
914.68	6528
914.793	6517
914.906	6388
915.019	6483
915.132	6391
915.245	6464
915.358	6452
915.47	6448
915.583	6448
915.696	6544
915.809	6517
915.921	6574
916.034	6391
916.146	6426
916.259	6426
916.371	6464
916.483	6460
916.595	6445
916.708	6384
916.82	6407
916.932	6342
917.044	6399
917.156	6410
917.268	6311
917.38	6376
917.491	6300
917.603	6338
917.715	6361
917.826	6426
917.938	6281
918.049	6216
918.161	6266
918.272	6452
918.384	6445
918.495	6311
918.606	6243
918.717	6235
918.828	6262
918.939	6258
919.05	6228
919.161	6277
919.272	6110
919.383	6171
919.494	6338
919.604	6376
919.715	6277
919.826	6239
919.936	6304
920.047	6327
920.157	6201
920.267	6448
920.378	6338
920.488	6258
920.598	6490
920.708	6570
920.818	6464
920.928	6475
921.038	6612
921.148	6585
921.258	6353
921.368	6224
921.477	6232
921.587	6201
921.697	6117
921.806	6197
921.916	6068
922.025	5927
922.134	5939
922.244	5893
922.353	5965
922.462	5802
922.571	5771
922.68	5714
922.789	5691
922.898	5684
923.007	5627
923.116	5672
923.224	5688
923.333	5676
923.442	5604
923.55	5573
923.659	5615
923.767	5630
923.876	5554
923.984	5596
924.092	5547
924.201	5524
924.309	5558
924.417	5558
924.525	5501
924.633	5516
924.741	6121
924.849	5364
924.956	5448
925.064	5406
925.172	5357
925.279	5277
925.387	5353
925.494	5322
925.602	5429
925.709	5414
925.816	5311
925.924	5311
926.031	5349
926.138	5303
926.245	5349
926.352	5208
926.459	5360
926.566	5292
926.673	5254
926.779	5113
926.886	5143
926.993	5056
927.099	5006
927.206	4938
927.312	4930
927.419	5098
927.525	5003
927.631	5006
927.737	4900
927.843	4862
927.95	4778
928.056	4850
928.162	4793
928.267	4839
928.373	5242
928.479	4835
928.585	4679
928.69	4786
928.796	4744
928.901	4672
929.007	4573
929.112	4694
929.218	4641
929.323	4573
929.428	4596
929.533	4675
929.638	4535
929.743	4523
929.848	4577
929.953	4508
930.058	4417
930.163	4329
930.267	4363
930.372	4443
930.477	4344
930.581	4455
930.685	4356
930.79	4299
930.894	4257
930.998	4261
931.103	4363
931.207	4147
931.311	4078
931.415	4044
931.519	3926
931.623	3915
