Data from glass_V78500241_819.txt Node
Date: Wed Sep 01 19:20:10 CST 2021
User: usil
Spectrometer: V785-0024
Trigger mode: 0
Integration Time (sec): 4.000000E-1
Scans to average: 1
Nonlinearity correction enabled: false
Boxcar width: 0
Storing dark spectrum: false
XAxis mode: Wavelengths
Number of Pixels in Spectrum: 1024
>>>>>Begin Spectral Data<<<<<
801.071	3755
801.214	3762
801.356	3755
801.499	3770
801.641	3743
801.783	3774
801.926	3896
802.068	3804
802.211	3865
802.353	3850
802.496	3857
802.638	3865
802.78	3949
802.923	3960
803.065	3907
803.208	3846
803.35	3888
803.492	3911
803.635	3922
803.777	3827
803.919	3876
804.061	4166
804.204	3975
804.346	3991
804.488	3926
804.63	4036
804.773	3979
804.915	4040
805.057	4135
805.199	4071
805.341	4105
805.483	4128
805.626	4131
805.768	4158
805.91	4215
806.052	4215
806.194	4246
806.336	4333
806.478	4204
806.62	4162
806.762	4234
806.904	4295
807.046	4344
807.188	4257
807.33	4204
807.472	4204
807.614	4192
807.756	4261
807.898	4211
808.04	4200
808.182	4242
808.324	4322
808.465	4398
808.607	4466
808.749	4443
808.891	4470
809.033	4512
809.174	4413
809.316	4295
809.458	4272
809.6	4196
809.741	4177
809.883	4192
810.025	4223
810.166	4230
810.308	4242
810.45	4276
810.591	4230
810.733	4284
810.875	4531
811.016	4854
811.158	5147
811.299	5326
811.441	5315
811.582	5094
811.724	4694
811.865	4481
812.007	4466
812.148	4436
812.29	4421
812.431	4379
812.573	4409
812.714	4405
812.855	4451
812.997	4455
813.138	4489
813.279	4421
813.421	4367
813.562	4337
813.703	4329
813.845	4341
813.986	4265
814.127	4211
814.268	4299
814.41	4310
814.551	4268
814.692	4386
814.833	4272
814.974	4287
815.115	4367
815.256	4284
815.397	4246
815.539	4272
815.68	4230
815.821	4207
815.962	4306
816.103	4325
816.244	4287
816.385	4249
816.526	4303
816.666	4249
816.807	4071
816.948	4162
817.089	4177
817.23	4101
817.371	4048
817.512	4090
817.653	4051
817.793	4017
817.934	4109
818.075	4120
818.216	4147
818.356	4067
818.497	3987
818.638	3941
818.778	3934
818.919	3922
819.06	3888
819.2	3903
819.341	3880
819.481	3812
819.622	3880
819.762	4021
819.903	3972
820.043	3869
820.184	3800
820.324	3778
820.465	3918
820.605	3876
820.746	3873
820.886	3797
821.026	3930
821.167	3937
821.307	3979
821.447	4013
821.588	3964
821.728	3964
821.868	3945
822.008	3876
822.149	3915
822.289	3960
822.429	3819
822.569	3770
822.709	3800
822.849	3709
822.99	3709
823.13	3751
823.27	3812
823.41	3705
823.55	3778
823.69	3747
823.83	3778
823.97	3705
824.11	3633
824.25	3580
824.389	3682
824.529	3633
824.669	3622
824.809	3656
824.949	3736
825.089	3766
825.228	3679
825.368	3633
825.508	3568
825.648	3576
825.787	3618
825.927	3641
826.067	3625
826.206	3690
826.346	3785
826.485	3838
826.625	3884
826.765	3964
826.904	3865
827.044	3606
827.183	3534
827.323	3370
827.462	3488
827.601	3450
827.741	3420
827.88	3443
828.02	3405
828.159	3428
828.298	3519
828.437	3523
828.577	3504
828.716	3603
828.855	3511
828.994	3401
829.134	3378
829.273	3409
829.412	3340
829.551	3355
829.69	3378
829.829	3412
829.968	3572
830.107	3447
830.246	3435
830.385	3409
830.524	3389
830.663	3317
830.802	3272
830.941	3203
831.08	3226
831.219	3294
831.357	3279
831.496	3393
831.635	3256
831.774	3207
831.913	3207
832.051	3138
832.19	3157
832.329	3226
832.467	3150
832.606	3131
832.744	3233
832.883	3195
833.022	3180
833.16	3287
833.299	3279
833.437	3363
833.576	3401
833.714	3424
833.852	3435
833.991	3424
834.129	3485
834.267	3466
834.406	3428
834.544	3447
834.682	3351
834.821	3420
834.959	3568
835.097	3462
835.235	3523
835.373	3500
835.511	3564
835.65	3504
835.788	3485
835.926	3348
836.064	3378
836.202	3348
836.34	3572
836.478	3606
836.615	3564
836.753	3614
836.891	3633
837.029	3622
837.167	3599
837.305	3568
837.443	3564
837.58	3477
837.718	3595
837.856	3587
837.993	3545
838.131	3587
838.269	3595
838.406	3606
838.544	3587
838.681	3466
838.819	3462
838.956	3397
839.094	3409
839.231	3481
839.369	3496
839.506	3713
839.643	3614
839.781	3504
839.918	3504
840.055	3538
840.193	3553
840.33	3534
840.467	3564
840.604	3603
840.742	3838
840.879	3526
841.016	3557
841.153	3629
841.29	3751
841.427	3705
841.564	3747
841.701	3766
841.838	3732
841.975	3694
842.112	3751
842.249	3652
842.385	3610
842.522	3888
842.659	3667
842.796	3713
842.933	3660
843.069	3698
843.206	3705
843.343	3816
843.479	3804
843.616	3838
843.752	3675
843.889	3641
844.025	3861
844.162	3728
844.298	3892
844.435	3808
844.571	3823
844.708	3945
844.844	4013
844.98	4051
845.117	4036
845.253	3934
845.389	3941
845.525	3937
845.661	3979
845.798	3960
845.934	3998
846.07	3930
846.206	4067
846.342	4154
846.478	4044
846.614	3983
846.75	3964
846.886	3960
847.022	4048
847.158	3953
847.294	3991
847.429	4021
847.565	3994
847.701	4211
847.837	3861
847.972	3888
848.108	3991
848.244	3998
848.379	3915
848.515	3846
848.65	3816
848.786	3873
848.921	3884
849.057	3930
849.192	3983
849.328	3941
849.463	3888
849.598	3945
849.734	3873
849.869	3842
850.004	3770
850.14	3857
850.275	3819
850.41	3720
850.545	3743
850.68	3766
850.815	3808
850.95	3778
851.085	3941
851.22	3903
851.355	3876
851.49	3759
851.625	3797
851.76	3819
851.895	3774
852.03	3732
852.165	3747
852.299	3835
852.434	3918
852.569	3854
852.703	3903
852.838	3926
852.973	3991
853.107	3987
853.242	3896
853.376	3888
853.511	3751
853.645	3850
853.78	3979
853.914	3869
854.048	3903
854.183	3911
854.317	3979
854.451	4044
854.585	3956
854.72	4013
854.854	4036
854.988	3949
855.122	4010
855.256	3930
855.39	4017
855.524	4078
855.658	4082
855.792	4055
855.926	4135
856.06	4147
856.194	4246
856.327	4192
856.461	4162
856.595	4150
856.729	4177
856.862	4303
856.996	4272
857.13	4348
857.263	4333
857.397	4360
857.53	4268
857.664	4405
857.797	4436
857.931	4440
858.064	4432
858.197	4459
858.331	4363
858.464	4417
858.597	4375
858.731	4409
858.864	4447
858.997	4421
859.13	4535
859.263	4558
859.396	4607
859.529	4481
859.662	4538
859.795	4546
859.928	4584
860.061	4744
860.194	4755
860.327	4660
860.46	4637
860.592	4706
860.725	4755
860.858	4801
860.99	4717
861.123	4679
861.256	4740
861.388	4763
861.521	5417
861.653	4774
861.786	4706
861.918	4740
862.05	4801
862.183	4866
862.315	4885
862.447	4953
862.58	4889
862.712	4786
862.844	4835
862.976	4866
863.108	4908
863.24	5273
863.372	4877
863.504	4881
863.636	4927
863.768	4957
863.9	4968
864.032	4930
864.164	4961
864.296	5056
864.428	5109
864.559	5075
864.691	5083
864.823	5121
864.954	5071
865.086	5117
865.217	5124
865.349	5079
865.48	5174
865.612	5193
865.743	5288
865.875	5204
866.006	5197
866.137	5284
866.269	5242
866.4	5265
866.531	5261
866.662	5239
866.793	5280
866.924	5311
867.055	5322
867.186	5315
867.317	5341
867.448	5349
867.579	5353
867.71	5372
867.841	5425
867.972	5444
868.103	5471
868.233	5600
868.364	5501
868.495	5558
868.625	5699
868.756	5771
868.886	5646
869.017	5798
869.147	5840
869.278	5859
869.408	5824
869.539	5840
869.669	5920
869.799	5863
869.929	5961
870.06	6015
870.19	6201
870.32	6159
870.45	6247
870.58	6388
870.71	6437
870.84	6426
870.97	6464
871.1	6464
871.23	6658
871.36	6692
871.489	6601
871.619	6730
871.749	6867
871.879	6859
872.008	7031
872.138	6973
872.267	7004
872.397	6993
872.526	7076
872.656	7114
872.785	7266
872.915	7362
873.044	7563
873.173	7552
873.303	7723
873.432	7719
873.561	7932
873.69	7890
873.819	8008
873.948	8195
874.077	8206
874.206	8362
874.335	8495
874.464	8632
874.593	8868
874.722	8952
874.851	9180
874.979	9256
875.108	9382
875.237	9435
875.365	9496
875.494	9633
875.623	9861
875.751	9903
875.88	10025
876.008	10101
876.136	10272
876.265	10558
876.393	10752
876.521	10683
876.65	10835
876.778	10854
876.906	10915
877.034	10965
877.162	11075
877.29	11109
877.418	11337
877.546	11334
877.674	11406
877.802	11448
877.93	11551
878.058	11619
878.185	11581
878.313	11589
878.441	11809
878.568	11649
878.696	11779
878.824	11908
878.951	11965
879.079	12041
879.206	12129
879.333	12167
879.461	12068
879.588	12068
879.715	12038
879.842	12224
879.97	12106
880.097	11870
880.224	11939
880.351	11897
880.478	11931
880.605	11840
880.732	11824
880.859	12045
880.986	11775
881.112	11847
881.239	11798
881.366	11729
881.493	11699
881.619	11463
881.746	11585
881.872	11535
881.999	11463
882.125	11505
882.252	11558
882.378	11623
882.505	11554
882.631	11402
882.757	11227
882.883	11360
883.01	11235
883.136	11284
883.262	11132
883.388	11090
883.514	11140
883.64	11170
883.766	11204
883.892	11041
884.018	11003
884.143	11048
884.269	11147
884.395	10824
884.52	10767
884.646	10778
884.772	10752
884.897	10679
885.023	10634
885.148	10725
885.274	10809
885.399	10668
885.524	10702
885.65	10660
885.775	10607
885.9	10573
886.025	10584
886.15	10531
886.275	10428
886.4	10382
886.525	10424
886.65	10413
886.775	10394
886.9	10561
887.025	10584
887.149	10398
887.274	10234
887.399	10219
887.523	10230
887.648	10196
887.773	10173
887.897	10291
888.021	10242
888.146	10120
888.27	10314
888.395	10177
888.519	10177
888.643	10192
888.767	10162
888.891	10154
889.015	9964
889.139	10017
889.263	10010
889.387	10105
889.511	10101
889.635	10063
889.759	10021
889.883	10055
890.006	9991
890.13	10131
890.254	9945
890.377	9975
890.501	9911
890.624	9865
890.748	9861
890.871	9827
890.995	9797
891.118	9663
891.241	9774
891.364	9770
891.488	9835
891.611	9720
891.734	9705
891.857	9793
891.98	9751
892.103	9732
892.226	9724
892.349	9679
892.471	9618
892.594	9572
892.717	9603
892.839	9599
892.962	9701
893.085	9641
893.207	9454
893.33	9500
893.452	9511
893.575	9622
893.697	9450
893.819	9545
893.941	9599
894.064	9625
894.186	9416
894.308	9397
894.43	9519
894.552	9488
894.674	9511
894.796	9431
894.918	9393
895.04	9355
895.161	9363
895.283	9370
895.405	9363
895.526	9325
895.648	9230
895.769	9249
895.891	9294
896.012	9313
896.134	9154
896.255	9138
896.376	9123
896.498	9184
896.619	9074
896.74	9036
896.861	9009
896.982	9268
897.103	9340
897.224	9131
897.345	9020
897.466	9001
897.587	9081
897.708	9055
897.828	8952
897.949	8952
898.07	8887
898.19	8883
898.311	9013
898.431	8861
898.552	8899
898.672	9017
898.792	8982
898.913	8857
899.033	8842
899.153	8781
899.273	8655
899.393	8746
899.513	8762
899.633	8727
899.753	8724
899.873	8648
899.993	8777
900.113	8788
900.232	8731
900.352	8716
900.472	8598
900.591	8560
900.711	8648
900.83	8629
900.95	8693
901.069	8758
901.189	8469
901.308	8415
901.427	8404
901.546	8415
901.665	8469
901.784	8427
901.904	8431
902.023	8240
902.141	8256
902.26	8237
902.379	8259
902.498	8317
902.617	8279
902.735	8358
902.854	8279
902.973	8263
903.091	8206
903.21	8126
903.328	8191
903.446	8100
903.565	8115
903.683	8111
903.801	8142
903.919	8145
904.038	8119
904.156	8054
904.274	8069
904.392	8062
904.51	8031
904.627	8027
904.745	8138
904.863	8142
904.981	7978
905.098	7864
905.216	7902
905.334	7947
905.451	7902
905.569	7879
905.686	7967
905.803	7845
905.921	7826
906.038	7875
906.155	7818
906.272	7704
906.389	7814
906.506	7632
906.623	7632
906.74	7643
906.857	7578
906.974	7586
907.091	7651
907.208	7712
907.324	7620
907.441	7582
907.557	7460
907.674	7430
907.79	7381
907.907	7354
908.023	7438
908.139	7449
908.256	7358
908.372	7358
908.488	7369
908.604	7346
908.72	7240
908.836	7263
908.952	7266
909.068	7308
909.184	7354
909.3	7308
909.415	7324
909.531	7301
909.647	7164
909.762	7129
909.878	7122
909.993	7114
910.108	7091
910.224	7080
910.339	7137
910.454	7095
910.57	7053
910.685	6939
910.8	7133
910.915	7141
911.03	7023
911.145	6901
911.259	6867
911.374	6901
911.489	6863
911.604	6856
911.718	6715
911.833	6760
911.947	6662
912.062	6597
912.176	6715
912.291	6700
912.405	6719
912.519	6837
912.633	6818
912.748	6749
912.862	6722
912.976	6639
913.09	6559
913.204	6650
913.318	6662
913.431	6684
913.545	6604
913.659	6760
913.772	6650
913.886	6551
914	6623
914.113	6616
914.226	6658
914.34	6650
914.453	6517
914.566	6635
914.68	6513
914.793	6517
914.906	6418
915.019	6441
915.132	6395
915.245	6448
915.358	6429
915.47	6467
915.583	6490
915.696	6467
915.809	6559
915.921	6528
916.034	6441
916.146	6418
916.259	6464
916.371	6486
916.483	6483
916.595	6426
916.708	6445
916.82	6422
916.932	6399
917.044	6456
917.156	6395
917.268	6376
917.38	6376
917.491	6327
917.603	6422
917.715	6418
917.826	6437
917.938	6327
918.049	6197
918.161	6395
918.272	6357
918.384	6429
918.495	6338
918.606	6270
918.717	6247
918.828	6247
918.939	6273
919.05	6251
919.161	6239
919.272	6110
919.383	6163
919.494	6258
919.604	6391
919.715	6334
919.826	6228
919.936	6270
920.047	6323
920.157	6292
920.267	6429
920.378	6319
920.488	6323
920.598	6471
920.708	6547
920.818	6525
920.928	6486
921.038	6677
921.148	6574
921.258	6334
921.368	6247
921.477	6182
921.587	6205
921.697	6159
921.806	6186
921.916	6095
922.025	6011
922.134	5961
922.244	5923
922.353	5942
922.462	5866
922.571	5790
922.68	5710
922.789	5642
922.898	5699
923.007	5657
923.116	5718
923.224	5649
923.333	5676
923.442	5657
923.55	5539
923.659	5592
923.767	5634
923.876	5558
923.984	5604
924.092	5539
924.201	5604
924.309	5528
924.417	5589
924.525	5482
924.633	5532
924.741	6144
924.849	5402
924.956	5516
925.064	5376
925.172	5349
925.279	5292
925.387	5337
925.494	5330
925.602	5482
925.709	5433
925.816	5288
925.924	5299
926.031	5398
926.138	5318
926.245	5391
926.352	5254
926.459	5299
926.566	5387
926.673	5170
926.779	5223
926.886	5162
926.993	5102
927.099	5018
927.206	4995
927.312	4953
927.419	5025
927.525	4927
927.631	5029
927.737	4942
927.843	4904
927.95	4797
928.056	4858
928.162	4835
928.267	4870
928.373	5387
928.479	4809
928.585	4694
928.69	4790
928.796	4755
928.901	4656
929.007	4577
929.112	4694
929.218	4618
929.323	4622
929.428	4546
929.533	4717
929.638	4577
929.743	4542
929.848	4546
929.953	4546
930.058	4459
930.163	4341
930.267	4333
930.372	4443
930.477	4299
930.581	4485
930.685	4363
930.79	4207
930.894	4337
930.998	4223
931.103	4405
931.207	4154
931.311	4124
931.415	4082
931.519	3964
931.623	4002
