Data from glass_V78500241_1822.txt Node
Date: Wed Sep 01 19:27:07 CST 2021
User: usil
Spectrometer: V785-0024
Trigger mode: 0
Integration Time (sec): 4.000000E-1
Scans to average: 1
Nonlinearity correction enabled: false
Boxcar width: 0
Storing dark spectrum: false
XAxis mode: Wavelengths
Number of Pixels in Spectrum: 1024
>>>>>Begin Spectral Data<<<<<
801.071	3709
801.214	3732
801.356	3690
801.499	3740
801.641	3701
801.783	3781
801.926	3857
802.068	3816
802.211	3846
802.353	3880
802.496	3857
802.638	3922
802.78	3869
802.923	3968
803.065	3880
803.208	3827
803.35	3907
803.492	3899
803.635	3975
803.777	3766
803.919	3865
804.061	4154
804.204	3960
804.346	3941
804.488	3903
804.63	4051
804.773	3956
804.915	4006
805.057	4135
805.199	4044
805.341	4128
805.483	4116
805.626	4116
805.768	4112
805.91	4223
806.052	4257
806.194	4196
806.336	4341
806.478	4207
806.62	4158
806.762	4166
806.904	4249
807.046	4333
807.188	4188
807.33	4204
807.472	4291
807.614	4169
807.756	4272
807.898	4238
808.04	4276
808.182	4287
808.324	4268
808.465	4371
808.607	4447
808.749	4459
808.891	4462
809.033	4542
809.174	4394
809.316	4284
809.458	4234
809.6	4124
809.741	4150
809.883	4078
810.025	4207
810.166	4230
810.308	4261
810.45	4249
810.591	4246
810.733	4337
810.875	4546
811.016	4778
811.158	5067
811.299	5296
811.441	5303
811.582	5045
811.724	4706
811.865	4466
812.007	4428
812.148	4432
812.29	4379
812.431	4390
812.573	4390
812.714	4352
812.855	4447
812.997	4402
813.138	4512
813.279	4405
813.421	4428
813.562	4390
813.703	4333
813.845	4363
813.986	4246
814.127	4211
814.268	4219
814.41	4211
814.551	4280
814.692	4310
814.833	4242
814.974	4291
815.115	4303
815.256	4207
815.397	4200
815.539	4303
815.68	4177
815.821	4242
815.962	4299
816.103	4291
816.244	4249
816.385	4249
816.526	4276
816.666	4147
816.807	4097
816.948	4188
817.089	4143
817.23	4097
817.371	4036
817.512	3975
817.653	4074
817.793	4002
817.934	4036
818.075	4051
818.216	4078
818.356	4097
818.497	3991
818.638	3934
818.778	3922
818.919	3915
819.06	3861
819.2	3926
819.341	3846
819.481	3846
819.622	3892
819.762	4044
819.903	3926
820.043	3857
820.184	3876
820.324	3816
820.465	3907
820.605	3884
820.746	3850
820.886	3797
821.026	3884
821.167	3937
821.307	4010
821.447	3998
821.588	3930
821.728	3945
821.868	3903
822.008	3850
822.149	3918
822.289	3937
822.429	3812
822.569	3755
822.709	3812
822.849	3743
822.99	3686
823.13	3793
823.27	3778
823.41	3698
823.55	3701
823.69	3736
823.83	3736
823.97	3652
824.11	3587
824.25	3595
824.389	3561
824.529	3652
824.669	3591
824.809	3679
824.949	3770
825.089	3732
825.228	3682
825.368	3618
825.508	3526
825.648	3538
825.787	3580
825.927	3663
826.067	3622
826.206	3641
826.346	3766
826.485	3831
826.625	3857
826.765	3975
826.904	3804
827.044	3629
827.183	3515
827.323	3409
827.462	3500
827.601	3416
827.741	3401
827.88	3431
828.02	3401
828.159	3435
828.298	3473
828.437	3538
828.577	3443
828.716	3629
828.855	3488
828.994	3359
829.134	3363
829.273	3412
829.412	3363
829.551	3317
829.69	3336
829.829	3435
829.968	3526
830.107	3458
830.246	3435
830.385	3378
830.524	3363
830.663	3310
830.802	3260
830.941	3218
831.08	3199
831.219	3291
831.357	3298
831.496	3435
831.635	3211
831.774	3214
831.913	3199
832.051	3119
832.19	3127
832.329	3195
832.467	3119
832.606	3131
832.744	3188
832.883	3184
833.022	3173
833.16	3272
833.299	3275
833.437	3329
833.576	3363
833.714	3401
833.852	3420
833.991	3405
834.129	3454
834.267	3431
834.406	3374
834.544	3443
834.682	3382
834.821	3401
834.959	3637
835.097	3435
835.235	3526
835.373	3454
835.511	3526
835.65	3412
835.788	3435
835.926	3370
836.064	3393
836.202	3382
836.34	3576
836.478	3622
836.615	3576
836.753	3625
836.891	3568
837.029	3622
837.167	3584
837.305	3595
837.443	3515
837.58	3507
837.718	3618
837.856	3591
837.993	3545
838.131	3580
838.269	3584
838.406	3545
838.544	3545
838.681	3450
838.819	3454
838.956	3317
839.094	3359
839.231	3424
839.369	3485
839.506	3705
839.643	3633
839.781	3504
839.918	3473
840.055	3523
840.193	3534
840.33	3530
840.467	3534
840.604	3633
840.742	3778
840.879	3538
841.016	3561
841.153	3622
841.29	3724
841.427	3690
841.564	3667
841.701	3713
841.838	3682
841.975	3679
842.112	3686
842.249	3622
842.385	3606
842.522	3850
842.659	3686
842.796	3671
842.933	3732
843.069	3705
843.206	3682
843.343	3770
843.479	3789
843.616	3808
843.752	3698
843.889	3663
844.025	3854
844.162	3694
844.298	3819
844.435	3823
844.571	3778
844.708	3888
844.844	3983
844.98	4025
845.117	4010
845.253	3945
845.389	3884
845.525	3964
845.661	3937
845.798	3876
845.934	4036
846.07	3960
846.206	4025
846.342	4124
846.478	4032
846.614	3994
846.75	3930
846.886	3869
847.022	3994
847.158	3956
847.294	3964
847.429	3972
847.565	4036
847.701	4253
847.837	3896
847.972	3831
848.108	3991
848.244	3998
848.379	3854
848.515	3778
848.65	3800
848.786	3846
848.921	3884
849.057	3915
849.192	3991
849.328	3896
849.463	3941
849.598	3857
849.734	3869
849.869	3812
850.004	3736
850.14	3816
850.275	3793
850.41	3774
850.545	3785
850.68	3774
850.815	3857
850.95	3766
851.085	3964
851.22	3838
851.355	3789
851.49	3770
851.625	3762
851.76	3793
851.895	3732
852.03	3724
852.165	3766
852.299	3876
852.434	3896
852.569	3873
852.703	3892
852.838	3896
852.973	3994
853.107	3964
853.242	3873
853.376	3819
853.511	3789
853.645	3838
853.78	3964
853.914	3918
854.048	3884
854.183	3838
854.317	3983
854.451	4067
854.585	3953
854.72	3930
854.854	4032
854.988	3922
855.122	3972
855.256	3892
855.39	3979
855.524	4112
855.658	4116
855.792	4105
855.926	4143
856.06	4131
856.194	4166
856.327	4185
856.461	4109
856.595	4109
856.729	4143
856.862	4261
856.996	4280
857.13	4287
857.263	4379
857.397	4341
857.53	4299
857.664	4371
857.797	4447
857.931	4409
858.064	4356
858.197	4462
858.331	4421
858.464	4375
858.597	4322
858.731	4466
858.864	4451
858.997	4424
859.13	4565
859.263	4546
859.396	4558
859.529	4531
859.662	4565
859.795	4527
859.928	4622
860.061	4710
860.194	4714
860.327	4653
860.46	4675
860.592	4710
860.725	4694
860.858	4763
860.99	4706
861.123	4733
861.256	4679
861.388	4767
861.521	5379
861.653	4759
861.786	4641
861.918	4748
862.05	4778
862.183	4866
862.315	4889
862.447	4938
862.58	4873
862.712	4824
862.844	4763
862.976	4870
863.108	4839
863.24	5231
863.372	4854
863.504	4870
863.636	4850
863.768	4965
863.9	5025
864.032	4961
864.164	4968
864.296	4999
864.428	5064
864.559	5064
864.691	5098
864.823	5124
864.954	5075
865.086	5174
865.217	5159
865.349	5147
865.48	5090
865.612	5204
865.743	5296
865.875	5155
866.006	5235
866.137	5235
866.269	5246
866.4	5197
866.531	5269
866.662	5162
866.793	5258
866.924	5265
867.055	5376
867.186	5337
867.317	5322
867.448	5303
867.579	5410
867.71	5387
867.841	5383
867.972	5444
868.103	5459
868.233	5516
868.364	5493
868.495	5501
868.625	5665
868.756	5771
868.886	5638
869.017	5684
869.147	5878
869.278	5878
869.408	5805
869.539	5874
869.669	5927
869.799	5889
869.929	5935
870.06	5973
870.19	6186
870.32	6178
870.45	6220
870.58	6353
870.71	6475
870.84	6426
870.97	6403
871.1	6498
871.23	6681
871.36	6677
871.489	6650
871.619	6741
871.749	6818
871.879	6897
872.008	6954
872.138	6928
872.267	6954
872.397	6947
872.526	7126
872.656	7088
872.785	7179
872.915	7403
873.044	7544
873.173	7487
873.303	7647
873.432	7765
873.561	7795
873.69	7849
873.819	8024
873.948	8168
874.077	8244
874.206	8366
874.335	8484
874.464	8670
874.593	8849
874.722	8910
874.851	9093
874.979	9161
875.108	9253
875.237	9321
875.365	9435
875.494	9629
875.623	9747
875.751	9850
875.88	10048
876.008	10169
876.136	10272
876.265	10630
876.393	10778
876.521	10679
876.65	10755
876.778	10858
876.906	10953
877.034	11083
877.162	11067
877.29	11143
877.418	11223
877.546	11265
877.674	11444
877.802	11570
877.93	11497
878.058	11554
878.185	11535
878.313	11680
878.441	11695
878.568	11726
878.696	11802
878.824	11832
878.951	11840
879.079	12083
879.206	12167
879.333	12007
879.461	11954
879.588	12117
879.715	12068
879.842	12182
879.97	12079
880.097	11882
880.224	11946
880.351	11859
880.478	11916
880.605	11832
880.732	11802
880.859	11999
880.986	11851
881.112	11817
881.239	11684
881.366	11729
881.493	11661
881.619	11524
881.746	11543
881.872	11528
881.999	11505
882.125	11459
882.252	11539
882.378	11452
882.505	11493
882.631	11261
882.757	11269
882.883	11242
883.01	11277
883.136	11132
883.262	11090
883.388	11056
883.514	11174
883.64	11178
883.766	11124
883.892	10968
884.018	10965
884.143	11105
884.269	11083
884.395	10869
884.52	10744
884.646	10721
884.772	10664
884.897	10634
885.023	10771
885.148	10752
885.274	10714
885.399	10725
885.524	10634
885.65	10596
885.775	10588
885.9	10508
886.025	10634
886.15	10527
886.275	10485
886.4	10447
886.525	10382
886.65	10371
886.775	10314
886.9	10493
887.025	10618
887.149	10322
887.274	10234
887.399	10112
887.523	10188
887.648	10135
887.773	10120
887.897	10185
888.021	10234
888.146	10090
888.27	10280
888.395	10242
888.519	10234
888.643	10090
888.767	10166
888.891	10124
889.015	9934
889.139	10067
889.263	9960
889.387	10044
889.511	10036
889.635	10010
889.759	9876
889.883	9983
890.006	10013
890.13	9998
890.254	9907
890.377	9972
890.501	9884
890.624	9926
890.748	9922
890.871	9827
890.995	9728
891.118	9804
891.241	9770
891.364	9686
891.488	9797
891.611	9713
891.734	9709
891.857	9717
891.98	9800
892.103	9793
892.226	9709
892.349	9663
892.471	9515
892.594	9622
892.717	9648
892.839	9603
892.962	9549
893.085	9625
893.207	9610
893.33	9477
893.452	9515
893.575	9622
893.697	9462
893.819	9682
893.941	9603
894.064	9515
894.186	9393
894.308	9397
894.43	9523
894.552	9534
894.674	9542
894.796	9348
894.918	9412
895.04	9291
895.161	9294
895.283	9332
895.405	9230
895.526	9275
895.648	9173
895.769	9214
895.891	9298
896.012	9253
896.134	9241
896.255	9195
896.376	9131
896.498	9104
896.619	9180
896.74	9039
896.861	9058
896.982	9241
897.103	9401
897.224	9226
897.345	9070
897.466	9032
897.587	9028
897.708	9176
897.828	9036
897.949	8929
898.07	8880
898.19	8929
898.311	8975
898.431	8864
898.552	8921
898.672	8895
898.792	9013
898.913	8944
899.033	8811
899.153	8739
899.273	8659
899.393	8682
899.513	8720
899.633	8750
899.753	8743
899.873	8682
899.993	8796
900.113	8686
900.232	8716
900.352	8670
900.472	8602
900.591	8587
900.711	8568
900.83	8541
900.95	8632
901.069	8724
901.189	8560
901.308	8431
901.427	8286
901.546	8393
901.665	8450
901.784	8526
901.904	8358
902.023	8240
902.141	8271
902.26	8317
902.379	8301
902.498	8225
902.617	8214
902.735	8313
902.854	8256
902.973	8221
903.091	8119
903.21	8149
903.328	8157
903.446	8084
903.565	8054
903.683	8081
903.801	8081
903.919	8123
904.038	8130
904.156	8050
904.274	8103
904.392	8008
904.51	8008
904.627	8039
904.745	8050
904.863	8123
904.981	7906
905.098	7845
905.216	7860
905.334	7864
905.451	7887
905.569	7849
905.686	7913
905.803	7864
905.921	7719
906.038	7890
906.155	7849
906.272	7708
906.389	7651
906.506	7624
906.623	7597
906.74	7620
906.857	7540
906.974	7582
907.091	7685
907.208	7700
907.324	7643
907.441	7510
907.557	7483
907.674	7468
907.79	7384
907.907	7362
908.023	7430
908.139	7407
908.256	7324
908.372	7453
908.488	7308
908.604	7247
908.72	7255
908.836	7225
908.952	7274
909.068	7247
909.184	7327
909.3	7206
909.415	7312
909.531	7324
909.647	7095
909.762	7114
909.878	7137
909.993	7129
910.108	7072
910.224	6970
910.339	7095
910.454	6985
910.57	7015
910.685	6913
910.8	7301
910.915	7110
911.03	7023
911.145	6913
911.259	6825
911.374	6890
911.489	6875
911.604	6810
911.718	6776
911.833	6665
911.947	6677
912.062	6673
912.176	6719
912.291	6665
912.405	6669
912.519	6821
912.633	6821
912.748	6631
912.862	6749
912.976	6631
913.09	6513
913.204	6662
913.318	6635
913.431	6681
913.545	6662
913.659	6692
913.772	6715
913.886	6570
914	6536
914.113	6627
914.226	6654
914.34	6608
914.453	6528
914.566	6612
914.68	6490
914.793	6547
914.906	6422
915.019	6429
915.132	6369
915.245	6452
915.358	6410
915.47	6471
915.583	6475
915.696	6513
915.809	6521
915.921	6570
916.034	6437
916.146	6353
916.259	6391
916.371	6460
916.483	6486
916.595	6361
916.708	6361
916.82	6391
916.932	6311
917.044	6388
917.156	6403
917.268	6319
917.38	6311
917.491	6292
917.603	6346
917.715	6407
917.826	6452
917.938	6342
918.049	6224
918.161	6357
918.272	6407
918.384	6433
918.495	6342
918.606	6292
918.717	6220
918.828	6247
918.939	6273
919.05	6220
919.161	6300
919.272	6121
919.383	6159
919.494	6277
919.604	6399
919.715	6331
919.826	6228
919.936	6232
920.047	6315
920.157	6262
920.267	6418
920.378	6296
920.488	6273
920.598	6407
920.708	6509
920.818	6452
920.928	6426
921.038	6650
921.148	6570
921.258	6376
921.368	6262
921.477	6190
921.587	6148
921.697	6098
921.806	6159
921.916	6106
922.025	5904
922.134	5908
922.244	5851
922.353	5935
922.462	5840
922.571	5775
922.68	5752
922.789	5703
922.898	5714
923.007	5627
923.116	5745
923.224	5691
923.333	5604
923.442	5566
923.55	5592
923.659	5566
923.767	5676
923.876	5512
923.984	5524
924.092	5524
924.201	5570
924.309	5585
924.417	5539
924.525	5444
924.633	5463
924.741	6285
924.849	5334
924.956	5482
925.064	5395
925.172	5307
925.279	5273
925.387	5349
925.494	5345
925.602	5414
925.709	5368
925.816	5277
925.924	5307
926.031	5376
926.138	5277
926.245	5353
926.352	5250
926.459	5349
926.566	5330
926.673	5181
926.779	5174
926.886	5132
926.993	5056
927.099	4953
927.206	4961
927.312	4927
927.419	4987
927.525	4900
927.631	5014
927.737	4946
927.843	4870
927.95	4790
928.056	4797
928.162	4839
928.267	4828
928.373	5368
928.479	4850
928.585	4691
928.69	4759
928.796	4748
928.901	4710
929.007	4615
929.112	4656
929.218	4607
929.323	4584
929.428	4577
929.533	4664
929.638	4470
929.743	4542
929.848	4512
929.953	4523
930.058	4451
930.163	4379
930.267	4314
930.372	4455
930.477	4295
930.581	4428
930.685	4352
930.79	4265
930.894	4284
930.998	4246
931.103	4436
931.207	4166
931.311	4097
931.415	4036
931.519	3896
931.623	3949
