Data from glass_V78500241_1985.txt Node
Date: Wed Sep 01 19:28:15 CST 2021
User: usil
Spectrometer: V785-0024
Trigger mode: 0
Integration Time (sec): 4.000000E-1
Scans to average: 1
Nonlinearity correction enabled: false
Boxcar width: 0
Storing dark spectrum: false
XAxis mode: Wavelengths
Number of Pixels in Spectrum: 1024
>>>>>Begin Spectral Data<<<<<
801.071	3755
801.214	3747
801.356	3641
801.499	3751
801.641	3747
801.783	3766
801.926	3861
802.068	3785
802.211	3873
802.353	3876
802.496	3835
802.638	3846
802.78	3865
802.923	3915
803.065	3857
803.208	3838
803.35	3850
803.492	3937
803.635	3918
803.777	3808
803.919	3915
804.061	4097
804.204	3945
804.346	3930
804.488	3930
804.63	4051
804.773	3953
804.915	4025
805.057	4082
805.199	4036
805.341	4067
805.483	4124
805.626	4135
805.768	4154
805.91	4223
806.052	4242
806.194	4185
806.336	4363
806.478	4196
806.62	4143
806.762	4185
806.904	4200
807.046	4310
807.188	4219
807.33	4162
807.472	4227
807.614	4188
807.756	4219
807.898	4219
808.04	4177
808.182	4284
808.324	4291
808.465	4371
808.607	4470
808.749	4455
808.891	4485
809.033	4451
809.174	4405
809.316	4272
809.458	4230
809.6	4166
809.741	4116
809.883	4188
810.025	4158
810.166	4196
810.308	4242
810.45	4242
810.591	4211
810.733	4280
810.875	4523
811.016	4824
811.158	5143
811.299	5269
811.441	5254
811.582	5018
811.724	4717
811.865	4447
812.007	4481
812.148	4413
812.29	4432
812.431	4398
812.573	4379
812.714	4386
812.855	4424
812.997	4394
813.138	4481
813.279	4371
813.421	4363
813.562	4360
813.703	4329
813.845	4306
813.986	4272
814.127	4188
814.268	4230
814.41	4284
814.551	4280
814.692	4306
814.833	4230
814.974	4295
815.115	4341
815.256	4276
815.397	4272
815.539	4230
815.68	4219
815.821	4188
815.962	4310
816.103	4253
816.244	4238
816.385	4223
816.526	4287
816.666	4196
816.807	4090
816.948	4185
817.089	4192
817.23	4112
817.371	4067
817.512	4051
817.653	4124
817.793	4048
817.934	4040
818.075	4112
818.216	4097
818.356	4036
818.497	3994
818.638	3865
818.778	3964
818.919	3903
819.06	3865
819.2	3937
819.341	3857
819.481	3865
819.622	3918
819.762	4013
819.903	3941
820.043	3861
820.184	3819
820.324	3789
820.465	3892
820.605	3842
820.746	3842
820.886	3816
821.026	3945
821.167	3907
821.307	3994
821.447	3975
821.588	3922
821.728	3949
821.868	3911
822.008	3846
822.149	3880
822.289	3850
822.429	3800
822.569	3747
822.709	3827
822.849	3713
822.99	3709
823.13	3774
823.27	3785
823.41	3694
823.55	3717
823.69	3701
823.83	3747
823.97	3713
824.11	3629
824.25	3584
824.389	3644
824.529	3644
824.669	3618
824.809	3720
824.949	3778
825.089	3720
825.228	3667
825.368	3564
825.508	3564
825.648	3576
825.787	3584
825.927	3591
826.067	3629
826.206	3644
826.346	3778
826.485	3842
826.625	3907
826.765	3911
826.904	3865
827.044	3629
827.183	3530
827.323	3450
827.462	3488
827.601	3401
827.741	3401
827.88	3443
828.02	3378
828.159	3447
828.298	3450
828.437	3534
828.577	3458
828.716	3618
828.855	3500
828.994	3405
829.134	3332
829.273	3359
829.412	3344
829.551	3317
829.69	3348
829.829	3431
829.968	3542
830.107	3412
830.246	3409
830.385	3401
830.524	3374
830.663	3332
830.802	3253
830.941	3173
831.08	3203
831.219	3287
831.357	3245
831.496	3412
831.635	3211
831.774	3165
831.913	3192
832.051	3131
832.19	3157
832.329	3199
832.467	3097
832.606	3127
832.744	3169
832.883	3203
833.022	3176
833.16	3233
833.299	3310
833.437	3291
833.576	3363
833.714	3401
833.852	3389
833.991	3454
834.129	3443
834.267	3412
834.406	3382
834.544	3389
834.682	3401
834.821	3428
834.959	3606
835.097	3389
835.235	3507
835.373	3488
835.511	3523
835.65	3458
835.788	3504
835.926	3393
836.064	3374
836.202	3431
836.34	3584
836.478	3595
836.615	3542
836.753	3591
836.891	3690
837.029	3603
837.167	3572
837.305	3523
837.443	3507
837.58	3462
837.718	3568
837.856	3584
837.993	3515
838.131	3599
838.269	3557
838.406	3587
838.544	3557
838.681	3466
838.819	3485
838.956	3370
839.094	3389
839.231	3466
839.369	3492
839.506	3747
839.643	3610
839.781	3504
839.918	3458
840.055	3523
840.193	3534
840.33	3557
840.467	3549
840.604	3599
840.742	3797
840.879	3545
841.016	3561
841.153	3614
841.29	3705
841.427	3686
841.564	3720
841.701	3762
841.838	3682
841.975	3682
842.112	3747
842.249	3606
842.385	3606
842.522	3804
842.659	3690
842.796	3644
842.933	3667
843.069	3679
843.206	3724
843.343	3800
843.479	3759
843.616	3827
843.752	3675
843.889	3656
844.025	3842
844.162	3778
844.298	3827
844.435	3770
844.571	3770
844.708	3911
844.844	4013
844.98	3987
845.117	4025
845.253	3949
845.389	3876
845.525	3972
845.661	3972
845.798	3926
845.934	4010
846.07	3953
846.206	4029
846.342	4101
846.478	4074
846.614	3956
846.75	3934
846.886	3892
847.022	4017
847.158	4006
847.294	4021
847.429	4044
847.565	3953
847.701	4227
847.837	3903
847.972	3880
848.108	3972
848.244	3972
848.379	3816
848.515	3850
848.65	3819
848.786	3854
848.921	3850
849.057	3926
849.192	3937
849.328	3880
849.463	3918
849.598	3892
849.734	3819
849.869	3823
850.004	3762
850.14	3797
850.275	3743
850.41	3740
850.545	3736
850.68	3755
850.815	3838
850.95	3797
851.085	3922
851.22	3857
851.355	3842
851.49	3766
851.625	3819
851.76	3831
851.895	3740
852.03	3728
852.165	3797
852.299	3823
852.434	3899
852.569	3850
852.703	3892
852.838	3869
852.973	3998
853.107	3934
853.242	3873
853.376	3831
853.511	3785
853.645	3846
853.78	3956
853.914	3831
854.048	3880
854.183	3823
854.317	3945
854.451	4067
854.585	3926
854.72	3975
854.854	4055
854.988	3941
855.122	3960
855.256	3915
855.39	4017
855.524	4101
855.658	4112
855.792	4071
855.926	4135
856.06	4200
856.194	4211
856.327	4128
856.461	4093
856.595	4128
856.729	4188
856.862	4272
856.996	4261
857.13	4299
857.263	4306
857.397	4344
857.53	4299
857.664	4322
857.797	4421
857.931	4432
858.064	4352
858.197	4440
858.331	4371
858.464	4451
858.597	4333
858.731	4428
858.864	4443
858.997	4474
859.13	4493
859.263	4535
859.396	4554
859.529	4512
859.662	4523
859.795	4493
859.928	4561
860.061	4725
860.194	4763
860.327	4694
860.46	4615
860.592	4672
860.725	4782
860.858	4771
860.99	4672
861.123	4660
861.256	4706
861.388	4752
861.521	5425
861.653	4774
861.786	4694
861.918	4721
862.05	4820
862.183	4828
862.315	4809
862.447	4934
862.58	4873
862.712	4820
862.844	4774
862.976	4858
863.108	4877
863.24	5193
863.372	4850
863.504	4866
863.636	4904
863.768	4968
863.9	4949
864.032	4923
864.164	4953
864.296	5018
864.428	5064
864.559	5124
864.691	5105
864.823	5083
864.954	5067
865.086	5155
865.217	5151
865.349	5124
865.48	5162
865.612	5151
865.743	5280
865.875	5178
866.006	5231
866.137	5231
866.269	5193
866.4	5227
866.531	5216
866.662	5201
866.793	5235
866.924	5292
867.055	5303
867.186	5326
867.317	5322
867.448	5292
867.579	5353
867.71	5341
867.841	5379
867.972	5448
868.103	5497
868.233	5497
868.364	5516
868.495	5543
868.625	5589
868.756	5794
868.886	5684
869.017	5771
869.147	5870
869.278	5847
869.408	5752
869.539	5824
869.669	5904
869.799	5863
869.929	5973
870.06	6030
870.19	6209
870.32	6239
870.45	6201
870.58	6315
870.71	6471
870.84	6433
870.97	6410
871.1	6467
871.23	6631
871.36	6681
871.489	6711
871.619	6734
871.749	6734
871.879	6901
872.008	6989
872.138	6958
872.267	7038
872.397	6935
872.526	7084
872.656	7110
872.785	7187
872.915	7460
873.044	7472
873.173	7552
873.303	7666
873.432	7704
873.561	7887
873.69	7909
873.819	8024
873.948	8183
874.077	8248
874.206	8317
874.335	8469
874.464	8701
874.593	8815
874.722	8910
874.851	9100
874.979	9253
875.108	9439
875.237	9447
875.365	9488
875.494	9572
875.623	9785
875.751	9880
875.88	9930
876.008	10093
876.136	10299
876.265	10558
876.393	10634
876.521	10744
876.65	10881
876.778	10908
876.906	10908
877.034	10938
877.162	11109
877.29	11140
877.418	11231
877.546	11341
877.674	11372
877.802	11478
877.93	11474
878.058	11497
878.185	11474
878.313	11649
878.441	11790
878.568	11676
878.696	11843
878.824	11870
878.951	11954
879.079	11992
879.206	12155
879.333	11958
879.461	11996
879.588	12076
879.715	12095
879.842	12186
879.97	12064
880.097	11859
880.224	11965
880.351	11927
880.478	11863
880.605	11832
880.732	11764
880.859	12041
880.986	11843
881.112	11741
881.239	11718
881.366	11615
881.493	11554
881.619	11482
881.746	11577
881.872	11604
881.999	11486
882.125	11497
882.252	11630
882.378	11524
882.505	11596
882.631	11349
882.757	11227
882.883	11376
883.01	11296
883.136	11185
883.262	11155
883.388	11117
883.514	11140
883.64	11242
883.766	11201
883.892	11041
884.018	10946
884.143	11083
884.269	11048
884.395	10847
884.52	10752
884.646	10869
884.772	10733
884.897	10694
885.023	10653
885.148	10755
885.274	10710
885.399	10649
885.524	10603
885.65	10580
885.775	10577
885.9	10493
886.025	10596
886.15	10508
886.275	10478
886.4	10333
886.525	10325
886.65	10402
886.775	10363
886.9	10527
887.025	10497
887.149	10310
887.274	10207
887.399	10158
887.523	10249
887.648	10078
887.773	10131
887.897	10227
888.021	10211
888.146	10101
888.27	10234
888.395	10234
888.519	10200
888.643	10109
888.767	10265
888.891	10101
889.015	9998
889.139	10055
889.263	9991
889.387	10017
889.511	10059
889.635	10021
889.759	9941
889.883	10036
890.006	9991
890.13	10059
890.254	9926
890.377	9911
890.501	9816
890.624	9842
890.748	9793
890.871	9747
890.995	9762
891.118	9740
891.241	9759
891.364	9728
891.488	9812
891.611	9717
891.734	9724
891.857	9736
891.98	9641
892.103	9770
892.226	9701
892.349	9660
892.471	9473
892.594	9622
892.717	9614
892.839	9538
892.962	9561
893.085	9644
893.207	9568
893.33	9515
893.452	9568
893.575	9530
893.697	9477
893.819	9576
893.941	9587
894.064	9519
894.186	9447
894.308	9351
894.43	9549
894.552	9519
894.674	9530
894.796	9363
894.918	9408
895.04	9340
895.161	9389
895.283	9370
895.405	9287
895.526	9253
895.648	9173
895.769	9207
895.891	9226
896.012	9321
896.134	9180
896.255	9142
896.376	9116
896.498	9135
896.619	9173
896.74	9074
896.861	9085
896.982	9165
897.103	9249
897.224	9127
897.345	9032
897.466	8986
897.587	8986
897.708	9093
897.828	9066
897.949	8944
898.07	8918
898.19	8986
898.311	9032
898.431	8914
898.552	8868
898.672	8963
898.792	8899
898.913	8872
899.033	8792
899.153	8686
899.273	8708
899.393	8716
899.513	8731
899.633	8674
899.753	8777
899.873	8762
899.993	8667
900.113	8708
900.232	8678
900.352	8587
900.472	8590
900.591	8575
900.711	8629
900.83	8530
900.95	8667
901.069	8727
901.189	8621
901.308	8427
901.427	8393
901.546	8454
901.665	8465
901.784	8450
901.904	8328
902.023	8301
902.141	8233
902.26	8168
902.379	8290
902.498	8225
902.617	8248
902.735	8313
902.854	8240
902.973	8317
903.091	8096
903.21	8145
903.328	8100
903.446	8145
903.565	8096
903.683	8081
903.801	8054
903.919	8164
904.038	8187
904.156	8008
904.274	8046
904.392	8027
904.51	7993
904.627	8081
904.745	8088
904.863	8123
904.981	7875
905.098	7906
905.216	7833
905.334	7849
905.451	7902
905.569	7887
905.686	7925
905.803	7932
905.921	7765
906.038	7864
906.155	7814
906.272	7689
906.389	7696
906.506	7670
906.623	7582
906.74	7620
906.857	7548
906.974	7582
907.091	7628
907.208	7677
907.324	7670
907.441	7548
907.557	7434
907.674	7430
907.79	7373
907.907	7434
908.023	7457
908.139	7377
908.256	7369
908.372	7343
908.488	7305
908.604	7240
908.72	7324
908.836	7289
908.952	7194
909.068	7225
909.184	7407
909.3	7217
909.415	7274
909.531	7255
909.647	7091
909.762	7088
909.878	7072
909.993	7080
910.108	7076
910.224	7038
910.339	7042
910.454	7031
910.57	7004
910.685	6996
910.8	7187
910.915	7122
911.03	7000
911.145	6939
911.259	6890
911.374	6894
911.489	6806
911.604	6760
911.718	6722
911.833	6753
911.947	6700
912.062	6566
912.176	6700
912.291	6684
912.405	6677
912.519	6772
912.633	6840
912.748	6749
912.862	6677
912.976	6585
913.09	6513
913.204	6555
913.318	6612
913.431	6642
913.545	6658
913.659	6703
913.772	6582
913.886	6646
914	6559
914.113	6620
914.226	6612
914.34	6627
914.453	6521
914.566	6662
914.68	6479
914.793	6528
914.906	6475
915.019	6357
915.132	6353
915.245	6388
915.358	6437
915.47	6441
915.583	6422
915.696	6498
915.809	6544
915.921	6574
916.034	6376
916.146	6441
916.259	6388
916.371	6502
916.483	6410
916.595	6376
916.708	6464
916.82	6334
916.932	6384
917.044	6353
917.156	6308
917.268	6334
917.38	6334
917.491	6327
917.603	6323
917.715	6429
917.826	6376
917.938	6338
918.049	6254
918.161	6376
918.272	6399
918.384	6403
918.495	6365
918.606	6266
918.717	6133
918.828	6262
918.939	6296
919.05	6205
919.161	6243
919.272	6110
919.383	6178
919.494	6296
919.604	6395
919.715	6338
919.826	6213
919.936	6289
920.047	6315
920.157	6213
920.267	6448
920.378	6311
920.488	6285
920.598	6498
920.708	6528
920.818	6483
920.928	6452
921.038	6616
921.148	6604
921.258	6391
921.368	6262
921.477	6178
921.587	6194
921.697	6110
921.806	6136
921.916	6098
922.025	5866
922.134	5908
922.244	5950
922.353	5904
922.462	5859
922.571	5786
922.68	5737
922.789	5630
922.898	5699
923.007	5638
923.116	5691
923.224	5627
923.333	5623
923.442	5573
923.55	5554
923.659	5619
923.767	5608
923.876	5482
923.984	5634
924.092	5509
924.201	5516
924.309	5543
924.417	5539
924.525	5455
924.633	5463
924.741	6254
924.849	5387
924.956	5486
925.064	5391
925.172	5284
925.279	5337
925.387	5364
925.494	5341
925.602	5429
925.709	5349
925.816	5265
925.924	5288
926.031	5364
926.138	5273
926.245	5330
926.352	5269
926.459	5360
926.566	5341
926.673	5212
926.779	5117
926.886	5174
926.993	5025
927.099	4976
927.206	4987
927.312	4915
927.419	5033
927.525	4980
927.631	4984
927.737	4885
927.843	4877
927.95	4740
928.056	4790
928.162	4870
928.267	4839
928.373	5376
928.479	4835
928.585	4714
928.69	4805
928.796	4778
928.901	4683
929.007	4554
929.112	4649
929.218	4641
929.323	4599
929.428	4577
929.533	4702
929.638	4481
929.743	4550
929.848	4512
929.953	4500
930.058	4485
930.163	4333
930.267	4348
930.372	4402
930.477	4276
930.581	4436
930.685	4337
930.79	4249
930.894	4291
930.998	4261
931.103	4409
931.207	4109
931.311	4082
931.415	4040
931.519	3975
931.623	3922
