Data from glass_V78500241_673.txt Node
Date: Wed Sep 01 19:19:09 CST 2021
User: usil
Spectrometer: V785-0024
Trigger mode: 0
Integration Time (sec): 4.000000E-1
Scans to average: 1
Nonlinearity correction enabled: false
Boxcar width: 0
Storing dark spectrum: false
XAxis mode: Wavelengths
Number of Pixels in Spectrum: 1024
>>>>>Begin Spectral Data<<<<<
801.071	3728
801.214	3759
801.356	3701
801.499	3743
801.641	3736
801.783	3808
801.926	3861
802.068	3873
802.211	3918
802.353	3896
802.496	3899
802.638	3903
802.78	3918
802.923	3956
803.065	3907
803.208	3854
803.35	3884
803.492	3888
803.635	3918
803.777	3789
803.919	3922
804.061	4150
804.204	3945
804.346	3949
804.488	3949
804.63	4021
804.773	3972
804.915	4029
805.057	4128
805.199	4029
805.341	4071
805.483	4166
805.626	4154
805.768	4147
805.91	4227
806.052	4234
806.194	4192
806.336	4360
806.478	4238
806.62	4173
806.762	4196
806.904	4295
807.046	4375
807.188	4249
807.33	4238
807.472	4261
807.614	4196
807.756	4246
807.898	4230
808.04	4230
808.182	4284
808.324	4375
808.465	4363
808.607	4504
808.749	4504
808.891	4466
809.033	4554
809.174	4417
809.316	4268
809.458	4261
809.6	4135
809.741	4166
809.883	4139
810.025	4207
810.166	4238
810.308	4192
810.45	4284
810.591	4204
810.733	4303
810.875	4558
811.016	4835
811.158	5098
811.299	5265
811.441	5273
811.582	5067
811.724	4717
811.865	4447
812.007	4474
812.148	4478
812.29	4409
812.431	4421
812.573	4424
812.714	4322
812.855	4443
812.997	4432
813.138	4508
813.279	4413
813.421	4413
813.562	4405
813.703	4344
813.845	4318
813.986	4299
814.127	4211
814.268	4276
814.41	4310
814.551	4265
814.692	4322
814.833	4287
814.974	4303
815.115	4344
815.256	4314
815.397	4207
815.539	4291
815.68	4227
815.821	4200
815.962	4303
816.103	4314
816.244	4253
816.385	4246
816.526	4310
816.666	4238
816.807	4090
816.948	4181
817.089	4215
817.23	4124
817.371	4086
817.512	4109
817.653	4082
817.793	4051
817.934	4078
818.075	4090
818.216	4090
818.356	4139
818.497	4017
818.638	3953
818.778	3926
818.919	3915
819.06	3846
819.2	3972
819.341	3941
819.481	3812
819.622	3907
819.762	4029
819.903	3972
820.043	3823
820.184	3892
820.324	3850
820.465	3918
820.605	3846
820.746	3857
820.886	3835
821.026	3937
821.167	3937
821.307	3956
821.447	3960
821.588	3953
821.728	3945
821.868	3934
822.008	3907
822.149	3979
822.289	3930
822.429	3778
822.569	3774
822.709	3857
822.849	3747
822.99	3740
823.13	3774
823.27	3793
823.41	3705
823.55	3766
823.69	3762
823.83	3747
823.97	3690
824.11	3633
824.25	3618
824.389	3698
824.529	3694
824.669	3652
824.809	3740
824.949	3766
825.089	3694
825.228	3717
825.368	3564
825.508	3572
825.648	3584
825.787	3618
825.927	3656
826.067	3671
826.206	3686
826.346	3800
826.485	3842
826.625	3835
826.765	3975
826.904	3819
827.044	3618
827.183	3564
827.323	3473
827.462	3538
827.601	3466
827.741	3431
827.88	3507
828.02	3389
828.159	3439
828.298	3542
828.437	3515
828.577	3534
828.716	3625
828.855	3523
828.994	3363
829.134	3351
829.273	3386
829.412	3370
829.551	3378
829.69	3389
829.829	3466
829.968	3523
830.107	3458
830.246	3458
830.385	3416
830.524	3351
830.663	3302
830.802	3260
830.941	3192
831.08	3184
831.219	3222
831.357	3253
831.496	3443
831.635	3222
831.774	3211
831.913	3245
832.051	3150
832.19	3169
832.329	3195
832.467	3192
832.606	3116
832.744	3161
832.883	3169
833.022	3222
833.16	3253
833.299	3336
833.437	3355
833.576	3382
833.714	3397
833.852	3447
833.991	3477
834.129	3462
834.267	3450
834.406	3420
834.544	3443
834.682	3420
834.821	3412
834.959	3564
835.097	3397
835.235	3557
835.373	3485
835.511	3496
835.65	3473
835.788	3469
835.926	3393
836.064	3397
836.202	3397
836.34	3606
836.478	3587
836.615	3610
836.753	3606
836.891	3694
837.029	3622
837.167	3591
837.305	3576
837.443	3584
837.58	3542
837.718	3629
837.856	3534
837.993	3523
838.131	3622
838.269	3568
838.406	3587
838.544	3606
838.681	3526
838.819	3488
838.956	3378
839.094	3447
839.231	3469
839.369	3530
839.506	3747
839.643	3641
839.781	3504
839.918	3496
840.055	3557
840.193	3515
840.33	3538
840.467	3587
840.604	3595
840.742	3846
840.879	3553
841.016	3603
841.153	3591
841.29	3778
841.427	3732
841.564	3766
841.701	3755
841.838	3762
841.975	3705
842.112	3709
842.249	3690
842.385	3625
842.522	3850
842.659	3717
842.796	3644
842.933	3709
843.069	3713
843.206	3690
843.343	3838
843.479	3797
843.616	3812
843.752	3675
843.889	3686
844.025	3846
844.162	3682
844.298	3850
844.435	3823
844.571	3778
844.708	3915
844.844	3983
844.98	4055
845.117	4032
845.253	3922
845.389	3880
845.525	3979
845.661	3953
845.798	3949
845.934	4006
846.07	3979
846.206	4029
846.342	4120
846.478	4082
846.614	3968
846.75	3903
846.886	3941
847.022	4074
847.158	4006
847.294	3987
847.429	4029
847.565	3979
847.701	4215
847.837	3934
847.972	3876
848.108	3945
848.244	4002
848.379	3854
848.515	3797
848.65	3816
848.786	3869
848.921	3854
849.057	3934
849.192	3953
849.328	3892
849.463	3884
849.598	3907
849.734	3899
849.869	3812
850.004	3850
850.14	3804
850.275	3759
850.41	3740
850.545	3823
850.68	3816
850.815	3827
850.95	3804
851.085	3987
851.22	3926
851.355	3793
851.49	3831
851.625	3797
851.76	3842
851.895	3778
852.03	3755
852.165	3819
852.299	3857
852.434	3941
852.569	3899
852.703	3850
852.838	3934
852.973	4002
853.107	3994
853.242	3896
853.376	3873
853.511	3804
853.645	3827
853.78	3991
853.914	3903
854.048	3953
854.183	3937
854.317	3987
854.451	4090
854.585	3964
854.72	3941
854.854	4074
854.988	3941
855.122	4021
855.256	3956
855.39	4044
855.524	4067
855.658	4112
855.792	4105
855.926	4150
856.06	4211
856.194	4177
856.327	4143
856.461	4150
856.595	4166
856.729	4192
856.862	4272
856.996	4253
857.13	4360
857.263	4348
857.397	4352
857.53	4291
857.664	4375
857.797	4432
857.931	4413
858.064	4371
858.197	4478
858.331	4341
858.464	4417
858.597	4363
858.731	4428
858.864	4424
858.997	4455
859.13	4558
859.263	4565
859.396	4580
859.529	4512
859.662	4531
859.795	4516
859.928	4622
860.061	4744
860.194	4771
860.327	4634
860.46	4668
860.592	4729
860.725	4736
860.858	4820
860.99	4702
861.123	4672
861.256	4774
861.388	4759
861.521	5318
861.653	4748
861.786	4683
861.918	4736
862.05	4862
862.183	4850
862.315	4953
862.447	4908
862.58	4908
862.712	4793
862.844	4812
862.976	4892
863.108	4881
863.24	5258
863.372	4850
863.504	4953
863.636	4915
863.768	4938
863.9	4976
864.032	4923
864.164	5037
864.296	5071
864.428	5056
864.559	5056
864.691	5113
864.823	5075
864.954	5094
865.086	5162
865.217	5117
865.349	5083
865.48	5189
865.612	5170
865.743	5284
865.875	5181
866.006	5178
866.137	5250
866.269	5212
866.4	5250
866.531	5299
866.662	5231
866.793	5318
866.924	5318
867.055	5364
867.186	5376
867.317	5364
867.448	5341
867.579	5353
867.71	5364
867.841	5398
867.972	5516
868.103	5440
868.233	5448
868.364	5471
868.495	5604
868.625	5672
868.756	5779
868.886	5684
869.017	5718
869.147	5840
869.278	5904
869.408	5844
869.539	5863
869.669	5923
869.799	5931
869.929	6038
870.06	6038
870.19	6247
870.32	6194
870.45	6285
870.58	6315
870.71	6407
870.84	6502
870.97	6452
871.1	6429
871.23	6616
871.36	6711
871.489	6631
871.619	6722
871.749	6825
871.879	6806
872.008	6981
872.138	7015
872.267	7072
872.397	7031
872.526	7095
872.656	7122
872.785	7225
872.915	7358
873.044	7605
873.173	7620
873.303	7632
873.432	7738
873.561	7887
873.69	7898
873.819	8039
873.948	8221
874.077	8244
874.206	8336
874.335	8423
874.464	8636
874.593	8823
874.722	8918
874.851	9150
874.979	9279
875.108	9439
875.237	9363
875.365	9469
875.494	9682
875.623	9827
875.751	9823
875.88	10002
876.008	10200
876.136	10367
876.265	10550
876.393	10782
876.521	10733
876.65	10850
876.778	10881
876.906	10930
877.034	11014
877.162	11166
877.29	11185
877.418	11166
877.546	11353
877.674	11379
877.802	11539
877.93	11524
878.058	11512
878.185	11566
878.313	11695
878.441	11714
878.568	11680
878.696	11824
878.824	11802
878.951	11946
879.079	12038
879.206	12117
879.333	12076
879.461	11965
879.588	12079
879.715	12095
879.842	12247
879.97	12064
880.097	11859
880.224	11874
880.351	11935
880.478	11939
880.605	11870
880.732	11863
880.859	12003
880.986	11786
881.112	11824
881.239	11756
881.366	11722
881.493	11577
881.619	11589
881.746	11581
881.872	11512
881.999	11577
882.125	11497
882.252	11608
882.378	11520
882.505	11592
882.631	11406
882.757	11269
882.883	11417
883.01	11288
883.136	11185
883.262	11136
883.388	11121
883.514	11208
883.64	11185
883.766	11124
883.892	10946
884.018	11029
884.143	11128
884.269	11151
884.395	10786
884.52	10748
884.646	10782
884.772	10714
884.897	10679
885.023	10698
885.148	10729
885.274	10752
885.399	10717
885.524	10573
885.65	10679
885.775	10649
885.9	10527
886.025	10603
886.15	10550
886.275	10443
886.4	10417
886.525	10413
886.65	10390
886.775	10398
886.9	10512
887.025	10512
887.149	10257
887.274	10303
887.399	10238
887.523	10188
887.648	10158
887.773	10150
887.897	10204
888.021	10150
888.146	10124
888.27	10291
888.395	10230
888.519	10234
888.643	10185
888.767	10105
888.891	10097
889.015	10032
889.139	10124
889.263	9934
889.387	10116
889.511	10162
889.635	10097
889.759	9983
889.883	9964
890.006	10048
890.13	10093
890.254	9975
890.377	9960
890.501	9903
890.624	9873
890.748	9854
890.871	9797
890.995	9850
891.118	9720
891.241	9778
891.364	9720
891.488	9816
891.611	9724
891.734	9762
891.857	9785
891.98	9778
892.103	9785
892.226	9816
892.349	9736
892.471	9488
892.594	9622
892.717	9576
892.839	9595
892.962	9641
893.085	9686
893.207	9614
893.33	9526
893.452	9564
893.575	9675
893.697	9576
893.819	9663
893.941	9572
894.064	9637
894.186	9507
894.308	9389
894.43	9587
894.552	9595
894.674	9523
894.796	9397
894.918	9389
895.04	9332
895.161	9313
895.283	9306
895.405	9298
895.526	9264
895.648	9256
895.769	9321
895.891	9264
896.012	9336
896.134	9249
896.255	9230
896.376	9169
896.498	9131
896.619	9157
896.74	8994
896.861	9085
896.982	9237
897.103	9298
897.224	9146
897.345	9036
897.466	8994
897.587	9100
897.708	9165
897.828	9017
897.949	8948
898.07	8929
898.19	8872
898.311	9001
898.431	8925
898.552	8952
898.672	9017
898.792	8971
898.913	8899
899.033	8807
899.153	8788
899.273	8705
899.393	8716
899.513	8777
899.633	8678
899.753	8769
899.873	8750
899.993	8746
900.113	8811
900.232	8705
900.352	8708
900.472	8568
900.591	8606
900.711	8625
900.83	8545
900.95	8693
901.069	8651
901.189	8629
901.308	8419
901.427	8396
901.546	8480
901.665	8454
901.784	8511
901.904	8408
902.023	8412
902.141	8229
902.26	8298
902.379	8286
902.498	8240
902.617	8183
902.735	8286
902.854	8298
902.973	8275
903.091	8157
903.21	8172
903.328	8172
903.446	8100
903.565	8043
903.683	8096
903.801	8050
903.919	8069
904.038	8111
904.156	8035
904.274	8054
904.392	8008
904.51	8081
904.627	8024
904.745	8134
904.863	8077
904.981	7902
905.098	7830
905.216	7947
905.334	7928
905.451	7883
905.569	7909
905.686	7898
905.803	7974
905.921	7780
906.038	7925
906.155	7750
906.272	7708
906.389	7731
906.506	7643
906.623	7655
906.74	7575
906.857	7594
906.974	7605
907.091	7704
907.208	7772
907.324	7624
907.441	7575
907.557	7464
907.674	7449
907.79	7472
907.907	7453
908.023	7506
908.139	7487
908.256	7453
908.372	7419
908.488	7407
908.604	7339
908.72	7282
908.836	7255
908.952	7228
909.068	7251
909.184	7327
909.3	7247
909.415	7285
909.531	7369
909.647	7141
909.762	7122
909.878	7110
909.993	7145
910.108	7114
910.224	7080
910.339	7156
910.454	7019
910.57	7053
910.685	6977
910.8	7202
910.915	7160
911.03	7072
911.145	6905
911.259	6916
911.374	6951
911.489	6810
911.604	6821
911.718	6745
911.833	6741
911.947	6703
912.062	6669
912.176	6681
912.291	6707
912.405	6703
912.519	6878
912.633	6863
912.748	6810
912.862	6673
912.976	6631
913.09	6490
913.204	6521
913.318	6639
913.431	6635
913.545	6703
913.659	6726
913.772	6738
913.886	6547
914	6540
914.113	6559
914.226	6650
914.34	6623
914.453	6471
914.566	6646
914.68	6627
914.793	6525
914.906	6479
915.019	6380
915.132	6426
915.245	6460
915.358	6448
915.47	6433
915.583	6494
915.696	6483
915.809	6532
915.921	6555
916.034	6426
916.146	6391
916.259	6384
916.371	6521
916.483	6418
916.595	6353
916.708	6422
916.82	6426
916.932	6403
917.044	6418
917.156	6376
917.268	6331
917.38	6376
917.491	6376
917.603	6338
917.715	6410
917.826	6475
917.938	6331
918.049	6292
918.161	6388
918.272	6388
918.384	6475
918.495	6391
918.606	6235
918.717	6281
918.828	6304
918.939	6311
919.05	6182
919.161	6266
919.272	6163
919.383	6155
919.494	6338
919.604	6391
919.715	6285
919.826	6266
919.936	6285
920.047	6323
920.157	6304
920.267	6517
920.378	6353
920.488	6300
920.598	6490
920.708	6574
920.818	6471
920.928	6467
921.038	6608
921.148	6547
921.258	6391
921.368	6323
921.477	6205
921.587	6220
921.697	6140
921.806	6175
921.916	6095
922.025	5973
922.134	5984
922.244	5920
922.353	5946
922.462	5866
922.571	5802
922.68	5745
922.789	5718
922.898	5745
923.007	5649
923.116	5745
923.224	5672
923.333	5676
923.442	5608
923.55	5592
923.659	5627
923.767	5649
923.876	5562
923.984	5611
924.092	5535
924.201	5589
924.309	5589
924.417	5562
924.525	5524
924.633	5509
924.741	6155
924.849	5376
924.956	5539
925.064	5383
925.172	5315
925.279	5322
925.387	5376
925.494	5368
925.602	5486
925.709	5368
925.816	5273
925.924	5311
926.031	5421
926.138	5261
926.245	5334
926.352	5204
926.459	5349
926.566	5360
926.673	5254
926.779	5132
926.886	5109
926.993	5048
927.099	5056
927.206	5029
927.312	4984
927.419	5029
927.525	5014
927.631	4980
927.737	4896
927.843	4854
927.95	4771
928.056	4812
928.162	4824
928.267	4896
928.373	5368
928.479	4873
928.585	4649
928.69	4782
928.796	4790
928.901	4702
929.007	4607
929.112	4649
929.218	4660
929.323	4554
929.428	4596
929.533	4698
929.638	4504
929.743	4565
929.848	4550
929.953	4512
930.058	4466
930.163	4318
930.267	4352
930.372	4432
930.477	4337
930.581	4466
930.685	4363
930.79	4295
930.894	4276
930.998	4253
931.103	4379
931.207	4128
931.311	4109
931.415	4040
931.519	3975
931.623	3941
