Data from glass_V78500241_201.txt Node
Date: Wed Sep 01 19:15:53 CST 2021
User: usil
Spectrometer: V785-0024
Trigger mode: 0
Integration Time (sec): 4.000000E-1
Scans to average: 1
Nonlinearity correction enabled: false
Boxcar width: 0
Storing dark spectrum: false
XAxis mode: Wavelengths
Number of Pixels in Spectrum: 1024
>>>>>Begin Spectral Data<<<<<
801.071	3720
801.214	3778
801.356	3751
801.499	3732
801.641	3759
801.783	3816
801.926	3903
802.068	3819
802.211	3915
802.353	3918
802.496	3865
802.638	3861
802.78	3945
802.923	3960
803.065	3941
803.208	3846
803.35	3907
803.492	3941
803.635	3926
803.777	3789
803.919	3869
804.061	4169
804.204	3956
804.346	3987
804.488	3949
804.63	4010
804.773	4017
804.915	4067
805.057	4124
805.199	4051
805.341	4143
805.483	4150
805.626	4181
805.768	4158
805.91	4200
806.052	4207
806.194	4223
806.336	4367
806.478	4207
806.62	4162
806.762	4200
806.904	4268
807.046	4344
807.188	4215
807.33	4150
807.472	4246
807.614	4211
807.756	4276
807.898	4215
808.04	4192
808.182	4329
808.324	4306
808.465	4360
808.607	4443
808.749	4474
808.891	4485
809.033	4504
809.174	4417
809.316	4257
809.458	4234
809.6	4154
809.741	4158
809.883	4173
810.025	4215
810.166	4230
810.308	4219
810.45	4261
810.591	4265
810.733	4314
810.875	4584
811.016	4847
811.158	5109
811.299	5288
811.441	5296
811.582	5102
811.724	4744
811.865	4516
812.007	4474
812.148	4455
812.29	4421
812.431	4455
812.573	4474
812.714	4394
812.855	4481
812.997	4405
813.138	4478
813.279	4424
813.421	4447
813.562	4398
813.703	4379
813.845	4322
813.986	4329
814.127	4246
814.268	4291
814.41	4295
814.551	4257
814.692	4318
814.833	4325
814.974	4276
815.115	4379
815.256	4291
815.397	4234
815.539	4265
815.68	4181
815.821	4211
815.962	4333
816.103	4299
816.244	4234
816.385	4246
816.526	4272
816.666	4215
816.807	4154
816.948	4204
817.089	4192
817.23	4116
817.371	4063
817.512	4086
817.653	4071
817.793	4040
817.934	4036
818.075	4158
818.216	4093
818.356	4074
818.497	3964
818.638	3953
818.778	3945
818.919	3945
819.06	3880
819.2	3937
819.341	3903
819.481	3846
819.622	3918
819.762	4013
819.903	3972
820.043	3873
820.184	3831
820.324	3846
820.465	3915
820.605	3876
820.746	3873
820.886	3812
821.026	3964
821.167	3937
821.307	4017
821.447	3979
821.588	3994
821.728	3937
821.868	3934
822.008	3869
822.149	3896
822.289	3888
822.429	3785
822.569	3755
822.709	3751
822.849	3747
822.99	3732
823.13	3759
823.27	3747
823.41	3740
823.55	3728
823.69	3717
823.83	3774
823.97	3682
824.11	3625
824.25	3618
824.389	3633
824.529	3656
824.669	3667
824.809	3732
824.949	3774
825.089	3740
825.228	3720
825.368	3606
825.508	3557
825.648	3618
825.787	3641
825.927	3667
826.067	3633
826.206	3701
826.346	3800
826.485	3873
826.625	3907
826.765	3930
826.904	3861
827.044	3660
827.183	3553
827.323	3443
827.462	3545
827.601	3466
827.741	3469
827.88	3469
828.02	3378
828.159	3496
828.298	3481
828.437	3557
828.577	3496
828.716	3652
828.855	3504
828.994	3382
829.134	3382
829.273	3435
829.412	3359
829.551	3374
829.69	3374
829.829	3458
829.968	3538
830.107	3450
830.246	3450
830.385	3405
830.524	3359
830.663	3313
830.802	3249
830.941	3199
831.08	3245
831.219	3241
831.357	3283
831.496	3447
831.635	3245
831.774	3188
831.913	3203
832.051	3127
832.19	3157
832.329	3222
832.467	3138
832.606	3085
832.744	3188
832.883	3199
833.022	3169
833.16	3256
833.299	3329
833.437	3344
833.576	3386
833.714	3405
833.852	3443
833.991	3439
834.129	3504
834.267	3443
834.406	3405
834.544	3466
834.682	3473
834.821	3416
834.959	3595
835.097	3397
835.235	3523
835.373	3515
835.511	3526
835.65	3450
835.788	3534
835.926	3443
836.064	3401
836.202	3412
836.34	3576
836.478	3606
836.615	3557
836.753	3637
836.891	3660
837.029	3625
837.167	3580
837.305	3572
837.443	3542
837.58	3507
837.718	3606
837.856	3591
837.993	3557
838.131	3633
838.269	3595
838.406	3633
838.544	3580
838.681	3477
838.819	3507
838.956	3409
839.094	3424
839.231	3462
839.369	3523
839.506	3766
839.643	3648
839.781	3538
839.918	3454
840.055	3587
840.193	3553
840.33	3496
840.467	3538
840.604	3633
840.742	3850
840.879	3557
841.016	3576
841.153	3625
841.29	3759
841.427	3762
841.564	3766
841.701	3751
841.838	3690
841.975	3675
842.112	3713
842.249	3641
842.385	3656
842.522	3861
842.659	3698
842.796	3682
842.933	3728
843.069	3720
843.206	3736
843.343	3842
843.479	3835
843.616	3892
843.752	3679
843.889	3724
844.025	3892
844.162	3759
844.298	3850
844.435	3800
844.571	3793
844.708	3869
844.844	4006
844.98	3998
845.117	4029
845.253	3918
845.389	3911
845.525	3945
845.661	3998
845.798	3922
845.934	4006
846.07	3975
846.206	4082
846.342	4177
846.478	4074
846.614	3953
846.75	3991
846.886	3922
847.022	4044
847.158	4021
847.294	3998
847.429	4048
847.565	4032
847.701	4253
847.837	3903
847.972	3869
848.108	4025
848.244	3972
848.379	3896
848.515	3842
848.65	3854
848.786	3861
848.921	3899
849.057	3945
849.192	3964
849.328	3865
849.463	3934
849.598	3892
849.734	3888
849.869	3865
850.004	3781
850.14	3808
850.275	3781
850.41	3732
850.545	3781
850.68	3857
850.815	3785
850.95	3816
851.085	3941
851.22	3907
851.355	3850
851.49	3778
851.625	3789
851.76	3857
851.895	3766
852.03	3736
852.165	3804
852.299	3850
852.434	3922
852.569	3880
852.703	3911
852.838	3915
852.973	4010
853.107	3968
853.242	3915
853.376	3865
853.511	3766
853.645	3857
853.78	3979
853.914	3876
854.048	3899
854.183	3930
854.317	3941
854.451	4101
854.585	3975
854.72	3926
854.854	4101
854.988	3934
855.122	3987
855.256	3930
855.39	4029
855.524	4109
855.658	4071
855.792	4112
855.926	4135
856.06	4188
856.194	4215
856.327	4230
856.461	4143
856.595	4154
856.729	4196
856.862	4299
856.996	4265
857.13	4322
857.263	4363
857.397	4386
857.53	4265
857.664	4386
857.797	4485
857.931	4462
858.064	4402
858.197	4459
858.331	4417
858.464	4405
858.597	4371
858.731	4462
858.864	4462
858.997	4474
859.13	4531
859.263	4569
859.396	4573
859.529	4550
859.662	4554
859.795	4531
859.928	4599
860.061	4721
860.194	4740
860.327	4683
860.46	4656
860.592	4748
860.725	4790
860.858	4752
860.99	4740
861.123	4691
861.256	4740
861.388	4767
861.521	5391
861.653	4763
861.786	4691
861.918	4710
862.05	4805
862.183	4885
862.315	4911
862.447	4987
862.58	4949
862.712	4850
862.844	4752
862.976	4854
863.108	4877
863.24	5208
863.372	4816
863.504	4961
863.636	4923
863.768	4972
863.9	4995
864.032	5029
864.164	4949
864.296	5025
864.428	5128
864.559	5109
864.691	5128
864.823	5185
864.954	5166
865.086	5178
865.217	5143
865.349	5121
865.48	5181
865.612	5193
865.743	5337
865.875	5181
866.006	5204
866.137	5239
866.269	5227
866.4	5258
866.531	5322
866.662	5254
866.793	5296
866.924	5265
867.055	5387
867.186	5357
867.317	5353
867.448	5345
867.579	5368
867.71	5368
867.841	5364
867.972	5440
868.103	5433
868.233	5486
868.364	5516
868.495	5493
868.625	5726
868.756	5771
868.886	5646
869.017	5760
869.147	5836
869.278	5855
869.408	5805
869.539	5859
869.669	5942
869.799	5889
869.929	6041
870.06	6026
870.19	6175
870.32	6182
870.45	6262
870.58	6262
870.71	6426
870.84	6445
870.97	6433
871.1	6445
871.23	6741
871.36	6696
871.489	6681
871.619	6760
871.749	6795
871.879	6920
872.008	6996
872.138	7019
872.267	7053
872.397	7000
872.526	7023
872.656	7114
872.785	7175
872.915	7343
873.044	7552
873.173	7601
873.303	7662
873.432	7734
873.561	7913
873.69	7879
873.819	8012
873.948	8214
874.077	8301
874.206	8366
874.335	8465
874.464	8693
874.593	8937
874.722	8960
874.851	9116
874.979	9283
875.108	9340
875.237	9397
875.365	9488
875.494	9610
875.623	9854
875.751	9819
875.88	10032
876.008	10143
876.136	10322
876.265	10573
876.393	10729
876.521	10710
876.65	10790
876.778	10900
876.906	10839
877.034	11025
877.162	11185
877.29	11212
877.418	11307
877.546	11337
877.674	11509
877.802	11436
877.93	11524
878.058	11505
878.185	11554
878.313	11661
878.441	11729
878.568	11691
878.696	11794
878.824	11813
878.951	11840
879.079	11999
879.206	12114
879.333	12117
879.461	11999
879.588	11988
879.715	12079
879.842	12205
879.97	12049
880.097	11950
880.224	11832
880.351	11939
880.478	11885
880.605	11840
880.732	11802
880.859	11988
880.986	11775
881.112	11901
881.239	11756
881.366	11737
881.493	11722
881.619	11551
881.746	11592
881.872	11638
881.999	11474
882.125	11463
882.252	11592
882.378	11528
882.505	11535
882.631	11341
882.757	11307
882.883	11349
883.01	11296
883.136	11227
883.262	11170
883.388	11075
883.514	11201
883.64	11185
883.766	11159
883.892	11025
884.018	10999
884.143	11079
884.269	11128
884.395	10847
884.52	10717
884.646	10790
884.772	10733
884.897	10615
885.023	10698
885.148	10748
885.274	10805
885.399	10763
885.524	10596
885.65	10698
885.775	10607
885.9	10607
886.025	10584
886.15	10603
886.275	10504
886.4	10462
886.525	10455
886.65	10375
886.775	10329
886.9	10489
887.025	10497
887.149	10348
887.274	10166
887.399	10223
887.523	10181
887.648	10162
887.773	10181
887.897	10272
888.021	10211
888.146	10082
888.27	10192
888.395	10234
888.519	10234
888.643	10131
888.767	10150
888.891	10166
889.015	10059
889.139	10032
889.263	9941
889.387	10059
889.511	10124
889.635	10112
889.759	10074
889.883	10082
890.006	9998
890.13	10048
890.254	10013
890.377	9960
890.501	9873
890.624	9884
890.748	9876
890.871	9766
890.995	9762
891.118	9743
891.241	9808
891.364	9743
891.488	9854
891.611	9732
891.734	9720
891.857	9736
891.98	9667
892.103	9766
892.226	9732
892.349	9728
892.471	9557
892.594	9568
892.717	9679
892.839	9587
892.962	9580
893.085	9663
893.207	9545
893.33	9549
893.452	9603
893.575	9603
893.697	9542
893.819	9595
893.941	9603
894.064	9618
894.186	9466
894.308	9405
894.43	9511
894.552	9553
894.674	9614
894.796	9405
894.918	9447
895.04	9351
895.161	9367
895.283	9401
895.405	9241
895.526	9249
895.648	9260
895.769	9222
895.891	9340
896.012	9264
896.134	9264
896.255	9161
896.376	9100
896.498	9169
896.619	9180
896.74	9119
896.861	9119
896.982	9256
897.103	9344
897.224	9138
897.345	9077
897.466	9051
897.587	9017
897.708	9119
897.828	9066
897.949	8994
898.07	8887
898.19	8925
898.311	9013
898.431	8971
898.552	8979
898.672	9017
898.792	8956
898.913	8868
899.033	8800
899.153	8708
899.273	8686
899.393	8743
899.513	8766
899.633	8682
899.753	8693
899.873	8613
899.993	8781
900.113	8712
900.232	8735
900.352	8632
900.472	8625
900.591	8590
900.711	8667
900.83	8610
900.95	8682
901.069	8731
901.189	8560
901.308	8396
901.427	8381
901.546	8415
901.665	8442
901.784	8571
901.904	8419
902.023	8332
902.141	8229
902.26	8267
902.379	8320
902.498	8259
902.617	8187
902.735	8290
902.854	8259
902.973	8324
903.091	8126
903.21	8168
903.328	8172
903.446	8123
903.565	8103
903.683	8081
903.801	8043
903.919	8107
904.038	8115
904.156	8031
904.274	8092
904.392	8043
904.51	8043
904.627	8100
904.745	8088
904.863	8138
904.981	7894
905.098	7879
905.216	7849
905.334	7883
905.451	7951
905.569	7856
905.686	7967
905.803	7955
905.921	7795
906.038	7860
906.155	7814
906.272	7696
906.389	7753
906.506	7662
906.623	7624
906.74	7628
906.857	7499
906.974	7559
907.091	7731
907.208	7757
907.324	7582
907.441	7582
907.557	7438
907.674	7411
907.79	7419
907.907	7411
908.023	7441
908.139	7438
908.256	7381
908.372	7365
908.488	7411
908.604	7289
908.72	7247
908.836	7312
908.952	7244
909.068	7266
909.184	7324
909.3	7247
909.415	7343
909.531	7209
909.647	7141
909.762	7095
909.878	7034
909.993	7156
910.108	7091
910.224	7095
910.339	7091
910.454	7084
910.57	7034
910.685	7027
910.8	7187
910.915	7114
911.03	6981
911.145	6943
911.259	6894
911.374	6856
911.489	6852
911.604	6772
911.718	6741
911.833	6703
911.947	6681
912.062	6639
912.176	6703
912.291	6665
912.405	6734
912.519	6829
912.633	6844
912.748	6779
912.862	6711
912.976	6589
913.09	6509
913.204	6612
913.318	6673
913.431	6627
913.545	6703
913.659	6818
913.772	6745
913.886	6616
914	6612
914.113	6665
914.226	6639
914.34	6616
914.453	6513
914.566	6642
914.68	6464
914.793	6578
914.906	6407
915.019	6391
915.132	6407
915.245	6422
915.358	6437
915.47	6429
915.583	6483
915.696	6483
915.809	6509
915.921	6601
916.034	6445
916.146	6410
916.259	6350
916.371	6460
916.483	6471
916.595	6407
916.708	6471
916.82	6452
916.932	6395
917.044	6391
917.156	6361
917.268	6327
917.38	6380
917.491	6331
917.603	6426
917.715	6376
917.826	6410
917.938	6311
918.049	6235
918.161	6391
918.272	6460
918.384	6456
918.495	6369
918.606	6296
918.717	6216
918.828	6277
918.939	6270
919.05	6209
919.161	6235
919.272	6114
919.383	6167
919.494	6273
919.604	6418
919.715	6365
919.826	6254
919.936	6323
920.047	6323
920.157	6338
920.267	6475
920.378	6338
920.488	6319
920.598	6513
920.708	6646
920.818	6388
920.928	6509
921.038	6620
921.148	6623
921.258	6388
921.368	6311
921.477	6266
921.587	6232
921.697	6144
921.806	6262
921.916	6125
922.025	5939
922.134	5939
922.244	5885
922.353	5931
922.462	5870
922.571	5794
922.68	5771
922.789	5737
922.898	5676
923.007	5646
923.116	5779
923.224	5691
923.333	5695
923.442	5627
923.55	5554
923.659	5589
923.767	5634
923.876	5562
923.984	5638
924.092	5497
924.201	5539
924.309	5543
924.417	5554
924.525	5524
924.633	5524
924.741	6171
924.849	5417
924.956	5497
925.064	5398
925.172	5330
925.279	5364
925.387	5376
925.494	5357
925.602	5421
925.709	5402
925.816	5303
925.924	5326
926.031	5376
926.138	5334
926.245	5299
926.352	5258
926.459	5353
926.566	5360
926.673	5189
926.779	5197
926.886	5102
926.993	5037
927.099	5018
927.206	5067
927.312	5010
927.419	5075
927.525	4987
927.631	4987
927.737	4923
927.843	4866
927.95	4759
928.056	4835
928.162	4889
928.267	4843
928.373	5288
928.479	4847
928.585	4698
928.69	4793
928.796	4828
928.901	4714
929.007	4592
929.112	4694
929.218	4691
929.323	4653
929.428	4565
929.533	4687
929.638	4580
929.743	4558
929.848	4554
929.953	4531
930.058	4508
930.163	4333
930.267	4363
930.372	4432
930.477	4344
930.581	4466
930.685	4424
930.79	4291
930.894	4284
930.998	4310
931.103	4367
931.207	4162
931.311	4105
931.415	4093
931.519	3903
931.623	3941
