Data from glass_V78500241_2221.txt Node
Date: Wed Sep 01 19:29:53 CST 2021
User: usil
Spectrometer: V785-0024
Trigger mode: 0
Integration Time (sec): 4.000000E-1
Scans to average: 1
Nonlinearity correction enabled: false
Boxcar width: 0
Storing dark spectrum: false
XAxis mode: Wavelengths
Number of Pixels in Spectrum: 1024
>>>>>Begin Spectral Data<<<<<
801.071	3770
801.214	3747
801.356	3667
801.499	3785
801.641	3736
801.783	3778
801.926	3846
802.068	3819
802.211	3808
802.353	3835
802.496	3827
802.638	3892
802.78	3888
802.923	3918
803.065	3873
803.208	3823
803.35	3873
803.492	3911
803.635	3861
803.777	3812
803.919	3865
804.061	4147
804.204	3911
804.346	3953
804.488	3937
804.63	4048
804.773	4013
804.915	3975
805.057	4128
805.199	4036
805.341	4063
805.483	4135
805.626	4093
805.768	4128
805.91	4192
806.052	4207
806.194	4207
806.336	4295
806.478	4223
806.62	4131
806.762	4200
806.904	4242
807.046	4318
807.188	4204
807.33	4207
807.472	4249
807.614	4188
807.756	4257
807.898	4200
808.04	4169
808.182	4287
808.324	4360
808.465	4295
808.607	4447
808.749	4493
808.891	4493
809.033	4478
809.174	4413
809.316	4306
809.458	4200
809.6	4139
809.741	4181
809.883	4128
810.025	4223
810.166	4227
810.308	4223
810.45	4234
810.591	4196
810.733	4333
810.875	4504
811.016	4831
811.158	5102
811.299	5235
811.441	5280
811.582	5094
811.724	4641
811.865	4447
812.007	4462
812.148	4485
812.29	4398
812.431	4402
812.573	4383
812.714	4405
812.855	4386
812.997	4413
813.138	4504
813.279	4451
813.421	4390
813.562	4405
813.703	4299
813.845	4303
813.986	4246
814.127	4234
814.268	4234
814.41	4306
814.551	4257
814.692	4306
814.833	4303
814.974	4287
815.115	4360
815.256	4249
815.397	4185
815.539	4230
815.68	4169
815.821	4227
815.962	4276
816.103	4280
816.244	4246
816.385	4200
816.526	4284
816.666	4173
816.807	4093
816.948	4192
817.089	4150
817.23	4120
817.371	4063
817.512	4044
817.653	4120
817.793	4059
817.934	4067
818.075	4101
818.216	4071
818.356	4071
818.497	3975
818.638	3857
818.778	3926
818.919	3892
819.06	3865
819.2	3876
819.341	3903
819.481	3816
819.622	3907
819.762	3979
819.903	3998
820.043	3846
820.184	3850
820.324	3823
820.465	3831
820.605	3850
820.746	3846
820.886	3774
821.026	3926
821.167	3907
821.307	3949
821.447	4010
821.588	3937
821.728	3918
821.868	3907
822.008	3888
822.149	3926
822.289	3903
822.429	3789
822.569	3755
822.709	3785
822.849	3694
822.99	3686
823.13	3766
823.27	3766
823.41	3709
823.55	3698
823.69	3717
823.83	3732
823.97	3656
824.11	3580
824.25	3614
824.389	3629
824.529	3675
824.669	3648
824.809	3709
824.949	3740
825.089	3682
825.228	3663
825.368	3587
825.508	3538
825.648	3580
825.787	3614
825.927	3587
826.067	3591
826.206	3641
826.346	3720
826.485	3819
826.625	3854
826.765	3987
826.904	3827
827.044	3622
827.183	3545
827.323	3382
827.462	3454
827.601	3389
827.741	3443
827.88	3401
828.02	3363
828.159	3428
828.298	3492
828.437	3538
828.577	3454
828.716	3610
828.855	3496
828.994	3420
829.134	3386
829.273	3386
829.412	3332
829.551	3332
829.69	3348
829.829	3431
829.968	3485
830.107	3393
830.246	3454
830.385	3424
830.524	3355
830.663	3317
830.802	3279
830.941	3150
831.08	3165
831.219	3218
831.357	3272
831.496	3370
831.635	3176
831.774	3176
831.913	3184
832.051	3116
832.19	3116
832.329	3214
832.467	3142
832.606	3104
832.744	3180
832.883	3226
833.022	3176
833.16	3249
833.299	3306
833.437	3298
833.576	3359
833.714	3412
833.852	3431
833.991	3458
834.129	3454
834.267	3462
834.406	3393
834.544	3401
834.682	3393
834.821	3401
834.959	3553
835.097	3412
835.235	3515
835.373	3492
835.511	3492
835.65	3447
835.788	3504
835.926	3378
836.064	3401
836.202	3416
836.34	3572
836.478	3576
836.615	3504
836.753	3599
836.891	3618
837.029	3606
837.167	3572
837.305	3561
837.443	3511
837.58	3492
837.718	3576
837.856	3526
837.993	3515
838.131	3606
838.269	3603
838.406	3564
838.544	3561
838.681	3466
838.819	3431
838.956	3382
839.094	3336
839.231	3428
839.369	3485
839.506	3717
839.643	3603
839.781	3511
839.918	3477
840.055	3523
840.193	3519
840.33	3526
840.467	3591
840.604	3603
840.742	3774
840.879	3523
841.016	3584
841.153	3564
841.29	3774
841.427	3705
841.564	3740
841.701	3736
841.838	3705
841.975	3694
842.112	3629
842.249	3610
842.385	3625
842.522	3827
842.659	3690
842.796	3637
842.933	3701
843.069	3663
843.206	3701
843.343	3778
843.479	3743
843.616	3827
843.752	3656
843.889	3652
844.025	3838
844.162	3755
844.298	3835
844.435	3808
844.571	3774
844.708	3880
844.844	3979
844.98	4021
845.117	4010
845.253	3907
845.389	3918
845.525	3979
845.661	3934
845.798	3888
845.934	3998
846.07	3949
846.206	4040
846.342	4097
846.478	4063
846.614	3945
846.75	3930
846.886	3873
847.022	4048
847.158	3998
847.294	3991
847.429	4029
847.565	3975
847.701	4219
847.837	3842
847.972	3884
848.108	3949
848.244	3994
848.379	3842
848.515	3846
848.65	3804
848.786	3835
848.921	3857
849.057	3899
849.192	3964
849.328	3850
849.463	3930
849.598	3857
849.734	3911
849.869	3827
850.004	3800
850.14	3751
850.275	3743
850.41	3747
850.545	3732
850.68	3732
850.815	3793
850.95	3804
851.085	3930
851.22	3846
851.355	3850
851.49	3797
851.625	3800
851.76	3770
851.895	3755
852.03	3717
852.165	3781
852.299	3819
852.434	3896
852.569	3876
852.703	3907
852.838	3945
852.973	3972
853.107	3964
853.242	3876
853.376	3816
853.511	3781
853.645	3831
853.78	3975
853.914	3892
854.048	3884
854.183	3831
854.317	3926
854.451	4067
854.585	3941
854.72	4002
854.854	4048
854.988	3915
855.122	3975
855.256	3934
855.39	3991
855.524	4116
855.658	4090
855.792	4101
855.926	4131
856.06	4093
856.194	4200
856.327	4158
856.461	4105
856.595	4131
856.729	4154
856.862	4299
856.996	4227
857.13	4325
857.263	4337
857.397	4360
857.53	4295
857.664	4360
857.797	4436
857.931	4417
858.064	4371
858.197	4443
858.331	4402
858.464	4371
858.597	4367
858.731	4417
858.864	4424
858.997	4436
859.13	4459
859.263	4500
859.396	4630
859.529	4481
859.662	4527
859.795	4527
859.928	4599
860.061	4679
860.194	4702
860.327	4675
860.46	4626
860.592	4698
860.725	4767
860.858	4782
860.99	4645
861.123	4698
861.256	4725
861.388	4755
861.521	5429
861.653	4687
861.786	4683
861.918	4729
862.05	4805
862.183	4828
862.315	4934
862.447	4919
862.58	4889
862.712	4824
862.844	4801
862.976	4824
863.108	4892
863.24	5155
863.372	4805
863.504	4923
863.636	4889
863.768	4934
863.9	4938
864.032	4923
864.164	4995
864.296	4987
864.428	5105
864.559	5128
864.691	5079
864.823	5094
864.954	5109
865.086	5124
865.217	5117
865.349	5109
865.48	5140
865.612	5216
865.743	5261
865.875	5178
866.006	5216
866.137	5185
866.269	5216
866.4	5311
866.531	5296
866.662	5277
866.793	5269
866.924	5296
867.055	5273
867.186	5299
867.317	5322
867.448	5330
867.579	5368
867.71	5364
867.841	5341
867.972	5455
868.103	5467
868.233	5455
868.364	5501
868.495	5577
868.625	5688
868.756	5855
868.886	5661
869.017	5748
869.147	5805
869.278	5866
869.408	5779
869.539	5798
869.669	5901
869.799	5912
869.929	5958
870.06	5946
870.19	6201
870.32	6152
870.45	6251
870.58	6342
870.71	6403
870.84	6445
870.97	6433
871.1	6429
871.23	6601
871.36	6688
871.489	6646
871.619	6738
871.749	6802
871.879	6909
872.008	6951
872.138	6966
872.267	6954
872.397	6954
872.526	7012
872.656	7038
872.785	7225
872.915	7415
873.044	7537
873.173	7483
873.303	7605
873.432	7727
873.561	7818
873.69	7898
873.819	8005
873.948	8100
874.077	8282
874.206	8305
874.335	8415
874.464	8682
874.593	8826
874.722	8921
874.851	9066
874.979	9214
875.108	9401
875.237	9450
875.365	9386
875.494	9633
875.623	9793
875.751	9778
875.88	9994
876.008	10150
876.136	10325
876.265	10592
876.393	10710
876.521	10721
876.65	10801
876.778	10839
876.906	10946
877.034	11060
877.162	11018
877.29	11094
877.418	11296
877.546	11318
877.674	11425
877.802	11516
877.93	11459
878.058	11433
878.185	11600
878.313	11695
878.441	11707
878.568	11718
878.696	11783
878.824	11832
878.951	11912
879.079	11977
879.206	12068
879.333	12022
879.461	11988
879.588	12064
879.715	12095
879.842	12197
879.97	12076
880.097	11847
880.224	11870
880.351	11824
880.478	11870
880.605	11824
880.732	11813
880.859	11980
880.986	11786
881.112	11882
881.239	11707
881.366	11615
881.493	11539
881.619	11524
881.746	11608
881.872	11512
881.999	11429
882.125	11486
882.252	11448
882.378	11501
882.505	11509
882.631	11398
882.757	11307
882.883	11349
883.01	11178
883.136	11121
883.262	11086
883.388	11094
883.514	11170
883.64	11185
883.766	11162
883.892	11060
884.018	10999
884.143	10995
884.269	11060
884.395	10885
884.52	10793
884.646	10736
884.772	10691
884.897	10611
885.023	10675
885.148	10691
885.274	10828
885.399	10672
885.524	10626
885.65	10531
885.775	10554
885.9	10516
886.025	10512
886.15	10584
886.275	10481
886.4	10341
886.525	10459
886.65	10360
886.775	10291
886.9	10508
887.025	10474
887.149	10344
887.274	10272
887.399	10223
887.523	10101
887.648	10223
887.773	10124
887.897	10253
888.021	10234
888.146	10139
888.27	10261
888.395	10211
888.519	10082
888.643	10139
888.767	10135
888.891	10131
889.015	10006
889.139	10017
889.263	9991
889.387	10063
889.511	10158
889.635	10078
889.759	9937
889.883	10002
890.006	10044
890.13	10063
890.254	9911
890.377	9880
890.501	9846
890.624	9835
890.748	9953
890.871	9751
890.995	9682
891.118	9656
891.241	9740
891.364	9747
891.488	9846
891.611	9740
891.734	9762
891.857	9766
891.98	9717
892.103	9736
892.226	9740
892.349	9671
892.471	9542
892.594	9618
892.717	9564
892.839	9633
892.962	9610
893.085	9641
893.207	9564
893.33	9549
893.452	9477
893.575	9530
893.697	9530
893.819	9599
893.941	9568
894.064	9564
894.186	9443
894.308	9393
894.43	9485
894.552	9523
894.674	9488
894.796	9374
894.918	9401
895.04	9306
895.161	9355
895.283	9332
895.405	9302
895.526	9253
895.648	9203
895.769	9218
895.891	9291
896.012	9256
896.134	9264
896.255	9184
896.376	9131
896.498	9138
896.619	9131
896.74	9077
896.861	9093
896.982	9283
897.103	9287
897.224	9192
897.345	9055
897.466	8956
897.587	8975
897.708	9043
897.828	8994
897.949	8883
898.07	8876
898.19	8910
898.311	9017
898.431	8857
898.552	8880
898.672	8990
898.792	8906
898.913	8933
899.033	8773
899.153	8769
899.273	8678
899.393	8705
899.513	8708
899.633	8754
899.753	8762
899.873	8621
899.993	8762
900.113	8743
900.232	8689
900.352	8610
900.472	8598
900.591	8541
900.711	8560
900.83	8537
900.95	8648
901.069	8701
901.189	8518
901.308	8442
901.427	8393
901.546	8427
901.665	8446
901.784	8514
901.904	8362
902.023	8347
902.141	8206
902.26	8168
902.379	8275
902.498	8149
902.617	8244
902.735	8317
902.854	8328
902.973	8339
903.091	8081
903.21	8084
903.328	8157
903.446	8103
903.565	8039
903.683	8130
903.801	8024
903.919	8088
904.038	8031
904.156	7997
904.274	8130
904.392	8001
904.51	7959
904.627	8016
904.745	8062
904.863	8031
904.981	7913
905.098	7837
905.216	7864
905.334	7913
905.451	7898
905.569	7841
905.686	7936
905.803	7875
905.921	7723
906.038	7883
906.155	7776
906.272	7742
906.389	7677
906.506	7628
906.623	7578
906.74	7590
906.857	7438
906.974	7525
907.091	7689
907.208	7685
907.324	7658
907.441	7616
907.557	7514
907.674	7419
907.79	7441
907.907	7369
908.023	7407
908.139	7472
908.256	7388
908.372	7411
908.488	7377
908.604	7247
908.72	7270
908.836	7247
908.952	7244
909.068	7297
909.184	7297
909.3	7221
909.415	7270
909.531	7251
909.647	7141
909.762	7072
909.878	7088
909.993	7160
910.108	7076
910.224	7050
910.339	7088
910.454	7069
910.57	6924
910.685	6924
910.8	7141
910.915	7107
911.03	6958
911.145	6897
911.259	6920
911.374	6878
911.489	6825
911.604	6757
911.718	6707
911.833	6745
911.947	6589
912.062	6536
912.176	6749
912.291	6703
912.405	6703
912.519	6829
912.633	6867
912.748	6703
912.862	6692
912.976	6669
913.09	6513
913.204	6585
913.318	6627
913.431	6654
913.545	6631
913.659	6707
913.772	6612
913.886	6589
914	6597
914.113	6627
914.226	6601
914.34	6555
914.453	6498
914.566	6642
914.68	6528
914.793	6551
914.906	6429
915.019	6391
915.132	6342
915.245	6437
915.358	6372
915.47	6441
915.583	6494
915.696	6471
915.809	6525
915.921	6559
916.034	6437
916.146	6437
916.259	6403
916.371	6433
916.483	6445
916.595	6395
916.708	6433
916.82	6357
916.932	6357
917.044	6391
917.156	6323
917.268	6273
917.38	6361
917.491	6331
917.603	6270
917.715	6399
917.826	6441
917.938	6350
918.049	6247
918.161	6357
918.272	6403
918.384	6433
918.495	6361
918.606	6247
918.717	6163
918.828	6285
918.939	6353
919.05	6216
919.161	6247
919.272	6102
919.383	6194
919.494	6315
919.604	6391
919.715	6262
919.826	6224
919.936	6175
920.047	6384
920.157	6235
920.267	6517
920.378	6319
920.488	6232
920.598	6490
920.708	6532
920.818	6467
920.928	6399
921.038	6593
921.148	6521
921.258	6361
921.368	6258
921.477	6140
921.587	6167
921.697	6064
921.806	6152
921.916	6045
922.025	5935
922.134	5870
922.244	5836
922.353	5897
922.462	5794
922.571	5855
922.68	5657
922.789	5691
922.898	5691
923.007	5657
923.116	5745
923.224	5661
923.333	5665
923.442	5608
923.55	5596
923.659	5497
923.767	5646
923.876	5501
923.984	5604
924.092	5493
924.201	5543
924.309	5497
924.417	5535
924.525	5474
924.633	5436
924.741	6247
924.849	5368
924.956	5474
925.064	5330
925.172	5353
925.279	5288
925.387	5414
925.494	5296
925.602	5360
925.709	5368
925.816	5223
925.924	5296
926.031	5337
926.138	5322
926.245	5307
926.352	5212
926.459	5273
926.566	5311
926.673	5185
926.779	5086
926.886	5124
926.993	5010
927.099	5014
927.206	4934
927.312	4885
927.419	5018
927.525	4987
927.631	4991
927.737	4919
927.843	4885
927.95	4767
928.056	4805
928.162	4809
928.267	4831
928.373	5360
928.479	4816
928.585	4664
928.69	4759
928.796	4748
928.901	4675
929.007	4554
929.112	4649
929.218	4656
929.323	4569
929.428	4527
929.533	4660
929.638	4542
929.743	4497
929.848	4577
929.953	4519
930.058	4451
930.163	4344
930.267	4325
930.372	4474
930.477	4314
930.581	4485
930.685	4394
930.79	4249
930.894	4246
930.998	4246
931.103	4333
931.207	4124
931.311	4051
931.415	4017
931.519	3918
931.623	3953
