Data from glass_V78500241_1774.txt Node
Date: Wed Sep 01 19:26:47 CST 2021
User: usil
Spectrometer: V785-0024
Trigger mode: 0
Integration Time (sec): 4.000000E-1
Scans to average: 1
Nonlinearity correction enabled: false
Boxcar width: 0
Storing dark spectrum: false
XAxis mode: Wavelengths
Number of Pixels in Spectrum: 1024
>>>>>Begin Spectral Data<<<<<
801.071	3732
801.214	3724
801.356	3663
801.499	3755
801.641	3713
801.783	3804
801.926	3823
802.068	3835
802.211	3823
802.353	3892
802.496	3816
802.638	3861
802.78	3926
802.923	3968
803.065	3888
803.208	3789
803.35	3869
803.492	3922
803.635	3922
803.777	3819
803.919	3922
804.061	4131
804.204	3960
804.346	3964
804.488	3953
804.63	4059
804.773	3983
804.915	4032
805.057	4154
805.199	4067
805.341	4048
805.483	4112
805.626	4124
805.768	4128
805.91	4196
806.052	4196
806.194	4188
806.336	4325
806.478	4188
806.62	4162
806.762	4150
806.904	4257
807.046	4379
807.188	4242
807.33	4185
807.472	4185
807.614	4200
807.756	4287
807.898	4211
808.04	4211
808.182	4299
808.324	4333
808.465	4421
808.607	4481
808.749	4424
808.891	4500
809.033	4470
809.174	4462
809.316	4249
809.458	4261
809.6	4188
809.741	4143
809.883	4169
810.025	4211
810.166	4207
810.308	4181
810.45	4280
810.591	4223
810.733	4227
810.875	4565
811.016	4881
811.158	5128
811.299	5269
811.441	5273
811.582	5033
811.724	4710
811.865	4470
812.007	4462
812.148	4409
812.29	4405
812.431	4459
812.573	4409
812.714	4333
812.855	4462
812.997	4405
813.138	4470
813.279	4398
813.421	4383
813.562	4318
813.703	4341
813.845	4322
813.986	4272
814.127	4211
814.268	4299
814.41	4291
814.551	4295
814.692	4337
814.833	4268
814.974	4318
815.115	4386
815.256	4287
815.397	4207
815.539	4238
815.68	4188
815.821	4192
815.962	4337
816.103	4242
816.244	4238
816.385	4223
816.526	4284
816.666	4192
816.807	4086
816.948	4166
817.089	4181
817.23	4162
817.371	4006
817.512	4048
817.653	4090
817.793	4010
817.934	4021
818.075	4090
818.216	4071
818.356	4055
818.497	3998
818.638	3865
818.778	3922
818.919	3869
819.06	3873
819.2	3907
819.341	3835
819.481	3804
819.622	3922
819.762	4055
819.903	3979
820.043	3861
820.184	3831
820.324	3816
820.465	3846
820.605	3911
820.746	3831
820.886	3838
821.026	3941
821.167	3930
821.307	3949
821.447	3998
821.588	3968
821.728	3934
821.868	3884
822.008	3869
822.149	3896
822.289	3861
822.429	3808
822.569	3740
822.709	3793
822.849	3698
822.99	3675
823.13	3728
823.27	3751
823.41	3698
823.55	3720
823.69	3759
823.83	3759
823.97	3671
824.11	3625
824.25	3622
824.389	3595
824.529	3637
824.669	3629
824.809	3759
824.949	3705
825.089	3705
825.228	3705
825.368	3591
825.508	3557
825.648	3584
825.787	3572
825.927	3641
826.067	3637
826.206	3641
826.346	3751
826.485	3846
826.625	3854
826.765	3960
826.904	3850
827.044	3568
827.183	3519
827.323	3435
827.462	3481
827.601	3405
827.741	3439
827.88	3450
828.02	3374
828.159	3431
828.298	3488
828.437	3549
828.577	3439
828.716	3606
828.855	3500
828.994	3412
829.134	3359
829.273	3405
829.412	3363
829.551	3279
829.69	3348
829.829	3401
829.968	3519
830.107	3428
830.246	3443
830.385	3359
830.524	3359
830.663	3272
830.802	3264
830.941	3230
831.08	3184
831.219	3272
831.357	3268
831.496	3412
831.635	3253
831.774	3188
831.913	3173
832.051	3146
832.19	3138
832.329	3214
832.467	3119
832.606	3123
832.744	3150
832.883	3188
833.022	3176
833.16	3253
833.299	3313
833.437	3313
833.576	3401
833.714	3401
833.852	3389
833.991	3416
834.129	3473
834.267	3443
834.406	3382
834.544	3458
834.682	3397
834.821	3416
834.959	3587
835.097	3431
835.235	3488
835.373	3507
835.511	3485
835.65	3454
835.788	3443
835.926	3397
836.064	3374
836.202	3409
836.34	3553
836.478	3572
836.615	3542
836.753	3606
836.891	3656
837.029	3637
837.167	3549
837.305	3534
837.443	3534
837.58	3507
837.718	3576
837.856	3545
837.993	3523
838.131	3568
838.269	3591
838.406	3576
838.544	3526
838.681	3447
838.819	3458
838.956	3378
839.094	3409
839.231	3435
839.369	3492
839.506	3698
839.643	3633
839.781	3462
839.918	3439
840.055	3545
840.193	3492
840.33	3500
840.467	3576
840.604	3595
840.742	3816
840.879	3534
841.016	3584
841.153	3633
841.29	3705
841.427	3698
841.564	3728
841.701	3736
841.838	3705
841.975	3686
842.112	3709
842.249	3660
842.385	3633
842.522	3819
842.659	3690
842.796	3660
842.933	3747
843.069	3663
843.206	3679
843.343	3781
843.479	3762
843.616	3793
843.752	3675
843.889	3633
844.025	3823
844.162	3698
844.298	3850
844.435	3781
844.571	3785
844.708	3876
844.844	4017
844.98	4006
845.117	3949
845.253	3918
845.389	3941
845.525	3991
845.661	3979
845.798	3907
845.934	4048
846.07	3953
846.206	4082
846.342	4120
846.478	4086
846.614	3964
846.75	3987
846.886	3945
847.022	4017
847.158	3960
847.294	3987
847.429	3994
847.565	3960
847.701	4257
847.837	3869
847.972	3842
848.108	3972
848.244	3964
848.379	3884
848.515	3812
848.65	3797
848.786	3861
848.921	3804
849.057	3903
849.192	3964
849.328	3892
849.463	3896
849.598	3899
849.734	3876
849.869	3823
850.004	3800
850.14	3819
850.275	3740
850.41	3743
850.545	3732
850.68	3778
850.815	3804
850.95	3804
851.085	3922
851.22	3888
851.355	3842
851.49	3831
851.625	3762
851.76	3789
851.895	3762
852.03	3713
852.165	3804
852.299	3861
852.434	3903
852.569	3880
852.703	3903
852.838	3888
852.973	3987
853.107	3979
853.242	3865
853.376	3888
853.511	3785
853.645	3842
853.78	3956
853.914	3896
854.048	3899
854.183	3899
854.317	3979
854.451	4010
854.585	3975
854.72	3922
854.854	4002
854.988	3934
855.122	4063
855.256	3907
855.39	4021
855.524	4082
855.658	4086
855.792	4120
855.926	4147
856.06	4131
856.194	4196
856.327	4158
856.461	4097
856.595	4135
856.729	4207
856.862	4272
856.996	4261
857.13	4272
857.263	4268
857.397	4329
857.53	4272
857.664	4337
857.797	4383
857.931	4436
858.064	4417
858.197	4436
858.331	4402
858.464	4390
858.597	4356
858.731	4413
858.864	4489
858.997	4421
859.13	4546
859.263	4512
859.396	4580
859.529	4516
859.662	4500
859.795	4523
859.928	4565
860.061	4717
860.194	4740
860.327	4702
860.46	4649
860.592	4767
860.725	4767
860.858	4801
860.99	4702
861.123	4645
861.256	4698
861.388	4748
861.521	5417
861.653	4725
861.786	4717
861.918	4752
862.05	4774
862.183	4854
862.315	4866
862.447	4919
862.58	4896
862.712	4805
862.844	4763
862.976	4862
863.108	4843
863.24	5288
863.372	4831
863.504	4900
863.636	4915
863.768	4968
863.9	4965
864.032	4904
864.164	4961
864.296	4995
864.428	5086
864.559	5075
864.691	5143
864.823	5117
864.954	5086
865.086	5181
865.217	5105
865.349	5143
865.48	5170
865.612	5189
865.743	5277
865.875	5193
866.006	5174
866.137	5250
866.269	5201
866.4	5212
866.531	5242
866.662	5212
866.793	5254
866.924	5318
867.055	5341
867.186	5353
867.317	5307
867.448	5303
867.579	5421
867.71	5429
867.841	5383
867.972	5459
868.103	5482
868.233	5497
868.364	5520
868.495	5562
868.625	5710
868.756	5752
868.886	5634
869.017	5722
869.147	5821
869.278	5916
869.408	5817
869.539	5878
869.669	5942
869.799	5931
869.929	5950
870.06	6003
870.19	6190
870.32	6216
870.45	6262
870.58	6334
870.71	6395
870.84	6532
870.97	6369
871.1	6452
871.23	6650
871.36	6719
871.489	6662
871.619	6798
871.749	6745
871.879	6901
872.008	6935
872.138	6962
872.267	6989
872.397	7015
872.526	7046
872.656	7065
872.785	7236
872.915	7403
873.044	7502
873.173	7472
873.303	7613
873.432	7746
873.561	7860
873.69	7913
873.819	7997
873.948	8126
874.077	8294
874.206	8343
874.335	8408
874.464	8621
874.593	8853
874.722	8937
874.851	9062
874.979	9291
875.108	9329
875.237	9447
875.365	9500
875.494	9580
875.623	9884
875.751	9720
875.88	9983
876.008	10074
876.136	10276
876.265	10558
876.393	10752
876.521	10759
876.65	10812
876.778	10885
876.906	10873
877.034	10965
877.162	11071
877.29	11121
877.418	11318
877.546	11421
877.674	11444
877.802	11410
877.93	11577
878.058	11611
878.185	11585
878.313	11611
878.441	11748
878.568	11577
878.696	11779
878.824	11851
878.951	11984
879.079	12015
879.206	12057
879.333	11980
879.461	12011
879.588	12076
879.715	12011
879.842	12106
879.97	12091
880.097	11908
880.224	11901
880.351	11916
880.478	11901
880.605	11767
880.732	11840
880.859	12007
880.986	11817
881.112	11840
881.239	11771
881.366	11665
881.493	11707
881.619	11543
881.746	11558
881.872	11509
881.999	11463
882.125	11452
882.252	11539
882.378	11471
882.505	11566
882.631	11379
882.757	11307
882.883	11242
883.01	11261
883.136	11204
883.262	11064
883.388	11086
883.514	11223
883.64	11212
883.766	11037
883.892	11022
884.018	10972
884.143	11048
884.269	11067
884.395	10866
884.52	10694
884.646	10774
884.772	10675
884.897	10733
885.023	10729
885.148	10790
885.274	10725
885.399	10653
885.524	10679
885.65	10634
885.775	10558
885.9	10535
886.025	10569
886.15	10569
886.275	10512
886.4	10382
886.525	10428
886.65	10443
886.775	10287
886.9	10421
887.025	10527
887.149	10303
887.274	10265
887.399	10173
887.523	10200
887.648	10097
887.773	10112
887.897	10261
888.021	10257
888.146	10101
888.27	10196
888.395	10276
888.519	10219
888.643	10162
888.767	10150
888.891	10128
889.015	10017
889.139	10086
889.263	9964
889.387	10093
889.511	10021
889.635	10120
889.759	10059
889.883	9949
890.006	10002
890.13	10029
890.254	9979
890.377	10002
890.501	9846
890.624	9819
890.748	9918
890.871	9793
890.995	9770
891.118	9755
891.241	9709
891.364	9743
891.488	9816
891.611	9732
891.734	9755
891.857	9785
891.98	9679
892.103	9774
892.226	9720
892.349	9561
892.471	9572
892.594	9606
892.717	9633
892.839	9622
892.962	9633
893.085	9743
893.207	9576
893.33	9504
893.452	9591
893.575	9622
893.697	9504
893.819	9576
893.941	9629
894.064	9568
894.186	9485
894.308	9363
894.43	9564
894.552	9584
894.674	9492
894.796	9393
894.918	9386
895.04	9401
895.161	9317
895.283	9302
895.405	9233
895.526	9253
895.648	9241
895.769	9214
895.891	9199
896.012	9306
896.134	9116
896.255	9199
896.376	9108
896.498	9161
896.619	9135
896.74	9062
896.861	9142
896.982	9279
897.103	9313
897.224	9207
897.345	9077
897.466	9032
897.587	9020
897.708	9058
897.828	9020
897.949	8979
898.07	8883
898.19	8918
898.311	8948
898.431	8956
898.552	8990
898.672	8986
898.792	8929
898.913	8914
899.033	8804
899.153	8800
899.273	8693
899.393	8731
899.513	8758
899.633	8731
899.753	8800
899.873	8693
899.993	8746
900.113	8724
900.232	8716
900.352	8693
900.472	8629
900.591	8556
900.711	8549
900.83	8522
900.95	8686
901.069	8712
901.189	8564
901.308	8434
901.427	8412
901.546	8400
901.665	8476
901.784	8499
901.904	8400
902.023	8355
902.141	8233
902.26	8248
902.379	8271
902.498	8202
902.617	8267
902.735	8362
902.854	8259
902.973	8290
903.091	8161
903.21	8130
903.328	8161
903.446	8153
903.565	8111
903.683	8050
903.801	8065
903.919	8092
904.038	8149
904.156	8054
904.274	8142
904.392	8035
904.51	8008
904.627	8024
904.745	8020
904.863	8107
904.981	7917
905.098	7875
905.216	7811
905.334	7906
905.451	7887
905.569	7852
905.686	7944
905.803	7928
905.921	7814
906.038	7845
906.155	7849
906.272	7670
906.389	7734
906.506	7670
906.623	7655
906.74	7647
906.857	7499
906.974	7578
907.091	7647
907.208	7727
907.324	7666
907.441	7578
907.557	7468
907.674	7422
907.79	7468
907.907	7464
908.023	7384
908.139	7445
908.256	7377
908.372	7388
908.488	7362
908.604	7270
908.72	7209
908.836	7308
908.952	7255
909.068	7190
909.184	7331
909.3	7297
909.415	7350
909.531	7247
909.647	7110
909.762	7042
909.878	7080
909.993	7168
910.108	7072
910.224	7042
910.339	7099
910.454	7084
910.57	6970
910.685	6935
910.8	7179
910.915	7160
911.03	6993
911.145	6943
911.259	6875
911.374	6890
911.489	6798
911.604	6810
911.718	6730
911.833	6757
911.947	6665
912.062	6662
912.176	6722
912.291	6700
912.405	6650
912.519	6825
912.633	6886
912.748	6776
912.862	6662
912.976	6616
913.09	6551
913.204	6620
913.318	6620
913.431	6692
913.545	6646
913.659	6707
913.772	6658
913.886	6616
914	6563
914.113	6620
914.226	6631
914.34	6616
914.453	6475
914.566	6620
914.68	6532
914.793	6517
914.906	6414
915.019	6380
915.132	6361
915.245	6448
915.358	6403
915.47	6498
915.583	6414
915.696	6448
915.809	6502
915.921	6532
916.034	6448
916.146	6380
916.259	6384
916.371	6498
916.483	6456
916.595	6376
916.708	6388
916.82	6429
916.932	6380
917.044	6388
917.156	6448
917.268	6369
917.38	6315
917.491	6384
917.603	6384
917.715	6384
917.826	6388
917.938	6311
918.049	6270
918.161	6304
918.272	6422
918.384	6414
918.495	6311
918.606	6311
918.717	6194
918.828	6213
918.939	6213
919.05	6228
919.161	6235
919.272	6133
919.383	6140
919.494	6277
919.604	6357
919.715	6228
919.826	6232
919.936	6228
920.047	6304
920.157	6289
920.267	6410
920.378	6350
920.488	6300
920.598	6460
920.708	6582
920.818	6494
920.928	6506
921.038	6585
921.148	6597
921.258	6308
921.368	6247
921.477	6197
921.587	6117
921.697	6022
921.806	6167
921.916	6041
922.025	5977
922.134	5882
922.244	5870
922.353	5931
922.462	5878
922.571	5783
922.68	5767
922.789	5680
922.898	5714
923.007	5611
923.116	5668
923.224	5592
923.333	5642
923.442	5585
923.55	5581
923.659	5608
923.767	5634
923.876	5490
923.984	5596
924.092	5482
924.201	5524
924.309	5528
924.417	5581
924.525	5520
924.633	5448
924.741	6247
924.849	5364
924.956	5505
925.064	5364
925.172	5261
925.279	5277
925.387	5334
925.494	5360
925.602	5425
925.709	5406
925.816	5258
925.924	5337
926.031	5273
926.138	5315
926.245	5315
926.352	5261
926.459	5376
926.566	5379
926.673	5197
926.779	5147
926.886	5140
926.993	5052
927.099	5029
927.206	5006
927.312	4923
927.419	5022
927.525	4999
927.631	5041
927.737	4847
927.843	4839
927.95	4748
928.056	4850
928.162	4862
928.267	4831
928.373	5395
928.479	4862
928.585	4725
928.69	4752
928.796	4744
928.901	4675
929.007	4592
929.112	4687
929.218	4603
929.323	4569
929.428	4565
929.533	4622
929.638	4531
929.743	4546
929.848	4565
929.953	4535
930.058	4462
930.163	4333
930.267	4322
930.372	4421
930.477	4325
930.581	4508
930.685	4333
930.79	4242
930.894	4318
930.998	4249
931.103	4375
931.207	4116
931.311	4067
931.415	4013
931.519	3915
931.623	4006
