Data from glass_V78500241_1589.txt Node
Date: Wed Sep 01 19:25:30 CST 2021
User: usil
Spectrometer: V785-0024
Trigger mode: 0
Integration Time (sec): 4.000000E-1
Scans to average: 1
Nonlinearity correction enabled: false
Boxcar width: 0
Storing dark spectrum: false
XAxis mode: Wavelengths
Number of Pixels in Spectrum: 1024
>>>>>Begin Spectral Data<<<<<
801.071	3747
801.214	3740
801.356	3720
801.499	3747
801.641	3720
801.783	3778
801.926	3880
802.068	3812
802.211	3850
802.353	3892
802.496	3854
802.638	3922
802.78	3937
802.923	3903
803.065	3918
803.208	3857
803.35	3876
803.492	3934
803.635	3888
803.777	3747
803.919	3899
804.061	4154
804.204	3987
804.346	3926
804.488	3884
804.63	4021
804.773	3987
804.915	4013
805.057	4131
805.199	4010
805.341	4078
805.483	4150
805.626	4147
805.768	4120
805.91	4188
806.052	4261
806.194	4196
806.336	4329
806.478	4177
806.62	4185
806.762	4223
806.904	4249
807.046	4356
807.188	4219
807.33	4166
807.472	4272
807.614	4200
807.756	4265
807.898	4223
808.04	4192
808.182	4303
808.324	4257
808.465	4363
808.607	4493
808.749	4485
808.891	4455
809.033	4523
809.174	4398
809.316	4219
809.458	4223
809.6	4147
809.741	4158
809.883	4158
810.025	4200
810.166	4211
810.308	4192
810.45	4249
810.591	4207
810.733	4242
810.875	4527
811.016	4847
811.158	5105
811.299	5277
811.441	5250
811.582	5094
811.724	4675
811.865	4500
812.007	4424
812.148	4440
812.29	4424
812.431	4424
812.573	4421
812.714	4367
812.855	4485
812.997	4409
813.138	4443
813.279	4405
813.421	4360
813.562	4371
813.703	4284
813.845	4314
813.986	4227
814.127	4204
814.268	4276
814.41	4280
814.551	4234
814.692	4310
814.833	4272
814.974	4310
815.115	4337
815.256	4272
815.397	4211
815.539	4227
815.68	4188
815.821	4230
815.962	4329
816.103	4280
816.244	4234
816.385	4200
816.526	4287
816.666	4207
816.807	4139
816.948	4192
817.089	4188
817.23	4128
817.371	4071
817.512	4063
817.653	4067
817.793	4040
817.934	4063
818.075	4086
818.216	4112
818.356	4105
818.497	4040
818.638	3903
818.778	3983
818.919	3865
819.06	3854
819.2	3941
819.341	3838
819.481	3842
819.622	3987
819.762	3979
819.903	3979
820.043	3876
820.184	3823
820.324	3827
820.465	3857
820.605	3876
820.746	3888
820.886	3812
821.026	3941
821.167	3926
821.307	3975
821.447	4006
821.588	3975
821.728	3937
821.868	3964
822.008	3808
822.149	3949
822.289	3903
822.429	3762
822.569	3766
822.709	3781
822.849	3679
822.99	3724
823.13	3755
823.27	3785
823.41	3679
823.55	3736
823.69	3766
823.83	3751
823.97	3698
824.11	3625
824.25	3595
824.389	3614
824.529	3656
824.669	3641
824.809	3686
824.949	3736
825.089	3736
825.228	3705
825.368	3618
825.508	3591
825.648	3553
825.787	3580
825.927	3633
826.067	3641
826.206	3660
826.346	3785
826.485	3854
826.625	3869
826.765	3960
826.904	3778
827.044	3641
827.183	3530
827.323	3439
827.462	3473
827.601	3435
827.741	3450
827.88	3439
828.02	3348
828.159	3443
828.298	3488
828.437	3530
828.577	3462
828.716	3580
828.855	3504
828.994	3405
829.134	3367
829.273	3367
829.412	3382
829.551	3340
829.69	3367
829.829	3450
829.968	3519
830.107	3466
830.246	3443
830.385	3351
830.524	3351
830.663	3332
830.802	3275
830.941	3211
831.08	3176
831.219	3287
831.357	3287
831.496	3389
831.635	3226
831.774	3195
831.913	3214
832.051	3146
832.19	3135
832.329	3218
832.467	3070
832.606	3138
832.744	3161
832.883	3184
833.022	3161
833.16	3249
833.299	3321
833.437	3317
833.576	3386
833.714	3424
833.852	3439
833.991	3458
834.129	3469
834.267	3462
834.406	3416
834.544	3428
834.682	3401
834.821	3409
834.959	3545
835.097	3409
835.235	3542
835.373	3454
835.511	3519
835.65	3458
835.788	3504
835.926	3389
836.064	3370
836.202	3401
836.34	3553
836.478	3644
836.615	3511
836.753	3595
836.891	3663
837.029	3587
837.167	3572
837.305	3564
837.443	3564
837.58	3496
837.718	3568
837.856	3564
837.993	3519
838.131	3580
838.269	3542
838.406	3618
838.544	3576
838.681	3466
838.819	3450
838.956	3389
839.094	3412
839.231	3443
839.369	3469
839.506	3709
839.643	3595
839.781	3496
839.918	3485
840.055	3496
840.193	3504
840.33	3515
840.467	3526
840.604	3576
840.742	3793
840.879	3580
841.016	3553
841.153	3614
841.29	3797
841.427	3686
841.564	3728
841.701	3740
841.838	3694
841.975	3679
842.112	3705
842.249	3644
842.385	3656
842.522	3804
842.659	3671
842.796	3660
842.933	3656
843.069	3671
843.206	3698
843.343	3800
843.479	3774
843.616	3846
843.752	3648
843.889	3698
844.025	3907
844.162	3793
844.298	3823
844.435	3827
844.571	3789
844.708	3899
844.844	4017
844.98	4032
845.117	3994
845.253	3941
845.389	3918
845.525	3930
845.661	3945
845.798	3915
845.934	3991
846.07	3930
846.206	4025
846.342	4120
846.478	4044
846.614	3922
846.75	3960
846.886	3922
847.022	4013
847.158	3994
847.294	3960
847.429	4002
847.565	3983
847.701	4261
847.837	3873
847.972	3842
848.108	3926
848.244	3987
848.379	3873
848.515	3785
848.65	3766
848.786	3880
848.921	3857
849.057	3934
849.192	3941
849.328	3911
849.463	3953
849.598	3861
849.734	3857
849.869	3808
850.004	3728
850.14	3804
850.275	3747
850.41	3816
850.545	3766
850.68	3778
850.815	3770
850.95	3804
851.085	3926
851.22	3838
851.355	3865
851.49	3766
851.625	3781
851.76	3766
851.895	3743
852.03	3740
852.165	3804
852.299	3865
852.434	3907
852.569	3842
852.703	3896
852.838	3956
852.973	4029
853.107	3960
853.242	3918
853.376	3869
853.511	3759
853.645	3823
853.78	3964
853.914	3903
854.048	3922
854.183	3869
854.317	3899
854.451	4109
854.585	3975
854.72	3964
854.854	4044
854.988	3896
855.122	3975
855.256	3945
855.39	4025
855.524	4109
855.658	4082
855.792	4124
855.926	4154
856.06	4078
856.194	4207
856.327	4158
856.461	4101
856.595	4139
856.729	4204
856.862	4249
856.996	4238
857.13	4322
857.263	4310
857.397	4360
857.53	4329
857.664	4337
857.797	4394
857.931	4402
858.064	4402
858.197	4459
858.331	4413
858.464	4405
858.597	4386
858.731	4447
858.864	4443
858.997	4474
859.13	4485
859.263	4512
859.396	4577
859.529	4516
859.662	4542
859.795	4519
859.928	4611
860.061	4687
860.194	4721
860.327	4672
860.46	4615
860.592	4755
860.725	4725
860.858	4744
860.99	4691
861.123	4694
861.256	4698
861.388	4744
861.521	5551
861.653	4786
861.786	4752
861.918	4771
862.05	4812
862.183	4831
862.315	4892
862.447	4904
862.58	4873
862.712	4790
862.844	4824
862.976	4866
863.108	4850
863.24	5269
863.372	4812
863.504	4877
863.636	4961
863.768	4957
863.9	4938
864.032	4991
864.164	4847
864.296	5041
864.428	5056
864.559	5090
864.691	5109
864.823	5140
864.954	5151
865.086	5162
865.217	5105
865.349	5052
865.48	5197
865.612	5166
865.743	5292
865.875	5242
866.006	5113
866.137	5284
866.269	5166
866.4	5311
866.531	5246
866.662	5204
866.793	5315
866.924	5322
867.055	5330
867.186	5337
867.317	5322
867.448	5307
867.579	5368
867.71	5353
867.841	5349
867.972	5395
868.103	5429
868.233	5505
868.364	5562
868.495	5532
868.625	5714
868.756	5771
868.886	5653
869.017	5718
869.147	5859
869.278	5863
869.408	5798
869.539	5802
869.669	5923
869.799	5908
869.929	5992
870.06	6038
870.19	6209
870.32	6232
870.45	6262
870.58	6292
870.71	6433
870.84	6422
870.97	6380
871.1	6407
871.23	6623
871.36	6711
871.489	6635
871.619	6707
871.749	6772
871.879	6859
872.008	7000
872.138	6981
872.267	7012
872.397	6989
872.526	6985
872.656	7133
872.785	7225
872.915	7335
873.044	7521
873.173	7544
873.303	7651
873.432	7708
873.561	7887
873.69	7909
873.819	8020
873.948	8161
874.077	8206
874.206	8294
874.335	8454
874.464	8663
874.593	8785
874.722	8937
874.851	9058
874.979	9237
875.108	9405
875.237	9336
875.365	9447
875.494	9663
875.623	9850
875.751	9827
875.88	10021
876.008	10215
876.136	10268
876.265	10588
876.393	10683
876.521	10668
876.65	10812
876.778	10862
876.906	10889
877.034	11006
877.162	11071
877.29	11159
877.418	11318
877.546	11391
877.674	11383
877.802	11524
877.93	11585
878.058	11524
878.185	11528
878.313	11630
878.441	11752
878.568	11684
878.696	11874
878.824	11882
878.951	11840
879.079	12072
879.206	12034
879.333	12129
879.461	11988
879.588	12117
879.715	12068
879.842	12224
879.97	12144
880.097	11939
880.224	11935
880.351	11874
880.478	11843
880.605	11843
880.732	11912
880.859	12003
880.986	11889
881.112	11840
881.239	11649
881.366	11634
881.493	11577
881.619	11649
881.746	11573
881.872	11558
881.999	11532
882.125	11490
882.252	11577
882.378	11528
882.505	11493
882.631	11330
882.757	11280
882.883	11292
883.01	11227
883.136	11277
883.262	11140
883.388	11151
883.514	11212
883.64	11227
883.766	11140
883.892	11041
884.018	10968
884.143	11174
884.269	11067
884.395	10820
884.52	10759
884.646	10793
884.772	10656
884.897	10611
885.023	10736
885.148	10752
885.274	10721
885.399	10687
885.524	10634
885.65	10626
885.775	10599
885.9	10569
886.025	10531
886.15	10554
886.275	10398
886.4	10409
886.525	10337
886.65	10440
886.775	10268
886.9	10417
887.025	10535
887.149	10417
887.274	10215
887.399	10177
887.523	10242
887.648	10074
887.773	10074
887.897	10211
888.021	10188
888.146	10109
888.27	10200
888.395	10215
888.519	10215
888.643	10234
888.767	10253
888.891	10071
889.015	10086
889.139	10067
889.263	10021
889.387	10044
889.511	10143
889.635	10051
889.759	9983
889.883	9899
890.006	9953
890.13	10086
890.254	10002
890.377	9907
890.501	9846
890.624	9899
890.748	9884
890.871	9770
890.995	9766
891.118	9740
891.241	9743
891.364	9770
891.488	9850
891.611	9743
891.734	9774
891.857	9774
891.98	9682
892.103	9789
892.226	9709
892.349	9652
892.471	9591
892.594	9641
892.717	9584
892.839	9538
892.962	9599
893.085	9690
893.207	9534
893.33	9534
893.452	9511
893.575	9584
893.697	9538
893.819	9652
893.941	9595
894.064	9587
894.186	9466
894.308	9416
894.43	9603
894.552	9572
894.674	9526
894.796	9378
894.918	9401
895.04	9344
895.161	9382
895.283	9344
895.405	9283
895.526	9272
895.648	9169
895.769	9332
895.891	9256
896.012	9325
896.134	9146
896.255	9199
896.376	9135
896.498	9218
896.619	9093
896.74	9051
896.861	9154
896.982	9260
897.103	9313
897.224	9154
897.345	9089
897.466	9028
897.587	9032
897.708	9047
897.828	9058
897.949	8941
898.07	8921
898.19	8952
898.311	9028
898.431	8902
898.552	8876
898.672	9001
898.792	9009
898.913	8918
899.033	8842
899.153	8800
899.273	8708
899.393	8769
899.513	8720
899.633	8659
899.753	8701
899.873	8708
899.993	8739
900.113	8621
900.232	8686
900.352	8678
900.472	8583
900.591	8625
900.711	8602
900.83	8556
900.95	8705
901.069	8678
901.189	8530
901.308	8431
901.427	8408
901.546	8438
901.665	8454
901.784	8469
901.904	8328
902.023	8377
902.141	8263
902.26	8240
902.379	8267
902.498	8183
902.617	8240
902.735	8240
902.854	8267
902.973	8309
903.091	8134
903.21	8142
903.328	8111
903.446	8084
903.565	8119
903.683	8103
903.801	8073
903.919	8107
904.038	8134
904.156	8073
904.274	8119
904.392	8001
904.51	8062
904.627	8065
904.745	8043
904.863	8058
904.981	7955
905.098	7890
905.216	7898
905.334	7913
905.451	7902
905.569	7917
905.686	7887
905.803	7955
905.921	7776
906.038	7830
906.155	7837
906.272	7727
906.389	7712
906.506	7685
906.623	7616
906.74	7632
906.857	7540
906.974	7514
907.091	7613
907.208	7731
907.324	7628
907.441	7578
907.557	7529
907.674	7422
907.79	7426
907.907	7365
908.023	7499
908.139	7480
908.256	7457
908.372	7365
908.488	7346
908.604	7331
908.72	7217
908.836	7244
908.952	7308
909.068	7278
909.184	7354
909.3	7190
909.415	7312
909.531	7301
909.647	7065
909.762	7110
909.878	7057
909.993	7149
910.108	7126
910.224	7061
910.339	7122
910.454	7072
910.57	6985
910.685	6886
910.8	7152
910.915	7149
911.03	7038
911.145	6973
911.259	6951
911.374	6897
911.489	6806
911.604	6791
911.718	6707
911.833	6703
911.947	6585
912.062	6620
912.176	6688
912.291	6715
912.405	6696
912.519	6833
912.633	6878
912.748	6734
912.862	6692
912.976	6593
913.09	6563
913.204	6540
913.318	6635
913.431	6642
913.545	6681
913.659	6768
913.772	6642
913.886	6540
914	6521
914.113	6665
914.226	6635
914.34	6604
914.453	6528
914.566	6585
914.68	6544
914.793	6528
914.906	6410
915.019	6437
915.132	6372
915.245	6357
915.358	6433
915.47	6498
915.583	6441
915.696	6422
915.809	6578
915.921	6490
916.034	6494
916.146	6418
916.259	6346
916.371	6399
916.483	6403
916.595	6334
916.708	6452
916.82	6395
916.932	6331
917.044	6414
917.156	6376
917.268	6350
917.38	6369
917.491	6308
917.603	6407
917.715	6448
917.826	6448
917.938	6266
918.049	6220
918.161	6338
918.272	6445
918.384	6433
918.495	6296
918.606	6292
918.717	6247
918.828	6304
918.939	6285
919.05	6133
919.161	6243
919.272	6171
919.383	6144
919.494	6300
919.604	6403
919.715	6338
919.826	6167
919.936	6254
920.047	6350
920.157	6262
920.267	6433
920.378	6262
920.488	6270
920.598	6464
920.708	6585
920.818	6479
920.928	6429
921.038	6555
921.148	6574
921.258	6372
921.368	6266
921.477	6201
921.587	6163
921.697	6038
921.806	6232
921.916	6057
922.025	5931
922.134	5984
922.244	5901
922.353	5942
922.462	5882
922.571	5771
922.68	5733
922.789	5688
922.898	5707
923.007	5661
923.116	5707
923.224	5638
923.333	5668
923.442	5634
923.55	5589
923.659	5619
923.767	5646
923.876	5554
923.984	5566
924.092	5566
924.201	5573
924.309	5505
924.417	5558
924.525	5471
924.633	5516
924.741	6136
924.849	5395
924.956	5463
925.064	5364
925.172	5288
925.279	5330
925.387	5376
925.494	5387
925.602	5440
925.709	5429
925.816	5239
925.924	5326
926.031	5334
926.138	5292
926.245	5349
926.352	5227
926.459	5288
926.566	5326
926.673	5231
926.779	5151
926.886	5079
926.993	5018
927.099	4987
927.206	4999
927.312	4961
927.419	5014
927.525	5010
927.631	4991
927.737	4831
927.843	4854
927.95	4763
928.056	4835
928.162	4828
928.267	4839
928.373	5379
928.479	4873
928.585	4691
928.69	4771
928.796	4736
928.901	4630
929.007	4569
929.112	4637
929.218	4656
929.323	4611
929.428	4558
929.533	4664
929.638	4535
929.743	4603
929.848	4493
929.953	4542
930.058	4470
930.163	4280
930.267	4322
930.372	4466
930.477	4287
930.581	4462
930.685	4402
930.79	4261
930.894	4310
930.998	4291
931.103	4371
931.207	4135
931.311	4097
931.415	4051
931.519	3937
931.623	3930
