Data from glass_V78500241_2641.txt Node
Date: Wed Sep 01 19:32:48 CST 2021
User: usil
Spectrometer: V785-0024
Trigger mode: 0
Integration Time (sec): 4.000000E-1
Scans to average: 1
Nonlinearity correction enabled: false
Boxcar width: 0
Storing dark spectrum: false
XAxis mode: Wavelengths
Number of Pixels in Spectrum: 1024
>>>>>Begin Spectral Data<<<<<
801.071	3762
801.214	3724
801.356	3694
801.499	3709
801.641	3728
801.783	3774
801.926	3854
802.068	3808
802.211	3838
802.353	3888
802.496	3835
802.638	3842
802.78	3861
802.923	3876
803.065	3865
803.208	3823
803.35	3846
803.492	3907
803.635	3911
803.777	3816
803.919	3892
804.061	4185
804.204	3964
804.346	3926
804.488	3899
804.63	4036
804.773	3956
804.915	4025
805.057	4124
805.199	4067
805.341	4063
805.483	4135
805.626	4116
805.768	4074
805.91	4196
806.052	4219
806.194	4196
806.336	4333
806.478	4181
806.62	4128
806.762	4147
806.904	4242
807.046	4318
807.188	4192
807.33	4169
807.472	4253
807.614	4166
807.756	4211
807.898	4185
808.04	4173
808.182	4284
808.324	4303
808.465	4322
808.607	4428
808.749	4478
808.891	4398
809.033	4523
809.174	4383
809.316	4265
809.458	4223
809.6	4120
809.741	4124
809.883	4135
810.025	4169
810.166	4188
810.308	4204
810.45	4242
810.591	4249
810.733	4291
810.875	4516
811.016	4812
811.158	5090
811.299	5280
811.441	5273
811.582	5033
811.724	4736
811.865	4455
812.007	4447
812.148	4371
812.29	4386
812.431	4394
812.573	4409
812.714	4363
812.855	4428
812.997	4356
813.138	4508
813.279	4428
813.421	4394
813.562	4383
813.703	4291
813.845	4367
813.986	4268
814.127	4215
814.268	4257
814.41	4246
814.551	4257
814.692	4344
814.833	4268
814.974	4299
815.115	4341
815.256	4227
815.397	4238
815.539	4276
815.68	4154
815.821	4185
815.962	4291
816.103	4280
816.244	4204
816.385	4246
816.526	4276
816.666	4173
816.807	4029
816.948	4131
817.089	4192
817.23	4090
817.371	4063
817.512	4044
817.653	4078
817.793	4048
817.934	4032
818.075	4120
818.216	4051
818.356	4040
818.497	3964
818.638	3907
818.778	3865
818.919	3854
819.06	3846
819.2	3903
819.341	3857
819.481	3854
819.622	3915
819.762	4021
819.903	3975
820.043	3816
820.184	3861
820.324	3808
820.465	3918
820.605	3861
820.746	3876
820.886	3778
821.026	3934
821.167	3911
821.307	3888
821.447	3960
821.588	3934
821.728	3926
821.868	3899
822.008	3873
822.149	3884
822.289	3903
822.429	3797
822.569	3762
822.709	3812
822.849	3663
822.99	3705
823.13	3720
823.27	3770
823.41	3724
823.55	3740
823.69	3694
823.83	3743
823.97	3690
824.11	3603
824.25	3587
824.389	3629
824.529	3648
824.669	3610
824.809	3743
824.949	3759
825.089	3694
825.228	3690
825.368	3591
825.508	3587
825.648	3542
825.787	3572
825.927	3641
826.067	3606
826.206	3599
826.346	3762
826.485	3835
826.625	3812
826.765	3926
826.904	3857
827.044	3576
827.183	3553
827.323	3393
827.462	3488
827.601	3409
827.741	3397
827.88	3485
828.02	3344
828.159	3439
828.298	3435
828.437	3515
828.577	3454
828.716	3603
828.855	3447
828.994	3367
829.134	3393
829.273	3401
829.412	3340
829.551	3298
829.69	3416
829.829	3412
829.968	3485
830.107	3420
830.246	3435
830.385	3340
830.524	3359
830.663	3287
830.802	3245
830.941	3169
831.08	3161
831.219	3268
831.357	3321
831.496	3348
831.635	3233
831.774	3173
831.913	3173
832.051	3116
832.19	3119
832.329	3192
832.467	3169
832.606	3097
832.744	3169
832.883	3199
833.022	3188
833.16	3268
833.299	3298
833.437	3340
833.576	3355
833.714	3416
833.852	3382
833.991	3439
834.129	3458
834.267	3420
834.406	3378
834.544	3405
834.682	3386
834.821	3401
834.959	3572
835.097	3389
835.235	3523
835.373	3488
835.511	3542
835.65	3454
835.788	3450
835.926	3397
836.064	3370
836.202	3397
836.34	3568
836.478	3591
836.615	3523
836.753	3614
836.891	3629
837.029	3606
837.167	3587
837.305	3534
837.443	3542
837.58	3538
837.718	3584
837.856	3519
837.993	3515
838.131	3557
838.269	3545
838.406	3591
838.544	3496
838.681	3485
838.819	3409
838.956	3359
839.094	3370
839.231	3435
839.369	3488
839.506	3694
839.643	3576
839.781	3504
839.918	3443
840.055	3488
840.193	3507
840.33	3504
840.467	3553
840.604	3587
840.742	3785
840.879	3515
841.016	3568
841.153	3610
841.29	3713
841.427	3690
841.564	3705
841.701	3713
841.838	3698
841.975	3663
842.112	3740
842.249	3606
842.385	3599
842.522	3846
842.659	3633
842.796	3675
842.933	3705
843.069	3701
843.206	3709
843.343	3793
843.479	3717
843.616	3816
843.752	3694
843.889	3660
844.025	3838
844.162	3656
844.298	3793
844.435	3732
844.571	3751
844.708	3869
844.844	3991
844.98	4021
845.117	4002
845.253	3934
845.389	3915
845.525	3979
845.661	3911
845.798	3888
845.934	3991
846.07	3922
846.206	4040
846.342	4090
846.478	4071
846.614	3949
846.75	3899
846.886	3896
847.022	4032
847.158	3915
847.294	3991
847.429	3998
847.565	4002
847.701	4238
847.837	3869
847.972	3857
848.108	3975
848.244	3949
848.379	3857
848.515	3816
848.65	3759
848.786	3819
848.921	3869
849.057	3941
849.192	3922
849.328	3907
849.463	3922
849.598	3831
849.734	3876
849.869	3819
850.004	3781
850.14	3797
850.275	3728
850.41	3701
850.545	3755
850.68	3740
850.815	3766
850.95	3789
851.085	3915
851.22	3838
851.355	3835
851.49	3751
851.625	3785
851.76	3781
851.895	3705
852.03	3717
852.165	3740
852.299	3804
852.434	3865
852.569	3857
852.703	3850
852.838	3880
852.973	4006
853.107	4010
853.242	3846
853.376	3827
853.511	3751
853.645	3812
853.78	3968
853.914	3896
854.048	3873
854.183	3884
854.317	3907
854.451	4063
854.585	3956
854.72	3888
854.854	4051
854.988	3945
855.122	3956
855.256	3949
855.39	4059
855.524	4154
855.658	4071
855.792	4071
855.926	4109
856.06	4135
856.194	4238
856.327	4139
856.461	4162
856.595	4158
856.729	4173
856.862	4291
856.996	4249
857.13	4227
857.263	4344
857.397	4375
857.53	4268
857.664	4333
857.797	4402
857.931	4375
858.064	4360
858.197	4489
858.331	4367
858.464	4371
858.597	4360
858.731	4432
858.864	4363
858.997	4455
859.13	4516
859.263	4542
859.396	4588
859.529	4516
859.662	4512
859.795	4489
859.928	4592
860.061	4721
860.194	4683
860.327	4634
860.46	4664
860.592	4702
860.725	4748
860.858	4767
860.99	4729
861.123	4725
861.256	4698
861.388	4763
861.521	5303
861.653	4691
861.786	4733
861.918	4717
862.05	4759
862.183	4793
862.315	4877
862.447	4961
862.58	4847
862.712	4809
862.844	4782
862.976	4885
863.108	4858
863.24	5223
863.372	4801
863.504	4866
863.636	4828
863.768	4972
863.9	4942
864.032	4915
864.164	4991
864.296	5029
864.428	5048
864.559	5090
864.691	5086
864.823	5113
864.954	5159
865.086	5170
865.217	5117
865.349	5098
865.48	5117
865.612	5159
865.743	5288
865.875	5193
866.006	5227
866.137	5181
866.269	5185
866.4	5261
866.531	5235
866.662	5162
866.793	5242
866.924	5296
867.055	5334
867.186	5337
867.317	5296
867.448	5357
867.579	5372
867.71	5383
867.841	5353
867.972	5463
868.103	5474
868.233	5512
868.364	5509
868.495	5512
868.625	5695
868.756	5745
868.886	5722
869.017	5710
869.147	5851
869.278	5859
869.408	5836
869.539	5847
869.669	5935
869.799	5958
869.929	6019
870.06	6022
870.19	6194
870.32	6175
870.45	6235
870.58	6327
870.71	6448
870.84	6460
870.97	6429
871.1	6433
871.23	6631
871.36	6700
871.489	6662
871.619	6738
871.749	6802
871.879	6837
872.008	6977
872.138	6958
872.267	7069
872.397	6993
872.526	7065
872.656	7084
872.785	7175
872.915	7400
873.044	7483
873.173	7544
873.303	7578
873.432	7792
873.561	7830
873.69	7875
873.819	8005
873.948	8111
874.077	8233
874.206	8362
874.335	8454
874.464	8636
874.593	8880
874.722	8880
874.851	9058
874.979	9230
875.108	9374
875.237	9420
875.365	9519
875.494	9595
875.623	9800
875.751	9873
875.88	10036
876.008	10154
876.136	10261
876.265	10565
876.393	10675
876.521	10721
876.65	10790
876.778	10911
876.906	10885
877.034	10987
877.162	11159
877.29	11212
877.418	11277
877.546	11318
877.674	11429
877.802	11474
877.93	11463
878.058	11558
878.185	11589
878.313	11638
878.441	11665
878.568	11676
878.696	11809
878.824	11878
878.951	11961
879.079	12038
879.206	12079
879.333	12007
879.461	11935
879.588	12205
879.715	12030
879.842	12144
879.97	12095
880.097	11920
880.224	11840
880.351	11847
880.478	11847
880.605	11843
880.732	11893
880.859	12076
880.986	11836
881.112	11870
881.239	11741
881.366	11577
881.493	11585
881.619	11467
881.746	11528
881.872	11649
881.999	11478
882.125	11410
882.252	11589
882.378	11490
882.505	11520
882.631	11349
882.757	11364
882.883	11360
883.01	11292
883.136	11155
883.262	11128
883.388	11018
883.514	11254
883.64	11151
883.766	11143
883.892	11037
884.018	10965
884.143	11029
884.269	11151
884.395	10892
884.52	10702
884.646	10809
884.772	10664
884.897	10675
885.023	10702
885.148	10736
885.274	10710
885.399	10672
885.524	10622
885.65	10580
885.775	10599
885.9	10504
886.025	10546
886.15	10542
886.275	10455
886.4	10379
886.525	10325
886.65	10352
886.775	10276
886.9	10424
887.025	10546
887.149	10428
887.274	10192
887.399	10207
887.523	10154
887.648	10147
887.773	10185
887.897	10238
888.021	10272
888.146	10090
888.27	10204
888.395	10204
888.519	10135
888.643	10131
888.767	10211
888.891	10040
889.015	10006
889.139	10051
889.263	9972
889.387	10025
889.511	10097
889.635	10078
889.759	9937
889.883	9975
890.006	9941
890.13	10097
890.254	9941
890.377	9979
890.501	9812
890.624	9903
890.748	9945
890.871	9774
890.995	9686
891.118	9778
891.241	9778
891.364	9751
891.488	9823
891.611	9686
891.734	9755
891.857	9793
891.98	9675
892.103	9781
892.226	9709
892.349	9637
892.471	9488
892.594	9603
892.717	9576
892.839	9587
892.962	9652
893.085	9656
893.207	9603
893.33	9557
893.452	9564
893.575	9523
893.697	9526
893.819	9584
893.941	9599
894.064	9587
894.186	9374
894.308	9428
894.43	9526
894.552	9515
894.674	9530
894.796	9431
894.918	9447
895.04	9321
895.161	9306
895.283	9325
895.405	9233
895.526	9119
895.648	9188
895.769	9249
895.891	9253
896.012	9275
896.134	9180
896.255	9195
896.376	9157
896.498	9138
896.619	9150
896.74	9093
896.861	9058
896.982	9279
897.103	9249
897.224	9169
897.345	9089
897.466	9032
897.587	9020
897.708	9116
897.828	9005
897.949	9039
898.07	8811
898.19	8925
898.311	9055
898.431	8933
898.552	8918
898.672	8956
898.792	8895
898.913	8868
899.033	8807
899.153	8762
899.273	8727
899.393	8754
899.513	8727
899.633	8746
899.753	8739
899.873	8598
899.993	8754
900.113	8686
900.232	8796
900.352	8648
900.472	8541
900.591	8526
900.711	8545
900.83	8568
900.95	8727
901.069	8800
901.189	8583
901.308	8480
901.427	8370
901.546	8518
901.665	8339
901.784	8465
901.904	8358
902.023	8374
902.141	8294
902.26	8191
902.379	8259
902.498	8191
902.617	8233
902.735	8214
902.854	8237
902.973	8240
903.091	8100
903.21	8168
903.328	8142
903.446	8092
903.565	8062
903.683	8088
903.801	8058
903.919	8107
904.038	8092
904.156	8027
904.274	8164
904.392	8005
904.51	8001
904.627	8065
904.745	8069
904.863	8134
904.981	7845
905.098	7845
905.216	7860
905.334	7913
905.451	7883
905.569	7932
905.686	7913
905.803	7875
905.921	7776
906.038	7833
906.155	7807
906.272	7689
906.389	7727
906.506	7639
906.623	7632
906.74	7632
906.857	7552
906.974	7643
907.091	7696
907.208	7738
907.324	7575
907.441	7567
907.557	7388
907.674	7358
907.79	7346
907.907	7407
908.023	7419
908.139	7445
908.256	7392
908.372	7358
908.488	7316
908.604	7255
908.72	7209
908.836	7255
908.952	7244
909.068	7228
909.184	7266
909.3	7206
909.415	7221
909.531	7225
909.647	7141
909.762	7190
909.878	7107
909.993	7034
910.108	7084
910.224	7072
910.339	7072
910.454	7069
910.57	6973
910.685	6954
910.8	7095
910.915	7084
911.03	6939
911.145	6897
911.259	6897
911.374	6859
911.489	6783
911.604	6821
911.718	6730
911.833	6753
911.947	6627
912.062	6551
912.176	6646
912.291	6719
912.405	6730
912.519	6810
912.633	6863
912.748	6692
912.862	6681
912.976	6574
913.09	6509
913.204	6597
913.318	6612
913.431	6642
913.545	6616
913.659	6703
913.772	6650
913.886	6551
914	6559
914.113	6620
914.226	6631
914.34	6585
914.453	6506
914.566	6646
914.68	6525
914.793	6597
914.906	6441
915.019	6369
915.132	6357
915.245	6410
915.358	6445
915.47	6429
915.583	6506
915.696	6467
915.809	6479
915.921	6566
916.034	6369
916.146	6414
916.259	6300
916.371	6456
916.483	6437
916.595	6369
916.708	6372
916.82	6483
916.932	6395
917.044	6410
917.156	6369
917.268	6277
917.38	6350
917.491	6273
917.603	6369
917.715	6365
917.826	6372
917.938	6327
918.049	6270
918.161	6311
918.272	6410
918.384	6437
918.495	6273
918.606	6235
918.717	6152
918.828	6270
918.939	6311
919.05	6182
919.161	6277
919.272	6178
919.383	6190
919.494	6258
919.604	6414
919.715	6270
919.826	6254
919.936	6289
920.047	6334
920.157	6216
920.267	6407
920.378	6357
920.488	6266
920.598	6490
920.708	6582
920.818	6460
920.928	6388
921.038	6555
921.148	6551
921.258	6372
921.368	6262
921.477	6201
921.587	6110
921.697	6034
921.806	6159
921.916	6045
922.025	5939
922.134	5920
922.244	5836
922.353	5935
922.462	5779
922.571	5817
922.68	5668
922.789	5665
922.898	5733
923.007	5577
923.116	5680
923.224	5688
923.333	5604
923.442	5577
923.55	5577
923.659	5592
923.767	5592
923.876	5516
923.984	5497
924.092	5535
924.201	5497
924.309	5535
924.417	5558
924.525	5436
924.633	5512
924.741	6235
924.849	5322
924.956	5414
925.064	5341
925.172	5311
925.279	5273
925.387	5379
925.494	5341
925.602	5387
925.709	5322
925.816	5273
925.924	5280
926.031	5345
926.138	5307
926.245	5303
926.352	5216
926.459	5353
926.566	5288
926.673	5170
926.779	5109
926.886	5159
926.993	5006
927.099	5006
927.206	4930
927.312	4953
927.419	4991
927.525	4972
927.631	4980
927.737	4862
927.843	4858
927.95	4763
928.056	4797
928.162	4850
928.267	4828
928.373	5353
928.479	4835
928.585	4668
928.69	4774
928.796	4763
928.901	4702
929.007	4603
929.112	4683
929.218	4611
929.323	4618
929.428	4573
929.533	4679
929.638	4478
929.743	4531
929.848	4527
929.953	4459
930.058	4451
930.163	4367
930.267	4344
930.372	4421
930.477	4295
930.581	4447
930.685	4363
930.79	4242
930.894	4265
930.998	4234
931.103	4356
931.207	4120
931.311	4059
931.415	4048
931.519	3911
931.623	3922
