Data from glass_V78500241_719.txt Node
Date: Wed Sep 01 19:19:29 CST 2021
User: usil
Spectrometer: V785-0024
Trigger mode: 0
Integration Time (sec): 4.000000E-1
Scans to average: 1
Nonlinearity correction enabled: false
Boxcar width: 0
Storing dark spectrum: false
XAxis mode: Wavelengths
Number of Pixels in Spectrum: 1024
>>>>>Begin Spectral Data<<<<<
801.071	3766
801.214	3751
801.356	3705
801.499	3736
801.641	3740
801.783	3789
801.926	3869
802.068	3838
802.211	3869
802.353	3930
802.496	3861
802.638	3899
802.78	3903
802.923	3979
803.065	3915
803.208	3880
803.35	3896
803.492	3899
803.635	3972
803.777	3842
803.919	3979
804.061	4150
804.204	3972
804.346	3960
804.488	3953
804.63	4059
804.773	4017
804.915	4067
805.057	4158
805.199	4025
805.341	4173
805.483	4173
805.626	4169
805.768	4128
805.91	4261
806.052	4227
806.194	4219
806.336	4341
806.478	4234
806.62	4169
806.762	4192
806.904	4261
807.046	4379
807.188	4215
807.33	4196
807.472	4242
807.614	4207
807.756	4287
807.898	4215
808.04	4185
808.182	4303
808.324	4337
808.465	4367
808.607	4500
808.749	4500
808.891	4481
809.033	4519
809.174	4421
809.316	4291
809.458	4234
809.6	4131
809.741	4150
809.883	4124
810.025	4230
810.166	4177
810.308	4238
810.45	4234
810.591	4230
810.733	4306
810.875	4531
811.016	4809
811.158	5140
811.299	5296
811.441	5299
811.582	5056
811.724	4729
811.865	4519
812.007	4462
812.148	4474
812.29	4424
812.431	4383
812.573	4409
812.714	4402
812.855	4424
812.997	4409
813.138	4481
813.279	4462
813.421	4379
813.562	4459
813.703	4379
813.845	4360
813.986	4284
814.127	4249
814.268	4280
814.41	4310
814.551	4238
814.692	4348
814.833	4268
814.974	4291
815.115	4360
815.256	4268
815.397	4200
815.539	4265
815.68	4169
815.821	4230
815.962	4310
816.103	4257
816.244	4246
816.385	4219
816.526	4306
816.666	4185
816.807	4082
816.948	4143
817.089	4143
817.23	4078
817.371	4063
817.512	4044
817.653	4120
817.793	4036
817.934	4040
818.075	4120
818.216	4116
818.356	4059
818.497	3956
818.638	3896
818.778	3907
818.919	3854
819.06	3896
819.2	3945
819.341	3869
819.481	3873
819.622	3926
819.762	4048
819.903	3987
820.043	3873
820.184	3808
820.324	3800
820.465	3880
820.605	3869
820.746	3865
820.886	3819
821.026	3941
821.167	3907
821.307	4002
821.447	3983
821.588	3983
821.728	3934
821.868	3930
822.008	3888
822.149	3953
822.289	3915
822.429	3800
822.569	3812
822.709	3785
822.849	3694
822.99	3736
823.13	3804
823.27	3781
823.41	3717
823.55	3740
823.69	3724
823.83	3728
823.97	3709
824.11	3633
824.25	3591
824.389	3679
824.529	3698
824.669	3644
824.809	3732
824.949	3743
825.089	3755
825.228	3698
825.368	3591
825.508	3584
825.648	3534
825.787	3622
825.927	3667
826.067	3694
826.206	3671
826.346	3762
826.485	3816
826.625	3854
826.765	3964
826.904	3880
827.044	3644
827.183	3519
827.323	3416
827.462	3496
827.601	3454
827.741	3439
827.88	3515
828.02	3397
828.159	3473
828.298	3542
828.437	3576
828.577	3504
828.716	3599
828.855	3504
828.994	3393
829.134	3374
829.273	3370
829.412	3363
829.551	3355
829.69	3351
829.829	3424
829.968	3545
830.107	3466
830.246	3424
830.385	3370
830.524	3363
830.663	3340
830.802	3272
830.941	3264
831.08	3233
831.219	3272
831.357	3272
831.496	3447
831.635	3256
831.774	3249
831.913	3199
832.051	3146
832.19	3180
832.329	3230
832.467	3169
832.606	3104
832.744	3173
832.883	3192
833.022	3207
833.16	3268
833.299	3291
833.437	3344
833.576	3374
833.714	3416
833.852	3458
833.991	3466
834.129	3462
834.267	3469
834.406	3416
834.544	3420
834.682	3443
834.821	3458
834.959	3625
835.097	3412
835.235	3496
835.373	3466
835.511	3511
835.65	3492
835.788	3542
835.926	3420
836.064	3382
836.202	3393
836.34	3557
836.478	3622
836.615	3580
836.753	3595
836.891	3614
837.029	3606
837.167	3606
837.305	3606
837.443	3568
837.58	3481
837.718	3618
837.856	3606
837.993	3515
838.131	3622
838.269	3587
838.406	3587
838.544	3587
838.681	3515
838.819	3473
838.956	3389
839.094	3389
839.231	3485
839.369	3519
839.506	3728
839.643	3641
839.781	3469
839.918	3485
840.055	3496
840.193	3534
840.33	3545
840.467	3595
840.604	3614
840.742	3808
840.879	3587
841.016	3625
841.153	3580
841.29	3762
841.427	3747
841.564	3740
841.701	3778
841.838	3709
841.975	3690
842.112	3751
842.249	3694
842.385	3644
842.522	3793
842.659	3679
842.796	3694
842.933	3720
843.069	3713
843.206	3720
843.343	3842
843.479	3774
843.616	3835
843.752	3686
843.889	3713
844.025	3880
844.162	3762
844.298	3838
844.435	3793
844.571	3747
844.708	3876
844.844	3987
844.98	3987
845.117	4040
845.253	3983
845.389	3991
845.525	3975
845.661	4006
845.798	3991
845.934	4002
846.07	3987
846.206	4067
846.342	4139
846.478	4082
846.614	4044
846.75	3956
846.886	3899
847.022	4063
847.158	3994
847.294	4032
847.429	4029
847.565	4017
847.701	4280
847.837	3922
847.972	3911
848.108	3987
848.244	4006
848.379	3888
848.515	3812
848.65	3793
848.786	3884
848.921	3831
849.057	3918
849.192	3975
849.328	3945
849.463	3953
849.598	3861
849.734	3869
849.869	3861
850.004	3781
850.14	3823
850.275	3812
850.41	3781
850.545	3797
850.68	3732
850.815	3850
850.95	3766
851.085	3937
851.22	3903
851.355	3808
851.49	3785
851.625	3789
851.76	3846
851.895	3770
852.03	3736
852.165	3838
852.299	3865
852.434	3941
852.569	3850
852.703	3880
852.838	3953
852.973	4017
853.107	4013
853.242	3865
853.376	3861
853.511	3808
853.645	3850
853.78	3956
853.914	3953
854.048	3926
854.183	3926
854.317	3964
854.451	4048
854.585	3987
854.72	3975
854.854	4097
854.988	3945
855.122	4013
855.256	3937
855.39	4036
855.524	4124
855.658	4139
855.792	4105
855.926	4120
856.06	4215
856.194	4238
856.327	4158
856.461	4112
856.595	4131
856.729	4169
856.862	4310
856.996	4249
857.13	4299
857.263	4344
857.397	4322
857.53	4348
857.664	4371
857.797	4436
857.931	4413
858.064	4398
858.197	4497
858.331	4409
858.464	4440
858.597	4367
858.731	4478
858.864	4478
858.997	4474
859.13	4569
859.263	4542
859.396	4622
859.529	4550
859.662	4546
859.795	4523
859.928	4592
860.061	4694
860.194	4721
860.327	4653
860.46	4668
860.592	4801
860.725	4717
860.858	4801
860.99	4721
861.123	4672
861.256	4733
861.388	4790
861.521	5376
861.653	4706
861.786	4752
861.918	4702
862.05	4801
862.183	4809
862.315	4946
862.447	4934
862.58	4873
862.712	4816
862.844	4748
862.976	4843
863.108	4835
863.24	5250
863.372	4847
863.504	4881
863.636	4862
863.768	4999
863.9	4957
864.032	4938
864.164	4919
864.296	5064
864.428	5060
864.559	5098
864.691	5113
864.823	5121
864.954	5136
865.086	5147
865.217	5109
865.349	5090
865.48	5143
865.612	5124
865.743	5341
865.875	5212
866.006	5155
866.137	5201
866.269	5242
866.4	5258
866.531	5242
866.662	5261
866.793	5292
866.924	5299
867.055	5353
867.186	5326
867.317	5395
867.448	5334
867.579	5364
867.71	5387
867.841	5414
867.972	5509
868.103	5532
868.233	5512
868.364	5512
868.495	5524
868.625	5642
868.756	5790
868.886	5688
869.017	5760
869.147	5882
869.278	5885
869.408	5821
869.539	5901
869.669	5885
869.799	5878
869.929	5950
870.06	6022
870.19	6197
870.32	6216
870.45	6247
870.58	6315
870.71	6452
870.84	6502
870.97	6467
871.1	6498
871.23	6593
871.36	6741
871.489	6681
871.619	6783
871.749	6757
871.879	6890
872.008	7031
872.138	6985
872.267	7038
872.397	7069
872.526	7046
872.656	7061
872.785	7240
872.915	7407
873.044	7563
873.173	7518
873.303	7696
873.432	7708
873.561	7875
873.69	7993
873.819	8065
873.948	8187
874.077	8252
874.206	8259
874.335	8465
874.464	8697
874.593	8883
874.722	8941
874.851	9085
874.979	9173
875.108	9428
875.237	9564
875.365	9515
875.494	9675
875.623	9793
875.751	9888
875.88	9994
876.008	10173
876.136	10257
876.265	10554
876.393	10660
876.521	10721
876.65	10698
876.778	10889
876.906	10934
877.034	10976
877.162	11045
877.29	11094
877.418	11315
877.546	11326
877.674	11436
877.802	11490
877.93	11524
878.058	11543
878.185	11592
878.313	11653
878.441	11737
878.568	11608
878.696	11805
878.824	11843
878.951	11870
879.079	11988
879.206	12167
879.333	12125
879.461	12095
879.588	12095
879.715	12076
879.842	12266
879.97	12079
880.097	11878
880.224	11828
880.351	11901
880.478	11733
880.605	11851
880.732	11840
880.859	11969
880.986	11809
881.112	11843
881.239	11691
881.366	11676
881.493	11619
881.619	11577
881.746	11592
881.872	11577
881.999	11490
882.125	11433
882.252	11623
882.378	11600
882.505	11520
882.631	11421
882.757	11307
882.883	11356
883.01	11303
883.136	11280
883.262	11117
883.388	11094
883.514	11223
883.64	11124
883.766	11098
883.892	11048
884.018	11037
884.143	11132
884.269	11147
884.395	10854
884.52	10828
884.646	10831
884.772	10664
884.897	10645
885.023	10611
885.148	10679
885.274	10767
885.399	10786
885.524	10580
885.65	10603
885.775	10611
885.9	10626
886.025	10599
886.15	10546
886.275	10417
886.4	10344
886.525	10405
886.65	10371
886.775	10371
886.9	10519
887.025	10546
887.149	10348
887.274	10219
887.399	10166
887.523	10185
887.648	10135
887.773	10120
887.897	10276
888.021	10268
888.146	10158
888.27	10272
888.395	10268
888.519	10120
888.643	10200
888.767	10166
888.891	10048
889.015	10105
889.139	10078
889.263	10021
889.387	10032
889.511	10109
889.635	10097
889.759	9979
889.883	10071
890.006	10074
890.13	10109
890.254	10002
890.377	9949
890.501	9880
890.624	9888
890.748	9915
890.871	9819
890.995	9766
891.118	9671
891.241	9827
891.364	9728
891.488	9972
891.611	9759
891.734	9755
891.857	9816
891.98	9717
892.103	9789
892.226	9720
892.349	9736
892.471	9549
892.594	9637
892.717	9618
892.839	9606
892.962	9572
893.085	9682
893.207	9584
893.33	9496
893.452	9545
893.575	9622
893.697	9485
893.819	9660
893.941	9622
894.064	9705
894.186	9496
894.308	9386
894.43	9485
894.552	9629
894.674	9492
894.796	9351
894.918	9355
895.04	9416
895.161	9443
895.283	9332
895.405	9233
895.526	9237
895.648	9188
895.769	9332
895.891	9317
896.012	9294
896.134	9233
896.255	9241
896.376	9131
896.498	9173
896.619	9108
896.74	9077
896.861	9116
896.982	9310
897.103	9272
897.224	9161
897.345	9112
897.466	9020
897.587	9066
897.708	9062
897.828	9047
897.949	8929
898.07	8941
898.19	8876
898.311	8952
898.431	8967
898.552	8921
898.672	9001
898.792	8963
898.913	8937
899.033	8804
899.153	8724
899.273	8769
899.393	8716
899.513	8830
899.633	8781
899.753	8739
899.873	8667
899.993	8781
900.113	8644
900.232	8670
900.352	8739
900.472	8590
900.591	8526
900.711	8644
900.83	8564
900.95	8663
901.069	8648
901.189	8552
901.308	8465
901.427	8336
901.546	8419
901.665	8503
901.784	8571
901.904	8374
902.023	8309
902.141	8221
902.26	8237
902.379	8271
902.498	8305
902.617	8275
902.735	8252
902.854	8282
902.973	8332
903.091	8142
903.21	8195
903.328	8149
903.446	8100
903.565	8069
903.683	8153
903.801	8046
903.919	8164
904.038	8119
904.156	8039
904.274	8103
904.392	8020
904.51	8050
904.627	8050
904.745	8103
904.863	8103
904.981	7917
905.098	7852
905.216	7902
905.334	7951
905.451	7932
905.569	7913
905.686	7970
905.803	7875
905.921	7757
906.038	7951
906.155	7830
906.272	7727
906.389	7738
906.506	7616
906.623	7601
906.74	7651
906.857	7521
906.974	7677
907.091	7708
907.208	7719
907.324	7639
907.441	7548
907.557	7457
907.674	7483
907.79	7449
907.907	7381
908.023	7468
908.139	7476
908.256	7384
908.372	7362
908.488	7419
908.604	7320
908.72	7232
908.836	7259
908.952	7305
909.068	7240
909.184	7354
909.3	7308
909.415	7354
909.531	7308
909.647	7114
909.762	7129
909.878	7061
909.993	7133
910.108	7069
910.224	7076
910.339	7152
910.454	7050
910.57	7053
910.685	7038
910.8	7202
910.915	7179
911.03	7057
911.145	6871
911.259	6863
911.374	6916
911.489	6798
911.604	6837
911.718	6700
911.833	6779
911.947	6692
912.062	6574
912.176	6688
912.291	6779
912.405	6711
912.519	6772
912.633	6818
912.748	6722
912.862	6715
912.976	6665
913.09	6517
913.204	6604
913.318	6696
913.431	6688
913.545	6711
913.659	6753
913.772	6677
913.886	6589
914	6563
914.113	6677
914.226	6650
914.34	6597
914.453	6547
914.566	6654
914.68	6532
914.793	6574
914.906	6372
915.019	6437
915.132	6395
915.245	6460
915.358	6445
915.47	6448
915.583	6445
915.696	6494
915.809	6574
915.921	6506
916.034	6445
916.146	6452
916.259	6395
916.371	6448
916.483	6494
916.595	6410
916.708	6376
916.82	6445
916.932	6357
917.044	6426
917.156	6399
917.268	6334
917.38	6327
917.491	6350
917.603	6338
917.715	6426
917.826	6426
917.938	6311
918.049	6213
918.161	6357
918.272	6437
918.384	6429
918.495	6391
918.606	6289
918.717	6228
918.828	6247
918.939	6285
919.05	6194
919.161	6311
919.272	6148
919.383	6190
919.494	6304
919.604	6410
919.715	6338
919.826	6254
919.936	6304
920.047	6334
920.157	6289
920.267	6464
920.378	6315
920.488	6300
920.598	6494
920.708	6593
920.818	6506
920.928	6456
921.038	6574
921.148	6578
921.258	6376
921.368	6296
921.477	6209
921.587	6159
921.697	6079
921.806	6243
921.916	6098
922.025	5980
922.134	5984
922.244	5855
922.353	6003
922.462	5863
922.571	5878
922.68	5745
922.789	5672
922.898	5729
923.007	5672
923.116	5729
923.224	5684
923.333	5668
923.442	5581
923.55	5585
923.659	5608
923.767	5589
923.876	5528
923.984	5611
924.092	5509
924.201	5570
924.309	5619
924.417	5585
924.525	5490
924.633	5497
924.741	6140
924.849	5383
924.956	5471
925.064	5334
925.172	5315
925.279	5284
925.387	5357
925.494	5292
925.602	5425
925.709	5379
925.816	5307
925.924	5299
926.031	5360
926.138	5337
926.245	5376
926.352	5239
926.459	5299
926.566	5307
926.673	5269
926.779	5166
926.886	5102
926.993	5022
927.099	5014
927.206	4991
927.312	5014
927.419	5022
927.525	4965
927.631	4953
927.737	4927
927.843	4877
927.95	4854
928.056	4870
928.162	4820
928.267	4896
928.373	5376
928.479	4870
928.585	4706
928.69	4759
928.796	4816
928.901	4725
929.007	4580
929.112	4645
929.218	4664
929.323	4584
929.428	4584
929.533	4653
929.638	4508
929.743	4592
929.848	4618
929.953	4554
930.058	4417
930.163	4352
930.267	4299
930.372	4417
930.477	4287
930.581	4428
930.685	4325
930.79	4306
930.894	4329
930.998	4268
931.103	4424
931.207	4150
931.311	4101
931.415	4055
931.519	3941
931.623	3922
