Data from glass_V78500241_1665.txt Node
Date: Wed Sep 01 19:26:02 CST 2021
User: usil
Spectrometer: V785-0024
Trigger mode: 0
Integration Time (sec): 4.000000E-1
Scans to average: 1
Nonlinearity correction enabled: false
Boxcar width: 0
Storing dark spectrum: false
XAxis mode: Wavelengths
Number of Pixels in Spectrum: 1024
>>>>>Begin Spectral Data<<<<<
801.071	3713
801.214	3766
801.356	3709
801.499	3743
801.641	3759
801.783	3835
801.926	3846
802.068	3892
802.211	3838
802.353	3899
802.496	3827
802.638	3922
802.78	3915
802.923	3922
803.065	3888
803.208	3842
803.35	3896
803.492	3892
803.635	3903
803.777	3759
803.919	3911
804.061	4158
804.204	3964
804.346	3945
804.488	3899
804.63	4048
804.773	4002
804.915	4029
805.057	4120
805.199	4063
805.341	4074
805.483	4093
805.626	4093
805.768	4105
805.91	4234
806.052	4215
806.194	4139
806.336	4333
806.478	4253
806.62	4173
806.762	4204
806.904	4253
807.046	4299
807.188	4192
807.33	4207
807.472	4261
807.614	4253
807.756	4230
807.898	4223
808.04	4257
808.182	4287
808.324	4318
808.465	4352
808.607	4489
808.749	4432
808.891	4504
809.033	4489
809.174	4379
809.316	4265
809.458	4215
809.6	4162
809.741	4150
809.883	4169
810.025	4196
810.166	4207
810.308	4185
810.45	4238
810.591	4230
810.733	4310
810.875	4527
811.016	4824
811.158	5159
811.299	5239
811.441	5223
811.582	5029
811.724	4687
811.865	4481
812.007	4497
812.148	4424
812.29	4466
812.431	4432
812.573	4428
812.714	4348
812.855	4432
812.997	4443
813.138	4459
813.279	4432
813.421	4413
813.562	4371
813.703	4310
813.845	4310
813.986	4276
814.127	4219
814.268	4261
814.41	4268
814.551	4291
814.692	4329
814.833	4265
814.974	4310
815.115	4352
815.256	4295
815.397	4219
815.539	4280
815.68	4223
815.821	4227
815.962	4394
816.103	4268
816.244	4238
816.385	4242
816.526	4276
816.666	4211
816.807	4074
816.948	4192
817.089	4143
817.23	4086
817.371	4029
817.512	4040
817.653	4025
817.793	4021
817.934	4025
818.075	4078
818.216	4051
818.356	4090
818.497	3991
818.638	3880
818.778	3949
818.919	3926
819.06	3907
819.2	3934
819.341	3915
819.481	3838
819.622	3949
819.762	4006
819.903	3968
820.043	3865
820.184	3888
820.324	3838
820.465	3873
820.605	3880
820.746	3892
820.886	3816
821.026	3918
821.167	3907
821.307	3983
821.447	3998
821.588	3964
821.728	3930
821.868	3911
822.008	3823
822.149	3926
822.289	3911
822.429	3827
822.569	3759
822.709	3823
822.849	3709
822.99	3759
823.13	3812
823.27	3770
823.41	3667
823.55	3747
823.69	3728
823.83	3747
823.97	3686
824.11	3641
824.25	3618
824.389	3614
824.529	3663
824.669	3618
824.809	3698
824.949	3732
825.089	3743
825.228	3709
825.368	3545
825.508	3542
825.648	3557
825.787	3629
825.927	3591
826.067	3622
826.206	3656
826.346	3701
826.485	3835
826.625	3861
826.765	3941
826.904	3831
827.044	3633
827.183	3519
827.323	3469
827.462	3496
827.601	3382
827.741	3469
827.88	3462
828.02	3405
828.159	3428
828.298	3481
828.437	3526
828.577	3443
828.716	3576
828.855	3542
828.994	3374
829.134	3370
829.273	3386
829.412	3344
829.551	3321
829.69	3344
829.829	3416
829.968	3507
830.107	3424
830.246	3458
830.385	3367
830.524	3351
830.663	3321
830.802	3237
830.941	3211
831.08	3165
831.219	3291
831.357	3237
831.496	3412
831.635	3249
831.774	3157
831.913	3211
832.051	3135
832.19	3138
832.329	3203
832.467	3169
832.606	3097
832.744	3157
832.883	3161
833.022	3169
833.16	3256
833.299	3313
833.437	3355
833.576	3367
833.714	3443
833.852	3431
833.991	3454
834.129	3492
834.267	3477
834.406	3405
834.544	3374
834.682	3443
834.821	3393
834.959	3595
835.097	3409
835.235	3534
835.373	3492
835.511	3526
835.65	3397
835.788	3462
835.926	3412
836.064	3363
836.202	3401
836.34	3603
836.478	3644
836.615	3542
836.753	3606
836.891	3599
837.029	3606
837.167	3610
837.305	3545
837.443	3507
837.58	3507
837.718	3622
837.856	3568
837.993	3538
838.131	3587
838.269	3584
838.406	3614
838.544	3591
838.681	3431
838.819	3469
838.956	3370
839.094	3416
839.231	3447
839.369	3492
839.506	3709
839.643	3599
839.781	3488
839.918	3458
840.055	3530
840.193	3538
840.33	3526
840.467	3553
840.604	3587
840.742	3827
840.879	3534
841.016	3568
841.153	3610
841.29	3759
841.427	3682
841.564	3755
841.701	3751
841.838	3705
841.975	3667
842.112	3743
842.249	3633
842.385	3614
842.522	3819
842.659	3690
842.796	3705
842.933	3717
843.069	3717
843.206	3694
843.343	3819
843.479	3751
843.616	3838
843.752	3701
843.889	3679
844.025	3869
844.162	3709
844.298	3876
844.435	3793
844.571	3785
844.708	3892
844.844	3979
844.98	4021
845.117	3983
845.253	3922
845.389	3911
845.525	3941
845.661	3968
845.798	3953
845.934	4010
846.07	3968
846.206	4040
846.342	4112
846.478	4093
846.614	3987
846.75	3915
846.886	3949
847.022	4101
847.158	3960
847.294	3941
847.429	4021
847.565	3983
847.701	4215
847.837	3873
847.972	3869
848.108	4010
848.244	3968
848.379	3857
848.515	3751
848.65	3797
848.786	3854
848.921	3835
849.057	3918
849.192	3968
849.328	3892
849.463	3949
849.598	3903
849.734	3838
849.869	3896
850.004	3800
850.14	3827
850.275	3759
850.41	3747
850.545	3728
850.68	3816
850.815	3800
850.95	3816
851.085	3945
851.22	3861
851.355	3861
851.49	3800
851.625	3766
851.76	3774
851.895	3724
852.03	3728
852.165	3789
852.299	3842
852.434	3911
852.569	3888
852.703	3838
852.838	3934
852.973	3998
853.107	4013
853.242	3903
853.376	3838
853.511	3759
853.645	3831
853.78	3987
853.914	3922
854.048	3880
854.183	3899
854.317	3930
854.451	4128
854.585	3945
854.72	3937
854.854	4025
854.988	3918
855.122	3998
855.256	3918
855.39	4051
855.524	4105
855.658	4078
855.792	4116
855.926	4101
856.06	4135
856.194	4192
856.327	4181
856.461	4097
856.595	4150
856.729	4181
856.862	4249
856.996	4257
857.13	4291
857.263	4337
857.397	4421
857.53	4295
857.664	4371
857.797	4390
857.931	4360
858.064	4363
858.197	4447
858.331	4413
858.464	4371
858.597	4318
858.731	4481
858.864	4451
858.997	4428
859.13	4519
859.263	4523
859.396	4584
859.529	4474
859.662	4531
859.795	4569
859.928	4641
860.061	4736
860.194	4702
860.327	4618
860.46	4653
860.592	4736
860.725	4748
860.858	4790
860.99	4740
861.123	4679
861.256	4698
861.388	4752
861.521	5410
861.653	4740
861.786	4721
861.918	4740
862.05	4755
862.183	4820
862.315	4946
862.447	4908
862.58	4904
862.712	4831
862.844	4805
862.976	4889
863.108	4885
863.24	5311
863.372	4812
863.504	4908
863.636	4968
863.768	4968
863.9	4934
864.032	4942
864.164	4972
864.296	5010
864.428	5102
864.559	5098
864.691	5105
864.823	5094
864.954	5117
865.086	5128
865.217	5121
865.349	5117
865.48	5143
865.612	5223
865.743	5292
865.875	5189
866.006	5269
866.137	5254
866.269	5185
866.4	5201
866.531	5258
866.662	5284
866.793	5280
866.924	5258
867.055	5292
867.186	5330
867.317	5307
867.448	5326
867.579	5391
867.71	5463
867.841	5406
867.972	5421
868.103	5455
868.233	5455
868.364	5459
868.495	5554
868.625	5684
868.756	5779
868.886	5752
869.017	5783
869.147	5805
869.278	5859
869.408	5817
869.539	5828
869.669	5908
869.799	5840
869.929	6068
870.06	5973
870.19	6186
870.32	6152
870.45	6247
870.58	6353
870.71	6464
870.84	6456
870.97	6380
871.1	6433
871.23	6642
871.36	6677
871.489	6677
871.619	6734
871.749	6802
871.879	6882
872.008	6966
872.138	6928
872.267	7050
872.397	6993
872.526	6981
872.656	7069
872.785	7244
872.915	7350
873.044	7544
873.173	7514
873.303	7647
873.432	7761
873.561	7822
873.69	7894
873.819	8020
873.948	8271
874.077	8259
874.206	8279
874.335	8438
874.464	8655
874.593	8941
874.722	8899
874.851	9123
874.979	9298
875.108	9367
875.237	9435
875.365	9511
875.494	9652
875.623	9804
875.751	9835
875.88	10013
876.008	10105
876.136	10333
876.265	10466
876.393	10706
876.521	10687
876.65	10793
876.778	10885
876.906	10850
877.034	11014
877.162	11090
877.29	11143
877.418	11284
877.546	11345
877.674	11501
877.802	11482
877.93	11509
878.058	11600
878.185	11585
878.313	11680
878.441	11737
878.568	11699
878.696	11813
878.824	11935
878.951	11931
879.079	12041
879.206	12102
879.333	12091
879.461	11999
879.588	12136
879.715	12091
879.842	12239
879.97	12030
880.097	11847
880.224	11843
880.351	11843
880.478	11870
880.605	11885
880.732	11863
880.859	12003
880.986	11870
881.112	11813
881.239	11775
881.366	11634
881.493	11646
881.619	11539
881.746	11642
881.872	11509
881.999	11463
882.125	11414
882.252	11532
882.378	11512
882.505	11474
882.631	11379
882.757	11372
882.883	11322
883.01	11337
883.136	11193
883.262	11174
883.388	11060
883.514	11124
883.64	11181
883.766	11102
883.892	10942
884.018	10984
884.143	10930
884.269	11102
884.395	10862
884.52	10687
884.646	10778
884.772	10615
884.897	10607
885.023	10721
885.148	10748
885.274	10873
885.399	10664
885.524	10668
885.65	10550
885.775	10611
885.9	10622
886.025	10645
886.15	10618
886.275	10413
886.4	10405
886.525	10390
886.65	10424
886.775	10375
886.9	10523
887.025	10577
887.149	10314
887.274	10211
887.399	10284
887.523	10169
887.648	10139
887.773	10181
887.897	10265
888.021	10196
888.146	10105
888.27	10215
888.395	10135
888.519	10242
888.643	10196
888.767	10173
888.891	10143
889.015	10044
889.139	10029
889.263	9975
889.387	10109
889.511	10051
889.635	10036
889.759	9915
889.883	9937
890.006	10013
890.13	10147
890.254	9945
890.377	9987
890.501	9876
890.624	9831
890.748	9941
890.871	9899
890.995	9770
891.118	9679
891.241	9717
891.364	9781
891.488	9880
891.611	9705
891.734	9713
891.857	9778
891.98	9648
892.103	9713
892.226	9778
892.349	9637
892.471	9584
892.594	9648
892.717	9576
892.839	9572
892.962	9648
893.085	9625
893.207	9584
893.33	9507
893.452	9584
893.575	9603
893.697	9473
893.819	9591
893.941	9610
894.064	9526
894.186	9515
894.308	9405
894.43	9557
894.552	9534
894.674	9492
894.796	9420
894.918	9340
895.04	9382
895.161	9321
895.283	9325
895.405	9237
895.526	9256
895.648	9169
895.769	9283
895.891	9241
896.012	9256
896.134	9226
896.255	9241
896.376	9077
896.498	9135
896.619	9112
896.74	9043
896.861	9127
896.982	9253
897.103	9344
897.224	9131
897.345	9028
897.466	9039
897.587	9032
897.708	9108
897.828	9028
897.949	9013
898.07	8804
898.19	8918
898.311	9017
898.431	8872
898.552	8861
898.672	8979
898.792	9013
898.913	8929
899.033	8819
899.153	8712
899.273	8621
899.393	8731
899.513	8705
899.633	8716
899.753	8800
899.873	8663
899.993	8686
900.113	8659
900.232	8651
900.352	8667
900.472	8575
900.591	8594
900.711	8644
900.83	8499
900.95	8674
901.069	8697
901.189	8571
901.308	8389
901.427	8347
901.546	8473
901.665	8393
901.784	8457
901.904	8381
902.023	8298
902.141	8237
902.26	8259
902.379	8259
902.498	8149
902.617	8199
902.735	8263
902.854	8301
902.973	8214
903.091	8191
903.21	8145
903.328	8202
903.446	8130
903.565	8054
903.683	8065
903.801	8020
903.919	8130
904.038	8115
904.156	8043
904.274	8088
904.392	7944
904.51	8020
904.627	8043
904.745	8111
904.863	8100
904.981	7906
905.098	7807
905.216	7913
905.334	7890
905.451	7963
905.569	7871
905.686	7959
905.803	7894
905.921	7799
906.038	7852
906.155	7738
906.272	7723
906.389	7708
906.506	7632
906.623	7677
906.74	7601
906.857	7533
906.974	7582
907.091	7647
907.208	7723
907.324	7636
907.441	7571
907.557	7441
907.674	7453
907.79	7377
907.907	7419
908.023	7480
908.139	7430
908.256	7411
908.372	7362
908.488	7251
908.604	7278
908.72	7236
908.836	7263
908.952	7240
909.068	7225
909.184	7343
909.3	7213
909.415	7285
909.531	7251
909.647	7107
909.762	7042
909.878	7027
909.993	7160
910.108	7114
910.224	7103
910.339	7061
910.454	6958
910.57	6935
910.685	6962
910.8	7179
910.915	7084
911.03	6985
911.145	6875
911.259	6821
911.374	6928
911.489	6741
911.604	6802
911.718	6715
911.833	6730
911.947	6673
912.062	6589
912.176	6688
912.291	6768
912.405	6688
912.519	6837
912.633	6787
912.748	6722
912.862	6707
912.976	6566
913.09	6578
913.204	6608
913.318	6620
913.431	6627
913.545	6715
913.659	6768
913.772	6642
913.886	6525
914	6521
914.113	6582
914.226	6650
914.34	6597
914.453	6441
914.566	6555
914.68	6490
914.793	6525
914.906	6407
915.019	6441
915.132	6369
915.245	6437
915.358	6410
915.47	6460
915.583	6494
915.696	6460
915.809	6563
915.921	6540
916.034	6475
916.146	6395
916.259	6380
916.371	6464
916.483	6448
916.595	6395
916.708	6365
916.82	6441
916.932	6395
917.044	6437
917.156	6342
917.268	6327
917.38	6331
917.491	6350
917.603	6365
917.715	6410
917.826	6422
917.938	6311
918.049	6228
918.161	6350
918.272	6403
918.384	6479
918.495	6346
918.606	6258
918.717	6228
918.828	6243
918.939	6228
919.05	6178
919.161	6197
919.272	6095
919.383	6155
919.494	6311
919.604	6486
919.715	6277
919.826	6273
919.936	6270
920.047	6327
920.157	6285
920.267	6418
920.378	6266
920.488	6251
920.598	6426
920.708	6570
920.818	6437
920.928	6399
921.038	6631
921.148	6612
921.258	6369
921.368	6331
921.477	6197
921.587	6228
921.697	6068
921.806	6239
921.916	6079
922.025	5961
922.134	5870
922.244	5889
922.353	5904
922.462	5863
922.571	5798
922.68	5676
922.789	5684
922.898	5729
923.007	5600
923.116	5703
923.224	5608
923.333	5638
923.442	5573
923.55	5592
923.659	5592
923.767	5623
923.876	5524
923.984	5543
924.092	5543
924.201	5547
924.309	5570
924.417	5596
924.525	5516
924.633	5551
924.741	6289
924.849	5322
924.956	5448
925.064	5357
925.172	5322
925.279	5307
925.387	5391
925.494	5341
925.602	5414
925.709	5383
925.816	5330
925.924	5330
926.031	5379
926.138	5265
926.245	5345
926.352	5231
926.459	5311
926.566	5315
926.673	5254
926.779	5147
926.886	5132
926.993	5060
927.099	5025
927.206	4991
927.312	5006
927.419	5037
927.525	4991
927.631	5025
927.737	4889
927.843	4904
927.95	4767
928.056	4820
928.162	4828
928.267	4862
928.373	5337
928.479	4862
928.585	4714
928.69	4752
928.796	4771
928.901	4706
929.007	4653
929.112	4698
929.218	4607
929.323	4618
929.428	4561
929.533	4637
929.638	4527
929.743	4542
929.848	4573
929.953	4474
930.058	4432
930.163	4348
930.267	4337
930.372	4443
930.477	4287
930.581	4451
930.685	4363
930.79	4223
930.894	4310
930.998	4234
931.103	4344
931.207	4116
931.311	4105
931.415	4067
931.519	3934
931.623	3949
