Data from glass_V78500241_1196.txt Node
Date: Wed Sep 01 19:22:47 CST 2021
User: usil
Spectrometer: V785-0024
Trigger mode: 0
Integration Time (sec): 4.000000E-1
Scans to average: 1
Nonlinearity correction enabled: false
Boxcar width: 0
Storing dark spectrum: false
XAxis mode: Wavelengths
Number of Pixels in Spectrum: 1024
>>>>>Begin Spectral Data<<<<<
801.071	3755
801.214	3770
801.356	3728
801.499	3720
801.641	3751
801.783	3797
801.926	3892
802.068	3846
802.211	3865
802.353	3876
802.496	3819
802.638	3915
802.78	3911
802.923	3922
803.065	3922
803.208	3846
803.35	3903
803.492	3922
803.635	3846
803.777	3823
803.919	3873
804.061	4169
804.204	3964
804.346	3972
804.488	3915
804.63	3998
804.773	3998
804.915	4021
805.057	4154
805.199	4078
805.341	4074
805.483	4147
805.626	4177
805.768	4150
805.91	4223
806.052	4249
806.194	4211
806.336	4333
806.478	4223
806.62	4227
806.762	4181
806.904	4249
807.046	4394
807.188	4211
807.33	4162
807.472	4246
807.614	4211
807.756	4253
807.898	4234
808.04	4173
808.182	4261
808.324	4344
808.465	4402
808.607	4497
808.749	4466
808.891	4493
809.033	4554
809.174	4417
809.316	4265
809.458	4246
809.6	4128
809.741	4143
809.883	4139
810.025	4227
810.166	4287
810.308	4207
810.45	4257
810.591	4291
810.733	4287
810.875	4531
811.016	4820
811.158	5117
811.299	5292
811.441	5357
811.582	5086
811.724	4702
811.865	4485
812.007	4466
812.148	4398
812.29	4462
812.431	4421
812.573	4367
812.714	4352
812.855	4398
812.997	4462
813.138	4489
813.279	4421
813.421	4402
813.562	4394
813.703	4284
813.845	4325
813.986	4268
814.127	4200
814.268	4272
814.41	4272
814.551	4276
814.692	4341
814.833	4318
814.974	4287
815.115	4363
815.256	4257
815.397	4257
815.539	4322
815.68	4185
815.821	4173
815.962	4360
816.103	4295
816.244	4272
816.385	4188
816.526	4303
816.666	4219
816.807	4071
816.948	4223
817.089	4173
817.23	4135
817.371	4051
817.512	4078
817.653	4051
817.793	4029
817.934	4071
818.075	4097
818.216	4051
818.356	4063
818.497	4010
818.638	3937
818.778	3896
818.919	3907
819.06	3899
819.2	3949
819.341	3899
819.481	3842
819.622	3922
819.762	4021
819.903	3956
820.043	3903
820.184	3808
820.324	3846
820.465	3888
820.605	3884
820.746	3880
820.886	3842
821.026	3930
821.167	3945
821.307	4002
821.447	3964
821.588	3953
821.728	3926
821.868	3937
822.008	3873
822.149	3903
822.289	3934
822.429	3816
822.569	3797
822.709	3816
822.849	3713
822.99	3736
823.13	3755
823.27	3755
823.41	3720
823.55	3743
823.69	3732
823.83	3743
823.97	3675
824.11	3622
824.25	3610
824.389	3660
824.529	3694
824.669	3629
824.809	3679
824.949	3781
825.089	3793
825.228	3705
825.368	3625
825.508	3561
825.648	3564
825.787	3595
825.927	3633
826.067	3610
826.206	3690
826.346	3819
826.485	3827
826.625	3842
826.765	3960
826.904	3808
827.044	3625
827.183	3515
827.323	3462
827.462	3466
827.601	3458
827.741	3428
827.88	3450
828.02	3374
828.159	3466
828.298	3511
828.437	3561
828.577	3447
828.716	3587
828.855	3469
828.994	3344
829.134	3374
829.273	3405
829.412	3386
829.551	3374
829.69	3332
829.829	3466
829.968	3515
830.107	3454
830.246	3443
830.385	3374
830.524	3348
830.663	3279
830.802	3211
830.941	3180
831.08	3199
831.219	3298
831.357	3279
831.496	3401
831.635	3226
831.774	3195
831.913	3184
832.051	3165
832.19	3165
832.329	3211
832.467	3127
832.606	3119
832.744	3188
832.883	3203
833.022	3214
833.16	3241
833.299	3310
833.437	3313
833.576	3367
833.714	3412
833.852	3409
833.991	3428
834.129	3492
834.267	3447
834.406	3424
834.544	3458
834.682	3405
834.821	3428
834.959	3572
835.097	3443
835.235	3542
835.373	3511
835.511	3515
835.65	3469
835.788	3523
835.926	3397
836.064	3409
836.202	3386
836.34	3606
836.478	3644
836.615	3580
836.753	3610
836.891	3705
837.029	3591
837.167	3606
837.305	3568
837.443	3530
837.58	3488
837.718	3625
837.856	3572
837.993	3564
838.131	3629
838.269	3625
838.406	3580
838.544	3595
838.681	3481
838.819	3469
838.956	3382
839.094	3389
839.231	3443
839.369	3542
839.506	3728
839.643	3625
839.781	3507
839.918	3496
840.055	3606
840.193	3561
840.33	3507
840.467	3564
840.604	3610
840.742	3800
840.879	3545
841.016	3580
841.153	3603
841.29	3759
841.427	3785
841.564	3778
841.701	3781
841.838	3698
841.975	3701
842.112	3717
842.249	3671
842.385	3614
842.522	3857
842.659	3686
842.796	3690
842.933	3705
843.069	3713
843.206	3717
843.343	3823
843.479	3819
843.616	3781
843.752	3705
843.889	3724
844.025	3800
844.162	3740
844.298	3857
844.435	3797
844.571	3797
844.708	3926
844.844	3953
844.98	4025
845.117	3983
845.253	3964
845.389	3907
845.525	3987
845.661	3953
845.798	3907
845.934	4021
846.07	3953
846.206	4036
846.342	4162
846.478	4090
846.614	4010
846.75	3937
846.886	3907
847.022	4059
847.158	3941
847.294	4051
847.429	3991
847.565	3994
847.701	4204
847.837	3861
847.972	3861
848.108	3998
848.244	3972
848.379	3873
848.515	3819
848.65	3823
848.786	3915
848.921	3884
849.057	3892
849.192	3949
849.328	3926
849.463	3930
849.598	3892
849.734	3869
849.869	3800
850.004	3819
850.14	3819
850.275	3789
850.41	3724
850.545	3785
850.68	3755
850.815	3774
850.95	3823
851.085	3918
851.22	3846
851.355	3850
851.49	3808
851.625	3797
851.76	3823
851.895	3759
852.03	3759
852.165	3816
852.299	3812
852.434	3960
852.569	3907
852.703	3899
852.838	3964
852.973	3998
853.107	3979
853.242	3911
853.376	3831
853.511	3751
853.645	3865
853.78	3945
853.914	3934
854.048	3915
854.183	3941
854.317	3972
854.451	4097
854.585	3964
854.72	3972
854.854	4025
854.988	3964
855.122	3949
855.256	3953
855.39	4067
855.524	4120
855.658	4147
855.792	4105
855.926	4135
856.06	4188
856.194	4230
856.327	4128
856.461	4150
856.595	4162
856.729	4188
856.862	4303
856.996	4234
857.13	4261
857.263	4360
857.397	4367
857.53	4295
857.664	4337
857.797	4367
857.931	4428
858.064	4390
858.197	4413
858.331	4402
858.464	4367
858.597	4333
858.731	4485
858.864	4440
858.997	4489
859.13	4508
859.263	4535
859.396	4615
859.529	4519
859.662	4531
859.795	4497
859.928	4516
860.061	4706
860.194	4714
860.327	4668
860.46	4672
860.592	4687
860.725	4714
860.858	4721
860.99	4706
861.123	4675
861.256	4706
861.388	4778
861.521	5398
861.653	4790
861.786	4675
861.918	4736
862.05	4790
862.183	4858
862.315	4892
862.447	4934
862.58	4854
862.712	4801
862.844	4782
862.976	4850
863.108	4850
863.24	5189
863.372	4824
863.504	4927
863.636	4911
863.768	4999
863.9	4934
864.032	4984
864.164	4946
864.296	5037
864.428	5083
864.559	5102
864.691	5151
864.823	5121
864.954	5098
865.086	5147
865.217	5132
865.349	5105
865.48	5162
865.612	5166
865.743	5307
865.875	5250
866.006	5181
866.137	5265
866.269	5204
866.4	5284
866.531	5250
866.662	5212
866.793	5254
866.924	5250
867.055	5398
867.186	5402
867.317	5337
867.448	5368
867.579	5383
867.71	5364
867.841	5406
867.972	5448
868.103	5505
868.233	5497
868.364	5535
868.495	5528
868.625	5691
868.756	5767
868.886	5699
869.017	5771
869.147	5828
869.278	5878
869.408	5851
869.539	5840
869.669	5923
869.799	5904
869.929	5973
870.06	6015
870.19	6232
870.32	6216
870.45	6277
870.58	6338
870.71	6456
870.84	6441
870.97	6426
871.1	6502
871.23	6684
871.36	6677
871.489	6692
871.619	6719
871.749	6837
871.879	6901
872.008	6996
872.138	7015
872.267	7015
872.397	7042
872.526	7076
872.656	7069
872.785	7194
872.915	7365
873.044	7510
873.173	7556
873.303	7693
873.432	7742
873.561	7913
873.69	7921
873.819	7932
873.948	8221
874.077	8240
874.206	8377
874.335	8385
874.464	8720
874.593	8857
874.722	8963
874.851	9184
874.979	9211
875.108	9348
875.237	9488
875.365	9454
875.494	9622
875.623	9876
875.751	9861
875.88	10036
876.008	10078
876.136	10253
876.265	10497
876.393	10649
876.521	10763
876.65	10900
876.778	10919
876.906	10904
877.034	11014
877.162	11109
877.29	11105
877.418	11322
877.546	11318
877.674	11444
877.802	11528
877.93	11528
878.058	11516
878.185	11581
878.313	11638
878.441	11771
878.568	11714
878.696	11828
878.824	11878
878.951	11908
879.079	11984
879.206	12114
879.333	12060
879.461	11999
879.588	12140
879.715	12175
879.842	12266
879.97	12060
880.097	11935
880.224	11866
880.351	11870
880.478	11889
880.605	11821
880.732	11832
880.859	11973
880.986	11821
881.112	11767
881.239	11805
881.366	11684
881.493	11649
881.619	11630
881.746	11524
881.872	11516
881.999	11547
882.125	11589
882.252	11608
882.378	11539
882.505	11543
882.631	11414
882.757	11395
882.883	11322
883.01	11322
883.136	11193
883.262	11102
883.388	11105
883.514	11223
883.64	11166
883.766	11136
883.892	11090
884.018	11086
884.143	11102
884.269	11151
884.395	10862
884.52	10801
884.646	10839
884.772	10733
884.897	10645
885.023	10683
885.148	10717
885.274	10740
885.399	10740
885.524	10588
885.65	10596
885.775	10641
885.9	10584
886.025	10565
886.15	10565
886.275	10440
886.4	10386
886.525	10428
886.65	10394
886.775	10333
886.9	10493
887.025	10588
887.149	10322
887.274	10223
887.399	10249
887.523	10211
887.648	10200
887.773	10162
887.897	10227
888.021	10196
888.146	10109
888.27	10272
888.395	10230
888.519	10196
888.643	10242
888.767	10154
888.891	10124
889.015	10040
889.139	10086
889.263	10013
889.387	10090
889.511	10109
889.635	10101
889.759	9968
889.883	9926
890.006	9968
890.13	10177
890.254	9956
890.377	9979
890.501	9831
890.624	9823
890.748	9949
890.871	9686
890.995	9793
891.118	9709
891.241	9785
891.364	9747
891.488	9861
891.611	9755
891.734	9724
891.857	9823
891.98	9709
892.103	9770
892.226	9709
892.349	9652
892.471	9542
892.594	9557
892.717	9610
892.839	9561
892.962	9603
893.085	9656
893.207	9568
893.33	9553
893.452	9538
893.575	9606
893.697	9542
893.819	9633
893.941	9629
894.064	9603
894.186	9469
894.308	9340
894.43	9458
894.552	9572
894.674	9428
894.796	9370
894.918	9424
895.04	9325
895.161	9370
895.283	9386
895.405	9268
895.526	9310
895.648	9272
895.769	9283
895.891	9226
896.012	9340
896.134	9211
896.255	9272
896.376	9176
896.498	9203
896.619	9161
896.74	9032
896.861	9127
896.982	9195
897.103	9329
897.224	9116
897.345	9169
897.466	9001
897.587	9020
897.708	9157
897.828	9028
897.949	8975
898.07	8872
898.19	8937
898.311	9097
898.431	8902
898.552	8967
898.672	8960
898.792	8925
898.913	8880
899.033	8876
899.153	8842
899.273	8648
899.393	8735
899.513	8731
899.633	8754
899.753	8735
899.873	8686
899.993	8769
900.113	8686
900.232	8724
900.352	8689
900.472	8621
900.591	8549
900.711	8659
900.83	8629
900.95	8606
901.069	8648
901.189	8648
901.308	8499
901.427	8396
901.546	8454
901.665	8408
901.784	8457
901.904	8381
902.023	8298
902.141	8214
902.26	8214
902.379	8301
902.498	8267
902.617	8206
902.735	8275
902.854	8309
902.973	8263
903.091	8103
903.21	8134
903.328	8187
903.446	8145
903.565	8084
903.683	8157
903.801	8058
903.919	8096
904.038	8100
904.156	7974
904.274	8054
904.392	8008
904.51	8054
904.627	7997
904.745	8100
904.863	8119
904.981	7940
905.098	7906
905.216	7909
905.334	7898
905.451	7909
905.569	7932
905.686	7925
905.803	7909
905.921	7814
906.038	7849
906.155	7913
906.272	7769
906.389	7662
906.506	7651
906.623	7670
906.74	7628
906.857	7521
906.974	7582
907.091	7704
907.208	7670
907.324	7658
907.441	7651
907.557	7487
907.674	7449
907.79	7400
907.907	7453
908.023	7499
908.139	7430
908.256	7365
908.372	7362
908.488	7369
908.604	7251
908.72	7282
908.836	7263
908.952	7225
909.068	7266
909.184	7343
909.3	7255
909.415	7251
909.531	7282
909.647	7103
909.762	7168
909.878	7099
909.993	7137
910.108	7065
910.224	7072
910.339	7091
910.454	7000
910.57	7015
910.685	6977
910.8	7183
910.915	7114
911.03	7034
911.145	6848
911.259	6875
911.374	6878
911.489	6848
911.604	6844
911.718	6764
911.833	6734
911.947	6639
912.062	6639
912.176	6745
912.291	6741
912.405	6738
912.519	6818
912.633	6844
912.748	6681
912.862	6677
912.976	6616
913.09	6593
913.204	6597
913.318	6673
913.431	6662
913.545	6700
913.659	6734
913.772	6658
913.886	6578
914	6547
914.113	6631
914.226	6658
914.34	6669
914.453	6509
914.566	6616
914.68	6593
914.793	6597
914.906	6407
915.019	6403
915.132	6304
915.245	6429
915.358	6483
915.47	6456
915.583	6437
915.696	6475
915.809	6616
915.921	6540
916.034	6452
916.146	6403
916.259	6388
916.371	6494
916.483	6422
916.595	6388
916.708	6437
916.82	6365
916.932	6395
917.044	6388
917.156	6391
917.268	6304
917.38	6346
917.491	6319
917.603	6357
917.715	6414
917.826	6391
917.938	6342
918.049	6235
918.161	6376
918.272	6437
918.384	6464
918.495	6273
918.606	6258
918.717	6243
918.828	6342
918.939	6300
919.05	6243
919.161	6251
919.272	6175
919.383	6194
919.494	6281
919.604	6475
919.715	6247
919.826	6220
919.936	6251
920.047	6342
920.157	6247
920.267	6475
920.378	6292
920.488	6247
920.598	6388
920.708	6570
920.818	6513
920.928	6532
921.038	6658
921.148	6597
921.258	6350
921.368	6319
921.477	6243
921.587	6133
921.697	6106
921.806	6159
921.916	6087
922.025	5946
922.134	6007
922.244	5908
922.353	5961
922.462	5851
922.571	5859
922.68	5745
922.789	5718
922.898	5733
923.007	5630
923.116	5684
923.224	5676
923.333	5684
923.442	5623
923.55	5623
923.659	5638
923.767	5653
923.876	5535
923.984	5638
924.092	5455
924.201	5562
924.309	5501
924.417	5539
924.525	5554
924.633	5524
924.741	6304
924.849	5364
924.956	5478
925.064	5376
925.172	5292
925.279	5326
925.387	5376
925.494	5357
925.602	5452
925.709	5417
925.816	5265
925.924	5364
926.031	5391
926.138	5311
926.245	5383
926.352	5185
926.459	5322
926.566	5284
926.673	5185
926.779	5178
926.886	5098
926.993	5060
927.099	5029
927.206	5003
927.312	4987
927.419	5025
927.525	5033
927.631	5037
927.737	4854
927.843	4862
927.95	4812
928.056	4820
928.162	4889
928.267	4843
928.373	5322
928.479	4866
928.585	4668
928.69	4717
928.796	4771
928.901	4687
929.007	4630
929.112	4649
929.218	4691
929.323	4611
929.428	4554
929.533	4687
929.638	4497
929.743	4512
929.848	4573
929.953	4508
930.058	4402
930.163	4322
930.267	4375
930.372	4432
930.477	4272
930.581	4462
930.685	4360
930.79	4246
930.894	4306
930.998	4291
931.103	4375
931.207	4124
931.311	4071
931.415	4059
931.519	3930
931.623	3960
