Data from glass_V78500241_2692.txt Node
Date: Wed Sep 01 19:33:09 CST 2021
User: usil
Spectrometer: V785-0024
Trigger mode: 0
Integration Time (sec): 4.000000E-1
Scans to average: 1
Nonlinearity correction enabled: false
Boxcar width: 0
Storing dark spectrum: false
XAxis mode: Wavelengths
Number of Pixels in Spectrum: 1024
>>>>>Begin Spectral Data<<<<<
801.071	3709
801.214	3736
801.356	3679
801.499	3736
801.641	3690
801.783	3743
801.926	3831
802.068	3827
802.211	3857
802.353	3846
802.496	3854
802.638	3850
802.78	3888
802.923	3941
803.065	3941
803.208	3816
803.35	3842
803.492	3915
803.635	3892
803.777	3785
803.919	3892
804.061	4135
804.204	3937
804.346	3892
804.488	3880
804.63	4002
804.773	3953
804.915	4025
805.057	4116
805.199	4055
805.341	4048
805.483	4124
805.626	4078
805.768	4105
805.91	4166
806.052	4181
806.194	4207
806.336	4306
806.478	4188
806.62	4158
806.762	4166
806.904	4246
807.046	4329
807.188	4173
807.33	4204
807.472	4238
807.614	4181
807.756	4261
807.898	4128
808.04	4219
808.182	4227
808.324	4272
808.465	4363
808.607	4424
808.749	4424
808.891	4489
809.033	4508
809.174	4363
809.316	4249
809.458	4249
809.6	4143
809.741	4120
809.883	4112
810.025	4181
810.166	4177
810.308	4192
810.45	4238
810.591	4227
810.733	4284
810.875	4519
811.016	4828
811.158	5083
811.299	5250
811.441	5330
811.582	5052
811.724	4706
811.865	4455
812.007	4440
812.148	4421
812.29	4424
812.431	4390
812.573	4428
812.714	4379
812.855	4379
812.997	4375
813.138	4512
813.279	4421
813.421	4363
813.562	4348
813.703	4291
813.845	4310
813.986	4291
814.127	4230
814.268	4200
814.41	4291
814.551	4295
814.692	4337
814.833	4234
814.974	4325
815.115	4314
815.256	4227
815.397	4196
815.539	4306
815.68	4188
815.821	4188
815.962	4333
816.103	4284
816.244	4238
816.385	4196
816.526	4242
816.666	4135
816.807	4078
816.948	4154
817.089	4181
817.23	4192
817.371	4002
817.512	4032
817.653	4071
817.793	3960
817.934	4010
818.075	4128
818.216	4055
818.356	4074
818.497	4002
818.638	3922
818.778	3915
818.919	3884
819.06	3876
819.2	3934
819.341	3838
819.481	3842
819.622	3896
819.762	3994
819.903	3922
820.043	3865
820.184	3804
820.324	3812
820.465	3816
820.605	3865
820.746	3873
820.886	3774
821.026	3880
821.167	3888
821.307	3953
821.447	3991
821.588	3926
821.728	3903
821.868	3960
822.008	3896
822.149	3896
822.289	3899
822.429	3770
822.569	3740
822.709	3736
822.849	3679
822.99	3732
823.13	3751
823.27	3770
823.41	3717
823.55	3766
823.69	3686
823.83	3686
823.97	3690
824.11	3610
824.25	3595
824.389	3648
824.529	3667
824.669	3603
824.809	3698
824.949	3747
825.089	3724
825.228	3709
825.368	3584
825.508	3519
825.648	3530
825.787	3584
825.927	3603
826.067	3603
826.206	3679
826.346	3766
826.485	3812
826.625	3838
826.765	3869
826.904	3819
827.044	3656
827.183	3492
827.323	3428
827.462	3504
827.601	3412
827.741	3389
827.88	3462
828.02	3367
828.159	3447
828.298	3477
828.437	3523
828.577	3447
828.716	3576
828.855	3504
828.994	3359
829.134	3386
829.273	3443
829.412	3348
829.551	3302
829.69	3370
829.829	3454
829.968	3488
830.107	3405
830.246	3435
830.385	3382
830.524	3317
830.663	3302
830.802	3218
830.941	3176
831.08	3222
831.219	3245
831.357	3237
831.496	3359
831.635	3226
831.774	3173
831.913	3207
832.051	3070
832.19	3112
832.329	3214
832.467	3161
832.606	3070
832.744	3173
832.883	3165
833.022	3207
833.16	3233
833.299	3264
833.437	3321
833.576	3348
833.714	3382
833.852	3443
833.991	3435
834.129	3526
834.267	3401
834.406	3359
834.544	3405
834.682	3405
834.821	3393
834.959	3576
835.097	3428
835.235	3549
835.373	3454
835.511	3500
835.65	3428
835.788	3469
835.926	3367
836.064	3367
836.202	3405
836.34	3530
836.478	3625
836.615	3530
836.753	3580
836.891	3606
837.029	3564
837.167	3561
837.305	3576
837.443	3564
837.58	3492
837.718	3561
837.856	3534
837.993	3568
838.131	3599
838.269	3526
838.406	3538
838.544	3576
838.681	3458
838.819	3428
838.956	3367
839.094	3367
839.231	3416
839.369	3469
839.506	3720
839.643	3606
839.781	3496
839.918	3454
840.055	3504
840.193	3504
840.33	3496
840.467	3538
840.604	3580
840.742	3831
840.879	3530
841.016	3534
841.153	3584
841.29	3682
841.427	3705
841.564	3705
841.701	3720
841.838	3701
841.975	3656
842.112	3671
842.249	3595
842.385	3599
842.522	3808
842.659	3682
842.796	3641
842.933	3679
843.069	3652
843.206	3701
843.343	3762
843.479	3743
843.616	3850
843.752	3644
843.889	3686
844.025	3861
844.162	3732
844.298	3861
844.435	3766
844.571	3789
844.708	3892
844.844	3956
844.98	4025
845.117	4063
845.253	3930
845.389	3876
845.525	3911
845.661	3956
845.798	3930
845.934	3991
846.07	3956
846.206	4025
846.342	4101
846.478	4063
846.614	3937
846.75	3911
846.886	3857
847.022	4063
847.158	3964
847.294	4013
847.429	4044
847.565	3998
847.701	4230
847.837	3865
847.972	3865
848.108	3934
848.244	3937
848.379	3800
848.515	3766
848.65	3823
848.786	3789
848.921	3808
849.057	3918
849.192	3930
849.328	3892
849.463	3892
849.598	3896
849.734	3823
849.869	3816
850.004	3793
850.14	3800
850.275	3755
850.41	3736
850.545	3724
850.68	3766
850.815	3785
850.95	3804
851.085	3903
851.22	3827
851.355	3797
851.49	3785
851.625	3797
851.76	3804
851.895	3755
852.03	3717
852.165	3785
852.299	3816
852.434	3876
852.569	3816
852.703	3861
852.838	3873
852.973	3991
853.107	3968
853.242	3861
853.376	3827
853.511	3743
853.645	3781
853.78	3922
853.914	3873
854.048	3899
854.183	3888
854.317	3926
854.451	4021
854.585	3922
854.72	3930
854.854	4063
854.988	3937
855.122	3991
855.256	3922
855.39	4010
855.524	4166
855.658	4071
855.792	4055
855.926	4105
856.06	4131
856.194	4169
856.327	4128
856.461	4090
856.595	4143
856.729	4150
856.862	4234
856.996	4215
857.13	4291
857.263	4318
857.397	4367
857.53	4329
857.664	4352
857.797	4432
857.931	4405
858.064	4356
858.197	4436
858.331	4421
858.464	4356
858.597	4333
858.731	4413
858.864	4455
858.997	4379
859.13	4497
859.263	4508
859.396	4599
859.529	4527
859.662	4497
859.795	4542
859.928	4577
860.061	4679
860.194	4717
860.327	4634
860.46	4622
860.592	4755
860.725	4740
860.858	4717
860.99	4714
861.123	4702
861.256	4653
861.388	4774
861.521	5277
861.653	4702
861.786	4668
861.918	4736
862.05	4763
862.183	4877
862.315	4858
862.447	4847
862.58	4850
862.712	4767
862.844	4812
862.976	4873
863.108	4847
863.24	5208
863.372	4847
863.504	4889
863.636	4870
863.768	4999
863.9	4953
864.032	4946
864.164	4911
864.296	5010
864.428	5064
864.559	5098
864.691	5094
864.823	5140
864.954	5098
865.086	5109
865.217	5098
865.349	5094
865.48	5136
865.612	5193
865.743	5258
865.875	5159
866.006	5208
866.137	5193
866.269	5227
866.4	5208
866.531	5246
866.662	5208
866.793	5197
866.924	5311
867.055	5334
867.186	5368
867.317	5330
867.448	5322
867.579	5349
867.71	5364
867.841	5360
867.972	5433
868.103	5452
868.233	5440
868.364	5516
868.495	5535
868.625	5665
868.756	5767
868.886	5646
869.017	5752
869.147	5809
869.278	5821
869.408	5790
869.539	5821
869.669	5908
869.799	5889
869.929	5904
870.06	5999
870.19	6133
870.32	6178
870.45	6258
870.58	6338
870.71	6452
870.84	6441
870.97	6426
871.1	6410
871.23	6601
871.36	6639
871.489	6662
871.619	6692
871.749	6749
871.879	6878
872.008	6916
872.138	6970
872.267	7004
872.397	6951
872.526	6947
872.656	7103
872.785	7232
872.915	7381
873.044	7438
873.173	7495
873.303	7620
873.432	7700
873.561	7792
873.69	7868
873.819	8046
873.948	8157
874.077	8195
874.206	8298
874.335	8473
874.464	8724
874.593	8815
874.722	8948
874.851	9100
874.979	9123
875.108	9336
875.237	9450
875.365	9462
875.494	9671
875.623	9850
875.751	9812
875.88	9979
876.008	10135
876.136	10215
876.265	10558
876.393	10672
876.521	10691
876.65	10763
876.778	10866
876.906	10881
877.034	10976
877.162	11060
877.29	11197
877.418	11265
877.546	11322
877.674	11512
877.802	11345
877.93	11433
878.058	11512
878.185	11524
878.313	11592
878.441	11691
878.568	11657
878.696	11904
878.824	11737
878.951	11931
879.079	11973
879.206	12102
879.333	12030
879.461	11935
879.588	12114
879.715	12026
879.842	12235
879.97	12083
880.097	11893
880.224	11920
880.351	11863
880.478	11840
880.605	11847
880.732	11771
880.859	12003
880.986	11805
881.112	11931
881.239	11714
881.366	11615
881.493	11558
881.619	11589
881.746	11577
881.872	11524
881.999	11543
882.125	11448
882.252	11543
882.378	11509
882.505	11646
882.631	11368
882.757	11220
882.883	11315
883.01	11223
883.136	11170
883.262	10995
883.388	11067
883.514	11223
883.64	11166
883.766	11098
883.892	10919
884.018	10984
884.143	11064
884.269	11083
884.395	10809
884.52	10687
884.646	10774
884.772	10710
884.897	10672
885.023	10721
885.148	10714
885.274	10744
885.399	10641
885.524	10637
885.65	10565
885.775	10603
885.9	10443
886.025	10592
886.15	10523
886.275	10436
886.4	10394
886.525	10314
886.65	10371
886.775	10356
886.9	10436
887.025	10504
887.149	10360
887.274	10223
887.399	10211
887.523	10101
887.648	10071
887.773	10105
887.897	10249
888.021	10276
888.146	10109
888.27	10211
888.395	10177
888.519	10112
888.643	10147
888.767	10219
888.891	10082
889.015	9975
889.139	10051
889.263	10013
889.387	10078
889.511	10048
889.635	10021
889.759	9907
889.883	9953
890.006	9987
890.13	10074
890.254	9827
890.377	9884
890.501	9842
890.624	9808
890.748	9907
890.871	9743
890.995	9694
891.118	9686
891.241	9774
891.364	9701
891.488	9755
891.611	9797
891.734	9743
891.857	9679
891.98	9675
892.103	9732
892.226	9671
892.349	9629
892.471	9557
892.594	9557
892.717	9648
892.839	9587
892.962	9561
893.085	9637
893.207	9568
893.33	9454
893.452	9538
893.575	9534
893.697	9591
893.819	9549
893.941	9622
894.064	9584
894.186	9485
894.308	9370
894.43	9515
894.552	9595
894.674	9488
894.796	9344
894.918	9424
895.04	9382
895.161	9367
895.283	9302
895.405	9245
895.526	9260
895.648	9241
895.769	9230
895.891	9211
896.012	9230
896.134	9203
896.255	9226
896.376	9093
896.498	9100
896.619	9142
896.74	9032
896.861	9070
896.982	9260
897.103	9332
897.224	9173
897.345	8998
897.466	9032
897.587	9032
897.708	9077
897.828	9001
897.949	8994
898.07	8891
898.19	8842
898.311	9024
898.431	8891
898.552	8933
898.672	8944
898.792	8895
898.913	8921
899.033	8819
899.153	8750
899.273	8598
899.393	8712
899.513	8750
899.633	8651
899.753	8792
899.873	8636
899.993	8701
900.113	8773
900.232	8766
900.352	8659
900.472	8590
900.591	8469
900.711	8655
900.83	8545
900.95	8697
901.069	8689
901.189	8492
901.308	8488
901.427	8267
901.546	8454
901.665	8393
901.784	8488
901.904	8381
902.023	8240
902.141	8199
902.26	8142
902.379	8237
902.498	8115
902.617	8176
902.735	8282
902.854	8256
902.973	8195
903.091	8168
903.21	8123
903.328	8237
903.446	8126
903.565	8027
903.683	8088
903.801	8046
903.919	8031
904.038	8130
904.156	8058
904.274	8073
904.392	8024
904.51	8058
904.627	7974
904.745	8024
904.863	8069
904.981	7967
905.098	7856
905.216	7879
905.334	7811
905.451	7944
905.569	7818
905.686	7833
905.803	7871
905.921	7841
906.038	7868
906.155	7818
906.272	7696
906.389	7689
906.506	7590
906.623	7609
906.74	7567
906.857	7472
906.974	7563
907.091	7616
907.208	7704
907.324	7590
907.441	7552
907.557	7491
907.674	7407
907.79	7377
907.907	7419
908.023	7476
908.139	7403
908.256	7320
908.372	7384
908.488	7278
908.604	7305
908.72	7160
908.836	7232
908.952	7236
909.068	7316
909.184	7274
909.3	7202
909.415	7305
909.531	7240
909.647	7088
909.762	7114
909.878	7053
909.993	7137
910.108	7103
910.224	7008
910.339	7072
910.454	7000
910.57	7023
910.685	7019
910.8	7137
910.915	7133
911.03	7053
911.145	6856
911.259	6909
911.374	6894
911.489	6806
911.604	6757
911.718	6696
911.833	6658
911.947	6669
912.062	6517
912.176	6639
912.291	6741
912.405	6681
912.519	6821
912.633	6818
912.748	6730
912.862	6665
912.976	6589
913.09	6540
913.204	6563
913.318	6570
913.431	6692
913.545	6703
913.659	6726
913.772	6639
913.886	6536
914	6578
914.113	6585
914.226	6677
914.34	6608
914.453	6448
914.566	6593
914.68	6521
914.793	6452
914.906	6361
915.019	6353
915.132	6399
915.245	6407
915.358	6433
915.47	6433
915.583	6445
915.696	6467
915.809	6544
915.921	6532
916.034	6410
916.146	6403
916.259	6388
916.371	6486
916.483	6395
916.595	6407
916.708	6429
916.82	6380
916.932	6353
917.044	6380
917.156	6369
917.268	6384
917.38	6319
917.491	6327
917.603	6327
917.715	6357
917.826	6365
917.938	6323
918.049	6281
918.161	6342
918.272	6410
918.384	6433
918.495	6331
918.606	6220
918.717	6254
918.828	6254
918.939	6209
919.05	6209
919.161	6201
919.272	6171
919.383	6178
919.494	6296
919.604	6342
919.715	6216
919.826	6232
919.936	6285
920.047	6327
920.157	6194
920.267	6433
920.378	6327
920.488	6334
920.598	6464
920.708	6536
920.818	6441
920.928	6418
921.038	6555
921.148	6513
921.258	6308
921.368	6311
921.477	6209
921.587	6213
921.697	6095
921.806	6152
921.916	6083
922.025	5931
922.134	5958
922.244	5779
922.353	5942
922.462	5847
922.571	5764
922.68	5733
922.789	5699
922.898	5646
923.007	5615
923.116	5741
923.224	5642
923.333	5611
923.442	5619
923.55	5566
923.659	5585
923.767	5528
923.876	5520
923.984	5577
924.092	5471
924.201	5516
924.309	5524
924.417	5493
924.525	5452
924.633	5459
924.741	6213
924.849	5299
924.956	5486
925.064	5368
925.172	5296
925.279	5315
925.387	5337
925.494	5299
925.602	5436
925.709	5414
925.816	5239
925.924	5315
926.031	5357
926.138	5292
926.245	5231
926.352	5239
926.459	5299
926.566	5258
926.673	5189
926.779	5098
926.886	5124
926.993	5048
927.099	5003
927.206	4934
927.312	5003
927.419	4976
927.525	4942
927.631	5006
927.737	4862
927.843	4816
927.95	4793
928.056	4824
928.162	4820
928.267	4847
928.373	5242
928.479	4866
928.585	4706
928.69	4748
928.796	4702
928.901	4668
929.007	4626
929.112	4656
929.218	4626
929.323	4569
929.428	4523
929.533	4637
929.638	4508
929.743	4523
929.848	4519
929.953	4493
930.058	4436
930.163	4344
930.267	4303
930.372	4375
930.477	4272
930.581	4462
930.685	4363
930.79	4261
930.894	4234
930.998	4295
931.103	4367
931.207	4135
931.311	4021
931.415	4055
931.519	3915
931.623	3937
