Data from glass_V78500241_2752.txt Node
Date: Wed Sep 01 19:33:34 CST 2021
User: usil
Spectrometer: V785-0024
Trigger mode: 0
Integration Time (sec): 4.000000E-1
Scans to average: 1
Nonlinearity correction enabled: false
Boxcar width: 0
Storing dark spectrum: false
XAxis mode: Wavelengths
Number of Pixels in Spectrum: 1024
>>>>>Begin Spectral Data<<<<<
801.071	3717
801.214	3717
801.356	3701
801.499	3736
801.641	3694
801.783	3781
801.926	3835
802.068	3854
802.211	3880
802.353	3857
802.496	3793
802.638	3857
802.78	3869
802.923	3865
803.065	3816
803.208	3816
803.35	3819
803.492	3850
803.635	3896
803.777	3766
803.919	3892
804.061	4139
804.204	3884
804.346	3975
804.488	3892
804.63	4002
804.773	3953
804.915	3987
805.057	4124
805.199	4044
805.341	4059
805.483	4093
805.626	4101
805.768	4063
805.91	4124
806.052	4253
806.194	4219
806.336	4337
806.478	4211
806.62	4177
806.762	4207
806.904	4246
807.046	4333
807.188	4185
807.33	4150
807.472	4211
807.614	4185
807.756	4238
807.898	4204
808.04	4177
808.182	4344
808.324	4333
808.465	4394
808.607	4447
808.749	4447
808.891	4489
809.033	4459
809.174	4443
809.316	4272
809.458	4230
809.6	4158
809.741	4135
809.883	4143
810.025	4188
810.166	4192
810.308	4234
810.45	4192
810.591	4211
810.733	4314
810.875	4489
811.016	4847
811.158	5105
811.299	5292
811.441	5231
811.582	5060
811.724	4710
811.865	4443
812.007	4440
812.148	4451
812.29	4386
812.431	4432
812.573	4402
812.714	4367
812.855	4360
812.997	4367
813.138	4455
813.279	4424
813.421	4356
813.562	4356
813.703	4352
813.845	4341
813.986	4249
814.127	4242
814.268	4272
814.41	4299
814.551	4242
814.692	4291
814.833	4242
814.974	4261
815.115	4280
815.256	4230
815.397	4249
815.539	4265
815.68	4196
815.821	4242
815.962	4318
816.103	4249
816.244	4257
816.385	4242
816.526	4284
816.666	4204
816.807	4093
816.948	4188
817.089	4207
817.23	4147
817.371	4002
817.512	4025
817.653	3998
817.793	4044
817.934	4048
818.075	4067
818.216	4071
818.356	4055
818.497	3979
818.638	3911
818.778	3899
818.919	3896
819.06	3838
819.2	3915
819.341	3880
819.481	3835
819.622	3873
819.762	4013
819.903	3888
820.043	3854
820.184	3842
820.324	3800
820.465	3884
820.605	3850
820.746	3838
820.886	3816
821.026	3869
821.167	3903
821.307	3945
821.447	3941
821.588	3945
821.728	3956
821.868	3911
822.008	3861
822.149	3892
822.289	3903
822.429	3789
822.569	3751
822.709	3762
822.849	3663
822.99	3686
823.13	3724
823.27	3819
823.41	3644
823.55	3736
823.69	3667
823.83	3701
823.97	3686
824.11	3599
824.25	3599
824.389	3614
824.529	3679
824.669	3629
824.809	3656
824.949	3713
825.089	3705
825.228	3705
825.368	3568
825.508	3515
825.648	3557
825.787	3603
825.927	3652
826.067	3644
826.206	3660
826.346	3778
826.485	3846
826.625	3842
826.765	3903
826.904	3800
827.044	3591
827.183	3511
827.323	3393
827.462	3450
827.601	3428
827.741	3435
827.88	3439
828.02	3325
828.159	3424
828.298	3443
828.437	3473
828.577	3466
828.716	3595
828.855	3492
828.994	3389
829.134	3382
829.273	3382
829.412	3351
829.551	3310
829.69	3355
829.829	3435
829.968	3500
830.107	3435
830.246	3386
830.385	3348
830.524	3332
830.663	3260
830.802	3245
830.941	3203
831.08	3184
831.219	3268
831.357	3264
831.496	3389
831.635	3253
831.774	3180
831.913	3161
832.051	3097
832.19	3169
832.329	3161
832.467	3119
832.606	3112
832.744	3169
832.883	3169
833.022	3138
833.16	3241
833.299	3291
833.437	3306
833.576	3359
833.714	3348
833.852	3462
833.991	3416
834.129	3447
834.267	3450
834.406	3401
834.544	3412
834.682	3382
834.821	3401
834.959	3561
835.097	3416
835.235	3515
835.373	3447
835.511	3519
835.65	3469
835.788	3488
835.926	3340
836.064	3336
836.202	3344
836.34	3549
836.478	3549
836.615	3511
836.753	3561
836.891	3610
837.029	3614
837.167	3572
837.305	3530
837.443	3504
837.58	3500
837.718	3576
837.856	3500
837.993	3549
838.131	3606
838.269	3572
838.406	3580
838.544	3534
838.681	3469
838.819	3450
838.956	3348
839.094	3355
839.231	3435
839.369	3477
839.506	3747
839.643	3599
839.781	3492
839.918	3447
840.055	3504
840.193	3553
840.33	3504
840.467	3553
840.604	3564
840.742	3800
840.879	3530
841.016	3504
841.153	3572
841.29	3762
841.427	3690
841.564	3675
841.701	3713
841.838	3724
841.975	3633
842.112	3736
842.249	3610
842.385	3622
842.522	3804
842.659	3698
842.796	3656
842.933	3663
843.069	3690
843.206	3736
843.343	3759
843.479	3724
843.616	3812
843.752	3694
843.889	3667
844.025	3804
844.162	3724
844.298	3808
844.435	3781
844.571	3755
844.708	3869
844.844	3960
844.98	3983
845.117	3994
845.253	3888
845.389	3899
845.525	3949
845.661	3968
845.798	3941
845.934	3972
846.07	3949
846.206	4029
846.342	4059
846.478	4048
846.614	3937
846.75	3918
846.886	3918
847.022	4021
847.158	3987
847.294	3987
847.429	4036
847.565	3983
847.701	4215
847.837	3838
847.972	3835
848.108	4032
848.244	3983
848.379	3842
848.515	3835
848.65	3778
848.786	3823
848.921	3854
849.057	3918
849.192	3888
849.328	3854
849.463	3934
849.598	3884
849.734	3896
849.869	3789
850.004	3793
850.14	3781
850.275	3747
850.41	3675
850.545	3762
850.68	3766
850.815	3766
850.95	3770
851.085	3941
851.22	3846
851.355	3762
851.49	3762
851.625	3804
851.76	3793
851.895	3698
852.03	3717
852.165	3823
852.299	3819
852.434	3907
852.569	3831
852.703	3899
852.838	3949
852.973	4025
853.107	3956
853.242	3861
853.376	3835
853.511	3755
853.645	3804
853.78	3972
853.914	3827
854.048	3854
854.183	3876
854.317	3922
854.451	4006
854.585	3918
854.72	3903
854.854	4010
854.988	3884
855.122	4002
855.256	3896
855.39	4010
855.524	4036
855.658	4063
855.792	4067
855.926	4139
856.06	4181
856.194	4162
856.327	4135
856.461	4109
856.595	4128
856.729	4166
856.862	4249
856.996	4234
857.13	4272
857.263	4287
857.397	4352
857.53	4299
857.664	4333
857.797	4402
857.931	4421
858.064	4417
858.197	4417
858.331	4398
858.464	4356
858.597	4352
858.731	4409
858.864	4436
858.997	4455
859.13	4493
859.263	4523
859.396	4599
859.529	4542
859.662	4531
859.795	4508
859.928	4584
860.061	4637
860.194	4714
860.327	4664
860.46	4630
860.592	4687
860.725	4744
860.858	4710
860.99	4717
861.123	4687
861.256	4668
861.388	4771
861.521	5288
861.653	4698
861.786	4668
861.918	4717
862.05	4816
862.183	4828
862.315	4889
862.447	4908
862.58	4843
862.712	4786
862.844	4771
862.976	4877
863.108	4858
863.24	5208
863.372	4870
863.504	4870
863.636	4889
863.768	4915
863.9	4961
864.032	4919
864.164	4946
864.296	5045
864.428	5064
864.559	5109
864.691	5079
864.823	5060
864.954	5064
865.086	5124
865.217	5124
865.349	5102
865.48	5132
865.612	5162
865.743	5341
865.875	5189
866.006	5136
866.137	5201
866.269	5265
866.4	5204
866.531	5185
866.662	5220
866.793	5280
866.924	5303
867.055	5387
867.186	5318
867.317	5315
867.448	5334
867.579	5379
867.71	5383
867.841	5376
867.972	5440
868.103	5440
868.233	5448
868.364	5509
868.495	5577
868.625	5642
868.756	5752
868.886	5619
869.017	5729
869.147	5832
869.278	5832
869.408	5779
869.539	5893
869.669	5977
869.799	5923
869.929	5969
870.06	5996
870.19	6232
870.32	6232
870.45	6258
870.58	6327
870.71	6361
870.84	6448
870.97	6407
871.1	6365
871.23	6616
871.36	6635
871.489	6703
871.619	6734
871.749	6818
871.879	6825
872.008	6954
872.138	7027
872.267	6970
872.397	6996
872.526	7034
872.656	7084
872.785	7198
872.915	7365
873.044	7518
873.173	7552
873.303	7647
873.432	7715
873.561	7906
873.69	7925
873.819	8092
873.948	8180
874.077	8225
874.206	8309
874.335	8507
874.464	8625
874.593	8880
874.722	8925
874.851	9146
874.979	9218
875.108	9317
875.237	9431
875.365	9492
875.494	9587
875.623	9759
875.751	9781
875.88	9987
876.008	10101
876.136	10234
876.265	10538
876.393	10729
876.521	10664
876.65	10778
876.778	10942
876.906	10942
877.034	10927
877.162	11090
877.29	11086
877.418	11292
877.546	11341
877.674	11414
877.802	11448
877.93	11417
878.058	11524
878.185	11524
878.313	11630
878.441	11672
878.568	11703
878.696	11779
878.824	11832
878.951	11988
879.079	11954
879.206	12083
879.333	12045
879.461	11977
879.588	11984
879.715	12152
879.842	12178
879.97	12079
880.097	11836
880.224	11832
880.351	11916
880.478	11847
880.605	11840
880.732	11764
880.859	11996
880.986	11851
881.112	11722
881.239	11695
881.366	11668
881.493	11627
881.619	11467
881.746	11551
881.872	11532
881.999	11425
882.125	11436
882.252	11570
882.378	11440
882.505	11497
882.631	11284
882.757	11299
882.883	11277
883.01	11265
883.136	11178
883.262	11079
883.388	11025
883.514	11140
883.64	11132
883.766	11090
883.892	11083
884.018	11029
884.143	11029
884.269	11147
884.395	10850
884.52	10729
884.646	10721
884.772	10691
884.897	10649
885.023	10664
885.148	10736
885.274	10740
885.399	10729
885.524	10653
885.65	10538
885.775	10538
885.9	10599
886.025	10656
886.15	10546
886.275	10481
886.4	10390
886.525	10398
886.65	10360
886.775	10371
886.9	10424
887.025	10512
887.149	10322
887.274	10265
887.399	10169
887.523	10139
887.648	10204
887.773	10101
887.897	10196
888.021	10219
888.146	10059
888.27	10188
888.395	10204
888.519	10128
888.643	10124
888.767	10173
888.891	10090
889.015	9949
889.139	10040
889.263	9987
889.387	10051
889.511	10063
889.635	10036
889.759	9968
889.883	9991
890.006	9930
890.13	10059
890.254	9899
890.377	9983
890.501	9865
890.624	9949
890.748	9876
890.871	9797
890.995	9728
891.118	9618
891.241	9747
891.364	9675
891.488	9793
891.611	9728
891.734	9675
891.857	9774
891.98	9728
892.103	9660
892.226	9671
892.349	9648
892.471	9534
892.594	9690
892.717	9591
892.839	9553
892.962	9580
893.085	9667
893.207	9507
893.33	9424
893.452	9534
893.575	9515
893.697	9424
893.819	9545
893.941	9576
894.064	9667
894.186	9386
894.308	9382
894.43	9584
894.552	9576
894.674	9504
894.796	9424
894.918	9359
895.04	9378
895.161	9279
895.283	9374
895.405	9211
895.526	9214
895.648	9275
895.769	9214
895.891	9272
896.012	9275
896.134	9207
896.255	9214
896.376	9154
896.498	9180
896.619	9116
896.74	9097
896.861	9036
896.982	9241
897.103	9294
897.224	9161
897.345	9020
897.466	8998
897.587	9005
897.708	9081
897.828	9051
897.949	8948
898.07	8868
898.19	8880
898.311	8990
898.431	8830
898.552	8944
898.672	8937
898.792	8921
898.913	8933
899.033	8773
899.153	8750
899.273	8674
899.393	8708
899.513	8724
899.633	8674
899.753	8724
899.873	8621
899.993	8762
900.113	8785
900.232	8678
900.352	8617
900.472	8522
900.591	8495
900.711	8571
900.83	8552
900.95	8648
901.069	8613
901.189	8541
901.308	8404
901.427	8355
901.546	8473
901.665	8427
901.784	8514
901.904	8442
902.023	8301
902.141	8195
902.26	8149
902.379	8233
902.498	8138
902.617	8172
902.735	8244
902.854	8252
902.973	8259
903.091	8187
903.21	8069
903.328	8142
903.446	8069
903.565	8081
903.683	8073
903.801	8016
903.919	8161
904.038	7997
904.156	7978
904.274	8103
904.392	8050
904.51	8024
904.627	8031
904.745	8039
904.863	8111
904.981	7894
905.098	7830
905.216	7887
905.334	7890
905.451	7875
905.569	7883
905.686	7864
905.803	7932
905.921	7822
906.038	7890
906.155	7811
906.272	7704
906.389	7677
906.506	7677
906.623	7624
906.74	7601
906.857	7506
906.974	7609
907.091	7662
907.208	7750
907.324	7632
907.441	7525
907.557	7460
907.674	7407
907.79	7331
907.907	7419
908.023	7419
908.139	7415
908.256	7411
908.372	7339
908.488	7339
908.604	7305
908.72	7190
908.836	7266
908.952	7270
909.068	7244
909.184	7278
909.3	7270
909.415	7274
909.531	7225
909.647	7042
909.762	7126
909.878	7084
909.993	7122
910.108	7053
910.224	7027
910.339	7084
910.454	7069
910.57	6951
910.685	6916
910.8	7145
910.915	7126
911.03	6996
911.145	6897
911.259	6840
911.374	6875
911.489	6814
911.604	6779
911.718	6688
911.833	6741
911.947	6616
912.062	6578
912.176	6620
912.291	6738
912.405	6749
912.519	6798
912.633	6764
912.748	6719
912.862	6707
912.976	6555
913.09	6483
913.204	6582
913.318	6635
913.431	6711
913.545	6623
913.659	6711
913.772	6620
913.886	6490
914	6623
914.113	6654
914.226	6662
914.34	6563
914.453	6494
914.566	6578
914.68	6483
914.793	6536
914.906	6471
915.019	6342
915.132	6331
915.245	6353
915.358	6395
915.47	6414
915.583	6441
915.696	6395
915.809	6525
915.921	6525
916.034	6407
916.146	6399
916.259	6350
916.371	6471
916.483	6452
916.595	6384
916.708	6315
916.82	6407
916.932	6372
917.044	6346
917.156	6433
917.268	6270
917.38	6281
917.491	6319
917.603	6319
917.715	6388
917.826	6437
917.938	6258
918.049	6270
918.161	6342
918.272	6350
918.384	6426
918.495	6350
918.606	6216
918.717	6216
918.828	6205
918.939	6281
919.05	6209
919.161	6296
919.272	6049
919.383	6163
919.494	6213
919.604	6418
919.715	6239
919.826	6201
919.936	6247
920.047	6277
920.157	6266
920.267	6399
920.378	6289
920.488	6258
920.598	6399
920.708	6532
920.818	6429
920.928	6483
921.038	6585
921.148	6555
921.258	6315
921.368	6197
921.477	6232
921.587	6155
921.697	6102
921.806	6194
921.916	6026
922.025	5878
922.134	5912
922.244	5897
922.353	5950
922.462	5794
922.571	5832
922.68	5691
922.789	5623
922.898	5676
923.007	5661
923.116	5699
923.224	5680
923.333	5657
923.442	5604
923.55	5551
923.659	5596
923.767	5562
923.876	5532
923.984	5573
924.092	5455
924.201	5524
924.309	5509
924.417	5524
924.525	5501
924.633	5490
924.741	6235
924.849	5379
924.956	5452
925.064	5318
925.172	5296
925.279	5307
925.387	5311
925.494	5303
925.602	5383
925.709	5345
925.816	5261
925.924	5337
926.031	5311
926.138	5345
926.245	5383
926.352	5204
926.459	5326
926.566	5292
926.673	5143
926.779	5128
926.886	5136
926.993	5045
927.099	4991
927.206	4965
927.312	4923
927.419	4938
927.525	4972
927.631	4961
927.737	4873
927.843	4801
927.95	4755
928.056	4828
928.162	4847
928.267	4793
928.373	5360
928.479	4866
928.585	4694
928.69	4755
928.796	4767
928.901	4634
929.007	4637
929.112	4653
929.218	4615
929.323	4592
929.428	4554
929.533	4660
929.638	4497
929.743	4531
929.848	4603
929.953	4485
930.058	4451
930.163	4310
930.267	4265
930.372	4402
930.477	4284
930.581	4481
930.685	4333
930.79	4242
930.894	4280
930.998	4227
931.103	4363
931.207	4105
931.311	4029
931.415	4032
931.519	3960
931.623	3934
