Data from glass_V78500241_1957.txt Node
Date: Wed Sep 01 19:28:04 CST 2021
User: usil
Spectrometer: V785-0024
Trigger mode: 0
Integration Time (sec): 4.000000E-1
Scans to average: 1
Nonlinearity correction enabled: false
Boxcar width: 0
Storing dark spectrum: false
XAxis mode: Wavelengths
Number of Pixels in Spectrum: 1024
>>>>>Begin Spectral Data<<<<<
801.071	3698
801.214	3785
801.356	3698
801.499	3736
801.641	3755
801.783	3797
801.926	3804
802.068	3808
802.211	3857
802.353	3934
802.496	3804
802.638	3915
802.78	3869
802.923	3922
803.065	3907
803.208	3888
803.35	3865
803.492	3850
803.635	3911
803.777	3816
803.919	3888
804.061	4139
804.204	3968
804.346	3972
804.488	3956
804.63	4048
804.773	3983
804.915	4055
805.057	4166
805.199	4025
805.341	4086
805.483	4124
805.626	4158
805.768	4105
805.91	4181
806.052	4227
806.194	4223
806.336	4348
806.478	4215
806.62	4169
806.762	4169
806.904	4276
807.046	4303
807.188	4204
807.33	4200
807.472	4246
807.614	4181
807.756	4242
807.898	4211
808.04	4196
808.182	4265
808.324	4329
808.465	4291
808.607	4459
808.749	4432
808.891	4432
809.033	4459
809.174	4398
809.316	4276
809.458	4242
809.6	4139
809.741	4147
809.883	4150
810.025	4181
810.166	4211
810.308	4230
810.45	4227
810.591	4215
810.733	4287
810.875	4538
811.016	4828
811.158	5140
811.299	5292
811.441	5307
811.582	5117
811.724	4656
811.865	4504
812.007	4489
812.148	4390
812.29	4409
812.431	4413
812.573	4447
812.714	4352
812.855	4363
812.997	4432
813.138	4519
813.279	4394
813.421	4383
813.562	4379
813.703	4352
813.845	4344
813.986	4242
814.127	4204
814.268	4284
814.41	4284
814.551	4257
814.692	4299
814.833	4234
814.974	4246
815.115	4360
815.256	4238
815.397	4272
815.539	4272
815.68	4200
815.821	4204
815.962	4261
816.103	4291
816.244	4192
816.385	4211
816.526	4314
816.666	4215
816.807	4071
816.948	4181
817.089	4169
817.23	4097
817.371	4105
817.512	4059
817.653	4051
817.793	4010
817.934	4036
818.075	4055
818.216	4059
818.356	4059
818.497	4013
818.638	3968
818.778	3903
818.919	3861
819.06	3857
819.2	3953
819.341	3907
819.481	3838
819.622	3888
819.762	4029
819.903	3926
820.043	3857
820.184	3854
820.324	3835
820.465	3888
820.605	3846
820.746	3876
820.886	3766
821.026	3922
821.167	3903
821.307	3964
821.447	3998
821.588	3956
821.728	3937
821.868	3911
822.008	3884
822.149	3918
822.289	3934
822.429	3789
822.569	3759
822.709	3808
822.849	3709
822.99	3751
823.13	3766
823.27	3770
823.41	3732
823.55	3705
823.69	3698
823.83	3781
823.97	3667
824.11	3606
824.25	3591
824.389	3637
824.529	3641
824.669	3610
824.809	3713
824.949	3736
825.089	3686
825.228	3686
825.368	3618
825.508	3580
825.648	3542
825.787	3603
825.927	3629
826.067	3610
826.206	3644
826.346	3804
826.485	3835
826.625	3876
826.765	3953
826.904	3812
827.044	3625
827.183	3526
827.323	3454
827.462	3450
827.601	3416
827.741	3454
827.88	3447
828.02	3389
828.159	3466
828.298	3458
828.437	3534
828.577	3469
828.716	3599
828.855	3485
828.994	3393
829.134	3344
829.273	3389
829.412	3291
829.551	3294
829.69	3355
829.829	3424
829.968	3481
830.107	3439
830.246	3466
830.385	3428
830.524	3348
830.663	3291
830.802	3241
830.941	3184
831.08	3150
831.219	3272
831.357	3268
831.496	3389
831.635	3260
831.774	3192
831.913	3199
832.051	3119
832.19	3169
832.329	3180
832.467	3108
832.606	3104
832.744	3180
832.883	3157
833.022	3226
833.16	3253
833.299	3310
833.437	3351
833.576	3378
833.714	3386
833.852	3420
833.991	3450
834.129	3469
834.267	3447
834.406	3348
834.544	3439
834.682	3428
834.821	3397
834.959	3561
835.097	3428
835.235	3534
835.373	3466
835.511	3477
835.65	3473
835.788	3485
835.926	3409
836.064	3374
836.202	3405
836.34	3576
836.478	3580
836.615	3515
836.753	3603
836.891	3644
837.029	3648
837.167	3549
837.305	3538
837.443	3584
837.58	3496
837.718	3599
837.856	3561
837.993	3553
838.131	3591
838.269	3572
838.406	3595
838.544	3564
838.681	3466
838.819	3397
838.956	3389
839.094	3374
839.231	3435
839.369	3500
839.506	3751
839.643	3644
839.781	3530
839.918	3447
840.055	3519
840.193	3500
840.33	3530
840.467	3526
840.604	3622
840.742	3819
840.879	3568
841.016	3557
841.153	3603
841.29	3755
841.427	3675
841.564	3701
841.701	3728
841.838	3709
841.975	3660
842.112	3694
842.249	3587
842.385	3564
842.522	3819
842.659	3705
842.796	3667
842.933	3717
843.069	3732
843.206	3728
843.343	3831
843.479	3808
843.616	3835
843.752	3698
843.889	3743
844.025	3869
844.162	3713
844.298	3873
844.435	3778
844.571	3732
844.708	3911
844.844	3979
844.98	4044
845.117	4010
845.253	3907
845.389	3846
845.525	3960
845.661	4006
845.798	3903
845.934	4013
846.07	3964
846.206	4078
846.342	4131
846.478	4082
846.614	3941
846.75	3949
846.886	3884
847.022	4048
847.158	4010
847.294	3991
847.429	3991
847.565	4002
847.701	4242
847.837	3842
847.972	3876
848.108	3964
848.244	3968
848.379	3876
848.515	3823
848.65	3785
848.786	3850
848.921	3884
849.057	3903
849.192	3945
849.328	3876
849.463	3934
849.598	3888
849.734	3865
849.869	3838
850.004	3793
850.14	3819
850.275	3751
850.41	3747
850.545	3736
850.68	3793
850.815	3766
850.95	3774
851.085	3972
851.22	3869
851.355	3797
851.49	3762
851.625	3812
851.76	3789
851.895	3766
852.03	3709
852.165	3785
852.299	3842
852.434	3869
852.569	3880
852.703	3850
852.838	3926
852.973	4013
853.107	3975
853.242	3930
853.376	3816
853.511	3766
853.645	3888
853.78	3983
853.914	3918
854.048	3857
854.183	3827
854.317	3949
854.451	4025
854.585	3964
854.72	3979
854.854	4036
854.988	3915
855.122	4017
855.256	3930
855.39	3987
855.524	4124
855.658	4055
855.792	4109
855.926	4166
856.06	4169
856.194	4215
856.327	4131
856.461	4086
856.595	4128
856.729	4147
856.862	4329
856.996	4276
857.13	4253
857.263	4306
857.397	4379
857.53	4265
857.664	4287
857.797	4398
857.931	4428
858.064	4337
858.197	4462
858.331	4371
858.464	4386
858.597	4344
858.731	4424
858.864	4478
858.997	4451
859.13	4493
859.263	4546
859.396	4592
859.529	4470
859.662	4516
859.795	4500
859.928	4618
860.061	4729
860.194	4740
860.327	4607
860.46	4660
860.592	4733
860.725	4752
860.858	4717
860.99	4656
861.123	4668
861.256	4694
861.388	4778
861.521	5406
861.653	4698
861.786	4694
861.918	4725
862.05	4828
862.183	4782
862.315	4885
862.447	4919
862.58	4835
862.712	4744
862.844	4793
862.976	4881
863.108	4873
863.24	5201
863.372	4847
863.504	4911
863.636	4927
863.768	4949
863.9	4930
864.032	4923
864.164	4942
864.296	5029
864.428	5079
864.559	5083
864.691	5079
864.823	5109
864.954	5140
865.086	5071
865.217	5128
865.349	5109
865.48	5159
865.612	5239
865.743	5303
865.875	5159
866.006	5197
866.137	5239
866.269	5227
866.4	5223
866.531	5239
866.662	5178
866.793	5303
866.924	5288
867.055	5326
867.186	5341
867.317	5311
867.448	5284
867.579	5379
867.71	5372
867.841	5353
867.972	5398
868.103	5471
868.233	5448
868.364	5459
868.495	5539
868.625	5676
868.756	5764
868.886	5657
869.017	5703
869.147	5767
869.278	5836
869.408	5813
869.539	5821
869.669	5866
869.799	5942
869.929	6019
870.06	5996
870.19	6194
870.32	6171
870.45	6304
870.58	6342
870.71	6410
870.84	6433
870.97	6437
871.1	6407
871.23	6654
871.36	6646
871.489	6669
871.619	6726
871.749	6757
871.879	6848
872.008	6985
872.138	6943
872.267	6985
872.397	6924
872.526	7027
872.656	7076
872.785	7183
872.915	7377
873.044	7502
873.173	7518
873.303	7651
873.432	7753
873.561	7841
873.69	7822
873.819	8016
873.948	8119
874.077	8195
874.206	8336
874.335	8423
874.464	8678
874.593	8910
874.722	8960
874.851	9108
874.979	9184
875.108	9359
875.237	9397
875.365	9424
875.494	9549
875.623	9831
875.751	9808
875.88	10006
876.008	10086
876.136	10246
876.265	10481
876.393	10672
876.521	10698
876.65	10812
876.778	10820
876.906	10900
877.034	10908
877.162	11162
877.29	11170
877.418	11250
877.546	11353
877.674	11372
877.802	11467
877.93	11448
878.058	11577
878.185	11638
878.313	11657
878.441	11718
878.568	11604
878.696	11741
878.824	11805
878.951	11897
879.079	11904
879.206	12152
879.333	12007
879.461	12038
879.588	12121
879.715	12015
879.842	12213
879.97	12064
880.097	11840
880.224	11851
880.351	11961
880.478	11897
880.605	11832
880.732	11840
880.859	11942
880.986	11836
881.112	11874
881.239	11748
881.366	11649
881.493	11646
881.619	11463
881.746	11554
881.872	11596
881.999	11474
882.125	11455
882.252	11634
882.378	11562
882.505	11554
882.631	11425
882.757	11311
882.883	11311
883.01	11212
883.136	11083
883.262	11113
883.388	11067
883.514	11223
883.64	11185
883.766	11147
883.892	10911
884.018	10999
884.143	11029
884.269	11064
884.395	10782
884.52	10797
884.646	10797
884.772	10691
884.897	10702
885.023	10717
885.148	10755
885.274	10706
885.399	10698
885.524	10580
885.65	10599
885.775	10615
885.9	10584
886.025	10584
886.15	10546
886.275	10546
886.4	10341
886.525	10421
886.65	10344
886.775	10413
886.9	10508
887.025	10459
887.149	10398
887.274	10310
887.399	10230
887.523	10173
887.648	10097
887.773	10158
887.897	10196
888.021	10154
888.146	10116
888.27	10188
888.395	10196
888.519	10169
888.643	10150
888.767	10169
888.891	10105
889.015	10090
889.139	10067
889.263	10010
889.387	10162
889.511	10185
889.635	10032
889.759	9892
889.883	9994
890.006	10010
890.13	10044
890.254	9949
890.377	9956
890.501	9846
890.624	9895
890.748	9861
890.871	9774
890.995	9713
891.118	9690
891.241	9701
891.364	9755
891.488	9816
891.611	9770
891.734	9686
891.857	9770
891.98	9762
892.103	9751
892.226	9682
892.349	9713
892.471	9534
892.594	9526
892.717	9526
892.839	9614
892.962	9644
893.085	9694
893.207	9561
893.33	9591
893.452	9523
893.575	9629
893.697	9473
893.819	9667
893.941	9622
894.064	9614
894.186	9397
894.308	9424
894.43	9526
894.552	9530
894.674	9504
894.796	9336
894.918	9367
895.04	9370
895.161	9348
895.283	9317
895.405	9211
895.526	9332
895.648	9203
895.769	9176
895.891	9313
896.012	9199
896.134	9275
896.255	9142
896.376	9165
896.498	9131
896.619	9138
896.74	9039
896.861	9119
896.982	9241
897.103	9336
897.224	9142
897.345	9032
897.466	9013
897.587	8960
897.708	9066
897.828	8963
897.949	8998
898.07	8823
898.19	8933
898.311	8925
898.431	8948
898.552	8872
898.672	8994
898.792	8948
898.913	8811
899.033	8804
899.153	8800
899.273	8636
899.393	8708
899.513	8826
899.633	8724
899.753	8708
899.873	8701
899.993	8739
900.113	8773
900.232	8735
900.352	8659
900.472	8632
900.591	8541
900.711	8625
900.83	8507
900.95	8648
901.069	8720
901.189	8499
901.308	8358
901.427	8389
901.546	8412
901.665	8457
901.784	8522
901.904	8324
902.023	8362
902.141	8210
902.26	8195
902.379	8305
902.498	8271
902.617	8248
902.735	8324
902.854	8248
902.973	8290
903.091	8103
903.21	8088
903.328	8088
903.446	8123
903.565	8073
903.683	8073
903.801	7974
903.919	8046
904.038	8062
904.156	8084
904.274	8115
904.392	8005
904.51	7997
904.627	8027
904.745	8069
904.863	8069
904.981	7894
905.098	7894
905.216	7807
905.334	7856
905.451	7890
905.569	7917
905.686	7887
905.803	7868
905.921	7837
906.038	7856
906.155	7792
906.272	7712
906.389	7780
906.506	7670
906.623	7616
906.74	7578
906.857	7567
906.974	7628
907.091	7658
907.208	7685
907.324	7674
907.441	7540
907.557	7468
907.674	7430
907.79	7377
907.907	7430
908.023	7453
908.139	7400
908.256	7339
908.372	7373
908.488	7396
908.604	7266
908.72	7217
908.836	7270
908.952	7305
909.068	7251
909.184	7320
909.3	7247
909.415	7297
909.531	7282
909.647	7141
909.762	7126
909.878	7133
909.993	7126
910.108	7107
910.224	7076
910.339	7053
910.454	7050
910.57	6966
910.685	7019
910.8	7183
910.915	7160
911.03	7019
911.145	6852
911.259	6935
911.374	6897
911.489	6863
911.604	6783
911.718	6688
911.833	6760
911.947	6658
912.062	6654
912.176	6631
912.291	6730
912.405	6722
912.519	6772
912.633	6890
912.748	6707
912.862	6623
912.976	6601
913.09	6566
913.204	6604
913.318	6593
913.431	6669
913.545	6730
913.659	6696
913.772	6620
913.886	6540
914	6570
914.113	6642
914.226	6623
914.34	6631
914.453	6467
914.566	6578
914.68	6494
914.793	6566
914.906	6395
915.019	6384
915.132	6410
915.245	6372
915.358	6437
915.47	6433
915.583	6410
915.696	6502
915.809	6551
915.921	6563
916.034	6395
916.146	6376
916.259	6353
916.371	6464
916.483	6376
916.595	6403
916.708	6429
916.82	6422
916.932	6388
917.044	6372
917.156	6353
917.268	6296
917.38	6334
917.491	6315
917.603	6380
917.715	6410
917.826	6441
917.938	6334
918.049	6247
918.161	6315
918.272	6410
918.384	6407
918.495	6338
918.606	6251
918.717	6239
918.828	6258
918.939	6315
919.05	6186
919.161	6247
919.272	6106
919.383	6159
919.494	6304
919.604	6471
919.715	6262
919.826	6178
919.936	6228
920.047	6315
920.157	6289
920.267	6456
920.378	6319
920.488	6209
920.598	6418
920.708	6574
920.818	6426
920.928	6479
921.038	6536
921.148	6570
921.258	6369
921.368	6323
921.477	6243
921.587	6186
921.697	6060
921.806	6136
921.916	6045
922.025	5893
922.134	5908
922.244	5893
922.353	5984
922.462	5824
922.571	5760
922.68	5699
922.789	5676
922.898	5699
923.007	5627
923.116	5653
923.224	5707
923.333	5668
923.442	5577
923.55	5551
923.659	5585
923.767	5623
923.876	5566
923.984	5600
924.092	5467
924.201	5573
924.309	5505
924.417	5524
924.525	5509
924.633	5501
924.741	6273
924.849	5364
924.956	5448
925.064	5368
925.172	5296
925.279	5322
925.387	5322
925.494	5341
925.602	5402
925.709	5322
925.816	5277
925.924	5307
926.031	5330
926.138	5299
926.245	5318
926.352	5193
926.459	5318
926.566	5330
926.673	5185
926.779	5128
926.886	5132
926.993	5018
927.099	4984
927.206	4987
927.312	4919
927.419	5025
927.525	5003
927.631	4965
927.737	4831
927.843	4854
927.95	4774
928.056	4805
928.162	4816
928.267	4870
928.373	5337
928.479	4870
928.585	4714
928.69	4740
928.796	4793
928.901	4729
929.007	4599
929.112	4691
929.218	4630
929.323	4622
929.428	4516
929.533	4641
929.638	4508
929.743	4527
929.848	4535
929.953	4500
930.058	4424
930.163	4318
930.267	4287
930.372	4443
930.477	4284
930.581	4462
930.685	4379
930.79	4253
930.894	4276
930.998	4242
931.103	4394
931.207	4128
931.311	4090
931.415	4112
931.519	3892
931.623	3911
