Data from glass_V78500241_605.txt Node
Date: Wed Sep 01 19:18:41 CST 2021
User: usil
Spectrometer: V785-0024
Trigger mode: 0
Integration Time (sec): 4.000000E-1
Scans to average: 1
Nonlinearity correction enabled: false
Boxcar width: 0
Storing dark spectrum: false
XAxis mode: Wavelengths
Number of Pixels in Spectrum: 1024
>>>>>Begin Spectral Data<<<<<
801.071	3759
801.214	3774
801.356	3740
801.499	3762
801.641	3713
801.783	3842
801.926	3911
802.068	3857
802.211	3896
802.353	3941
802.496	3892
802.638	3941
802.78	3934
802.923	3896
803.065	3918
803.208	3831
803.35	3884
803.492	3899
803.635	3915
803.777	3831
803.919	3915
804.061	4166
804.204	3975
804.346	3983
804.488	3934
804.63	4029
804.773	3968
804.915	4025
805.057	4158
805.199	4051
805.341	4078
805.483	4128
805.626	4166
805.768	4139
805.91	4177
806.052	4227
806.194	4188
806.336	4398
806.478	4238
806.62	4211
806.762	4223
806.904	4253
807.046	4379
807.188	4246
807.33	4181
807.472	4234
807.614	4207
807.756	4295
807.898	4306
808.04	4154
808.182	4341
808.324	4341
808.465	4367
808.607	4481
808.749	4462
808.891	4489
809.033	4516
809.174	4493
809.316	4234
809.458	4238
809.6	4185
809.741	4169
809.883	4158
810.025	4227
810.166	4219
810.308	4200
810.45	4287
810.591	4276
810.733	4299
810.875	4542
811.016	4831
811.158	5143
811.299	5280
811.441	5261
811.582	5083
811.724	4706
811.865	4466
812.007	4451
812.148	4436
812.29	4375
812.431	4413
812.573	4413
812.714	4356
812.855	4421
812.997	4451
813.138	4508
813.279	4413
813.421	4402
813.562	4386
813.703	4344
813.845	4333
813.986	4249
814.127	4173
814.268	4318
814.41	4310
814.551	4246
814.692	4325
814.833	4272
814.974	4261
815.115	4352
815.256	4253
815.397	4246
815.539	4257
815.68	4211
815.821	4219
815.962	4348
816.103	4253
816.244	4257
816.385	4272
816.526	4276
816.666	4204
816.807	4128
816.948	4185
817.089	4188
817.23	4131
817.371	4029
817.512	4059
817.653	4040
817.793	4051
817.934	4059
818.075	4097
818.216	4074
818.356	4131
818.497	3998
818.638	3896
818.778	3949
818.919	3873
819.06	3884
819.2	3922
819.341	3865
819.481	3842
819.622	3930
819.762	4067
819.903	3956
820.043	3896
820.184	3850
820.324	3842
820.465	3888
820.605	3915
820.746	3945
820.886	3804
821.026	3964
821.167	3945
821.307	4002
821.447	3998
821.588	3983
821.728	3994
821.868	3934
822.008	3918
822.149	3930
822.289	3915
822.429	3766
822.569	3793
822.709	3819
822.849	3713
822.99	3740
823.13	3751
823.27	3740
823.41	3732
823.55	3743
823.69	3740
823.83	3759
823.97	3694
824.11	3641
824.25	3614
824.389	3633
824.529	3679
824.669	3694
824.809	3701
824.949	3778
825.089	3747
825.228	3679
825.368	3584
825.508	3614
825.648	3595
825.787	3595
825.927	3667
826.067	3633
826.206	3648
826.346	3793
826.485	3846
826.625	3873
826.765	3956
826.904	3816
827.044	3675
827.183	3542
827.323	3454
827.462	3450
827.601	3447
827.741	3454
827.88	3447
828.02	3409
828.159	3428
828.298	3492
828.437	3511
828.577	3500
828.716	3587
828.855	3488
828.994	3409
829.134	3367
829.273	3412
829.412	3348
829.551	3370
829.69	3389
829.829	3447
829.968	3507
830.107	3428
830.246	3462
830.385	3382
830.524	3351
830.663	3294
830.802	3298
830.941	3226
831.08	3207
831.219	3294
831.357	3283
831.496	3431
831.635	3222
831.774	3192
831.913	3184
832.051	3150
832.19	3161
832.329	3245
832.467	3157
832.606	3131
832.744	3211
832.883	3188
833.022	3207
833.16	3241
833.299	3321
833.437	3344
833.576	3386
833.714	3386
833.852	3462
833.991	3469
834.129	3488
834.267	3405
834.406	3439
834.544	3428
834.682	3424
834.821	3382
834.959	3557
835.097	3409
835.235	3572
835.373	3523
835.511	3526
835.65	3416
835.788	3473
835.926	3447
836.064	3424
836.202	3405
836.34	3564
836.478	3622
836.615	3561
836.753	3622
836.891	3652
837.029	3641
837.167	3618
837.305	3561
837.443	3523
837.58	3534
837.718	3610
837.856	3568
837.993	3576
838.131	3629
838.269	3587
838.406	3595
838.544	3568
838.681	3462
838.819	3477
838.956	3374
839.094	3409
839.231	3473
839.369	3515
839.506	3747
839.643	3675
839.781	3462
839.918	3473
840.055	3523
840.193	3504
840.33	3492
840.467	3553
840.604	3568
840.742	3812
840.879	3584
841.016	3553
841.153	3614
841.29	3755
841.427	3717
841.564	3751
841.701	3736
841.838	3740
841.975	3660
842.112	3717
842.249	3648
842.385	3618
842.522	3827
842.659	3717
842.796	3679
842.933	3732
843.069	3736
843.206	3751
843.343	3865
843.479	3831
843.616	3823
843.752	3728
843.889	3713
844.025	3876
844.162	3743
844.298	3812
844.435	3797
844.571	3808
844.708	3915
844.844	3949
844.98	4093
845.117	4036
845.253	3960
845.389	3899
845.525	3994
845.661	3907
845.798	3937
845.934	4017
846.07	3979
846.206	4040
846.342	4131
846.478	4078
846.614	3964
846.75	3945
846.886	3922
847.022	4051
847.158	3987
847.294	4048
847.429	4029
847.565	4002
847.701	4276
847.837	3876
847.972	3854
848.108	3994
848.244	4029
848.379	3869
848.515	3800
848.65	3861
848.786	3896
848.921	3884
849.057	3915
849.192	3953
849.328	3892
849.463	3979
849.598	3903
849.734	3869
849.869	3876
850.004	3823
850.14	3850
850.275	3808
850.41	3789
850.545	3740
850.68	3785
850.815	3800
850.95	3816
851.085	3922
851.22	3857
851.355	3861
851.49	3789
851.625	3808
851.76	3781
851.895	3743
852.03	3747
852.165	3812
852.299	3835
852.434	3949
852.569	3857
852.703	3899
852.838	3956
852.973	3998
853.107	4017
853.242	3930
853.376	3888
853.511	3804
853.645	3846
853.78	3968
853.914	3915
854.048	3884
854.183	3884
854.317	4029
854.451	4051
854.585	3979
854.72	3956
854.854	4063
854.988	3937
855.122	4048
855.256	3956
855.39	4040
855.524	4131
855.658	4128
855.792	4128
855.926	4166
856.06	4131
856.194	4196
856.327	4150
856.461	4131
856.595	4143
856.729	4219
856.862	4249
856.996	4280
857.13	4367
857.263	4306
857.397	4348
857.53	4333
857.664	4409
857.797	4383
857.931	4421
858.064	4371
858.197	4485
858.331	4409
858.464	4379
858.597	4333
858.731	4447
858.864	4504
858.997	4489
859.13	4561
859.263	4535
859.396	4561
859.529	4531
859.662	4550
859.795	4527
859.928	4596
860.061	4694
860.194	4774
860.327	4717
860.46	4683
860.592	4793
860.725	4793
860.858	4793
860.99	4721
861.123	4702
861.256	4714
861.388	4733
861.521	5349
861.653	4729
861.786	4748
861.918	4736
862.05	4858
862.183	4831
862.315	4820
862.447	4957
862.58	4889
862.712	4790
862.844	4809
862.976	4908
863.108	4866
863.24	5193
863.372	4854
863.504	4911
863.636	4904
863.768	4980
863.9	4968
864.032	4915
864.164	4965
864.296	5037
864.428	5079
864.559	5060
864.691	5124
864.823	5166
864.954	5124
865.086	5166
865.217	5178
865.349	5162
865.48	5201
865.612	5189
865.743	5307
865.875	5254
866.006	5166
866.137	5250
866.269	5246
866.4	5254
866.531	5277
866.662	5246
866.793	5265
866.924	5269
867.055	5337
867.186	5330
867.317	5345
867.448	5341
867.579	5383
867.71	5410
867.841	5383
867.972	5463
868.103	5505
868.233	5486
868.364	5486
868.495	5551
868.625	5649
868.756	5779
868.886	5630
869.017	5741
869.147	5809
869.278	5859
869.408	5828
869.539	5832
869.669	5946
869.799	5969
869.929	5893
870.06	6072
870.19	6159
870.32	6159
870.45	6239
870.58	6331
870.71	6460
870.84	6445
870.97	6445
871.1	6486
871.23	6646
871.36	6730
871.489	6654
871.619	6757
871.749	6795
871.879	6909
872.008	7008
872.138	7004
872.267	6970
872.397	6970
872.526	7034
872.656	7156
872.785	7247
872.915	7419
873.044	7499
873.173	7609
873.303	7624
873.432	7746
873.561	7898
873.69	7883
873.819	8062
873.948	8134
874.077	8286
874.206	8290
874.335	8533
874.464	8712
874.593	8906
874.722	8986
874.851	9123
874.979	9249
875.108	9454
875.237	9458
875.365	9519
875.494	9652
875.623	9884
875.751	9857
875.88	10036
876.008	10196
876.136	10371
876.265	10500
876.393	10774
876.521	10706
876.65	10828
876.778	10850
876.906	10896
877.034	11025
877.162	11083
877.29	11132
877.418	11296
877.546	11334
877.674	11425
877.802	11482
877.93	11467
878.058	11551
878.185	11562
878.313	11649
878.441	11771
878.568	11653
878.696	11748
878.824	11916
878.951	11927
879.079	11950
879.206	12163
879.333	12091
879.461	11958
879.588	12030
879.715	12163
879.842	12262
879.97	12095
880.097	11817
880.224	11863
880.351	11939
880.478	11870
880.605	11893
880.732	11821
880.859	11969
880.986	11794
881.112	11733
881.239	11752
881.366	11661
881.493	11657
881.619	11547
881.746	11524
881.872	11463
881.999	11482
882.125	11543
882.252	11665
882.378	11501
882.505	11592
882.631	11429
882.757	11265
882.883	11280
883.01	11307
883.136	11197
883.262	11147
883.388	11033
883.514	11178
883.64	11155
883.766	11109
883.892	10995
884.018	11014
884.143	11128
884.269	11124
884.395	10850
884.52	10797
884.646	10782
884.772	10733
884.897	10679
885.023	10660
885.148	10801
885.274	10721
885.399	10717
885.524	10618
885.65	10599
885.775	10622
885.9	10561
886.025	10584
886.15	10615
886.275	10470
886.4	10390
886.525	10402
886.65	10394
886.775	10341
886.9	10531
887.025	10561
887.149	10371
887.274	10284
887.399	10284
887.523	10188
887.648	10173
887.773	10143
887.897	10272
888.021	10223
888.146	10101
888.27	10287
888.395	10211
888.519	10219
888.643	10196
888.767	10200
888.891	10048
889.015	9949
889.139	10040
889.263	9945
889.387	10059
889.511	10101
889.635	10105
889.759	9918
889.883	10032
890.006	10017
890.13	10074
890.254	9941
890.377	9953
890.501	9895
890.624	9800
890.748	9880
890.871	9785
890.995	9778
891.118	9724
891.241	9743
891.364	9755
891.488	9873
891.611	9686
891.734	9846
891.857	9728
891.98	9762
892.103	9816
892.226	9720
892.349	9679
892.471	9538
892.594	9568
892.717	9641
892.839	9561
892.962	9625
893.085	9652
893.207	9580
893.33	9584
893.452	9515
893.575	9625
893.697	9511
893.819	9584
893.941	9488
894.064	9622
894.186	9458
894.308	9447
894.43	9507
894.552	9576
894.674	9458
894.796	9405
894.918	9401
895.04	9416
895.161	9393
895.283	9412
895.405	9237
895.526	9317
895.648	9294
895.769	9245
895.891	9306
896.012	9268
896.134	9195
896.255	9157
896.376	9150
896.498	9176
896.619	9157
896.74	9112
896.861	9119
896.982	9313
897.103	9332
897.224	9100
897.345	9028
897.466	9058
897.587	9017
897.708	9104
897.828	9104
897.949	8963
898.07	8838
898.19	8842
898.311	9074
898.431	8918
898.552	8849
898.672	8971
898.792	8986
898.913	8941
899.033	8853
899.153	8834
899.273	8689
899.393	8792
899.513	8762
899.633	8777
899.753	8773
899.873	8727
899.993	8720
900.113	8739
900.232	8708
900.352	8705
900.472	8625
900.591	8545
900.711	8617
900.83	8606
900.95	8621
901.069	8739
901.189	8545
901.308	8476
901.427	8465
901.546	8374
901.665	8389
901.784	8511
901.904	8419
902.023	8294
902.141	8279
902.26	8248
902.379	8305
902.498	8218
902.617	8195
902.735	8351
902.854	8290
902.973	8313
903.091	8100
903.21	8119
903.328	8168
903.446	8214
903.565	8081
903.683	8164
903.801	8058
903.919	8138
904.038	8100
904.156	8077
904.274	8069
904.392	8065
904.51	8031
904.627	8081
904.745	8111
904.863	8065
904.981	8008
905.098	7902
905.216	7868
905.334	7951
905.451	7902
905.569	7864
905.686	7921
905.803	7871
905.921	7772
906.038	7925
906.155	7788
906.272	7727
906.389	7696
906.506	7685
906.623	7643
906.74	7636
906.857	7575
906.974	7636
907.091	7674
907.208	7788
907.324	7666
907.441	7586
907.557	7499
907.674	7453
907.79	7430
907.907	7422
908.023	7426
908.139	7445
908.256	7388
908.372	7365
908.488	7320
908.604	7270
908.72	7270
908.836	7308
908.952	7247
909.068	7301
909.184	7324
909.3	7236
909.415	7285
909.531	7251
909.647	7160
909.762	7088
909.878	7122
909.993	7095
910.108	7133
910.224	7103
910.339	7160
910.454	7080
910.57	7072
910.685	6954
910.8	7160
910.915	7152
911.03	7080
911.145	6905
911.259	6829
911.374	6875
911.489	6867
911.604	6825
911.718	6696
911.833	6757
911.947	6665
912.062	6601
912.176	6730
912.291	6745
912.405	6692
912.519	6814
912.633	6856
912.748	6738
912.862	6692
912.976	6597
913.09	6582
913.204	6631
913.318	6555
913.431	6642
913.545	6684
913.659	6730
913.772	6654
913.886	6585
914	6616
914.113	6646
914.226	6692
914.34	6620
914.453	6475
914.566	6574
914.68	6585
914.793	6513
914.906	6467
915.019	6513
915.132	6437
915.245	6410
915.358	6506
915.47	6437
915.583	6445
915.696	6448
915.809	6479
915.921	6525
916.034	6445
916.146	6429
916.259	6372
916.371	6433
916.483	6498
916.595	6388
916.708	6437
916.82	6437
916.932	6391
917.044	6437
917.156	6369
917.268	6361
917.38	6338
917.491	6376
917.603	6319
917.715	6395
917.826	6403
917.938	6388
918.049	6277
918.161	6361
918.272	6407
918.384	6486
918.495	6353
918.606	6281
918.717	6266
918.828	6331
918.939	6323
919.05	6205
919.161	6209
919.272	6064
919.383	6136
919.494	6311
919.604	6471
919.715	6365
919.826	6213
919.936	6239
920.047	6346
920.157	6232
920.267	6494
920.378	6346
920.488	6311
920.598	6494
920.708	6563
920.818	6445
920.928	6479
921.038	6566
921.148	6631
921.258	6395
921.368	6296
921.477	6201
921.587	6247
921.697	6144
921.806	6148
921.916	6136
922.025	5984
922.134	5885
922.244	5889
922.353	5920
922.462	5958
922.571	5817
922.68	5627
922.789	5672
922.898	5688
923.007	5668
923.116	5707
923.224	5672
923.333	5691
923.442	5554
923.55	5573
923.659	5604
923.767	5623
923.876	5558
923.984	5657
924.092	5452
924.201	5539
924.309	5649
924.417	5615
924.525	5520
924.633	5463
924.741	6304
924.849	5368
924.956	5493
925.064	5357
925.172	5311
925.279	5292
925.387	5379
925.494	5360
925.602	5410
925.709	5387
925.816	5273
925.924	5330
926.031	5395
926.138	5303
926.245	5318
926.352	5212
926.459	5349
926.566	5318
926.673	5265
926.779	5083
926.886	5151
926.993	5067
927.099	4972
927.206	4980
927.312	4949
927.419	5056
927.525	5018
927.631	4999
927.737	4900
927.843	4866
927.95	4771
928.056	4877
928.162	4847
928.267	4850
928.373	5277
928.479	4908
928.585	4691
928.69	4763
928.796	4805
928.901	4672
929.007	4596
929.112	4694
929.218	4637
929.323	4603
929.428	4592
929.533	4664
929.638	4531
929.743	4580
929.848	4580
929.953	4554
930.058	4424
930.163	4360
930.267	4344
930.372	4440
930.477	4337
930.581	4462
930.685	4333
930.79	4291
930.894	4291
930.998	4253
931.103	4383
931.207	4120
931.311	4139
931.415	4059
931.519	3926
931.623	3930
