Data from glass_V78500241_1177.txt Node
Date: Wed Sep 01 19:22:39 CST 2021
User: usil
Spectrometer: V785-0024
Trigger mode: 0
Integration Time (sec): 4.000000E-1
Scans to average: 1
Nonlinearity correction enabled: false
Boxcar width: 0
Storing dark spectrum: false
XAxis mode: Wavelengths
Number of Pixels in Spectrum: 1024
>>>>>Begin Spectral Data<<<<<
801.071	3747
801.214	3751
801.356	3686
801.499	3717
801.641	3762
801.783	3781
801.926	3835
802.068	3842
802.211	3857
802.353	3876
802.496	3861
802.638	3884
802.78	3907
802.923	3941
803.065	3880
803.208	3880
803.35	3899
803.492	3915
803.635	3915
803.777	3793
803.919	3888
804.061	4181
804.204	3941
804.346	3926
804.488	3926
804.63	4051
804.773	4017
804.915	4090
805.057	4154
805.199	4040
805.341	4120
805.483	4188
805.626	4154
805.768	4158
805.91	4227
806.052	4230
806.194	4257
806.336	4383
806.478	4230
806.62	4196
806.762	4196
806.904	4227
807.046	4329
807.188	4215
807.33	4162
807.472	4219
807.614	4181
807.756	4318
807.898	4265
808.04	4211
808.182	4280
808.324	4299
808.465	4371
808.607	4497
808.749	4424
808.891	4504
809.033	4535
809.174	4398
809.316	4268
809.458	4204
809.6	4177
809.741	4162
809.883	4105
810.025	4166
810.166	4257
810.308	4234
810.45	4219
810.591	4284
810.733	4291
810.875	4542
811.016	4801
811.158	5155
811.299	5258
811.441	5292
811.582	5128
811.724	4698
811.865	4459
812.007	4481
812.148	4459
812.29	4443
812.431	4485
812.573	4455
812.714	4386
812.855	4383
812.997	4386
813.138	4485
813.279	4440
813.421	4390
813.562	4413
813.703	4337
813.845	4375
813.986	4299
814.127	4249
814.268	4360
814.41	4276
814.551	4253
814.692	4337
814.833	4276
814.974	4318
815.115	4295
815.256	4234
815.397	4234
815.539	4261
815.68	4227
815.821	4234
815.962	4314
816.103	4238
816.244	4223
816.385	4219
816.526	4272
816.666	4246
816.807	4105
816.948	4169
817.089	4143
817.23	4097
817.371	4051
817.512	4071
817.653	4078
817.793	4059
817.934	4067
818.075	4124
818.216	4131
818.356	4093
818.497	4048
818.638	3922
818.778	3983
818.919	3873
819.06	3903
819.2	3937
819.341	3899
819.481	3831
819.622	3941
819.762	3979
819.903	3968
820.043	3915
820.184	3819
820.324	3804
820.465	3918
820.605	3876
820.746	3876
820.886	3865
821.026	3922
821.167	3918
821.307	3983
821.447	3998
821.588	3964
821.728	3968
821.868	3949
822.008	3907
822.149	3899
822.289	3934
822.429	3842
822.569	3770
822.709	3762
822.849	3743
822.99	3709
823.13	3766
823.27	3770
823.41	3705
823.55	3720
823.69	3747
823.83	3789
823.97	3675
824.11	3622
824.25	3625
824.389	3675
824.529	3682
824.669	3682
824.809	3709
824.949	3755
825.089	3755
825.228	3701
825.368	3595
825.508	3576
825.648	3557
825.787	3629
825.927	3686
826.067	3603
826.206	3652
826.346	3793
826.485	3865
826.625	3850
826.765	3907
826.904	3827
827.044	3610
827.183	3504
827.323	3435
827.462	3507
827.601	3420
827.741	3409
827.88	3469
828.02	3420
828.159	3454
828.298	3466
828.437	3553
828.577	3496
828.716	3591
828.855	3504
828.994	3412
829.134	3378
829.273	3405
829.412	3393
829.551	3348
829.69	3393
829.829	3401
829.968	3515
830.107	3439
830.246	3477
830.385	3405
830.524	3344
830.663	3291
830.802	3237
830.941	3211
831.08	3226
831.219	3272
831.357	3310
831.496	3405
831.635	3218
831.774	3211
831.913	3241
832.051	3146
832.19	3138
832.329	3218
832.467	3131
832.606	3123
832.744	3173
832.883	3192
833.022	3176
833.16	3272
833.299	3302
833.437	3374
833.576	3359
833.714	3386
833.852	3409
833.991	3420
834.129	3447
834.267	3405
834.406	3397
834.544	3431
834.682	3363
834.821	3439
834.959	3599
835.097	3412
835.235	3492
835.373	3504
835.511	3450
835.65	3473
835.788	3466
835.926	3370
836.064	3405
836.202	3397
836.34	3561
836.478	3614
836.615	3504
836.753	3587
836.891	3656
837.029	3599
837.167	3610
837.305	3526
837.443	3564
837.58	3519
837.718	3595
837.856	3561
837.993	3553
838.131	3564
838.269	3568
838.406	3557
838.544	3557
838.681	3507
838.819	3424
838.956	3389
839.094	3389
839.231	3458
839.369	3504
839.506	3732
839.643	3652
839.781	3496
839.918	3473
840.055	3523
840.193	3530
840.33	3542
840.467	3572
840.604	3614
840.742	3808
840.879	3561
841.016	3545
841.153	3603
841.29	3766
841.427	3740
841.564	3713
841.701	3755
841.838	3679
841.975	3686
842.112	3740
842.249	3614
842.385	3644
842.522	3869
842.659	3728
842.796	3698
842.933	3694
843.069	3720
843.206	3724
843.343	3816
843.479	3766
843.616	3831
843.752	3709
843.889	3713
844.025	3884
844.162	3736
844.298	3835
844.435	3755
844.571	3781
844.708	3899
844.844	3979
844.98	4048
845.117	4021
845.253	3918
845.389	3911
845.525	3991
845.661	4025
845.798	3907
845.934	3987
846.07	3968
846.206	4074
846.342	4101
846.478	4067
846.614	3983
846.75	3930
846.886	3899
847.022	4086
847.158	3968
847.294	3968
847.429	4029
847.565	4017
847.701	4261
847.837	3934
847.972	3880
848.108	4010
848.244	3972
848.379	3896
848.515	3823
848.65	3808
848.786	3823
848.921	3880
849.057	3949
849.192	3918
849.328	3915
849.463	3968
849.598	3857
849.734	3884
849.869	3823
850.004	3781
850.14	3800
850.275	3812
850.41	3751
850.545	3766
850.68	3789
850.815	3819
850.95	3827
851.085	3934
851.22	3854
851.355	3835
851.49	3812
851.625	3819
851.76	3785
851.895	3755
852.03	3751
852.165	3774
852.299	3831
852.434	3934
852.569	3835
852.703	3922
852.838	3949
852.973	4010
853.107	3975
853.242	3857
853.376	3884
853.511	3778
853.645	3850
853.78	3979
853.914	3937
854.048	3888
854.183	3918
854.317	3994
854.451	4067
854.585	3941
854.72	3972
854.854	4048
854.988	3945
855.122	4044
855.256	3941
855.39	4051
855.524	4116
855.658	4082
855.792	4116
855.926	4135
856.06	4185
856.194	4234
856.327	4200
856.461	4131
856.595	4181
856.729	4230
856.862	4284
856.996	4249
857.13	4329
857.263	4352
857.397	4367
857.53	4287
857.664	4390
857.797	4375
857.931	4379
858.064	4398
858.197	4459
858.331	4402
858.464	4417
858.597	4356
858.731	4421
858.864	4519
858.997	4451
859.13	4447
859.263	4580
859.396	4569
859.529	4523
859.662	4535
859.795	4462
859.928	4660
860.061	4698
860.194	4755
860.327	4630
860.46	4660
860.592	4725
860.725	4771
860.858	4820
860.99	4694
861.123	4714
861.256	4679
861.388	4786
861.521	5395
861.653	4706
861.786	4714
861.918	4771
862.05	4809
862.183	4805
862.315	4881
862.447	4953
862.58	4881
862.712	4797
862.844	4805
862.976	4873
863.108	4892
863.24	5166
863.372	4892
863.504	4968
863.636	4900
863.768	4987
863.9	4991
864.032	4942
864.164	4927
864.296	5003
864.428	5121
864.559	5075
864.691	5162
864.823	5140
864.954	5090
865.086	5197
865.217	5166
865.349	5102
865.48	5181
865.612	5185
865.743	5280
865.875	5181
866.006	5193
866.137	5254
866.269	5223
866.4	5216
866.531	5258
866.662	5246
866.793	5269
866.924	5296
867.055	5296
867.186	5326
867.317	5322
867.448	5303
867.579	5391
867.71	5421
867.841	5387
867.972	5463
868.103	5486
868.233	5509
868.364	5535
868.495	5566
868.625	5649
868.756	5745
868.886	5638
869.017	5752
869.147	5844
869.278	5889
869.408	5832
869.539	5794
869.669	5920
869.799	5904
869.929	5984
870.06	5992
870.19	6190
870.32	6159
870.45	6266
870.58	6361
870.71	6433
870.84	6486
870.97	6441
871.1	6410
871.23	6665
871.36	6719
871.489	6707
871.619	6745
871.749	6840
871.879	6844
872.008	7023
872.138	6996
872.267	6951
872.397	6951
872.526	7069
872.656	7057
872.785	7209
872.915	7373
873.044	7499
873.173	7571
873.303	7693
873.432	7792
873.561	7890
873.69	7887
873.819	8069
873.948	8172
874.077	8252
874.206	8332
874.335	8457
874.464	8670
874.593	8868
874.722	8971
874.851	9157
874.979	9226
875.108	9298
875.237	9435
875.365	9523
875.494	9709
875.623	9857
875.751	9873
875.88	9983
876.008	10192
876.136	10223
876.265	10592
876.393	10706
876.521	10740
876.65	10824
876.778	10873
876.906	10854
877.034	10968
877.162	11098
877.29	11166
877.418	11383
877.546	11337
877.674	11417
877.802	11482
877.93	11535
878.058	11539
878.185	11573
878.313	11676
878.441	11783
878.568	11630
878.696	11840
878.824	11889
878.951	11885
879.079	12022
879.206	12281
879.333	12091
879.461	11992
879.588	12045
879.715	12041
879.842	12258
879.97	12068
880.097	11863
880.224	11870
880.351	11935
880.478	11931
880.605	11882
880.732	11817
880.859	11935
880.986	11805
881.112	11866
881.239	11832
881.366	11691
881.493	11604
881.619	11520
881.746	11547
881.872	11455
881.999	11516
882.125	11452
882.252	11558
882.378	11505
882.505	11634
882.631	11471
882.757	11356
882.883	11410
883.01	11242
883.136	11220
883.262	11102
883.388	11109
883.514	11193
883.64	11204
883.766	11147
883.892	10965
884.018	11029
884.143	11075
884.269	11128
884.395	10790
884.52	10748
884.646	10839
884.772	10656
884.897	10774
885.023	10626
885.148	10793
885.274	10816
885.399	10786
885.524	10653
885.65	10565
885.775	10656
885.9	10542
886.025	10622
886.15	10599
886.275	10542
886.4	10402
886.525	10402
886.65	10451
886.775	10367
886.9	10474
887.025	10558
887.149	10348
887.274	10314
887.399	10207
887.523	10162
887.648	10162
887.773	10154
887.897	10287
888.021	10242
888.146	10090
888.27	10204
888.395	10211
888.519	10227
888.643	10135
888.767	10158
888.891	10086
889.015	10071
889.139	10086
889.263	9956
889.387	10128
889.511	10078
889.635	10048
889.759	9934
889.883	9987
890.006	10029
890.13	10124
890.254	10013
890.377	9956
890.501	9915
890.624	9869
890.748	9968
890.871	9831
890.995	9694
891.118	9804
891.241	9804
891.364	9633
891.488	9812
891.611	9819
891.734	9740
891.857	9781
891.98	9766
892.103	9835
892.226	9724
892.349	9633
892.471	9523
892.594	9545
892.717	9641
892.839	9622
892.962	9599
893.085	9644
893.207	9698
893.33	9542
893.452	9530
893.575	9606
893.697	9481
893.819	9614
893.941	9660
894.064	9610
894.186	9405
894.308	9473
894.43	9523
894.552	9530
894.674	9523
894.796	9321
894.918	9340
895.04	9298
895.161	9428
895.283	9351
895.405	9256
895.526	9272
895.648	9260
895.769	9245
895.891	9249
896.012	9367
896.134	9207
896.255	9154
896.376	9161
896.498	9089
896.619	9169
896.74	9100
896.861	9104
896.982	9176
897.103	9336
897.224	9211
897.345	9032
897.466	8994
897.587	9028
897.708	9135
897.828	9009
897.949	8971
898.07	8963
898.19	8887
898.311	9097
898.431	8872
898.552	8952
898.672	9013
898.792	8918
898.913	8918
899.033	8842
899.153	8693
899.273	8678
899.393	8754
899.513	8800
899.633	8758
899.753	8777
899.873	8746
899.993	8781
900.113	8701
900.232	8727
900.352	8670
900.472	8533
900.591	8511
900.711	8579
900.83	8545
900.95	8651
901.069	8670
901.189	8587
901.308	8431
901.427	8427
901.546	8473
901.665	8465
901.784	8518
901.904	8514
902.023	8366
902.141	8301
902.26	8206
902.379	8290
902.498	8305
902.617	8244
902.735	8294
902.854	8263
902.973	8275
903.091	8161
903.21	8195
903.328	8233
903.446	8107
903.565	8031
903.683	8153
903.801	8081
903.919	8092
904.038	8130
904.156	8008
904.274	8073
904.392	7986
904.51	7974
904.627	8081
904.745	8111
904.863	8168
904.981	7932
905.098	7795
905.216	7803
905.334	7864
905.451	7890
905.569	7883
905.686	7928
905.803	7852
905.921	7852
906.038	7871
906.155	7849
906.272	7753
906.389	7734
906.506	7632
906.623	7575
906.74	7616
906.857	7567
906.974	7567
907.091	7696
907.208	7742
907.324	7590
907.441	7594
907.557	7445
907.674	7388
907.79	7453
907.907	7430
908.023	7445
908.139	7430
908.256	7377
908.372	7346
908.488	7301
908.604	7369
908.72	7270
908.836	7293
908.952	7308
909.068	7247
909.184	7324
909.3	7236
909.415	7259
909.531	7289
909.647	7084
909.762	7072
909.878	7061
909.993	7190
910.108	7133
910.224	7046
910.339	7198
910.454	7072
910.57	7065
910.685	6916
910.8	7160
910.915	7145
911.03	6973
911.145	6878
911.259	6890
911.374	6924
911.489	6840
911.604	6867
911.718	6719
911.833	6764
911.947	6631
912.062	6646
912.176	6703
912.291	6677
912.405	6783
912.519	6852
912.633	6825
912.748	6783
912.862	6688
912.976	6639
913.09	6525
913.204	6578
913.318	6646
913.431	6722
913.545	6654
913.659	6734
913.772	6692
913.886	6582
914	6532
914.113	6616
914.226	6662
914.34	6612
914.453	6471
914.566	6601
914.68	6502
914.793	6475
914.906	6460
915.019	6410
915.132	6384
915.245	6452
915.358	6426
915.47	6479
915.583	6471
915.696	6490
915.809	6570
915.921	6597
916.034	6437
916.146	6376
916.259	6407
916.371	6471
916.483	6418
916.595	6410
916.708	6498
916.82	6448
916.932	6384
917.044	6369
917.156	6342
917.268	6350
917.38	6388
917.491	6292
917.603	6357
917.715	6403
917.826	6369
917.938	6308
918.049	6258
918.161	6323
918.272	6403
918.384	6433
918.495	6346
918.606	6277
918.717	6228
918.828	6353
918.939	6262
919.05	6140
919.161	6292
919.272	6129
919.383	6121
919.494	6289
919.604	6441
919.715	6243
919.826	6258
919.936	6243
920.047	6353
920.157	6251
920.267	6437
920.378	6323
920.488	6304
920.598	6437
920.708	6582
920.818	6437
920.928	6517
921.038	6642
921.148	6604
921.258	6327
921.368	6285
921.477	6216
921.587	6182
921.697	6064
921.806	6205
921.916	6125
922.025	5897
922.134	5984
922.244	5870
922.353	5920
922.462	5882
922.571	5840
922.68	5737
922.789	5741
922.898	5680
923.007	5623
923.116	5695
923.224	5665
923.333	5649
923.442	5623
923.55	5592
923.659	5558
923.767	5649
923.876	5551
923.984	5649
924.092	5532
924.201	5551
924.309	5596
924.417	5528
924.525	5528
924.633	5543
924.741	6232
924.849	5345
924.956	5444
925.064	5341
925.172	5288
925.279	5341
925.387	5417
925.494	5345
925.602	5459
925.709	5383
925.816	5288
925.924	5330
926.031	5337
926.138	5269
926.245	5341
926.352	5250
926.459	5284
926.566	5288
926.673	5208
926.779	5140
926.886	5132
926.993	5006
927.099	5048
927.206	5006
927.312	4953
927.419	5045
927.525	5022
927.631	4987
927.737	4896
927.843	4866
927.95	4786
928.056	4873
928.162	4866
928.267	4835
928.373	5387
928.479	4839
928.585	4706
928.69	4763
928.796	4816
928.901	4672
929.007	4660
929.112	4736
929.218	4637
929.323	4588
929.428	4538
929.533	4641
929.638	4538
929.743	4569
929.848	4558
929.953	4527
930.058	4417
930.163	4344
930.267	4303
930.372	4402
930.477	4325
930.581	4436
930.685	4318
930.79	4268
930.894	4295
930.998	4242
931.103	4413
931.207	4116
931.311	4124
931.415	4101
931.519	3945
931.623	3922
