Data from glass_V78500241_1306.txt Node
Date: Wed Sep 01 19:23:33 CST 2021
User: usil
Spectrometer: V785-0024
Trigger mode: 0
Integration Time (sec): 4.000000E-1
Scans to average: 1
Nonlinearity correction enabled: false
Boxcar width: 0
Storing dark spectrum: false
XAxis mode: Wavelengths
Number of Pixels in Spectrum: 1024
>>>>>Begin Spectral Data<<<<<
801.071	3713
801.214	3793
801.356	3698
801.499	3762
801.641	3743
801.783	3770
801.926	3899
802.068	3869
802.211	3861
802.353	3922
802.496	3850
802.638	3892
802.78	3865
802.923	3903
803.065	3899
803.208	3854
803.35	3892
803.492	3903
803.635	3918
803.777	3804
803.919	3892
804.061	4162
804.204	4002
804.346	3922
804.488	3968
804.63	4082
804.773	3991
804.915	4013
805.057	4169
805.199	4040
805.341	4074
805.483	4112
805.626	4101
805.768	4109
805.91	4242
806.052	4261
806.194	4188
806.336	4383
806.478	4211
806.62	4188
806.762	4192
806.904	4238
807.046	4379
807.188	4200
807.33	4181
807.472	4227
807.614	4211
807.756	4261
807.898	4185
808.04	4227
808.182	4261
808.324	4394
808.465	4356
808.607	4508
808.749	4478
808.891	4478
809.033	4523
809.174	4436
809.316	4268
809.458	4272
809.6	4131
809.741	4177
809.883	4124
810.025	4238
810.166	4238
810.308	4215
810.45	4265
810.591	4169
810.733	4284
810.875	4527
811.016	4828
811.158	5155
811.299	5269
811.441	5261
811.582	5029
811.724	4687
811.865	4455
812.007	4481
812.148	4371
812.29	4443
812.431	4398
812.573	4413
812.714	4386
812.855	4455
812.997	4402
813.138	4436
813.279	4432
813.421	4405
813.562	4421
813.703	4318
813.845	4348
813.986	4272
814.127	4219
814.268	4249
814.41	4261
814.551	4268
814.692	4341
814.833	4314
814.974	4344
815.115	4360
815.256	4272
815.397	4238
815.539	4303
815.68	4185
815.821	4196
815.962	4303
816.103	4329
816.244	4265
816.385	4230
816.526	4287
816.666	4227
816.807	4101
816.948	4200
817.089	4207
817.23	4109
817.371	4082
817.512	4078
817.653	4086
817.793	4032
817.934	4017
818.075	4086
818.216	4090
818.356	4055
818.497	3987
818.638	3915
818.778	3930
818.919	3892
819.06	3861
819.2	3911
819.341	3873
819.481	3804
819.622	3903
819.762	4040
819.903	3937
820.043	3876
820.184	3865
820.324	3865
820.465	3903
820.605	3842
820.746	3899
820.886	3800
821.026	3968
821.167	3937
821.307	3964
821.447	3964
821.588	3960
821.728	3972
821.868	3934
822.008	3850
822.149	3918
822.289	3896
822.429	3804
822.569	3774
822.709	3816
822.849	3698
822.99	3732
823.13	3781
823.27	3766
823.41	3755
823.55	3762
823.69	3720
823.83	3762
823.97	3682
824.11	3606
824.25	3587
824.389	3652
824.529	3675
824.669	3667
824.809	3717
824.949	3751
825.089	3755
825.228	3694
825.368	3595
825.508	3580
825.648	3564
825.787	3625
825.927	3633
826.067	3633
826.206	3629
826.346	3808
826.485	3835
826.625	3903
826.765	3960
826.904	3838
827.044	3599
827.183	3496
827.323	3435
827.462	3469
827.601	3466
827.741	3412
827.88	3450
828.02	3355
828.159	3485
828.298	3511
828.437	3572
828.577	3447
828.716	3595
828.855	3542
828.994	3382
829.134	3401
829.273	3409
829.412	3367
829.551	3321
829.69	3378
829.829	3397
829.968	3488
830.107	3454
830.246	3477
830.385	3401
830.524	3363
830.663	3287
830.802	3264
830.941	3199
831.08	3207
831.219	3256
831.357	3275
831.496	3393
831.635	3207
831.774	3207
831.913	3203
832.051	3165
832.19	3138
832.329	3222
832.467	3104
832.606	3112
832.744	3176
832.883	3192
833.022	3253
833.16	3245
833.299	3298
833.437	3329
833.576	3393
833.714	3405
833.852	3424
833.991	3439
834.129	3485
834.267	3431
834.406	3401
834.544	3420
834.682	3424
834.821	3439
834.959	3625
835.097	3424
835.235	3500
835.373	3466
835.511	3511
835.65	3450
835.788	3492
835.926	3409
836.064	3378
836.202	3374
836.34	3599
836.478	3633
836.615	3564
836.753	3606
836.891	3656
837.029	3599
837.167	3603
837.305	3557
837.443	3591
837.58	3504
837.718	3591
837.856	3568
837.993	3557
838.131	3606
838.269	3580
838.406	3591
838.544	3587
838.681	3447
838.819	3447
838.956	3374
839.094	3439
839.231	3431
839.369	3526
839.506	3732
839.643	3663
839.781	3504
839.918	3458
840.055	3519
840.193	3523
840.33	3542
840.467	3568
840.604	3595
840.742	3850
840.879	3572
841.016	3580
841.153	3637
841.29	3743
841.427	3740
841.564	3717
841.701	3724
841.838	3724
841.975	3698
842.112	3740
842.249	3648
842.385	3606
842.522	3800
842.659	3698
842.796	3690
842.933	3732
843.069	3755
843.206	3698
843.343	3838
843.479	3743
843.616	3812
843.752	3633
843.889	3705
844.025	3876
844.162	3698
844.298	3865
844.435	3743
844.571	3800
844.708	3869
844.844	3979
844.98	4025
845.117	4029
845.253	3956
845.389	3907
845.525	3987
845.661	3937
845.798	3899
845.934	4036
846.07	3915
846.206	4048
846.342	4128
846.478	4032
846.614	3926
846.75	3926
846.886	3953
847.022	4044
847.158	3994
847.294	3998
847.429	4063
847.565	4010
847.701	4230
847.837	3934
847.972	3869
848.108	3994
848.244	3918
848.379	3850
848.515	3816
848.65	3812
848.786	3831
848.921	3842
849.057	3949
849.192	3915
849.328	3937
849.463	3922
849.598	3903
849.734	3831
849.869	3857
850.004	3766
850.14	3804
850.275	3812
850.41	3766
850.545	3755
850.68	3781
850.815	3759
850.95	3785
851.085	3972
851.22	3842
851.355	3812
851.49	3789
851.625	3812
851.76	3762
851.895	3770
852.03	3736
852.165	3789
852.299	3857
852.434	3915
852.569	3873
852.703	3880
852.838	3911
852.973	4010
853.107	3998
853.242	3945
853.376	3846
853.511	3827
853.645	3827
853.78	4032
853.914	3937
854.048	3915
854.183	3941
854.317	3968
854.451	4063
854.585	3983
854.72	3941
854.854	4040
854.988	3968
855.122	4032
855.256	3915
855.39	4006
855.524	4150
855.658	4093
855.792	4154
855.926	4162
856.06	4230
856.194	4211
856.327	4188
856.461	4139
856.595	4150
856.729	4181
856.862	4287
856.996	4265
857.13	4318
857.263	4310
857.397	4379
857.53	4291
857.664	4341
857.797	4386
857.931	4371
858.064	4390
858.197	4417
858.331	4413
858.464	4409
858.597	4348
858.731	4451
858.864	4485
858.997	4398
859.13	4493
859.263	4481
859.396	4626
859.529	4497
859.662	4523
859.795	4538
859.928	4615
860.061	4691
860.194	4759
860.327	4668
860.46	4649
860.592	4702
860.725	4710
860.858	4820
860.99	4679
861.123	4717
861.256	4679
861.388	4778
861.521	5360
861.653	4793
861.786	4725
861.918	4748
862.05	4793
862.183	4831
862.315	4930
862.447	4908
862.58	4938
862.712	4824
862.844	4782
862.976	4816
863.108	4839
863.24	5147
863.372	4812
863.504	4919
863.636	4904
863.768	4961
863.9	4949
864.032	4904
864.164	5003
864.296	5033
864.428	5022
864.559	5094
864.691	5109
864.823	5178
864.954	5083
865.086	5147
865.217	5113
865.349	5109
865.48	5159
865.612	5239
865.743	5299
865.875	5166
866.006	5212
866.137	5227
866.269	5239
866.4	5254
866.531	5277
866.662	5181
866.793	5212
866.924	5277
867.055	5307
867.186	5345
867.317	5341
867.448	5360
867.579	5391
867.71	5345
867.841	5406
867.972	5406
868.103	5482
868.233	5497
868.364	5516
868.495	5528
868.625	5688
868.756	5809
868.886	5714
869.017	5710
869.147	5859
869.278	5878
869.408	5836
869.539	5817
869.669	5920
869.799	5977
869.929	5999
870.06	6030
870.19	6216
870.32	6235
870.45	6258
870.58	6342
870.71	6376
870.84	6464
870.97	6418
871.1	6498
871.23	6631
871.36	6642
871.489	6631
871.619	6760
871.749	6840
871.879	6837
872.008	7038
872.138	6958
872.267	6996
872.397	6935
872.526	7038
872.656	7114
872.785	7217
872.915	7419
873.044	7518
873.173	7578
873.303	7704
873.432	7719
873.561	7856
873.69	7887
873.819	8008
873.948	8153
874.077	8244
874.206	8286
874.335	8419
874.464	8632
874.593	8902
874.722	8918
874.851	9119
874.979	9199
875.108	9370
875.237	9428
875.365	9431
875.494	9701
875.623	9762
875.751	9857
875.88	9937
876.008	10181
876.136	10215
876.265	10451
876.393	10714
876.521	10778
876.65	10824
876.778	10854
876.906	10965
877.034	10991
877.162	11128
877.29	11151
877.418	11277
877.546	11379
877.674	11349
877.802	11471
877.93	11562
878.058	11512
878.185	11562
878.313	11668
878.441	11863
878.568	11634
878.696	11821
878.824	11920
878.951	11980
879.079	12011
879.206	12163
879.333	12034
879.461	11969
879.588	12095
879.715	12125
879.842	12201
879.97	12049
880.097	11855
880.224	11904
880.351	11939
880.478	11836
880.605	11870
880.732	11863
880.859	12079
880.986	11760
881.112	11859
881.239	11798
881.366	11646
881.493	11657
881.619	11501
881.746	11619
881.872	11543
881.999	11444
882.125	11528
882.252	11532
882.378	11543
882.505	11524
882.631	11303
882.757	11296
882.883	11303
883.01	11227
883.136	11223
883.262	11083
883.388	11098
883.514	11208
883.64	11227
883.766	11155
883.892	11071
884.018	11006
884.143	11102
884.269	11094
884.395	10866
884.52	10736
884.646	10877
884.772	10664
884.897	10683
885.023	10683
885.148	10790
885.274	10778
885.399	10641
885.524	10645
885.65	10603
885.775	10611
885.9	10561
886.025	10554
886.15	10523
886.275	10478
886.4	10451
886.525	10386
886.65	10314
886.775	10363
886.9	10500
887.025	10531
887.149	10344
887.274	10249
887.399	10230
887.523	10219
887.648	10128
887.773	10135
887.897	10242
888.021	10238
888.146	10143
888.27	10219
888.395	10204
888.519	10158
888.643	10131
888.767	10265
888.891	10116
889.015	10063
889.139	10032
889.263	10093
889.387	10025
889.511	10154
889.635	10013
889.759	9972
889.883	9987
890.006	9937
890.13	10128
890.254	9979
890.377	9964
890.501	9915
890.624	9918
890.748	9892
890.871	9835
890.995	9751
891.118	9705
891.241	9781
891.364	9785
891.488	9964
891.611	9705
891.734	9751
891.857	9766
891.98	9766
892.103	9797
892.226	9686
892.349	9637
892.471	9511
892.594	9675
892.717	9587
892.839	9561
892.962	9553
893.085	9701
893.207	9545
893.33	9549
893.452	9538
893.575	9648
893.697	9492
893.819	9610
893.941	9568
894.064	9622
894.186	9420
894.308	9344
894.43	9545
894.552	9515
894.674	9542
894.796	9367
894.918	9393
895.04	9359
895.161	9355
895.283	9389
895.405	9275
895.526	9241
895.648	9230
895.769	9214
895.891	9283
896.012	9306
896.134	9154
896.255	9218
896.376	9116
896.498	9127
896.619	9127
896.74	8998
896.861	9100
896.982	9260
897.103	9325
897.224	9188
897.345	9028
897.466	9039
897.587	9070
897.708	9085
897.828	9005
897.949	9047
898.07	8876
898.19	8960
898.311	8994
898.431	8918
898.552	8910
898.672	8967
898.792	8941
898.913	8929
899.033	8811
899.153	8750
899.273	8606
899.393	8720
899.513	8773
899.633	8727
899.753	8686
899.873	8746
899.993	8758
900.113	8754
900.232	8701
900.352	8670
900.472	8575
900.591	8598
900.711	8587
900.83	8530
900.95	8716
901.069	8651
901.189	8541
901.308	8434
901.427	8419
901.546	8469
901.665	8419
901.784	8476
901.904	8427
902.023	8309
902.141	8229
902.26	8240
902.379	8305
902.498	8172
902.617	8218
902.735	8309
902.854	8298
902.973	8290
903.091	8130
903.21	8164
903.328	8187
903.446	8172
903.565	8096
903.683	8111
903.801	8149
903.919	8092
904.038	8126
904.156	8077
904.274	8073
904.392	8039
904.51	8039
904.627	8084
904.745	8039
904.863	8115
904.981	7932
905.098	7860
905.216	7841
905.334	7887
905.451	7974
905.569	7928
905.686	7963
905.803	7898
905.921	7807
906.038	7822
906.155	7883
906.272	7734
906.389	7723
906.506	7628
906.623	7662
906.74	7578
906.857	7499
906.974	7613
907.091	7731
907.208	7731
907.324	7632
907.441	7639
907.557	7457
907.674	7457
907.79	7362
907.907	7373
908.023	7438
908.139	7468
908.256	7327
908.372	7384
908.488	7369
908.604	7255
908.72	7228
908.836	7301
908.952	7213
909.068	7293
909.184	7331
909.3	7308
909.415	7263
909.531	7346
909.647	7118
909.762	7084
909.878	7072
909.993	7088
910.108	7122
910.224	7042
910.339	7065
910.454	7080
910.57	7057
910.685	6954
910.8	7145
910.915	7141
911.03	7019
911.145	6886
911.259	6863
911.374	6913
911.489	6798
911.604	6795
911.718	6681
911.833	6741
911.947	6669
912.062	6593
912.176	6734
912.291	6715
912.405	6684
912.519	6772
912.633	6810
912.748	6738
912.862	6681
912.976	6582
913.09	6547
913.204	6597
913.318	6688
913.431	6677
913.545	6646
913.659	6700
913.772	6620
913.886	6547
914	6544
914.113	6597
914.226	6646
914.34	6635
914.453	6471
914.566	6616
914.68	6540
914.793	6513
914.906	6426
915.019	6369
915.132	6437
915.245	6486
915.358	6414
915.47	6418
915.583	6483
915.696	6490
915.809	6566
915.921	6555
916.034	6437
916.146	6475
916.259	6388
916.371	6460
916.483	6486
916.595	6384
916.708	6418
916.82	6380
916.932	6357
917.044	6399
917.156	6327
917.268	6296
917.38	6331
917.491	6327
917.603	6350
917.715	6441
917.826	6422
917.938	6342
918.049	6277
918.161	6323
918.272	6369
918.384	6448
918.495	6346
918.606	6266
918.717	6239
918.828	6285
918.939	6258
919.05	6292
919.161	6289
919.272	6171
919.383	6197
919.494	6292
919.604	6407
919.715	6281
919.826	6194
919.936	6251
920.047	6308
920.157	6289
920.267	6532
920.378	6353
920.488	6258
920.598	6498
920.708	6559
920.818	6525
920.928	6494
921.038	6589
921.148	6566
921.258	6391
921.368	6281
921.477	6228
921.587	6175
921.697	6091
921.806	6155
921.916	6102
922.025	5969
922.134	5931
922.244	5859
922.353	5946
922.462	5885
922.571	5805
922.68	5703
922.789	5691
922.898	5707
923.007	5646
923.116	5748
923.224	5676
923.333	5638
923.442	5611
923.55	5615
923.659	5619
923.767	5634
923.876	5539
923.984	5596
924.092	5524
924.201	5532
924.309	5566
924.417	5581
924.525	5528
924.633	5509
924.741	6247
924.849	5379
924.956	5501
925.064	5387
925.172	5288
925.279	5296
925.387	5391
925.494	5315
925.602	5459
925.709	5376
925.816	5269
925.924	5364
926.031	5395
926.138	5322
926.245	5318
926.352	5235
926.459	5318
926.566	5303
926.673	5254
926.779	5140
926.886	5113
926.993	5052
927.099	4995
927.206	5010
927.312	4987
927.419	5003
927.525	4908
927.631	4968
927.737	4885
927.843	4877
927.95	4763
928.056	4831
928.162	4786
928.267	4930
928.373	5322
928.479	4824
928.585	4675
928.69	4862
928.796	4835
928.901	4687
929.007	4584
929.112	4714
929.218	4714
929.323	4630
929.428	4584
929.533	4702
929.638	4500
929.743	4569
929.848	4580
929.953	4592
930.058	4443
930.163	4367
930.267	4360
930.372	4447
930.477	4280
930.581	4489
930.685	4318
930.79	4227
930.894	4325
930.998	4314
931.103	4421
931.207	4131
931.311	4097
931.415	4055
931.519	3926
931.623	3975
