Data from glass_V78500241_394.txt Node
Date: Wed Sep 01 19:17:13 CST 2021
User: usil
Spectrometer: V785-0024
Trigger mode: 0
Integration Time (sec): 4.000000E-1
Scans to average: 1
Nonlinearity correction enabled: false
Boxcar width: 0
Storing dark spectrum: false
XAxis mode: Wavelengths
Number of Pixels in Spectrum: 1024
>>>>>Begin Spectral Data<<<<<
801.071	3793
801.214	3759
801.356	3743
801.499	3789
801.641	3770
801.783	3774
801.926	3892
802.068	3850
802.211	3896
802.353	3926
802.496	3831
802.638	3888
802.78	3964
802.923	3937
803.065	3911
803.208	3861
803.35	3854
803.492	3922
803.635	3922
803.777	3838
803.919	3903
804.061	4181
804.204	3968
804.346	3937
804.488	3892
804.63	3994
804.773	3991
804.915	4029
805.057	4162
805.199	4017
805.341	4109
805.483	4116
805.626	4154
805.768	4101
805.91	4215
806.052	4223
806.194	4249
806.336	4405
806.478	4200
806.62	4219
806.762	4215
806.904	4265
807.046	4352
807.188	4253
807.33	4177
807.472	4238
807.614	4238
807.756	4242
807.898	4188
808.04	4215
808.182	4287
808.324	4398
808.465	4394
808.607	4436
808.749	4535
808.891	4497
809.033	4485
809.174	4440
809.316	4257
809.458	4314
809.6	4162
809.741	4150
809.883	4150
810.025	4185
810.166	4219
810.308	4261
810.45	4261
810.591	4242
810.733	4303
810.875	4462
811.016	4790
811.158	5162
811.299	5269
811.441	5277
811.582	5025
811.724	4698
811.865	4485
812.007	4489
812.148	4470
812.29	4455
812.431	4455
812.573	4417
812.714	4390
812.855	4443
812.997	4424
813.138	4497
813.279	4451
813.421	4375
813.562	4398
813.703	4383
813.845	4295
813.986	4287
814.127	4207
814.268	4242
814.41	4299
814.551	4306
814.692	4367
814.833	4261
814.974	4318
815.115	4322
815.256	4280
815.397	4261
815.539	4261
815.68	4211
815.821	4219
815.962	4348
816.103	4291
816.244	4227
816.385	4253
816.526	4299
816.666	4177
816.807	4097
816.948	4150
817.089	4192
817.23	4139
817.371	4025
817.512	4074
817.653	4048
817.793	4082
817.934	4063
818.075	4162
818.216	4124
818.356	4059
818.497	4032
818.638	3911
818.778	3941
818.919	3911
819.06	3876
819.2	3934
819.341	3888
819.481	3804
819.622	3941
819.762	4021
819.903	3991
820.043	3850
820.184	3842
820.324	3869
820.465	3922
820.605	3888
820.746	3873
820.886	3823
821.026	3903
821.167	3934
821.307	3972
821.447	3960
821.588	3949
821.728	3949
821.868	3964
822.008	3911
822.149	3911
822.289	3972
822.429	3789
822.569	3781
822.709	3812
822.849	3690
822.99	3751
823.13	3819
823.27	3808
823.41	3740
823.55	3713
823.69	3736
823.83	3751
823.97	3701
824.11	3610
824.25	3610
824.389	3644
824.529	3701
824.669	3622
824.809	3736
824.949	3762
825.089	3774
825.228	3747
825.368	3637
825.508	3530
825.648	3618
825.787	3629
825.927	3625
826.067	3629
826.206	3679
826.346	3835
826.485	3854
826.625	3857
826.765	3945
826.904	3827
827.044	3614
827.183	3561
827.323	3481
827.462	3466
827.601	3458
827.741	3428
827.88	3496
828.02	3340
828.159	3439
828.298	3523
828.437	3526
828.577	3500
828.716	3580
828.855	3511
828.994	3386
829.134	3340
829.273	3447
829.412	3340
829.551	3351
829.69	3363
829.829	3450
829.968	3500
830.107	3473
830.246	3431
830.385	3409
830.524	3344
830.663	3317
830.802	3272
830.941	3218
831.08	3188
831.219	3272
831.357	3294
831.496	3401
831.635	3214
831.774	3241
831.913	3237
832.051	3104
832.19	3127
832.329	3214
832.467	3142
832.606	3131
832.744	3173
832.883	3222
833.022	3195
833.16	3245
833.299	3325
833.437	3336
833.576	3382
833.714	3439
833.852	3469
833.991	3523
834.129	3496
834.267	3447
834.406	3439
834.544	3439
834.682	3428
834.821	3389
834.959	3568
835.097	3439
835.235	3515
835.373	3500
835.511	3511
835.65	3428
835.788	3500
835.926	3431
836.064	3416
836.202	3454
836.34	3561
836.478	3625
836.615	3530
836.753	3637
836.891	3660
837.029	3648
837.167	3599
837.305	3549
837.443	3564
837.58	3507
837.718	3564
837.856	3549
837.993	3526
838.131	3595
838.269	3587
838.406	3614
838.544	3561
838.681	3481
838.819	3462
838.956	3378
839.094	3424
839.231	3443
839.369	3523
839.506	3724
839.643	3610
839.781	3519
839.918	3488
840.055	3511
840.193	3545
840.33	3534
840.467	3534
840.604	3618
840.742	3850
840.879	3534
841.016	3564
841.153	3599
841.29	3751
841.427	3743
841.564	3789
841.701	3728
841.838	3743
841.975	3679
842.112	3736
842.249	3656
842.385	3682
842.522	3907
842.659	3743
842.796	3675
842.933	3717
843.069	3713
843.206	3705
843.343	3781
843.479	3785
843.616	3819
843.752	3690
843.889	3652
844.025	3880
844.162	3740
844.298	3846
844.435	3762
844.571	3816
844.708	3899
844.844	3987
844.98	4051
845.117	4013
845.253	3956
845.389	3888
845.525	3960
845.661	3956
845.798	3926
845.934	4002
846.07	3979
846.206	4082
846.342	4139
846.478	4078
846.614	3994
846.75	3911
846.886	3941
847.022	4029
847.158	3968
847.294	4044
847.429	4051
847.565	4013
847.701	4268
847.837	3888
847.972	3869
848.108	3979
848.244	3968
848.379	3907
848.515	3812
848.65	3865
848.786	3873
848.921	3876
849.057	3922
849.192	3972
849.328	3876
849.463	3956
849.598	3869
849.734	3892
849.869	3869
850.004	3785
850.14	3850
850.275	3789
850.41	3759
850.545	3781
850.68	3793
850.815	3800
850.95	3762
851.085	3903
851.22	3850
851.355	3861
851.49	3823
851.625	3804
851.76	3808
851.895	3770
852.03	3713
852.165	3785
852.299	3865
852.434	3960
852.569	3926
852.703	3911
852.838	3941
852.973	4036
853.107	3991
853.242	3896
853.376	3850
853.511	3774
853.645	3842
853.78	4002
853.914	3869
854.048	3934
854.183	3873
854.317	3945
854.451	4071
854.585	3930
854.72	3926
854.854	4048
854.988	3960
855.122	4029
855.256	3907
855.39	4051
855.524	4139
855.658	4082
855.792	4112
855.926	4181
856.06	4200
856.194	4219
856.327	4192
856.461	4177
856.595	4200
856.729	4173
856.862	4261
856.996	4249
857.13	4310
857.263	4367
857.397	4371
857.53	4310
857.664	4356
857.797	4417
857.931	4432
858.064	4394
858.197	4493
858.331	4405
858.464	4405
858.597	4371
858.731	4466
858.864	4481
858.997	4508
859.13	4580
859.263	4558
859.396	4599
859.529	4542
859.662	4546
859.795	4561
859.928	4611
860.061	4710
860.194	4759
860.327	4717
860.46	4622
860.592	4752
860.725	4805
860.858	4774
860.99	4721
861.123	4668
861.256	4717
861.388	4801
861.521	5334
861.653	4714
861.786	4748
861.918	4744
862.05	4831
862.183	4877
862.315	4843
862.447	4957
862.58	4919
862.712	4812
862.844	4786
862.976	4873
863.108	4862
863.24	5311
863.372	4801
863.504	4930
863.636	4885
863.768	4942
863.9	4934
864.032	4949
864.164	4965
864.296	5010
864.428	5075
864.559	5143
864.691	5109
864.823	5086
864.954	5132
865.086	5140
865.217	5140
865.349	5094
865.48	5143
865.612	5170
865.743	5360
865.875	5212
866.006	5227
866.137	5204
866.269	5277
866.4	5265
866.531	5269
866.662	5235
866.793	5258
866.924	5307
867.055	5337
867.186	5345
867.317	5322
867.448	5296
867.579	5395
867.71	5372
867.841	5433
867.972	5459
868.103	5448
868.233	5528
868.364	5520
868.495	5509
868.625	5688
868.756	5752
868.886	5634
869.017	5741
869.147	5855
869.278	5935
869.408	5817
869.539	5840
869.669	5931
869.799	5958
869.929	5969
870.06	6030
870.19	6239
870.32	6209
870.45	6201
870.58	6384
870.71	6422
870.84	6464
870.97	6403
871.1	6498
871.23	6559
871.36	6730
871.489	6635
871.619	6677
871.749	6764
871.879	6856
872.008	6985
872.138	6894
872.267	7019
872.397	7027
872.526	7019
872.656	7061
872.785	7187
872.915	7373
873.044	7510
873.173	7563
873.303	7575
873.432	7772
873.561	7868
873.69	7936
873.819	8027
873.948	8157
874.077	8279
874.206	8298
874.335	8434
874.464	8610
874.593	8857
874.722	8868
874.851	9173
874.979	9195
875.108	9435
875.237	9454
875.365	9523
875.494	9553
875.623	9869
875.751	9793
875.88	9945
876.008	10128
876.136	10280
876.265	10558
876.393	10721
876.521	10675
876.65	10809
876.778	10820
876.906	10911
877.034	11037
877.162	11025
877.29	11098
877.418	11239
877.546	11201
877.674	11452
877.802	11467
877.93	11463
878.058	11615
878.185	11554
878.313	11707
878.441	11665
878.568	11729
878.696	11855
878.824	11885
878.951	11866
879.079	12060
879.206	12182
879.333	12076
879.461	11992
879.588	12144
879.715	12064
879.842	12182
879.97	12091
880.097	11847
880.224	11878
880.351	11946
880.478	11882
880.605	11916
880.732	11836
880.859	11992
880.986	11836
881.112	11802
881.239	11668
881.366	11653
881.493	11600
881.619	11543
881.746	11585
881.872	11539
881.999	11547
882.125	11539
882.252	11577
882.378	11520
882.505	11619
882.631	11455
882.757	11311
882.883	11364
883.01	11322
883.136	11162
883.262	11079
883.388	11071
883.514	11185
883.64	11105
883.766	11128
883.892	11067
884.018	10930
884.143	11014
884.269	11121
884.395	10873
884.52	10763
884.646	10733
884.772	10736
884.897	10668
885.023	10706
885.148	10687
885.274	10797
885.399	10786
885.524	10698
885.65	10516
885.775	10641
885.9	10538
886.025	10603
886.15	10550
886.275	10455
886.4	10432
886.525	10413
886.65	10386
886.775	10303
886.9	10432
887.025	10546
887.149	10382
887.274	10257
887.399	10207
887.523	10204
887.648	10150
887.773	10078
887.897	10242
888.021	10299
888.146	10219
888.27	10253
888.395	10177
888.519	10268
888.643	10207
888.767	10230
888.891	10025
889.015	9998
889.139	10078
889.263	10063
889.387	10093
889.511	10128
889.635	10109
889.759	9956
889.883	10074
890.006	10013
890.13	10162
890.254	9930
890.377	9983
890.501	9823
890.624	9823
890.748	9987
890.871	9785
890.995	9797
891.118	9785
891.241	9804
891.364	9743
891.488	9892
891.611	9781
891.734	9698
891.857	9819
891.98	9781
892.103	9751
892.226	9637
892.349	9682
892.471	9492
892.594	9629
892.717	9610
892.839	9625
892.962	9587
893.085	9690
893.207	9561
893.33	9515
893.452	9553
893.575	9572
893.697	9443
893.819	9629
893.941	9625
894.064	9698
894.186	9485
894.308	9393
894.43	9553
894.552	9591
894.674	9572
894.796	9450
894.918	9363
895.04	9336
895.161	9408
895.283	9412
895.405	9203
895.526	9272
895.648	9211
895.769	9226
895.891	9222
896.012	9245
896.134	9268
896.255	9169
896.376	9131
896.498	9207
896.619	9176
896.74	9116
896.861	9062
896.982	9306
897.103	9325
897.224	9165
897.345	9112
897.466	9028
897.587	9017
897.708	9184
897.828	8963
897.949	8937
898.07	8876
898.19	8914
898.311	9001
898.431	8933
898.552	8948
898.672	8986
898.792	8971
898.913	8887
899.033	8754
899.153	8735
899.273	8735
899.393	8769
899.513	8735
899.633	8708
899.753	8785
899.873	8727
899.993	8807
900.113	8727
900.232	8758
900.352	8712
900.472	8602
900.591	8522
900.711	8636
900.83	8575
900.95	8708
901.069	8655
901.189	8522
901.308	8400
901.427	8434
901.546	8446
901.665	8450
901.784	8473
901.904	8423
902.023	8404
902.141	8248
902.26	8328
902.379	8309
902.498	8259
902.617	8199
902.735	8218
902.854	8195
902.973	8229
903.091	8142
903.21	8145
903.328	8126
903.446	8138
903.565	8024
903.683	8161
903.801	8081
903.919	8153
904.038	8195
904.156	8123
904.274	8088
904.392	8001
904.51	8050
904.627	8035
904.745	8126
904.863	8062
904.981	7917
905.098	7906
905.216	7909
905.334	7997
905.451	7822
905.569	7951
905.686	7951
905.803	7921
905.921	7795
906.038	7871
906.155	7807
906.272	7776
906.389	7780
906.506	7643
906.623	7655
906.74	7597
906.857	7506
906.974	7624
907.091	7674
907.208	7708
907.324	7681
907.441	7582
907.557	7514
907.674	7434
907.79	7365
907.907	7426
908.023	7533
908.139	7400
908.256	7384
908.372	7411
908.488	7316
908.604	7289
908.72	7278
908.836	7285
908.952	7266
909.068	7251
909.184	7320
909.3	7251
909.415	7293
909.531	7335
909.647	7095
909.762	7145
909.878	7061
909.993	7194
910.108	7080
910.224	7023
910.339	7179
910.454	6996
910.57	7034
910.685	6996
910.8	7152
910.915	7133
911.03	7023
911.145	6878
911.259	6871
911.374	6882
911.489	6863
911.604	6795
911.718	6776
911.833	6730
911.947	6639
912.062	6639
912.176	6707
912.291	6779
912.405	6726
912.519	6798
912.633	6871
912.748	6772
912.862	6741
912.976	6593
913.09	6566
913.204	6642
913.318	6589
913.431	6662
913.545	6665
913.659	6722
913.772	6646
913.886	6601
914	6593
914.113	6597
914.226	6612
914.34	6620
914.453	6525
914.566	6627
914.68	6563
914.793	6585
914.906	6437
915.019	6422
915.132	6448
915.245	6407
915.358	6452
915.47	6486
915.583	6445
915.696	6502
915.809	6517
915.921	6525
916.034	6418
916.146	6410
916.259	6384
916.371	6509
916.483	6410
916.595	6403
916.708	6388
916.82	6403
916.932	6429
917.044	6380
917.156	6414
917.268	6346
917.38	6331
917.491	6346
917.603	6346
917.715	6429
917.826	6475
917.938	6319
918.049	6247
918.161	6334
918.272	6448
918.384	6441
918.495	6376
918.606	6266
918.717	6190
918.828	6296
918.939	6289
919.05	6216
919.161	6296
919.272	6159
919.383	6140
919.494	6338
919.604	6471
919.715	6277
919.826	6273
919.936	6277
920.047	6350
920.157	6300
920.267	6483
920.378	6369
920.488	6239
920.598	6433
920.708	6570
920.818	6456
920.928	6490
921.038	6662
921.148	6566
921.258	6365
921.368	6281
921.477	6228
921.587	6159
921.697	6114
921.806	6232
921.916	6030
922.025	6019
922.134	5923
922.244	5912
922.353	5973
922.462	5855
922.571	5798
922.68	5756
922.789	5733
922.898	5649
923.007	5615
923.116	5699
923.224	5668
923.333	5623
923.442	5581
923.55	5585
923.659	5608
923.767	5661
923.876	5547
923.984	5596
924.092	5558
924.201	5566
924.309	5566
924.417	5532
924.525	5528
924.633	5482
924.741	6277
924.849	5357
924.956	5471
925.064	5337
925.172	5307
925.279	5326
925.387	5402
925.494	5322
925.602	5440
925.709	5379
925.816	5292
925.924	5353
926.031	5372
926.138	5246
926.245	5318
926.352	5220
926.459	5315
926.566	5326
926.673	5208
926.779	5143
926.886	5143
926.993	5064
927.099	5022
927.206	4991
927.312	4938
927.419	5006
927.525	4972
927.631	4972
927.737	4942
927.843	4862
927.95	4790
928.056	4835
928.162	4816
928.267	4831
928.373	5269
928.479	4866
928.585	4721
928.69	4767
928.796	4774
928.901	4710
929.007	4618
929.112	4714
929.218	4649
929.323	4573
929.428	4577
929.533	4687
929.638	4561
929.743	4527
929.848	4584
929.953	4508
930.058	4455
930.163	4371
930.267	4333
930.372	4462
930.477	4341
930.581	4485
930.685	4360
930.79	4280
930.894	4299
930.998	4306
931.103	4375
931.207	4166
931.311	4112
931.415	4067
931.519	3964
931.623	3918
