Data from glass_V78500241_195.txt Node
Date: Wed Sep 01 19:15:51 CST 2021
User: usil
Spectrometer: V785-0024
Trigger mode: 0
Integration Time (sec): 4.000000E-1
Scans to average: 1
Nonlinearity correction enabled: false
Boxcar width: 0
Storing dark spectrum: false
XAxis mode: Wavelengths
Number of Pixels in Spectrum: 1024
>>>>>Begin Spectral Data<<<<<
801.071	3732
801.214	3755
801.356	3705
801.499	3785
801.641	3743
801.783	3812
801.926	3842
802.068	3865
802.211	3873
802.353	3918
802.496	3884
802.638	3854
802.78	3930
802.923	3930
803.065	3903
803.208	3880
803.35	3915
803.492	3964
803.635	3903
803.777	3831
803.919	3892
804.061	4154
804.204	3964
804.346	3922
804.488	3930
804.63	4006
804.773	4013
804.915	4071
805.057	4162
805.199	4044
805.341	4147
805.483	4128
805.626	4154
805.768	4135
805.91	4204
806.052	4261
806.194	4219
806.336	4337
806.478	4219
806.62	4169
806.762	4173
806.904	4242
807.046	4325
807.188	4246
807.33	4207
807.472	4276
807.614	4207
807.756	4322
807.898	4223
808.04	4246
808.182	4318
808.324	4363
808.465	4405
808.607	4470
808.749	4466
808.891	4447
809.033	4535
809.174	4436
809.316	4303
809.458	4246
809.6	4143
809.741	4204
809.883	4158
810.025	4249
810.166	4207
810.308	4211
810.45	4173
810.591	4261
810.733	4299
810.875	4512
811.016	4850
811.158	5170
811.299	5254
811.441	5303
811.582	5094
811.724	4729
811.865	4478
812.007	4485
812.148	4470
812.29	4394
812.431	4424
812.573	4443
812.714	4451
812.855	4417
812.997	4443
813.138	4466
813.279	4451
813.421	4440
813.562	4394
813.703	4371
813.845	4371
813.986	4272
814.127	4246
814.268	4295
814.41	4284
814.551	4303
814.692	4310
814.833	4280
814.974	4306
815.115	4325
815.256	4287
815.397	4280
815.539	4291
815.68	4211
815.821	4253
815.962	4363
816.103	4341
816.244	4257
816.385	4238
816.526	4306
816.666	4204
816.807	4112
816.948	4154
817.089	4177
817.23	4128
817.371	4074
817.512	4055
817.653	4082
817.793	4051
817.934	4055
818.075	4124
818.216	4112
818.356	4093
818.497	3987
818.638	3880
818.778	3949
818.919	3937
819.06	3865
819.2	3949
819.341	3850
819.481	3873
819.622	3907
819.762	4051
819.903	3922
820.043	3899
820.184	3819
820.324	3838
820.465	3892
820.605	3857
820.746	3907
820.886	3842
821.026	3903
821.167	3945
821.307	3983
821.447	3998
821.588	4010
821.728	3960
821.868	3998
822.008	3903
822.149	3937
822.289	3918
822.429	3823
822.569	3793
822.709	3804
822.849	3698
822.99	3751
823.13	3819
823.27	3816
823.41	3732
823.55	3747
823.69	3732
823.83	3724
823.97	3705
824.11	3557
824.25	3618
824.389	3652
824.529	3679
824.669	3648
824.809	3694
824.949	3800
825.089	3751
825.228	3705
825.368	3587
825.508	3629
825.648	3580
825.787	3641
825.927	3622
826.067	3667
826.206	3675
826.346	3793
826.485	3835
826.625	3888
826.765	3907
826.904	3838
827.044	3618
827.183	3561
827.323	3485
827.462	3523
827.601	3454
827.741	3469
827.88	3443
828.02	3359
828.159	3454
828.298	3488
828.437	3538
828.577	3515
828.716	3606
828.855	3515
828.994	3389
829.134	3359
829.273	3405
829.412	3355
829.551	3355
829.69	3374
829.829	3450
829.968	3549
830.107	3458
830.246	3462
830.385	3389
830.524	3367
830.663	3321
830.802	3283
830.941	3211
831.08	3188
831.219	3272
831.357	3287
831.496	3420
831.635	3237
831.774	3199
831.913	3214
832.051	3180
832.19	3180
832.329	3222
832.467	3150
832.606	3119
832.744	3199
832.883	3207
833.022	3218
833.16	3268
833.299	3329
833.437	3397
833.576	3397
833.714	3386
833.852	3420
833.991	3428
834.129	3481
834.267	3454
834.406	3439
834.544	3450
834.682	3477
834.821	3420
834.959	3564
835.097	3473
835.235	3549
835.373	3496
835.511	3519
835.65	3428
835.788	3488
835.926	3412
836.064	3397
836.202	3420
836.34	3591
836.478	3603
836.615	3580
836.753	3580
836.891	3701
837.029	3606
837.167	3603
837.305	3576
837.443	3564
837.58	3530
837.718	3603
837.856	3637
837.993	3530
838.131	3610
838.269	3625
838.406	3618
838.544	3534
838.681	3481
838.819	3469
838.956	3401
839.094	3416
839.231	3439
839.369	3545
839.506	3736
839.643	3625
839.781	3553
839.918	3469
840.055	3538
840.193	3564
840.33	3557
840.467	3584
840.604	3663
840.742	3857
840.879	3587
841.016	3557
841.153	3610
841.29	3736
841.427	3724
841.564	3766
841.701	3724
841.838	3740
841.975	3705
842.112	3759
842.249	3641
842.385	3663
842.522	3861
842.659	3720
842.796	3698
842.933	3709
843.069	3709
843.206	3728
843.343	3797
843.479	3762
843.616	3823
843.752	3701
843.889	3629
844.025	3831
844.162	3793
844.298	3865
844.435	3785
844.571	3827
844.708	3911
844.844	3983
844.98	4044
845.117	4010
845.253	3930
845.389	3930
845.525	3956
845.661	3991
845.798	3941
845.934	3918
846.07	3915
846.206	4067
846.342	4166
846.478	4074
846.614	3956
846.75	3968
846.886	3930
847.022	3975
847.158	3975
847.294	4025
847.429	4025
847.565	4006
847.701	4272
847.837	3915
847.972	3835
848.108	4002
848.244	3998
848.379	3857
848.515	3827
848.65	3827
848.786	3861
848.921	3880
849.057	3934
849.192	3983
849.328	3911
849.463	3915
849.598	3888
849.734	3857
849.869	3823
850.004	3804
850.14	3835
850.275	3816
850.41	3747
850.545	3781
850.68	3770
850.815	3819
850.95	3835
851.085	3994
851.22	3876
851.355	3816
851.49	3819
851.625	3812
851.76	3831
851.895	3728
852.03	3766
852.165	3835
852.299	3888
852.434	3880
852.569	3896
852.703	3930
852.838	3960
852.973	4071
853.107	4006
853.242	3918
853.376	3865
853.511	3808
853.645	3838
853.78	4021
853.914	3907
854.048	3918
854.183	3880
854.317	3934
854.451	4086
854.585	3930
854.72	3960
854.854	4101
854.988	3968
855.122	4021
855.256	3926
855.39	4029
855.524	4135
855.658	4135
855.792	4097
855.926	4147
856.06	4101
856.194	4204
856.327	4169
856.461	4135
856.595	4166
856.729	4219
856.862	4276
856.996	4272
857.13	4268
857.263	4348
857.397	4367
857.53	4303
857.664	4402
857.797	4394
857.931	4405
858.064	4383
858.197	4489
858.331	4405
858.464	4394
858.597	4379
858.731	4455
858.864	4451
858.997	4470
859.13	4493
859.263	4584
859.396	4622
859.529	4546
859.662	4577
859.795	4531
859.928	4637
860.061	4683
860.194	4744
860.327	4626
860.46	4683
860.592	4752
860.725	4786
860.858	4736
860.99	4710
861.123	4672
861.256	4793
861.388	4755
861.521	5448
861.653	4752
861.786	4710
861.918	4771
862.05	4812
862.183	4892
862.315	4908
862.447	4942
862.58	4862
862.712	4801
862.844	4790
862.976	4831
863.108	4923
863.24	5288
863.372	4820
863.504	4927
863.636	4915
863.768	5003
863.9	4987
864.032	4987
864.164	4976
864.296	5052
864.428	5102
864.559	5098
864.691	5124
864.823	5159
864.954	5189
865.086	5170
865.217	5140
865.349	5090
865.48	5124
865.612	5201
865.743	5330
865.875	5231
866.006	5208
866.137	5261
866.269	5246
866.4	5273
866.531	5258
866.662	5261
866.793	5239
866.924	5322
867.055	5376
867.186	5360
867.317	5277
867.448	5334
867.579	5395
867.71	5425
867.841	5433
867.972	5490
868.103	5471
868.233	5467
868.364	5478
868.495	5551
868.625	5707
868.756	5805
868.886	5646
869.017	5779
869.147	5904
869.278	5855
869.408	5874
869.539	5847
869.669	5874
869.799	5882
869.929	5984
870.06	6007
870.19	6213
870.32	6148
870.45	6285
870.58	6372
870.71	6422
870.84	6445
870.97	6445
871.1	6437
871.23	6662
871.36	6772
871.489	6719
871.619	6749
871.749	6825
871.879	6875
872.008	6996
872.138	6958
872.267	6993
872.397	7015
872.526	7061
872.656	7129
872.785	7206
872.915	7365
873.044	7582
873.173	7556
873.303	7643
873.432	7765
873.561	7879
873.69	7925
873.819	8024
873.948	8195
874.077	8244
874.206	8351
874.335	8442
874.464	8648
874.593	8895
874.722	8929
874.851	9146
874.979	9272
875.108	9420
875.237	9466
875.365	9549
875.494	9728
875.623	9873
875.751	9895
875.88	9987
876.008	10162
876.136	10405
876.265	10474
876.393	10752
876.521	10698
876.65	10809
876.778	10873
876.906	10911
877.034	11037
877.162	11132
877.29	11250
877.418	11315
877.546	11395
877.674	11402
877.802	11493
877.93	11585
878.058	11634
878.185	11539
878.313	11684
878.441	11760
878.568	11703
878.696	11870
878.824	11863
878.951	11942
879.079	12041
879.206	12140
879.333	12026
879.461	11984
879.588	12053
879.715	12106
879.842	12277
879.97	12117
880.097	11878
880.224	12011
880.351	11942
880.478	11897
880.605	11855
880.732	11767
880.859	12041
880.986	11813
881.112	11855
881.239	11726
881.366	11771
881.493	11630
881.619	11486
881.746	11539
881.872	11524
881.999	11501
882.125	11467
882.252	11547
882.378	11562
882.505	11573
882.631	11379
882.757	11315
882.883	11322
883.01	11326
883.136	11159
883.262	11113
883.388	11117
883.514	11258
883.64	11220
883.766	11197
883.892	11071
884.018	10987
884.143	11079
884.269	11170
884.395	10942
884.52	10805
884.646	10850
884.772	10763
884.897	10717
885.023	10717
885.148	10748
885.274	10778
885.399	10702
885.524	10660
885.65	10535
885.775	10607
885.9	10584
886.025	10725
886.15	10497
886.275	10478
886.4	10417
886.525	10413
886.65	10352
886.775	10379
886.9	10478
887.025	10550
887.149	10390
887.274	10147
887.399	10211
887.523	10147
887.648	10166
887.773	10128
887.897	10322
888.021	10227
888.146	10101
888.27	10249
888.395	10284
888.519	10166
888.643	10234
888.767	10246
888.891	10059
889.015	9945
889.139	10010
889.263	9998
889.387	10086
889.511	10059
889.635	10006
889.759	9983
889.883	10044
890.006	9918
890.13	10188
890.254	9903
890.377	9972
890.501	9869
890.624	9857
890.748	9937
890.871	9838
890.995	9660
891.118	9713
891.241	9785
891.364	9785
891.488	9846
891.611	9781
891.734	9835
891.857	9717
891.98	9709
892.103	9743
892.226	9701
892.349	9694
892.471	9507
892.594	9591
892.717	9625
892.839	9671
892.962	9629
893.085	9671
893.207	9660
893.33	9526
893.452	9519
893.575	9637
893.697	9469
893.819	9584
893.941	9587
894.064	9701
894.186	9488
894.308	9412
894.43	9485
894.552	9488
894.674	9511
894.796	9450
894.918	9401
895.04	9317
895.161	9348
895.283	9351
895.405	9264
895.526	9245
895.648	9211
895.769	9264
895.891	9249
896.012	9298
896.134	9150
896.255	9184
896.376	9150
896.498	9173
896.619	9192
896.74	9085
896.861	9150
896.982	9298
897.103	9272
897.224	9165
897.345	9100
897.466	9001
897.587	9039
897.708	9077
897.828	8982
897.949	9009
898.07	8864
898.19	8986
898.311	9005
898.431	8982
898.552	8944
898.672	8982
898.792	9013
898.913	8883
899.033	8777
899.153	8788
899.273	8640
899.393	8785
899.513	8796
899.633	8689
899.753	8800
899.873	8743
899.993	8800
900.113	8682
900.232	8705
900.352	8705
900.472	8625
900.591	8541
900.711	8575
900.83	8568
900.95	8727
901.069	8731
901.189	8560
901.308	8511
901.427	8434
901.546	8484
901.665	8484
901.784	8518
901.904	8400
902.023	8404
902.141	8294
902.26	8233
902.379	8305
902.498	8240
902.617	8256
902.735	8313
902.854	8298
902.973	8336
903.091	8256
903.21	8103
903.328	8138
903.446	8145
903.565	8058
903.683	8065
903.801	8054
903.919	8138
904.038	8187
904.156	8043
904.274	8107
904.392	8035
904.51	8031
904.627	8054
904.745	8103
904.863	8149
904.981	7951
905.098	7814
905.216	7860
905.334	7898
905.451	7921
905.569	7887
905.686	7913
905.803	7852
905.921	7830
906.038	7928
906.155	7776
906.272	7753
906.389	7761
906.506	7723
906.623	7632
906.74	7590
906.857	7537
906.974	7563
907.091	7715
907.208	7799
907.324	7628
907.441	7552
907.557	7430
907.674	7400
907.79	7468
907.907	7419
908.023	7453
908.139	7487
908.256	7419
908.372	7388
908.488	7373
908.604	7255
908.72	7209
908.836	7247
908.952	7247
909.068	7293
909.184	7282
909.3	7232
909.415	7274
909.531	7289
909.647	7137
909.762	7137
909.878	7080
909.993	7187
910.108	7091
910.224	7107
910.339	7187
910.454	7034
910.57	7050
910.685	6977
910.8	7152
910.915	7149
911.03	7091
911.145	6962
911.259	6905
911.374	6886
911.489	6833
911.604	6798
911.718	6757
911.833	6760
911.947	6662
912.062	6585
912.176	6745
912.291	6726
912.405	6734
912.519	6829
912.633	6852
912.748	6719
912.862	6711
912.976	6646
913.09	6555
913.204	6662
913.318	6608
913.431	6722
913.545	6707
913.659	6760
913.772	6631
913.886	6563
914	6517
914.113	6658
914.226	6635
914.34	6578
914.453	6513
914.566	6604
914.68	6540
914.793	6559
914.906	6403
915.019	6410
915.132	6433
915.245	6422
915.358	6502
915.47	6475
915.583	6441
915.696	6479
915.809	6559
915.921	6582
916.034	6456
916.146	6479
916.259	6384
916.371	6483
916.483	6441
916.595	6384
916.708	6407
916.82	6372
916.932	6391
917.044	6426
917.156	6441
917.268	6372
917.38	6365
917.491	6361
917.603	6353
917.715	6407
917.826	6517
917.938	6357
918.049	6254
918.161	6353
918.272	6441
918.384	6399
918.495	6365
918.606	6262
918.717	6239
918.828	6311
918.939	6201
919.05	6178
919.161	6304
919.272	6091
919.383	6155
919.494	6311
919.604	6399
919.715	6281
919.826	6277
919.936	6315
920.047	6342
920.157	6365
920.267	6471
920.378	6334
920.488	6243
920.598	6464
920.708	6597
920.818	6490
920.928	6509
921.038	6612
921.148	6616
921.258	6391
921.368	6300
921.477	6300
921.587	6182
921.697	6190
921.806	6194
921.916	6068
922.025	5961
922.134	5935
922.244	5893
922.353	5969
922.462	5901
922.571	5798
922.68	5714
922.789	5688
922.898	5707
923.007	5623
923.116	5688
923.224	5672
923.333	5657
923.442	5661
923.55	5627
923.659	5630
923.767	5661
923.876	5589
923.984	5630
924.092	5516
924.201	5573
924.309	5585
924.417	5649
924.525	5528
924.633	5539
924.741	6194
924.849	5410
924.956	5482
925.064	5322
925.172	5326
925.279	5345
925.387	5326
925.494	5357
925.602	5448
925.709	5315
925.816	5311
925.924	5326
926.031	5402
926.138	5284
926.245	5349
926.352	5181
926.459	5349
926.566	5341
926.673	5201
926.779	5159
926.886	5128
926.993	5071
927.099	4991
927.206	4968
927.312	4999
927.419	5056
927.525	5014
927.631	5033
927.737	4904
927.843	4892
927.95	4759
928.056	4847
928.162	4866
928.267	4850
928.373	5318
928.479	4858
928.585	4710
928.69	4778
928.796	4774
928.901	4771
929.007	4660
929.112	4679
929.218	4653
929.323	4603
929.428	4573
929.533	4675
929.638	4497
929.743	4538
929.848	4565
929.953	4561
930.058	4424
930.163	4333
930.267	4348
930.372	4424
930.477	4337
930.581	4535
930.685	4390
930.79	4310
930.894	4299
930.998	4310
931.103	4409
931.207	4154
931.311	4131
931.415	4105
931.519	3964
931.623	3934
