Data from glass_V78500241_226.txt Node
Date: Wed Sep 01 19:16:03 CST 2021
User: usil
Spectrometer: V785-0024
Trigger mode: 0
Integration Time (sec): 4.000000E-1
Scans to average: 1
Nonlinearity correction enabled: false
Boxcar width: 0
Storing dark spectrum: false
XAxis mode: Wavelengths
Number of Pixels in Spectrum: 1024
>>>>>Begin Spectral Data<<<<<
801.071	3728
801.214	3740
801.356	3743
801.499	3740
801.641	3728
801.783	3762
801.926	3880
802.068	3835
802.211	3873
802.353	3869
802.496	3857
802.638	3861
802.78	3899
802.923	3941
803.065	3911
803.208	3903
803.35	3911
803.492	3892
803.635	3934
803.777	3781
803.919	3880
804.061	4196
804.204	3979
804.346	3994
804.488	3941
804.63	4036
804.773	4021
804.915	4017
805.057	4154
805.199	4040
805.341	4116
805.483	4147
805.626	4143
805.768	4109
805.91	4238
806.052	4204
806.194	4246
806.336	4394
806.478	4242
806.62	4200
806.762	4204
806.904	4280
807.046	4318
807.188	4177
807.33	4162
807.472	4238
807.614	4238
807.756	4265
807.898	4230
808.04	4196
808.182	4253
808.324	4367
808.465	4386
808.607	4440
808.749	4470
808.891	4466
809.033	4504
809.174	4375
809.316	4299
809.458	4253
809.6	4181
809.741	4196
809.883	4097
810.025	4211
810.166	4215
810.308	4253
810.45	4257
810.591	4223
810.733	4314
810.875	4512
811.016	4805
811.158	5159
811.299	5258
811.441	5311
811.582	5121
811.724	4694
811.865	4489
812.007	4504
812.148	4443
812.29	4421
812.431	4413
812.573	4413
812.714	4386
812.855	4462
812.997	4447
813.138	4493
813.279	4417
813.421	4409
813.562	4405
813.703	4314
813.845	4402
813.986	4280
814.127	4249
814.268	4295
814.41	4310
814.551	4261
814.692	4322
814.833	4299
814.974	4310
815.115	4371
815.256	4295
815.397	4211
815.539	4291
815.68	4196
815.821	4238
815.962	4337
816.103	4272
816.244	4219
816.385	4280
816.526	4295
816.666	4230
816.807	4131
816.948	4192
817.089	4154
817.23	4109
817.371	4063
817.512	4116
817.653	4093
817.793	4063
817.934	4071
818.075	4093
818.216	4131
818.356	4090
818.497	4017
818.638	3926
818.778	3941
818.919	3930
819.06	3892
819.2	3945
819.341	3880
819.481	3876
819.622	3934
819.762	4002
819.903	3937
820.043	3876
820.184	3850
820.324	3816
820.465	3892
820.605	3907
820.746	3892
820.886	3816
821.026	3937
821.167	3911
821.307	4002
821.447	4063
821.588	3968
821.728	3934
821.868	4006
822.008	3892
822.149	3934
822.289	3903
822.429	3793
822.569	3804
822.709	3831
822.849	3701
822.99	3743
823.13	3770
823.27	3808
823.41	3720
823.55	3766
823.69	3732
823.83	3762
823.97	3740
824.11	3599
824.25	3618
824.389	3675
824.529	3701
824.669	3641
824.809	3701
824.949	3759
825.089	3751
825.228	3698
825.368	3580
825.508	3603
825.648	3580
825.787	3644
825.927	3641
826.067	3648
826.206	3705
826.346	3766
826.485	3857
826.625	3892
826.765	3930
826.904	3831
827.044	3625
827.183	3557
827.323	3439
827.462	3511
827.601	3439
827.741	3420
827.88	3477
828.02	3389
828.159	3507
828.298	3534
828.437	3561
828.577	3511
828.716	3618
828.855	3500
828.994	3393
829.134	3397
829.273	3393
829.412	3359
829.551	3340
829.69	3370
829.829	3416
829.968	3523
830.107	3466
830.246	3454
830.385	3409
830.524	3378
830.663	3294
830.802	3275
830.941	3203
831.08	3142
831.219	3264
831.357	3306
831.496	3420
831.635	3222
831.774	3188
831.913	3176
832.051	3119
832.19	3138
832.329	3237
832.467	3154
832.606	3138
832.744	3188
832.883	3192
833.022	3203
833.16	3272
833.299	3298
833.437	3386
833.576	3378
833.714	3370
833.852	3458
833.991	3447
834.129	3511
834.267	3454
834.406	3409
834.544	3420
834.682	3458
834.821	3420
834.959	3576
835.097	3443
835.235	3545
835.373	3488
835.511	3515
835.65	3473
835.788	3488
835.926	3409
836.064	3374
836.202	3416
836.34	3576
836.478	3599
836.615	3561
836.753	3618
836.891	3675
837.029	3599
837.167	3606
837.305	3568
837.443	3542
837.58	3507
837.718	3614
837.856	3538
837.993	3568
838.131	3667
838.269	3599
838.406	3622
838.544	3576
838.681	3477
838.819	3481
838.956	3374
839.094	3401
839.231	3466
839.369	3496
839.506	3724
839.643	3629
839.781	3545
839.918	3496
840.055	3507
840.193	3553
840.33	3511
840.467	3576
840.604	3584
840.742	3835
840.879	3603
841.016	3587
841.153	3606
841.29	3743
841.427	3720
841.564	3705
841.701	3785
841.838	3690
841.975	3713
842.112	3755
842.249	3671
842.385	3698
842.522	3838
842.659	3717
842.796	3690
842.933	3698
843.069	3660
843.206	3694
843.343	3816
843.479	3838
843.616	3842
843.752	3679
843.889	3690
844.025	3846
844.162	3789
844.298	3850
844.435	3778
844.571	3846
844.708	3915
844.844	4006
844.98	4032
845.117	3998
845.253	3975
845.389	3926
845.525	3991
845.661	4013
845.798	3934
845.934	3975
846.07	3972
846.206	4032
846.342	4143
846.478	4120
846.614	4017
846.75	3979
846.886	3949
847.022	4063
847.158	4029
847.294	4010
847.429	4071
847.565	3968
847.701	4295
847.837	3880
847.972	3899
848.108	3972
848.244	3964
848.379	3865
848.515	3827
848.65	3789
848.786	3865
848.921	3907
849.057	3922
849.192	3979
849.328	3899
849.463	3937
849.598	3911
849.734	3896
849.869	3873
850.004	3816
850.14	3838
850.275	3823
850.41	3762
850.545	3766
850.68	3831
850.815	3762
850.95	3812
851.085	3945
851.22	3915
851.355	3846
851.49	3762
851.625	3789
851.76	3770
851.895	3774
852.03	3713
852.165	3827
852.299	3846
852.434	3930
852.569	3842
852.703	3884
852.838	3964
852.973	4036
853.107	4021
853.242	3922
853.376	3819
853.511	3785
853.645	3857
853.78	3987
853.914	3888
854.048	3869
854.183	3907
854.317	3983
854.451	4074
854.585	3979
854.72	3926
854.854	4078
854.988	3979
855.122	4021
855.256	3937
855.39	4036
855.524	4105
855.658	4143
855.792	4116
855.926	4166
856.06	4238
856.194	4223
856.327	4162
856.461	4143
856.595	4177
856.729	4204
856.862	4333
856.996	4306
857.13	4371
857.263	4367
857.397	4356
857.53	4310
857.664	4341
857.797	4436
857.931	4428
858.064	4421
858.197	4481
858.331	4428
858.464	4386
858.597	4356
858.731	4424
858.864	4443
858.997	4443
859.13	4535
859.263	4535
859.396	4618
859.529	4500
859.662	4538
859.795	4565
859.928	4637
860.061	4691
860.194	4752
860.327	4717
860.46	4687
860.592	4755
860.725	4782
860.858	4793
860.99	4755
861.123	4698
861.256	4698
861.388	4812
861.521	5353
861.653	4748
861.786	4740
861.918	4710
862.05	4828
862.183	4870
862.315	4904
862.447	4999
862.58	4919
862.712	4816
862.844	4809
862.976	4854
863.108	4900
863.24	5174
863.372	4889
863.504	4877
863.636	4908
863.768	4965
863.9	4938
864.032	4957
864.164	4927
864.296	5018
864.428	5052
864.559	5102
864.691	5121
864.823	5166
864.954	5136
865.086	5159
865.217	5128
865.349	5121
865.48	5189
865.612	5166
865.743	5273
865.875	5178
866.006	5189
866.137	5235
866.269	5307
866.4	5227
866.531	5223
866.662	5254
866.793	5318
866.924	5307
867.055	5326
867.186	5372
867.317	5318
867.448	5318
867.579	5429
867.71	5379
867.841	5395
867.972	5471
868.103	5520
868.233	5524
868.364	5482
868.495	5581
868.625	5646
868.756	5794
868.886	5729
869.017	5707
869.147	5836
869.278	5931
869.408	5859
869.539	5851
869.669	5904
869.799	5939
869.929	5988
870.06	6003
870.19	6213
870.32	6148
870.45	6323
870.58	6331
870.71	6445
870.84	6445
870.97	6456
871.1	6494
871.23	6662
871.36	6692
871.489	6684
871.619	6787
871.749	6810
871.879	6863
872.008	7015
872.138	7027
872.267	7050
872.397	7057
872.526	6996
872.656	7137
872.785	7213
872.915	7419
873.044	7514
873.173	7552
873.303	7658
873.432	7780
873.561	7879
873.69	7890
873.819	7997
873.948	8126
874.077	8313
874.206	8332
874.335	8461
874.464	8644
874.593	8807
874.722	8883
874.851	9135
874.979	9233
875.108	9462
875.237	9477
875.365	9488
875.494	9656
875.623	9869
875.751	9873
875.88	10044
876.008	10154
876.136	10314
876.265	10550
876.393	10649
876.521	10767
876.65	10866
876.778	10869
876.906	10915
877.034	11010
877.162	11014
877.29	11155
877.418	11307
877.546	11322
877.674	11497
877.802	11444
877.93	11547
878.058	11596
878.185	11509
878.313	11649
878.441	11783
878.568	11760
878.696	11824
878.824	11912
878.951	11897
879.079	12045
879.206	12144
879.333	12079
879.461	12022
879.588	12072
879.715	12121
879.842	12213
879.97	12064
880.097	11809
880.224	11817
880.351	11893
880.478	11897
880.605	11889
880.732	11840
880.859	11958
880.986	11863
881.112	11851
881.239	11661
881.366	11657
881.493	11619
881.619	11551
881.746	11577
881.872	11547
881.999	11497
882.125	11505
882.252	11539
882.378	11467
882.505	11573
882.631	11383
882.757	11307
882.883	11299
883.01	11254
883.136	11193
883.262	11170
883.388	11094
883.514	11197
883.64	11220
883.766	11083
883.892	10930
884.018	11029
884.143	11045
884.269	11174
884.395	10904
884.52	10862
884.646	10714
884.772	10675
884.897	10748
885.023	10736
885.148	10706
885.274	10740
885.399	10694
885.524	10603
885.65	10584
885.775	10546
885.9	10504
886.025	10569
886.15	10538
886.275	10466
886.4	10470
886.525	10459
886.65	10424
886.775	10394
886.9	10451
887.025	10508
887.149	10375
887.274	10268
887.399	10238
887.523	10196
887.648	10204
887.773	10185
887.897	10242
888.021	10299
888.146	10162
888.27	10268
888.395	10219
888.519	10230
888.643	10128
888.767	10249
888.891	10017
889.015	10055
889.139	10074
889.263	10029
889.387	10032
889.511	10166
889.635	10128
889.759	9907
889.883	9987
890.006	10032
890.13	10071
890.254	10017
890.377	9937
890.501	9880
890.624	9918
890.748	9854
890.871	9785
890.995	9778
891.118	9648
891.241	9705
891.364	9751
891.488	9827
891.611	9728
891.734	9644
891.857	9823
891.98	9732
892.103	9724
892.226	9686
892.349	9629
892.471	9553
892.594	9603
892.717	9606
892.839	9633
892.962	9686
893.085	9648
893.207	9606
893.33	9534
893.452	9553
893.575	9679
893.697	9511
893.819	9637
893.941	9591
894.064	9603
894.186	9367
894.308	9351
894.43	9549
894.552	9599
894.674	9469
894.796	9355
894.918	9397
895.04	9313
895.161	9325
895.283	9348
895.405	9321
895.526	9195
895.648	9222
895.769	9279
895.891	9367
896.012	9275
896.134	9256
896.255	9165
896.376	9116
896.498	9207
896.619	9070
896.74	9070
896.861	9089
896.982	9298
897.103	9310
897.224	9123
897.345	9135
897.466	9036
897.587	8979
897.708	9108
897.828	9058
897.949	8986
898.07	8868
898.19	8887
898.311	8994
898.431	8910
898.552	8967
898.672	9036
898.792	8963
898.913	8887
899.033	8838
899.153	8773
899.273	8667
899.393	8708
899.513	8834
899.633	8796
899.753	8762
899.873	8735
899.993	8754
900.113	8766
900.232	8727
900.352	8644
900.472	8602
900.591	8606
900.711	8602
900.83	8587
900.95	8670
901.069	8663
901.189	8598
901.308	8408
901.427	8332
901.546	8358
901.665	8427
901.784	8476
901.904	8438
902.023	8377
902.141	8221
902.26	8199
902.379	8252
902.498	8233
902.617	8256
902.735	8298
902.854	8256
902.973	8324
903.091	8138
903.21	8172
903.328	8161
903.446	8134
903.565	8096
903.683	8119
903.801	8081
903.919	8092
904.038	8096
904.156	7989
904.274	8069
904.392	8054
904.51	7997
904.627	8084
904.745	8065
904.863	8142
904.981	8043
905.098	7852
905.216	7887
905.334	7875
905.451	7932
905.569	7894
905.686	7928
905.803	7940
905.921	7807
906.038	7917
906.155	7856
906.272	7780
906.389	7727
906.506	7681
906.623	7624
906.74	7639
906.857	7632
906.974	7544
907.091	7681
907.208	7727
907.324	7601
907.441	7609
907.557	7464
907.674	7483
907.79	7403
907.907	7434
908.023	7434
908.139	7460
908.256	7411
908.372	7407
908.488	7343
908.604	7308
908.72	7282
908.836	7301
908.952	7274
909.068	7282
909.184	7312
909.3	7270
909.415	7289
909.531	7301
909.647	7133
909.762	7057
909.878	7160
909.993	7137
910.108	7126
910.224	7133
910.339	7103
910.454	7122
910.57	7091
910.685	6916
910.8	7126
910.915	7091
911.03	7042
911.145	6932
911.259	6814
911.374	6894
911.489	6825
911.604	6856
911.718	6711
911.833	6757
911.947	6684
912.062	6631
912.176	6700
912.291	6833
912.405	6700
912.519	6837
912.633	6871
912.748	6738
912.862	6715
912.976	6608
913.09	6559
913.204	6623
913.318	6639
913.431	6696
913.545	6722
913.659	6776
913.772	6658
913.886	6563
914	6593
914.113	6635
914.226	6642
914.34	6578
914.453	6490
914.566	6566
914.68	6540
914.793	6559
914.906	6433
915.019	6414
915.132	6376
915.245	6521
915.358	6475
915.47	6448
915.583	6517
915.696	6467
915.809	6547
915.921	6517
916.034	6460
916.146	6391
916.259	6376
916.371	6540
916.483	6437
916.595	6395
916.708	6384
916.82	6471
916.932	6422
917.044	6437
917.156	6380
917.268	6338
917.38	6334
917.491	6304
917.603	6334
917.715	6407
917.826	6418
917.938	6372
918.049	6300
918.161	6342
918.272	6399
918.384	6464
918.495	6380
918.606	6304
918.717	6205
918.828	6315
918.939	6266
919.05	6228
919.161	6201
919.272	6159
919.383	6129
919.494	6262
919.604	6448
919.715	6304
919.826	6209
919.936	6308
920.047	6331
920.157	6304
920.267	6441
920.378	6353
920.488	6243
920.598	6479
920.708	6559
920.818	6445
920.928	6456
921.038	6646
921.148	6551
921.258	6361
921.368	6308
921.477	6220
921.587	6140
921.697	6110
921.806	6129
921.916	6053
922.025	5973
922.134	5950
922.244	5882
922.353	6007
922.462	5859
922.571	5824
922.68	5786
922.789	5729
922.898	5657
923.007	5638
923.116	5756
923.224	5680
923.333	5699
923.442	5562
923.55	5596
923.659	5554
923.767	5661
923.876	5630
923.984	5577
924.092	5524
924.201	5539
924.309	5516
924.417	5589
924.525	5505
924.633	5543
924.741	6258
924.849	5357
924.956	5486
925.064	5345
925.172	5299
925.279	5326
925.387	5372
925.494	5383
925.602	5455
925.709	5455
925.816	5280
925.924	5341
926.031	5395
926.138	5288
926.245	5376
926.352	5269
926.459	5292
926.566	5337
926.673	5220
926.779	5147
926.886	5109
926.993	5025
927.099	5045
927.206	4987
927.312	4953
927.419	5029
927.525	4995
927.631	4984
927.737	4904
927.843	4873
927.95	4763
928.056	4797
928.162	4824
928.267	4835
928.373	5288
928.479	4850
928.585	4698
928.69	4805
928.796	4778
928.901	4683
929.007	4626
929.112	4717
929.218	4656
929.323	4618
929.428	4569
929.533	4721
929.638	4577
929.743	4508
929.848	4558
929.953	4542
930.058	4466
930.163	4375
930.267	4367
930.372	4459
930.477	4322
930.581	4489
930.685	4394
930.79	4272
930.894	4314
930.998	4242
931.103	4413
931.207	4192
931.311	4071
931.415	4093
931.519	3899
931.623	3953
