Data from glass_V78500241_2177.txt Node
Date: Wed Sep 01 19:29:35 CST 2021
User: usil
Spectrometer: V785-0024
Trigger mode: 0
Integration Time (sec): 4.000000E-1
Scans to average: 1
Nonlinearity correction enabled: false
Boxcar width: 0
Storing dark spectrum: false
XAxis mode: Wavelengths
Number of Pixels in Spectrum: 1024
>>>>>Begin Spectral Data<<<<<
801.071	3743
801.214	3732
801.356	3660
801.499	3724
801.641	3717
801.783	3778
801.926	3865
802.068	3797
802.211	3888
802.353	3884
802.496	3808
802.638	3861
802.78	3896
802.923	3899
803.065	3922
803.208	3827
803.35	3869
803.492	3915
803.635	3888
803.777	3789
803.919	3880
804.061	4200
804.204	3979
804.346	3930
804.488	3941
804.63	4059
804.773	3941
804.915	3983
805.057	4147
805.199	4029
805.341	4082
805.483	4131
805.626	4093
805.768	4143
805.91	4192
806.052	4265
806.194	4188
806.336	4348
806.478	4215
806.62	4177
806.762	4162
806.904	4223
807.046	4295
807.188	4166
807.33	4166
807.472	4200
807.614	4150
807.756	4291
807.898	4196
808.04	4196
808.182	4280
808.324	4337
808.465	4379
808.607	4451
808.749	4459
808.891	4451
809.033	4500
809.174	4375
809.316	4280
809.458	4230
809.6	4116
809.741	4143
809.883	4207
810.025	4207
810.166	4207
810.308	4215
810.45	4230
810.591	4219
810.733	4295
810.875	4531
811.016	4816
811.158	5136
811.299	5273
811.441	5292
811.582	5075
811.724	4721
811.865	4447
812.007	4436
812.148	4428
812.29	4409
812.431	4386
812.573	4394
812.714	4367
812.855	4390
812.997	4383
813.138	4462
813.279	4390
813.421	4329
813.562	4367
813.703	4329
813.845	4314
813.986	4268
814.127	4238
814.268	4325
814.41	4287
814.551	4265
814.692	4272
814.833	4257
814.974	4310
815.115	4360
815.256	4207
815.397	4196
815.539	4291
815.68	4169
815.821	4204
815.962	4341
816.103	4257
816.244	4215
816.385	4249
816.526	4268
816.666	4223
816.807	4086
816.948	4131
817.089	4177
817.23	4093
817.371	4059
817.512	4086
817.653	4097
817.793	4029
817.934	4044
818.075	4101
818.216	4067
818.356	4135
818.497	3994
818.638	3937
818.778	3918
818.919	3903
819.06	3846
819.2	3884
819.341	3888
819.481	3789
819.622	3903
819.762	3983
819.903	3907
820.043	3854
820.184	3819
820.324	3816
820.465	3857
820.605	3831
820.746	3880
820.886	3827
821.026	3926
821.167	3926
821.307	3972
821.447	3953
821.588	3918
821.728	3975
821.868	3934
822.008	3850
822.149	3903
822.289	3934
822.429	3766
822.569	3762
822.709	3808
822.849	3682
822.99	3724
823.13	3751
823.27	3781
823.41	3713
823.55	3728
823.69	3732
823.83	3736
823.97	3656
824.11	3618
824.25	3591
824.389	3644
824.529	3652
824.669	3644
824.809	3728
824.949	3728
825.089	3755
825.228	3675
825.368	3542
825.508	3557
825.648	3591
825.787	3622
825.927	3671
826.067	3644
826.206	3663
826.346	3755
826.485	3812
826.625	3865
826.765	3926
826.904	3819
827.044	3610
827.183	3515
827.323	3424
827.462	3462
827.601	3443
827.741	3428
827.88	3435
828.02	3397
828.159	3401
828.298	3462
828.437	3515
828.577	3435
828.716	3584
828.855	3488
828.994	3389
829.134	3313
829.273	3378
829.412	3359
829.551	3329
829.69	3355
829.829	3428
829.968	3511
830.107	3382
830.246	3439
830.385	3359
830.524	3351
830.663	3298
830.802	3260
830.941	3207
831.08	3203
831.219	3241
831.357	3237
831.496	3439
831.635	3184
831.774	3195
831.913	3195
832.051	3116
832.19	3157
832.329	3192
832.467	3123
832.606	3066
832.744	3188
832.883	3184
833.022	3222
833.16	3230
833.299	3298
833.437	3325
833.576	3374
833.714	3382
833.852	3412
833.991	3439
834.129	3435
834.267	3469
834.406	3397
834.544	3424
834.682	3420
834.821	3405
834.959	3599
835.097	3458
835.235	3576
835.373	3450
835.511	3481
835.65	3458
835.788	3485
835.926	3401
836.064	3367
836.202	3359
836.34	3564
836.478	3637
836.615	3523
836.753	3614
836.891	3660
837.029	3656
837.167	3599
837.305	3564
837.443	3511
837.58	3500
837.718	3564
837.856	3530
837.993	3538
838.131	3606
838.269	3576
838.406	3526
838.544	3595
838.681	3473
838.819	3412
838.956	3359
839.094	3370
839.231	3424
839.369	3519
839.506	3720
839.643	3614
839.781	3454
839.918	3447
840.055	3538
840.193	3542
840.33	3515
840.467	3534
840.604	3618
840.742	3778
840.879	3568
841.016	3568
841.153	3599
841.29	3743
841.427	3743
841.564	3736
841.701	3686
841.838	3698
841.975	3660
842.112	3732
842.249	3648
842.385	3618
842.522	3812
842.659	3686
842.796	3690
842.933	3713
843.069	3690
843.206	3682
843.343	3789
843.479	3766
843.616	3823
843.752	3660
843.889	3701
844.025	3804
844.162	3652
844.298	3854
844.435	3740
844.571	3808
844.708	3892
844.844	3956
844.98	4002
845.117	3991
845.253	3922
845.389	3922
845.525	3991
845.661	3994
845.798	3896
845.934	4006
846.07	3987
846.206	4059
846.342	4120
846.478	4044
846.614	3922
846.75	3934
846.886	3896
847.022	3994
847.158	3960
847.294	4010
847.429	3991
847.565	4006
847.701	4253
847.837	3896
847.972	3873
848.108	3972
848.244	3934
848.379	3888
848.515	3797
848.65	3793
848.786	3766
848.921	3892
849.057	3896
849.192	3899
849.328	3899
849.463	3911
849.598	3899
849.734	3884
849.869	3827
850.004	3770
850.14	3793
850.275	3774
850.41	3755
850.545	3751
850.68	3762
850.815	3854
850.95	3793
851.085	3934
851.22	3888
851.355	3823
851.49	3785
851.625	3827
851.76	3797
851.895	3762
852.03	3694
852.165	3774
852.299	3857
852.434	3888
852.569	3896
852.703	3899
852.838	3922
852.973	4048
853.107	3960
853.242	3907
853.376	3850
853.511	3766
853.645	3797
853.78	3926
853.914	3934
854.048	3903
854.183	3899
854.317	3979
854.451	4093
854.585	3949
854.72	3964
854.854	4017
854.988	3892
855.122	3979
855.256	3937
855.39	4013
855.524	4135
855.658	4078
855.792	4112
855.926	4128
856.06	4162
856.194	4200
856.327	4169
856.461	4120
856.595	4120
856.729	4188
856.862	4287
856.996	4234
857.13	4291
857.263	4295
857.397	4348
857.53	4284
857.664	4352
857.797	4405
857.931	4375
858.064	4367
858.197	4432
858.331	4367
858.464	4402
858.597	4306
858.731	4413
858.864	4481
858.997	4481
859.13	4523
859.263	4538
859.396	4538
859.529	4500
859.662	4516
859.795	4462
859.928	4611
860.061	4687
860.194	4729
860.327	4691
860.46	4656
860.592	4675
860.725	4733
860.858	4744
860.99	4702
861.123	4710
861.256	4675
861.388	4763
861.521	5429
861.653	4714
861.786	4706
861.918	4748
862.05	4782
862.183	4824
862.315	4854
862.447	4915
862.58	4866
862.712	4755
862.844	4801
862.976	4847
863.108	4843
863.24	5132
863.372	4809
863.504	4885
863.636	4881
863.768	4957
863.9	4942
864.032	4911
864.164	4972
864.296	5022
864.428	5098
864.559	5067
864.691	5071
864.823	5075
864.954	5143
865.086	5159
865.217	5075
865.349	5098
865.48	5132
865.612	5166
865.743	5242
865.875	5212
866.006	5220
866.137	5216
866.269	5159
866.4	5299
866.531	5231
866.662	5208
866.793	5254
866.924	5292
867.055	5303
867.186	5349
867.317	5337
867.448	5303
867.579	5406
867.71	5345
867.841	5372
867.972	5467
868.103	5440
868.233	5455
868.364	5452
868.495	5547
868.625	5649
868.756	5764
868.886	5627
869.017	5813
869.147	5851
869.278	5893
869.408	5855
869.539	5779
869.669	5973
869.799	5920
869.929	5999
870.06	6019
870.19	6133
870.32	6125
870.45	6270
870.58	6311
870.71	6456
870.84	6486
870.97	6429
871.1	6429
871.23	6665
871.36	6681
871.489	6654
871.619	6738
871.749	6806
871.879	6768
872.008	6958
872.138	6928
872.267	6958
872.397	7000
872.526	7042
872.656	7095
872.785	7232
872.915	7377
873.044	7544
873.173	7540
873.303	7681
873.432	7765
873.561	7811
873.69	7871
873.819	8020
873.948	8153
874.077	8290
874.206	8301
874.335	8480
874.464	8598
874.593	8868
874.722	8899
874.851	9097
874.979	9211
875.108	9325
875.237	9374
875.365	9412
875.494	9622
875.623	9766
875.751	9861
875.88	9972
876.008	10105
876.136	10211
876.265	10497
876.393	10679
876.521	10755
876.65	10862
876.778	10927
876.906	10904
877.034	11029
877.162	11117
877.29	11151
877.418	11307
877.546	11299
877.674	11436
877.802	11474
877.93	11543
878.058	11547
878.185	11589
878.313	11615
878.441	11741
878.568	11634
878.696	11729
878.824	11923
878.951	11882
879.079	11977
879.206	12140
879.333	12079
879.461	12003
879.588	12060
879.715	12057
879.842	12175
879.97	12015
880.097	11897
880.224	11931
880.351	11870
880.478	11969
880.605	11885
880.732	11798
880.859	11946
880.986	11828
881.112	11874
881.239	11627
881.366	11676
881.493	11551
881.619	11532
881.746	11524
881.872	11505
881.999	11493
882.125	11429
882.252	11558
882.378	11471
882.505	11509
882.631	11360
882.757	11288
882.883	11383
883.01	11337
883.136	11212
883.262	11143
883.388	11064
883.514	11223
883.64	11117
883.766	11048
883.892	11010
884.018	11025
884.143	11071
884.269	11025
884.395	10869
884.52	10790
884.646	10850
884.772	10672
884.897	10729
885.023	10687
885.148	10668
885.274	10714
885.399	10679
885.524	10519
885.65	10573
885.775	10630
885.9	10573
886.025	10554
886.15	10615
886.275	10409
886.4	10341
886.525	10352
886.65	10341
886.775	10310
886.9	10538
887.025	10565
887.149	10253
887.274	10219
887.399	10166
887.523	10169
887.648	10101
887.773	10101
887.897	10261
888.021	10211
888.146	10128
888.27	10192
888.395	10219
888.519	10078
888.643	10158
888.767	10135
888.891	10101
889.015	10029
889.139	9960
889.263	9907
889.387	9994
889.511	10116
889.635	10101
889.759	9964
889.883	9953
890.006	9998
890.13	10002
890.254	9911
890.377	10021
890.501	9899
890.624	9850
890.748	9865
890.871	9789
890.995	9686
891.118	9720
891.241	9686
891.364	9751
891.488	9812
891.611	9751
891.734	9736
891.857	9781
891.98	9694
892.103	9713
892.226	9713
892.349	9663
892.471	9473
892.594	9587
892.717	9591
892.839	9549
892.962	9606
893.085	9644
893.207	9526
893.33	9534
893.452	9523
893.575	9572
893.697	9523
893.819	9587
893.941	9652
894.064	9622
894.186	9420
894.308	9447
894.43	9542
894.552	9591
894.674	9500
894.796	9336
894.918	9370
895.04	9351
895.161	9332
895.283	9283
895.405	9283
895.526	9214
895.648	9237
895.769	9256
895.891	9184
896.012	9367
896.134	9192
896.255	9173
896.376	9176
896.498	9093
896.619	9108
896.74	8990
896.861	8990
896.982	9173
897.103	9287
897.224	9108
897.345	9097
897.466	8979
897.587	9001
897.708	9017
897.828	8990
897.949	8948
898.07	8883
898.19	8918
898.311	9005
898.431	8834
898.552	8952
898.672	8967
898.792	8914
898.913	8986
899.033	8769
899.153	8674
899.273	8682
899.393	8689
899.513	8777
899.633	8724
899.753	8720
899.873	8743
899.993	8746
900.113	8678
900.232	8636
900.352	8663
900.472	8590
900.591	8598
900.711	8488
900.83	8522
900.95	8587
901.069	8697
901.189	8545
901.308	8423
901.427	8484
901.546	8389
901.665	8473
901.784	8530
901.904	8431
902.023	8271
902.141	8199
902.26	8187
902.379	8279
902.498	8180
902.617	8267
902.735	8271
902.854	8259
902.973	8240
903.091	8103
903.21	8134
903.328	8225
903.446	8050
903.565	8039
903.683	8100
903.801	8073
903.919	8142
904.038	8103
904.156	8039
904.274	8123
904.392	7997
904.51	8084
904.627	8073
904.745	8050
904.863	8077
904.981	7955
905.098	7814
905.216	7811
905.334	7826
905.451	7795
905.569	7906
905.686	7909
905.803	7906
905.921	7772
906.038	7955
906.155	7670
906.272	7753
906.389	7746
906.506	7575
906.623	7628
906.74	7571
906.857	7605
906.974	7502
907.091	7681
907.208	7772
907.324	7643
907.441	7655
907.557	7422
907.674	7438
907.79	7388
907.907	7339
908.023	7430
908.139	7468
908.256	7346
908.372	7384
908.488	7350
908.604	7285
908.72	7217
908.836	7228
908.952	7232
909.068	7251
909.184	7293
909.3	7236
909.415	7331
909.531	7221
909.647	7129
909.762	7099
909.878	7053
909.993	7110
910.108	7072
910.224	7042
910.339	7072
910.454	7065
910.57	6989
910.685	6913
910.8	7168
910.915	7126
911.03	7061
911.145	6905
911.259	6916
911.374	6913
911.489	6821
911.604	6818
911.718	6677
911.833	6734
911.947	6669
912.062	6547
912.176	6669
912.291	6707
912.405	6635
912.519	6783
912.633	6837
912.748	6688
912.862	6665
912.976	6627
913.09	6513
913.204	6597
913.318	6608
913.431	6707
913.545	6662
913.659	6711
913.772	6662
913.886	6528
914	6582
914.113	6612
914.226	6597
914.34	6616
914.453	6460
914.566	6536
914.68	6498
914.793	6521
914.906	6456
915.019	6384
915.132	6369
915.245	6395
915.358	6460
915.47	6456
915.583	6395
915.696	6418
915.809	6517
915.921	6513
916.034	6445
916.146	6380
916.259	6376
916.371	6506
916.483	6380
916.595	6338
916.708	6429
916.82	6395
916.932	6353
917.044	6407
917.156	6403
917.268	6334
917.38	6361
917.491	6346
917.603	6418
917.715	6452
917.826	6361
917.938	6338
918.049	6205
918.161	6315
918.272	6433
918.384	6486
918.495	6304
918.606	6258
918.717	6197
918.828	6247
918.939	6213
919.05	6270
919.161	6232
919.272	6125
919.383	6121
919.494	6239
919.604	6376
919.715	6285
919.826	6194
919.936	6277
920.047	6361
920.157	6296
920.267	6445
920.378	6327
920.488	6277
920.598	6433
920.708	6612
920.818	6464
920.928	6471
921.038	6612
921.148	6616
921.258	6292
921.368	6277
921.477	6171
921.587	6178
921.697	6064
921.806	6148
921.916	5996
922.025	5958
922.134	5870
922.244	5828
922.353	5920
922.462	5847
922.571	5779
922.68	5737
922.789	5672
922.898	5729
923.007	5627
923.116	5722
923.224	5653
923.333	5661
923.442	5630
923.55	5562
923.659	5634
923.767	5630
923.876	5524
923.984	5596
924.092	5478
924.201	5585
924.309	5516
924.417	5524
924.525	5429
924.633	5482
924.741	6254
924.849	5372
924.956	5474
925.064	5364
925.172	5322
925.279	5303
925.387	5368
925.494	5330
925.602	5414
925.709	5406
925.816	5265
925.924	5277
926.031	5337
926.138	5307
926.245	5341
926.352	5223
926.459	5296
926.566	5341
926.673	5227
926.779	5121
926.886	5124
926.993	5018
927.099	4968
927.206	4995
927.312	4991
927.419	5048
927.525	4942
927.631	4965
927.737	4843
927.843	4854
927.95	4759
928.056	4812
928.162	4744
928.267	4847
928.373	5383
928.479	4881
928.585	4660
928.69	4763
928.796	4774
928.901	4714
929.007	4580
929.112	4672
929.218	4634
929.323	4641
929.428	4569
929.533	4645
929.638	4489
929.743	4500
929.848	4538
929.953	4565
930.058	4402
930.163	4341
930.267	4356
930.372	4440
930.477	4261
930.581	4455
930.685	4360
930.79	4257
930.894	4276
930.998	4257
931.103	4390
931.207	4147
931.311	4040
931.415	4040
931.519	3934
931.623	3956
