Data from glass_V78500241_1055.txt Node
Date: Wed Sep 01 19:21:48 CST 2021
User: usil
Spectrometer: V785-0024
Trigger mode: 0
Integration Time (sec): 4.000000E-1
Scans to average: 1
Nonlinearity correction enabled: false
Boxcar width: 0
Storing dark spectrum: false
XAxis mode: Wavelengths
Number of Pixels in Spectrum: 1024
>>>>>Begin Spectral Data<<<<<
801.071	3709
801.214	3736
801.356	3713
801.499	3728
801.641	3736
801.783	3823
801.926	3823
802.068	3880
802.211	3956
802.353	3899
802.496	3865
802.638	3899
802.78	3926
802.923	3972
803.065	3857
803.208	3884
803.35	3888
803.492	3903
803.635	3918
803.777	3823
803.919	3854
804.061	4135
804.204	3968
804.346	3953
804.488	3994
804.63	4017
804.773	4006
804.915	4040
805.057	4131
805.199	4059
805.341	4116
805.483	4192
805.626	4150
805.768	4105
805.91	4227
806.052	4291
806.194	4223
806.336	4303
806.478	4234
806.62	4219
806.762	4181
806.904	4287
807.046	4363
807.188	4223
807.33	4185
807.472	4284
807.614	4204
807.756	4303
807.898	4196
808.04	4261
808.182	4295
808.324	4344
808.465	4383
808.607	4462
808.749	4447
808.891	4466
809.033	4481
809.174	4390
809.316	4276
809.458	4227
809.6	4162
809.741	4154
809.883	4177
810.025	4215
810.166	4173
810.308	4204
810.45	4299
810.591	4227
810.733	4310
810.875	4546
811.016	4850
811.158	5132
811.299	5299
811.441	5239
811.582	5060
811.724	4714
811.865	4504
812.007	4455
812.148	4462
812.29	4360
812.431	4405
812.573	4409
812.714	4386
812.855	4436
812.997	4451
813.138	4466
813.279	4398
813.421	4344
813.562	4428
813.703	4356
813.845	4295
813.986	4257
814.127	4257
814.268	4272
814.41	4268
814.551	4299
814.692	4337
814.833	4257
814.974	4314
815.115	4314
815.256	4265
815.397	4284
815.539	4295
815.68	4192
815.821	4227
815.962	4306
816.103	4322
816.244	4204
816.385	4268
816.526	4268
816.666	4219
816.807	4124
816.948	4158
817.089	4215
817.23	4131
817.371	4093
817.512	4055
817.653	4139
817.793	4025
817.934	4086
818.075	4101
818.216	4059
818.356	4112
818.497	4006
818.638	3918
818.778	3979
818.919	3945
819.06	3873
819.2	3930
819.341	3880
819.481	3846
819.622	3915
819.762	4055
819.903	3907
820.043	3861
820.184	3842
820.324	3838
820.465	3865
820.605	3899
820.746	3831
820.886	3781
821.026	3964
821.167	3960
821.307	3991
821.447	4029
821.588	3941
821.728	3979
821.868	3964
822.008	3846
822.149	3918
822.289	3934
822.429	3842
822.569	3781
822.709	3819
822.849	3709
822.99	3751
823.13	3740
823.27	3785
823.41	3720
823.55	3770
823.69	3724
823.83	3755
823.97	3644
824.11	3614
824.25	3595
824.389	3641
824.529	3622
824.669	3622
824.809	3728
824.949	3785
825.089	3762
825.228	3759
825.368	3595
825.508	3599
825.648	3614
825.787	3595
825.927	3675
826.067	3671
826.206	3656
826.346	3766
826.485	3831
826.625	3873
826.765	3975
826.904	3873
827.044	3652
827.183	3515
827.323	3416
827.462	3511
827.601	3450
827.741	3424
827.88	3439
828.02	3370
828.159	3420
828.298	3485
828.437	3542
828.577	3488
828.716	3595
828.855	3519
828.994	3359
829.134	3382
829.273	3405
829.412	3363
829.551	3340
829.69	3340
829.829	3439
829.968	3526
830.107	3462
830.246	3485
830.385	3431
830.524	3348
830.663	3313
830.802	3230
830.941	3222
831.08	3226
831.219	3291
831.357	3283
831.496	3389
831.635	3260
831.774	3192
831.913	3207
832.051	3142
832.19	3192
832.329	3176
832.467	3173
832.606	3127
832.744	3199
832.883	3222
833.022	3222
833.16	3268
833.299	3317
833.437	3310
833.576	3378
833.714	3405
833.852	3435
833.991	3462
834.129	3488
834.267	3435
834.406	3420
834.544	3443
834.682	3405
834.821	3431
834.959	3587
835.097	3431
835.235	3549
835.373	3530
835.511	3526
835.65	3485
835.788	3488
835.926	3389
836.064	3405
836.202	3393
836.34	3561
836.478	3637
836.615	3553
836.753	3622
836.891	3679
837.029	3568
837.167	3622
837.305	3526
837.443	3561
837.58	3511
837.718	3610
837.856	3584
837.993	3568
838.131	3591
838.269	3572
838.406	3557
838.544	3618
838.681	3496
838.819	3500
838.956	3412
839.094	3412
839.231	3450
839.369	3553
839.506	3755
839.643	3660
839.781	3504
839.918	3466
840.055	3542
840.193	3519
840.33	3526
840.467	3538
840.604	3614
840.742	3819
840.879	3526
841.016	3576
841.153	3595
841.29	3709
841.427	3747
841.564	3686
841.701	3762
841.838	3755
841.975	3694
842.112	3720
842.249	3682
842.385	3633
842.522	3854
842.659	3694
842.796	3671
842.933	3694
843.069	3701
843.206	3709
843.343	3812
843.479	3835
843.616	3873
843.752	3686
843.889	3682
844.025	3850
844.162	3728
844.298	3842
844.435	3831
844.571	3781
844.708	3873
844.844	3975
844.98	4044
845.117	4044
845.253	3930
845.389	3869
845.525	4002
845.661	3968
845.798	3926
845.934	4055
846.07	4013
846.206	4078
846.342	4128
846.478	4051
846.614	3975
846.75	3956
846.886	3975
847.022	4082
847.158	4017
847.294	4010
847.429	4063
847.565	3964
847.701	4284
847.837	3915
847.972	3873
848.108	3968
848.244	3983
848.379	3880
848.515	3812
848.65	3850
848.786	3869
848.921	3865
849.057	3896
849.192	3934
849.328	3899
849.463	3972
849.598	3899
849.734	3861
849.869	3816
850.004	3800
850.14	3804
850.275	3800
850.41	3759
850.545	3774
850.68	3793
850.815	3781
850.95	3808
851.085	3937
851.22	3903
851.355	3804
851.49	3797
851.625	3797
851.76	3804
851.895	3717
852.03	3778
852.165	3789
852.299	3846
852.434	3918
852.569	3857
852.703	3899
852.838	3975
852.973	3991
853.107	4048
853.242	3899
853.376	3835
853.511	3774
853.645	3850
853.78	3956
853.914	3892
854.048	3865
854.183	3876
854.317	3941
854.451	4090
854.585	3922
854.72	3934
854.854	4040
854.988	3926
855.122	4017
855.256	3949
855.39	4044
855.524	4078
855.658	4116
855.792	4109
855.926	4154
856.06	4188
856.194	4249
856.327	4173
856.461	4147
856.595	4131
856.729	4200
856.862	4325
856.996	4238
857.13	4295
857.263	4325
857.397	4379
857.53	4314
857.664	4348
857.797	4405
857.931	4405
858.064	4398
858.197	4428
858.331	4405
858.464	4341
858.597	4405
858.731	4428
858.864	4497
858.997	4478
859.13	4478
859.263	4546
859.396	4653
859.529	4519
859.662	4535
859.795	4527
859.928	4634
860.061	4706
860.194	4752
860.327	4660
860.46	4736
860.592	4721
860.725	4778
860.858	4778
860.99	4733
861.123	4691
861.256	4706
861.388	4763
861.521	5353
861.653	4736
861.786	4767
861.918	4759
862.05	4801
862.183	4847
862.315	4881
862.447	4927
862.58	4889
862.712	4797
862.844	4748
862.976	4854
863.108	4824
863.24	5235
863.372	4835
863.504	4919
863.636	4938
863.768	4961
863.9	4961
864.032	4949
864.164	5048
864.296	5083
864.428	5079
864.559	5056
864.691	5121
864.823	5151
864.954	5124
865.086	5143
865.217	5166
865.349	5086
865.48	5170
865.612	5220
865.743	5322
865.875	5227
866.006	5204
866.137	5315
866.269	5235
866.4	5280
866.531	5201
866.662	5254
866.793	5311
866.924	5315
867.055	5307
867.186	5326
867.317	5337
867.448	5341
867.579	5391
867.71	5368
867.841	5448
867.972	5444
868.103	5425
868.233	5505
868.364	5486
868.495	5630
868.625	5672
868.756	5783
868.886	5665
869.017	5726
869.147	5859
869.278	5870
869.408	5859
869.539	5809
869.669	5969
869.799	5935
869.929	5977
870.06	6038
870.19	6167
870.32	6197
870.45	6254
870.58	6353
870.71	6403
870.84	6429
870.97	6471
871.1	6429
871.23	6658
871.36	6757
871.489	6639
871.619	6730
871.749	6802
871.879	6913
872.008	7000
872.138	6989
872.267	7000
872.397	6996
872.526	7038
872.656	7145
872.785	7213
872.915	7396
873.044	7468
873.173	7533
873.303	7647
873.432	7837
873.561	7871
873.69	7940
873.819	8031
873.948	8221
874.077	8244
874.206	8381
874.335	8450
874.464	8670
874.593	8925
874.722	8906
874.851	9135
874.979	9230
875.108	9363
875.237	9424
875.365	9526
875.494	9682
875.623	9781
875.751	9873
875.88	10002
876.008	10147
876.136	10272
876.265	10596
876.393	10721
876.521	10748
876.65	10885
876.778	10892
876.906	10957
877.034	10953
877.162	11075
877.29	11136
877.418	11364
877.546	11493
877.674	11554
877.802	11417
877.93	11611
878.058	11535
878.185	11535
878.313	11680
878.441	11741
878.568	11691
878.696	11745
878.824	11805
878.951	11912
879.079	11923
879.206	12175
879.333	12060
879.461	11958
879.588	12087
879.715	12060
879.842	12114
879.97	12034
880.097	11920
880.224	11866
880.351	11817
880.478	11901
880.605	11783
880.732	11843
880.859	11996
880.986	11783
881.112	11889
881.239	11726
881.366	11748
881.493	11646
881.619	11585
881.746	11608
881.872	11589
881.999	11524
882.125	11505
882.252	11566
882.378	11528
882.505	11528
882.631	11337
882.757	11334
882.883	11349
883.01	11292
883.136	11223
883.262	11105
883.388	11128
883.514	11231
883.64	11288
883.766	11193
883.892	10984
884.018	10991
884.143	11067
884.269	11121
884.395	10824
884.52	10755
884.646	10725
884.772	10759
884.897	10702
885.023	10698
885.148	10729
885.274	10809
885.399	10675
885.524	10645
885.65	10588
885.775	10626
885.9	10542
886.025	10588
886.15	10561
886.275	10424
886.4	10341
886.525	10390
886.65	10398
886.775	10344
886.9	10497
887.025	10569
887.149	10356
887.274	10325
887.399	10181
887.523	10291
887.648	10234
887.773	10150
887.897	10299
888.021	10253
888.146	10112
888.27	10272
888.395	10253
888.519	10150
888.643	10143
888.767	10192
888.891	10150
889.015	9960
889.139	10093
889.263	9926
889.387	10059
889.511	10120
889.635	10082
889.759	9983
889.883	10021
890.006	10120
890.13	10120
890.254	9960
890.377	9937
890.501	9869
890.624	9915
890.748	9964
890.871	9778
890.995	9743
891.118	9705
891.241	9766
891.364	9736
891.488	9838
891.611	9709
891.734	9781
891.857	9808
891.98	9774
892.103	9717
892.226	9690
892.349	9652
892.471	9557
892.594	9637
892.717	9652
892.839	9591
892.962	9614
893.085	9679
893.207	9526
893.33	9519
893.452	9648
893.575	9603
893.697	9568
893.819	9599
893.941	9644
894.064	9606
894.186	9416
894.308	9420
894.43	9519
894.552	9526
894.674	9466
894.796	9393
894.918	9412
895.04	9317
895.161	9386
895.283	9378
895.405	9317
895.526	9237
895.648	9199
895.769	9272
895.891	9253
896.012	9329
896.134	9249
896.255	9165
896.376	9165
896.498	9245
896.619	9138
896.74	9119
896.861	9112
896.982	9275
897.103	9329
897.224	9176
897.345	9100
897.466	9028
897.587	9017
897.708	9097
897.828	8998
897.949	8952
898.07	8883
898.19	8937
898.311	9116
898.431	8941
898.552	8986
898.672	9028
898.792	9005
898.913	8960
899.033	8853
899.153	8766
899.273	8651
899.393	8743
899.513	8739
899.633	8762
899.753	8758
899.873	8663
899.993	8727
900.113	8659
900.232	8697
900.352	8708
900.472	8575
900.591	8518
900.711	8663
900.83	8556
900.95	8625
901.069	8697
901.189	8602
901.308	8514
901.427	8351
901.546	8446
901.665	8465
901.784	8507
901.904	8381
902.023	8328
902.141	8202
902.26	8267
902.379	8267
902.498	8248
902.617	8142
902.735	8317
902.854	8282
902.973	8275
903.091	8134
903.21	8084
903.328	8157
903.446	8119
903.565	8103
903.683	8107
903.801	8050
903.919	8206
904.038	8126
904.156	8100
904.274	8016
904.392	8016
904.51	8012
904.627	8069
904.745	8043
904.863	8149
904.981	7917
905.098	7913
905.216	7868
905.334	7940
905.451	7940
905.569	7909
905.686	7947
905.803	7963
905.921	7734
906.038	7978
906.155	7807
906.272	7727
906.389	7681
906.506	7636
906.623	7666
906.74	7597
906.857	7537
906.974	7586
907.091	7677
907.208	7734
907.324	7647
907.441	7594
907.557	7480
907.674	7502
907.79	7426
907.907	7396
908.023	7476
908.139	7449
908.256	7415
908.372	7392
908.488	7343
908.604	7335
908.72	7190
908.836	7263
908.952	7259
909.068	7324
909.184	7270
909.3	7244
909.415	7324
909.531	7293
909.647	7152
909.762	7114
909.878	7187
909.993	7118
910.108	7061
910.224	7065
910.339	7133
910.454	7046
910.57	6970
910.685	6977
910.8	7213
910.915	7149
911.03	7038
911.145	6882
911.259	6837
911.374	6897
911.489	6886
911.604	6837
911.718	6749
911.833	6749
911.947	6662
912.062	6616
912.176	6745
912.291	6783
912.405	6707
912.519	6856
912.633	6878
912.748	6753
912.862	6711
912.976	6658
913.09	6612
913.204	6646
913.318	6612
913.431	6745
913.545	6719
913.659	6730
913.772	6608
913.886	6563
914	6582
914.113	6585
914.226	6662
914.34	6574
914.453	6464
914.566	6597
914.68	6544
914.793	6544
914.906	6426
915.019	6467
915.132	6369
915.245	6467
915.358	6437
915.47	6494
915.583	6479
915.696	6456
915.809	6525
915.921	6589
916.034	6448
916.146	6437
916.259	6460
916.371	6509
916.483	6445
916.595	6391
916.708	6403
916.82	6410
916.932	6380
917.044	6445
917.156	6395
917.268	6365
917.38	6323
917.491	6342
917.603	6384
917.715	6456
917.826	6403
917.938	6342
918.049	6243
918.161	6319
918.272	6426
918.384	6467
918.495	6391
918.606	6239
918.717	6224
918.828	6213
918.939	6247
919.05	6190
919.161	6285
919.272	6148
919.383	6171
919.494	6308
919.604	6452
919.715	6296
919.826	6228
919.936	6209
920.047	6380
920.157	6281
920.267	6414
920.378	6277
920.488	6304
920.598	6502
920.708	6574
920.818	6490
920.928	6464
921.038	6639
921.148	6574
921.258	6308
921.368	6296
921.477	6213
921.587	6182
921.697	6083
921.806	6140
921.916	6106
922.025	5980
922.134	5954
922.244	5885
922.353	5999
922.462	5851
922.571	5745
922.68	5790
922.789	5672
922.898	5771
923.007	5623
923.116	5714
923.224	5665
923.333	5756
923.442	5577
923.55	5558
923.659	5623
923.767	5653
923.876	5543
923.984	5585
924.092	5520
924.201	5509
924.309	5520
924.417	5543
924.525	5547
924.633	5562
924.741	6296
924.849	5379
924.956	5486
925.064	5417
925.172	5360
925.279	5318
925.387	5349
925.494	5376
925.602	5459
925.709	5360
925.816	5284
925.924	5288
926.031	5330
926.138	5265
926.245	5353
926.352	5250
926.459	5318
926.566	5299
926.673	5246
926.779	5124
926.886	5098
926.993	5071
927.099	5003
927.206	4984
927.312	4911
927.419	5045
927.525	4961
927.631	4957
927.737	4919
927.843	4854
927.95	4790
928.056	4824
928.162	4812
928.267	4881
928.373	5395
928.479	4877
928.585	4729
928.69	4786
928.796	4793
928.901	4725
929.007	4626
929.112	4634
929.218	4683
929.323	4626
929.428	4630
929.533	4694
929.638	4535
929.743	4546
929.848	4523
929.953	4508
930.058	4459
930.163	4314
930.267	4371
930.372	4443
930.477	4284
930.581	4493
930.685	4409
930.79	4242
930.894	4318
930.998	4234
931.103	4402
931.207	4147
931.311	4082
931.415	4055
931.519	3949
931.623	3926
