Data from glass_V78500241_2539.txt Node
Date: Wed Sep 01 19:32:06 CST 2021
User: usil
Spectrometer: V785-0024
Trigger mode: 0
Integration Time (sec): 4.000000E-1
Scans to average: 1
Nonlinearity correction enabled: false
Boxcar width: 0
Storing dark spectrum: false
XAxis mode: Wavelengths
Number of Pixels in Spectrum: 1024
>>>>>Begin Spectral Data<<<<<
801.071	3736
801.214	3717
801.356	3728
801.499	3736
801.641	3698
801.783	3762
801.926	3865
802.068	3781
802.211	3857
802.353	3850
802.496	3812
802.638	3857
802.78	3869
802.923	3907
803.065	3888
803.208	3812
803.35	3880
803.492	3869
803.635	3930
803.777	3766
803.919	3857
804.061	4169
804.204	3964
804.346	3979
804.488	3941
804.63	4029
804.773	3991
804.915	3979
805.057	4093
805.199	4055
805.341	4071
805.483	4109
805.626	4124
805.768	4139
805.91	4242
806.052	4196
806.194	4200
806.336	4314
806.478	4215
806.62	4162
806.762	4169
806.904	4242
807.046	4325
807.188	4177
807.33	4169
807.472	4207
807.614	4169
807.756	4253
807.898	4162
808.04	4200
808.182	4284
808.324	4318
808.465	4405
808.607	4421
808.749	4474
808.891	4466
809.033	4474
809.174	4386
809.316	4234
809.458	4234
809.6	4143
809.741	4158
809.883	4128
810.025	4196
810.166	4207
810.308	4219
810.45	4196
810.591	4249
810.733	4242
810.875	4512
811.016	4793
811.158	5113
811.299	5254
811.441	5322
811.582	5037
811.724	4691
811.865	4459
812.007	4474
812.148	4447
812.29	4424
812.431	4405
812.573	4371
812.714	4356
812.855	4405
812.997	4413
813.138	4451
813.279	4443
813.421	4337
813.562	4341
813.703	4337
813.845	4348
813.986	4219
814.127	4204
814.268	4280
814.41	4287
814.551	4200
814.692	4337
814.833	4246
814.974	4287
815.115	4325
815.256	4234
815.397	4223
815.539	4306
815.68	4207
815.821	4207
815.962	4337
816.103	4291
816.244	4185
816.385	4219
816.526	4268
816.666	4147
816.807	4116
816.948	4128
817.089	4181
817.23	4086
817.371	4048
817.512	4059
817.653	4093
817.793	4040
817.934	4044
818.075	4101
818.216	4029
818.356	4074
818.497	4006
818.638	3915
818.778	3884
818.919	3911
819.06	3854
819.2	3941
819.341	3861
819.481	3827
819.622	3857
819.762	3987
819.903	3884
820.043	3873
820.184	3865
820.324	3831
820.465	3888
820.605	3842
820.746	3838
820.886	3774
821.026	3915
821.167	3911
821.307	3945
821.447	3983
821.588	3937
821.728	3960
821.868	3945
822.008	3854
822.149	3884
822.289	3865
822.429	3770
822.569	3751
822.709	3793
822.849	3690
822.99	3690
823.13	3755
823.27	3789
823.41	3682
823.55	3713
823.69	3675
823.83	3728
823.97	3656
824.11	3603
824.25	3584
824.389	3644
824.529	3675
824.669	3637
824.809	3675
824.949	3736
825.089	3732
825.228	3698
825.368	3561
825.508	3576
825.648	3587
825.787	3606
825.927	3580
826.067	3644
826.206	3675
826.346	3762
826.485	3808
826.625	3854
826.765	3922
826.904	3808
827.044	3587
827.183	3504
827.323	3409
827.462	3477
827.601	3405
827.741	3389
827.88	3450
828.02	3351
828.159	3443
828.298	3496
828.437	3534
828.577	3488
828.716	3587
828.855	3507
828.994	3367
829.134	3359
829.273	3344
829.412	3378
829.551	3370
829.69	3355
829.829	3443
829.968	3492
830.107	3424
830.246	3424
830.385	3389
830.524	3291
830.663	3253
830.802	3275
830.941	3199
831.08	3230
831.219	3245
831.357	3260
831.496	3435
831.635	3211
831.774	3165
831.913	3195
832.051	3116
832.19	3119
832.329	3192
832.467	3112
832.606	3112
832.744	3192
832.883	3161
833.022	3195
833.16	3245
833.299	3256
833.437	3317
833.576	3344
833.714	3374
833.852	3409
833.991	3435
834.129	3450
834.267	3439
834.406	3397
834.544	3420
834.682	3439
834.821	3401
834.959	3584
835.097	3412
835.235	3561
835.373	3496
835.511	3492
835.65	3466
835.788	3488
835.926	3336
836.064	3382
836.202	3386
836.34	3557
836.478	3568
836.615	3526
836.753	3595
836.891	3633
837.029	3606
837.167	3614
837.305	3553
837.443	3504
837.58	3523
837.718	3591
837.856	3557
837.993	3492
838.131	3534
838.269	3561
838.406	3549
838.544	3564
838.681	3469
838.819	3439
838.956	3397
839.094	3348
839.231	3454
839.369	3511
839.506	3717
839.643	3675
839.781	3439
839.918	3466
840.055	3454
840.193	3523
840.33	3523
840.467	3530
840.604	3606
840.742	3755
840.879	3507
841.016	3504
841.153	3595
841.29	3759
841.427	3740
841.564	3717
841.701	3679
841.838	3694
841.975	3663
842.112	3736
842.249	3629
842.385	3610
842.522	3800
842.659	3701
842.796	3644
842.933	3709
843.069	3690
843.206	3660
843.343	3835
843.479	3823
843.616	3819
843.752	3671
843.889	3618
844.025	3873
844.162	3743
844.298	3873
844.435	3770
844.571	3770
844.708	3899
844.844	3991
844.98	3975
845.117	4017
845.253	3899
845.389	3937
845.525	3945
845.661	3945
845.798	3956
845.934	3956
846.07	3979
846.206	4048
846.342	4074
846.478	4025
846.614	3987
846.75	3876
846.886	3899
847.022	4021
847.158	3975
847.294	3972
847.429	4006
847.565	3987
847.701	4207
847.837	3869
847.972	3846
848.108	3934
848.244	3907
848.379	3865
848.515	3804
848.65	3808
848.786	3827
848.921	3842
849.057	3892
849.192	3930
849.328	3896
849.463	3934
849.598	3873
849.734	3861
849.869	3835
850.004	3797
850.14	3831
850.275	3759
850.41	3728
850.545	3732
850.68	3728
850.815	3793
850.95	3766
851.085	3911
851.22	3831
851.355	3804
851.49	3800
851.625	3785
851.76	3766
851.895	3740
852.03	3705
852.165	3774
852.299	3861
852.434	3915
852.569	3892
852.703	3873
852.838	3911
852.973	3949
853.107	3991
853.242	3922
853.376	3823
853.511	3819
853.645	3778
853.78	3953
853.914	3865
854.048	3907
854.183	3888
854.317	3907
854.451	4086
854.585	3945
854.72	3960
854.854	4055
854.988	3918
855.122	3994
855.256	3941
855.39	3998
855.524	4082
855.658	4086
855.792	4116
855.926	4147
856.06	4112
856.194	4181
856.327	4093
856.461	4124
856.595	4093
856.729	4147
856.862	4249
856.996	4204
857.13	4276
857.263	4360
857.397	4333
857.53	4261
857.664	4325
857.797	4360
857.931	4394
858.064	4344
858.197	4424
858.331	4379
858.464	4352
858.597	4363
858.731	4447
858.864	4421
858.997	4516
859.13	4497
859.263	4535
859.396	4565
859.529	4531
859.662	4474
859.795	4466
859.928	4592
860.061	4660
860.194	4698
860.327	4679
860.46	4626
860.592	4679
860.725	4744
860.858	4721
860.99	4672
861.123	4683
861.256	4683
861.388	4744
861.521	5368
861.653	4717
861.786	4691
861.918	4759
862.05	4793
862.183	4835
862.315	4843
862.447	4930
862.58	4858
862.712	4866
862.844	4736
862.976	4904
863.108	4866
863.24	5170
863.372	4782
863.504	4923
863.636	4881
863.768	4961
863.9	4999
864.032	4923
864.164	5014
864.296	4987
864.428	5056
864.559	5071
864.691	5071
864.823	5052
864.954	5136
865.086	5117
865.217	5128
865.349	5064
865.48	5174
865.612	5121
865.743	5250
865.875	5235
866.006	5166
866.137	5227
866.269	5193
866.4	5242
866.531	5273
866.662	5254
866.793	5269
866.924	5292
867.055	5345
867.186	5349
867.317	5299
867.448	5299
867.579	5368
867.71	5345
867.841	5402
867.972	5459
868.103	5509
868.233	5444
868.364	5459
868.495	5539
868.625	5661
868.756	5779
868.886	5710
869.017	5726
869.147	5821
869.278	5870
869.408	5809
869.539	5866
869.669	5904
869.799	5935
869.929	6019
870.06	5958
870.19	6182
870.32	6228
870.45	6251
870.58	6289
870.71	6388
870.84	6433
870.97	6456
871.1	6475
871.23	6612
871.36	6696
871.489	6620
871.619	6726
871.749	6768
871.879	6871
872.008	6973
872.138	6966
872.267	6970
872.397	6993
872.526	7031
872.656	7095
872.785	7187
872.915	7381
873.044	7529
873.173	7502
873.303	7636
873.432	7715
873.561	7849
873.69	7890
873.819	7978
873.948	8237
874.077	8233
874.206	8336
874.335	8408
874.464	8583
874.593	8880
874.722	8899
874.851	9116
874.979	9226
875.108	9416
875.237	9469
875.365	9481
875.494	9717
875.623	9770
875.751	9869
875.88	9972
876.008	10150
876.136	10265
876.265	10550
876.393	10618
876.521	10721
876.65	10862
876.778	10843
876.906	10873
877.034	11014
877.162	11075
877.29	11159
877.418	11212
877.546	11395
877.674	11448
877.802	11520
877.93	11414
878.058	11528
878.185	11554
878.313	11657
878.441	11665
878.568	11608
878.696	11851
878.824	11847
878.951	11954
879.079	12064
879.206	12129
879.333	12079
879.461	11942
879.588	12155
879.715	12011
879.842	12292
879.97	12015
880.097	11885
880.224	11897
880.351	11870
880.478	11942
880.605	11798
880.732	11786
880.859	11984
880.986	11809
881.112	11878
881.239	11794
881.366	11680
881.493	11528
881.619	11554
881.746	11634
881.872	11509
881.999	11482
882.125	11486
882.252	11486
882.378	11398
882.505	11512
882.631	11395
882.757	11223
882.883	11269
883.01	11284
883.136	11124
883.262	11197
883.388	11102
883.514	11254
883.64	11166
883.766	11174
883.892	10991
884.018	10972
884.143	11079
884.269	11079
884.395	10873
884.52	10710
884.646	10733
884.772	10744
884.897	10664
885.023	10675
885.148	10748
885.274	10733
885.399	10493
885.524	10630
885.65	10565
885.775	10565
885.9	10584
886.025	10679
886.15	10561
886.275	10493
886.4	10421
886.525	10451
886.65	10386
886.775	10371
886.9	10531
887.025	10443
887.149	10322
887.274	10196
887.399	10150
887.523	10192
887.648	10029
887.773	10162
887.897	10211
888.021	10181
888.146	10143
888.27	10204
888.395	10227
888.519	10211
888.643	10181
888.767	10169
888.891	10051
889.015	9991
889.139	10051
889.263	10002
889.387	10120
889.511	10116
889.635	10040
889.759	9987
889.883	9964
890.006	9960
890.13	10040
890.254	9926
890.377	9987
890.501	9846
890.624	9869
890.748	9880
890.871	9804
890.995	9781
891.118	9743
891.241	9800
891.364	9755
891.488	9762
891.611	9804
891.734	9728
891.857	9705
891.98	9690
892.103	9747
892.226	9770
892.349	9603
892.471	9507
892.594	9584
892.717	9606
892.839	9606
892.962	9595
893.085	9705
893.207	9549
893.33	9469
893.452	9515
893.575	9641
893.697	9469
893.819	9595
893.941	9580
894.064	9580
894.186	9416
894.308	9374
894.43	9549
894.552	9519
894.674	9507
894.796	9363
894.918	9393
895.04	9374
895.161	9424
895.283	9279
895.405	9188
895.526	9226
895.648	9222
895.769	9256
895.891	9233
896.012	9310
896.134	9287
896.255	9150
896.376	9203
896.498	9070
896.619	9093
896.74	9005
896.861	9127
896.982	9233
897.103	9317
897.224	9199
897.345	9062
897.466	9032
897.587	8990
897.708	9097
897.828	9005
897.949	8895
898.07	8899
898.19	8975
898.311	8975
898.431	8902
898.552	8895
898.672	8921
898.792	8967
898.913	8845
899.033	8766
899.153	8727
899.273	8625
899.393	8735
899.513	8697
899.633	8777
899.753	8686
899.873	8606
899.993	8788
900.113	8682
900.232	8731
900.352	8636
900.472	8602
900.591	8530
900.711	8511
900.83	8522
900.95	8693
901.069	8670
901.189	8590
901.308	8446
901.427	8339
901.546	8412
901.665	8492
901.784	8457
901.904	8374
902.023	8385
902.141	8199
902.26	8225
902.379	8305
902.498	8176
902.617	8195
902.735	8336
902.854	8240
902.973	8229
903.091	8100
903.21	8138
903.328	8183
903.446	8081
903.565	8035
903.683	8035
903.801	8073
903.919	8092
904.038	8172
904.156	8035
904.274	8062
904.392	8058
904.51	8020
904.627	8069
904.745	8008
904.863	8065
904.981	7932
905.098	7879
905.216	7883
905.334	7875
905.451	7894
905.569	7871
905.686	7967
905.803	7936
905.921	7731
906.038	7849
906.155	7784
906.272	7712
906.389	7734
906.506	7677
906.623	7533
906.74	7601
906.857	7590
906.974	7556
907.091	7670
907.208	7693
907.324	7609
907.441	7552
907.557	7388
907.674	7438
907.79	7411
907.907	7430
908.023	7430
908.139	7354
908.256	7324
908.372	7426
908.488	7350
908.604	7285
908.72	7209
908.836	7331
908.952	7251
909.068	7289
909.184	7259
909.3	7266
909.415	7251
909.531	7247
909.647	7114
909.762	7103
909.878	7091
909.993	7126
910.108	7072
910.224	7053
910.339	7057
910.454	7050
910.57	6989
910.685	6943
910.8	7190
910.915	7114
911.03	6977
911.145	6909
911.259	6894
911.374	6844
911.489	6814
911.604	6856
911.718	6753
911.833	6776
911.947	6620
912.062	6578
912.176	6764
912.291	6692
912.405	6734
912.519	6768
912.633	6806
912.748	6719
912.862	6696
912.976	6612
913.09	6506
913.204	6635
913.318	6578
913.431	6707
913.545	6673
913.659	6681
913.772	6662
913.886	6563
914	6544
914.113	6566
914.226	6620
914.34	6521
914.453	6486
914.566	6642
914.68	6445
914.793	6521
914.906	6418
915.019	6418
915.132	6315
915.245	6372
915.358	6410
915.47	6429
915.583	6426
915.696	6528
915.809	6502
915.921	6532
916.034	6407
916.146	6433
916.259	6372
916.371	6452
916.483	6494
916.595	6327
916.708	6407
916.82	6346
916.932	6361
917.044	6433
917.156	6464
917.268	6296
917.38	6292
917.491	6270
917.603	6414
917.715	6357
917.826	6422
917.938	6327
918.049	6205
918.161	6311
918.272	6372
918.384	6384
918.495	6350
918.606	6254
918.717	6178
918.828	6292
918.939	6273
919.05	6175
919.161	6258
919.272	6091
919.383	6201
919.494	6292
919.604	6361
919.715	6277
919.826	6228
919.936	6277
920.047	6323
920.157	6239
920.267	6441
920.378	6289
920.488	6304
920.598	6433
920.708	6544
920.818	6445
920.928	6418
921.038	6582
921.148	6486
921.258	6388
921.368	6315
921.477	6228
921.587	6182
921.697	6087
921.806	6159
921.916	6045
922.025	5973
922.134	5939
922.244	5805
922.353	5965
922.462	5851
922.571	5752
922.68	5729
922.789	5634
922.898	5680
923.007	5608
923.116	5710
923.224	5699
923.333	5649
923.442	5577
923.55	5596
923.659	5596
923.767	5570
923.876	5577
923.984	5604
924.092	5474
924.201	5566
924.309	5592
924.417	5589
924.525	5486
924.633	5474
924.741	6296
924.849	5368
924.956	5429
925.064	5444
925.172	5307
925.279	5277
925.387	5349
925.494	5303
925.602	5425
925.709	5334
925.816	5334
925.924	5299
926.031	5349
926.138	5345
926.245	5296
926.352	5197
926.459	5315
926.566	5322
926.673	5201
926.779	5121
926.886	5090
926.993	5037
927.099	4949
927.206	5006
927.312	4949
927.419	5018
927.525	4961
927.631	4980
927.737	4934
927.843	4847
927.95	4778
928.056	4805
928.162	4809
928.267	4862
928.373	5261
928.479	4858
928.585	4645
928.69	4774
928.796	4759
928.901	4675
929.007	4577
929.112	4649
929.218	4626
929.323	4634
929.428	4519
929.533	4664
929.638	4500
929.743	4542
929.848	4558
929.953	4542
930.058	4428
930.163	4325
930.267	4383
930.372	4405
930.477	4299
930.581	4500
930.685	4352
930.79	4249
930.894	4284
930.998	4265
931.103	4383
931.207	4131
931.311	4071
931.415	4006
931.519	3907
931.623	3926
