Data from glass_V78500241_810.txt Node
Date: Wed Sep 01 19:20:06 CST 2021
User: usil
Spectrometer: V785-0024
Trigger mode: 0
Integration Time (sec): 4.000000E-1
Scans to average: 1
Nonlinearity correction enabled: false
Boxcar width: 0
Storing dark spectrum: false
XAxis mode: Wavelengths
Number of Pixels in Spectrum: 1024
>>>>>Begin Spectral Data<<<<<
801.071	3762
801.214	3781
801.356	3709
801.499	3755
801.641	3762
801.783	3743
801.926	3915
802.068	3831
802.211	3892
802.353	3846
802.496	3865
802.638	3861
802.78	3884
802.923	3968
803.065	3873
803.208	3842
803.35	3884
803.492	3903
803.635	3915
803.777	3831
803.919	3888
804.061	4131
804.204	3998
804.346	3964
804.488	3915
804.63	4048
804.773	3964
804.915	4036
805.057	4131
805.199	4051
805.341	4116
805.483	4112
805.626	4135
805.768	4101
805.91	4249
806.052	4227
806.194	4200
806.336	4363
806.478	4219
806.62	4192
806.762	4166
806.904	4287
807.046	4360
807.188	4196
807.33	4173
807.472	4227
807.614	4185
807.756	4280
807.898	4249
808.04	4227
808.182	4261
808.324	4352
808.465	4386
808.607	4447
808.749	4474
808.891	4474
809.033	4531
809.174	4436
809.316	4234
809.458	4253
809.6	4154
809.741	4147
809.883	4109
810.025	4181
810.166	4249
810.308	4261
810.45	4227
810.591	4249
810.733	4303
810.875	4535
811.016	4809
811.158	5117
811.299	5292
811.441	5284
811.582	5056
811.724	4672
811.865	4497
812.007	4512
812.148	4455
812.29	4436
812.431	4417
812.573	4421
812.714	4417
812.855	4379
812.997	4470
813.138	4527
813.279	4417
813.421	4375
813.562	4417
813.703	4348
813.845	4337
813.986	4284
814.127	4234
814.268	4284
814.41	4306
814.551	4295
814.692	4329
814.833	4299
814.974	4337
815.115	4367
815.256	4280
815.397	4268
815.539	4230
815.68	4207
815.821	4230
815.962	4344
816.103	4276
816.244	4246
816.385	4242
816.526	4284
816.666	4242
816.807	4120
816.948	4169
817.089	4185
817.23	4150
817.371	4078
817.512	4071
817.653	4071
817.793	4040
817.934	4063
818.075	4063
818.216	4082
818.356	4112
818.497	3998
818.638	3926
818.778	3941
818.919	3907
819.06	3865
819.2	3964
819.341	3850
819.481	3850
819.622	3896
819.762	3998
819.903	3998
820.043	3854
820.184	3831
820.324	3808
820.465	3911
820.605	3869
820.746	3888
820.886	3835
821.026	3888
821.167	3892
821.307	3991
821.447	3972
821.588	3960
821.728	3964
821.868	3945
822.008	3865
822.149	3903
822.289	3941
822.429	3804
822.569	3770
822.709	3865
822.849	3736
822.99	3717
823.13	3755
823.27	3808
823.41	3720
823.55	3724
823.69	3698
823.83	3774
823.97	3694
824.11	3644
824.25	3610
824.389	3648
824.529	3690
824.669	3633
824.809	3720
824.949	3751
825.089	3724
825.228	3682
825.368	3591
825.508	3584
825.648	3576
825.787	3629
825.927	3633
826.067	3633
826.206	3656
826.346	3808
826.485	3846
826.625	3888
826.765	3975
826.904	3880
827.044	3614
827.183	3557
827.323	3504
827.462	3485
827.601	3466
827.741	3443
827.88	3469
828.02	3370
828.159	3450
828.298	3488
828.437	3549
828.577	3477
828.716	3679
828.855	3511
828.994	3401
829.134	3344
829.273	3355
829.412	3332
829.551	3389
829.69	3386
829.829	3428
829.968	3526
830.107	3462
830.246	3439
830.385	3412
830.524	3363
830.663	3283
830.802	3275
830.941	3211
831.08	3222
831.219	3268
831.357	3268
831.496	3431
831.635	3226
831.774	3203
831.913	3192
832.051	3123
832.19	3188
832.329	3184
832.467	3154
832.606	3131
832.744	3184
832.883	3214
833.022	3237
833.16	3298
833.299	3317
833.437	3344
833.576	3382
833.714	3378
833.852	3466
833.991	3500
834.129	3492
834.267	3428
834.406	3412
834.544	3462
834.682	3431
834.821	3382
834.959	3614
835.097	3431
835.235	3523
835.373	3447
835.511	3477
835.65	3412
835.788	3485
835.926	3420
836.064	3359
836.202	3416
836.34	3591
836.478	3637
836.615	3599
836.753	3637
836.891	3618
837.029	3629
837.167	3587
837.305	3557
837.443	3534
837.58	3496
837.718	3595
837.856	3538
837.993	3549
838.131	3591
838.269	3614
838.406	3614
838.544	3580
838.681	3473
838.819	3462
838.956	3424
839.094	3401
839.231	3454
839.369	3496
839.506	3743
839.643	3652
839.781	3515
839.918	3488
840.055	3553
840.193	3572
840.33	3549
840.467	3542
840.604	3580
840.742	3835
840.879	3557
841.016	3603
841.153	3587
841.29	3778
841.427	3717
841.564	3759
841.701	3785
841.838	3720
841.975	3686
842.112	3728
842.249	3629
842.385	3675
842.522	3808
842.659	3717
842.796	3694
842.933	3740
843.069	3717
843.206	3724
843.343	3812
843.479	3835
843.616	3827
843.752	3652
843.889	3690
844.025	3835
844.162	3732
844.298	3789
844.435	3804
844.571	3759
844.708	3941
844.844	4025
844.98	4017
845.117	4040
845.253	3972
845.389	3861
845.525	3964
845.661	3972
845.798	3987
845.934	4017
846.07	3994
846.206	4048
846.342	4128
846.478	4063
846.614	3975
846.75	3964
846.886	3876
847.022	4044
847.158	3987
847.294	4006
847.429	4067
847.565	3994
847.701	4242
847.837	3892
847.972	3888
848.108	3979
848.244	4055
848.379	3896
848.515	3850
848.65	3816
848.786	3880
848.921	3846
849.057	3991
849.192	3956
849.328	3907
849.463	3964
849.598	3934
849.734	3888
849.869	3835
850.004	3755
850.14	3800
850.275	3808
850.41	3755
850.545	3770
850.68	3751
850.815	3808
850.95	3831
851.085	3972
851.22	3903
851.355	3846
851.49	3797
851.625	3793
851.76	3835
851.895	3778
852.03	3762
852.165	3827
852.299	3880
852.434	3915
852.569	3892
852.703	3888
852.838	3907
852.973	3998
853.107	4017
853.242	3915
853.376	3884
853.511	3770
853.645	3823
853.78	3953
853.914	3896
854.048	3964
854.183	3907
854.317	3884
854.451	4036
854.585	3930
854.72	3915
854.854	4017
854.988	3960
855.122	3991
855.256	3960
855.39	4044
855.524	4128
855.658	4093
855.792	4109
855.926	4128
856.06	4185
856.194	4215
856.327	4150
856.461	4124
856.595	4181
856.729	4147
856.862	4295
856.996	4188
857.13	4306
857.263	4299
857.397	4341
857.53	4257
857.664	4295
857.797	4459
857.931	4462
858.064	4360
858.197	4459
858.331	4413
858.464	4413
858.597	4360
858.731	4443
858.864	4493
858.997	4436
859.13	4481
859.263	4603
859.396	4577
859.529	4546
859.662	4489
859.795	4531
859.928	4622
860.061	4668
860.194	4702
860.327	4694
860.46	4622
860.592	4729
860.725	4721
860.858	4733
860.99	4675
861.123	4687
861.256	4672
861.388	4767
861.521	5417
861.653	4752
861.786	4721
861.918	4782
862.05	4809
862.183	4820
862.315	4911
862.447	4999
862.58	4984
862.712	4790
862.844	4759
862.976	4881
863.108	4911
863.24	5318
863.372	4870
863.504	4900
863.636	4881
863.768	4904
863.9	4980
864.032	4934
864.164	4980
864.296	5052
864.428	5071
864.559	5121
864.691	5121
864.823	5132
864.954	5117
865.086	5105
865.217	5201
865.349	5098
865.48	5162
865.612	5159
865.743	5330
865.875	5231
866.006	5185
866.137	5265
866.269	5258
866.4	5258
866.531	5242
866.662	5254
866.793	5292
866.924	5284
867.055	5345
867.186	5303
867.317	5341
867.448	5368
867.579	5391
867.71	5349
867.841	5311
867.972	5448
868.103	5490
868.233	5452
868.364	5490
868.495	5547
868.625	5688
868.756	5836
868.886	5688
869.017	5771
869.147	5916
869.278	5893
869.408	5847
869.539	5866
869.669	5961
869.799	5904
869.929	5992
870.06	6041
870.19	6232
870.32	6228
870.45	6239
870.58	6346
870.71	6448
870.84	6490
870.97	6498
871.1	6475
871.23	6684
871.36	6741
871.489	6707
871.619	6711
871.749	6745
871.879	6894
872.008	6973
872.138	6932
872.267	7057
872.397	7015
872.526	6958
872.656	7080
872.785	7221
872.915	7403
873.044	7582
873.173	7616
873.303	7632
873.432	7750
873.561	7845
873.69	7947
873.819	8016
873.948	8187
874.077	8237
874.206	8374
874.335	8461
874.464	8636
874.593	8929
874.722	8914
874.851	9089
874.979	9195
875.108	9435
875.237	9424
875.365	9443
875.494	9663
875.623	9838
875.751	9850
875.88	10040
876.008	10101
876.136	10284
876.265	10504
876.393	10649
876.521	10691
876.65	10820
876.778	10889
876.906	10965
877.034	11003
877.162	11143
877.29	11090
877.418	11280
877.546	11368
877.674	11406
877.802	11391
877.93	11592
878.058	11585
878.185	11554
878.313	11707
878.441	11718
878.568	11627
878.696	11775
878.824	11863
878.951	12030
879.079	12007
879.206	12083
879.333	12091
879.461	12076
879.588	12125
879.715	12087
879.842	12251
879.97	12057
880.097	11904
880.224	11961
880.351	11889
880.478	11965
880.605	11851
880.732	11824
880.859	12015
880.986	11824
881.112	11832
881.239	11802
881.366	11596
881.493	11627
881.619	11471
881.746	11501
881.872	11478
881.999	11623
882.125	11448
882.252	11493
882.378	11463
882.505	11512
882.631	11383
882.757	11315
882.883	11356
883.01	11204
883.136	11155
883.262	11124
883.388	11109
883.514	11242
883.64	11079
883.766	11109
883.892	11029
884.018	11010
884.143	11086
884.269	11090
884.395	10805
884.52	10847
884.646	10786
884.772	10717
884.897	10733
885.023	10755
885.148	10759
885.274	10740
885.399	10736
885.524	10542
885.65	10615
885.775	10592
885.9	10485
886.025	10546
886.15	10596
886.275	10417
886.4	10329
886.525	10360
886.65	10333
886.775	10318
886.9	10516
887.025	10554
887.149	10398
887.274	10284
887.399	10223
887.523	10128
887.648	10154
887.773	10120
887.897	10299
888.021	10291
888.146	10120
888.27	10287
888.395	10143
888.519	10116
888.643	10150
888.767	10223
888.891	10036
889.015	10032
889.139	10071
889.263	9945
889.387	10059
889.511	10147
889.635	10032
889.759	9968
889.883	9915
890.006	10013
890.13	10093
890.254	9949
890.377	9956
890.501	9842
890.624	9915
890.748	9892
890.871	9778
890.995	9762
891.118	9785
891.241	9827
891.364	9740
891.488	9736
891.611	9842
891.734	9713
891.857	9800
891.98	9740
892.103	9842
892.226	9720
892.349	9641
892.471	9591
892.594	9599
892.717	9595
892.839	9553
892.962	9667
893.085	9682
893.207	9576
893.33	9545
893.452	9587
893.575	9610
893.697	9500
893.819	9641
893.941	9610
894.064	9591
894.186	9370
894.308	9401
894.43	9481
894.552	9648
894.674	9561
894.796	9454
894.918	9458
895.04	9374
895.161	9336
895.283	9325
895.405	9241
895.526	9203
895.648	9287
895.769	9192
895.891	9264
896.012	9260
896.134	9211
896.255	9214
896.376	9146
896.498	9123
896.619	9214
896.74	9047
896.861	9119
896.982	9321
897.103	9374
897.224	9176
897.345	9066
897.466	8963
897.587	9116
897.708	9070
897.828	9062
897.949	8956
898.07	8929
898.19	8868
898.311	9009
898.431	8899
898.552	8960
898.672	8960
898.792	8948
898.913	8891
899.033	8853
899.153	8807
899.273	8731
899.393	8720
899.513	8746
899.633	8731
899.753	8785
899.873	8693
899.993	8644
900.113	8766
900.232	8689
900.352	8610
900.472	8686
900.591	8507
900.711	8537
900.83	8632
900.95	8686
901.069	8670
901.189	8621
901.308	8400
901.427	8377
901.546	8415
901.665	8537
901.784	8511
901.904	8396
902.023	8351
902.141	8221
902.26	8214
902.379	8377
902.498	8218
902.617	8214
902.735	8366
902.854	8290
902.973	8298
903.091	8107
903.21	8119
903.328	8195
903.446	8138
903.565	8050
903.683	8073
903.801	8103
903.919	8145
904.038	8123
904.156	8050
904.274	8096
904.392	7997
904.51	8069
904.627	8084
904.745	8031
904.863	8111
904.981	7921
905.098	7917
905.216	7871
905.334	7898
905.451	7883
905.569	7917
905.686	7947
905.803	7871
905.921	7757
906.038	7849
906.155	7837
906.272	7704
906.389	7761
906.506	7632
906.623	7689
906.74	7575
906.857	7518
906.974	7537
907.091	7666
907.208	7788
907.324	7620
907.441	7613
907.557	7422
907.674	7415
907.79	7434
907.907	7430
908.023	7422
908.139	7415
908.256	7388
908.372	7350
908.488	7358
908.604	7297
908.72	7240
908.836	7282
908.952	7247
909.068	7251
909.184	7266
909.3	7194
909.415	7320
909.531	7289
909.647	7088
909.762	7168
909.878	7053
909.993	7160
910.108	7122
910.224	7042
910.339	7126
910.454	7107
910.57	7046
910.685	6951
910.8	7232
910.915	7160
911.03	7072
911.145	6909
911.259	6886
911.374	6897
911.489	6798
911.604	6818
911.718	6760
911.833	6749
911.947	6700
912.062	6608
912.176	6730
912.291	6658
912.405	6722
912.519	6818
912.633	6856
912.748	6837
912.862	6779
912.976	6593
913.09	6521
913.204	6589
913.318	6589
913.431	6646
913.545	6654
913.659	6692
913.772	6601
913.886	6532
914	6631
914.113	6665
914.226	6642
914.34	6574
914.453	6509
914.566	6623
914.68	6517
914.793	6502
914.906	6437
915.019	6414
915.132	6429
915.245	6479
915.358	6422
915.47	6456
915.583	6410
915.696	6426
915.809	6566
915.921	6578
916.034	6433
916.146	6407
916.259	6452
916.371	6456
916.483	6517
916.595	6498
916.708	6357
916.82	6407
916.932	6403
917.044	6437
917.156	6391
917.268	6323
917.38	6327
917.491	6350
917.603	6331
917.715	6391
917.826	6422
917.938	6342
918.049	6235
918.161	6311
918.272	6452
918.384	6456
918.495	6361
918.606	6232
918.717	6254
918.828	6327
918.939	6285
919.05	6220
919.161	6331
919.272	6140
919.383	6121
919.494	6315
919.604	6437
919.715	6300
919.826	6201
919.936	6270
920.047	6331
920.157	6281
920.267	6445
920.378	6304
920.488	6289
920.598	6521
920.708	6566
920.818	6471
920.928	6498
921.038	6563
921.148	6547
921.258	6391
921.368	6311
921.477	6228
921.587	6167
921.697	6125
921.806	6239
921.916	6087
922.025	5916
922.134	5958
922.244	5904
922.353	5973
922.462	5882
922.571	5824
922.68	5729
922.789	5668
922.898	5726
923.007	5661
923.116	5726
923.224	5707
923.333	5657
923.442	5615
923.55	5585
923.659	5554
923.767	5665
923.876	5589
923.984	5661
924.092	5524
924.201	5562
924.309	5589
924.417	5592
924.525	5497
924.633	5497
924.741	6121
924.849	5387
924.956	5482
925.064	5349
925.172	5341
925.279	5337
925.387	5368
925.494	5372
925.602	5410
925.709	5398
925.816	5261
925.924	5261
926.031	5360
926.138	5296
926.245	5334
926.352	5242
926.459	5307
926.566	5345
926.673	5208
926.779	5113
926.886	5155
926.993	5083
927.099	4987
927.206	5003
927.312	4957
927.419	4991
927.525	4976
927.631	4953
927.737	4881
927.843	4828
927.95	4797
928.056	4866
928.162	4858
928.267	4877
928.373	5353
928.479	4843
928.585	4672
928.69	4763
928.796	4771
928.901	4733
929.007	4603
929.112	4687
929.218	4656
929.323	4626
929.428	4584
929.533	4714
929.638	4554
929.743	4519
929.848	4546
929.953	4523
930.058	4428
930.163	4306
930.267	4348
930.372	4417
930.477	4280
930.581	4478
930.685	4405
930.79	4268
930.894	4303
930.998	4238
931.103	4478
931.207	4162
931.311	4067
931.415	4017
931.519	3972
931.623	3937
