Data from glass_V78500241_1127.txt Node
Date: Wed Sep 01 19:22:18 CST 2021
User: usil
Spectrometer: V785-0024
Trigger mode: 0
Integration Time (sec): 4.000000E-1
Scans to average: 1
Nonlinearity correction enabled: false
Boxcar width: 0
Storing dark spectrum: false
XAxis mode: Wavelengths
Number of Pixels in Spectrum: 1024
>>>>>Begin Spectral Data<<<<<
801.071	3736
801.214	3789
801.356	3755
801.499	3755
801.641	3743
801.783	3816
801.926	3888
802.068	3823
802.211	3850
802.353	3892
802.496	3842
802.638	3892
802.78	3930
802.923	3953
803.065	3873
803.208	3869
803.35	3876
803.492	3937
803.635	3918
803.777	3819
803.919	3857
804.061	4188
804.204	3949
804.346	3949
804.488	3987
804.63	4017
804.773	3968
804.915	4040
805.057	4150
805.199	4013
805.341	4090
805.483	4188
805.626	4139
805.768	4071
805.91	4215
806.052	4268
806.194	4246
806.336	4390
806.478	4207
806.62	4147
806.762	4188
806.904	4291
807.046	4360
807.188	4230
807.33	4200
807.472	4238
807.614	4204
807.756	4265
807.898	4204
808.04	4219
808.182	4299
808.324	4299
808.465	4341
808.607	4512
808.749	4428
808.891	4462
809.033	4550
809.174	4405
809.316	4284
809.458	4230
809.6	4120
809.741	4143
809.883	4169
810.025	4242
810.166	4242
810.308	4204
810.45	4261
810.591	4207
810.733	4303
810.875	4546
811.016	4835
811.158	5159
811.299	5296
811.441	5303
811.582	5117
811.724	4733
811.865	4462
812.007	4481
812.148	4462
812.29	4394
812.431	4417
812.573	4405
812.714	4348
812.855	4455
812.997	4367
813.138	4535
813.279	4413
813.421	4360
813.562	4421
813.703	4303
813.845	4356
813.986	4276
814.127	4238
814.268	4257
814.41	4318
814.551	4295
814.692	4360
814.833	4246
814.974	4265
815.115	4352
815.256	4230
815.397	4253
815.539	4272
815.68	4188
815.821	4207
815.962	4356
816.103	4295
816.244	4276
816.385	4200
816.526	4272
816.666	4204
816.807	4135
816.948	4181
817.089	4154
817.23	4154
817.371	4078
817.512	4040
817.653	4059
817.793	4071
817.934	4044
818.075	4124
818.216	4063
818.356	4116
818.497	3949
818.638	3922
818.778	3991
818.919	3934
819.06	3899
819.2	3922
819.341	3854
819.481	3892
819.622	3949
819.762	4006
819.903	3994
820.043	3869
820.184	3812
820.324	3835
820.465	3884
820.605	3892
820.746	3884
820.886	3789
821.026	3907
821.167	3918
821.307	3998
821.447	3983
821.588	4006
821.728	3941
821.868	3956
822.008	3888
822.149	3896
822.289	3918
822.429	3797
822.569	3781
822.709	3816
822.849	3732
822.99	3724
823.13	3724
823.27	3743
823.41	3743
823.55	3736
823.69	3682
823.83	3778
823.97	3667
824.11	3576
824.25	3610
824.389	3648
824.529	3644
824.669	3644
824.809	3720
824.949	3740
825.089	3740
825.228	3709
825.368	3603
825.508	3538
825.648	3637
825.787	3622
825.927	3625
826.067	3610
826.206	3690
826.346	3774
826.485	3854
826.625	3850
826.765	3949
826.904	3857
827.044	3576
827.183	3568
827.323	3458
827.462	3530
827.601	3431
827.741	3428
827.88	3431
828.02	3401
828.159	3447
828.298	3481
828.437	3542
828.577	3500
828.716	3584
828.855	3462
828.994	3363
829.134	3378
829.273	3420
829.412	3340
829.551	3348
829.69	3389
829.829	3409
829.968	3507
830.107	3462
830.246	3454
830.385	3431
830.524	3359
830.663	3298
830.802	3241
830.941	3226
831.08	3233
831.219	3253
831.357	3279
831.496	3389
831.635	3230
831.774	3203
831.913	3157
832.051	3127
832.19	3123
832.329	3192
832.467	3135
832.606	3093
832.744	3176
832.883	3188
833.022	3207
833.16	3283
833.299	3336
833.437	3321
833.576	3405
833.714	3412
833.852	3439
833.991	3405
834.129	3473
834.267	3485
834.406	3435
834.544	3439
834.682	3439
834.821	3424
834.959	3595
835.097	3420
835.235	3492
835.373	3500
835.511	3519
835.65	3435
835.788	3488
835.926	3401
836.064	3363
836.202	3397
836.34	3561
836.478	3568
836.615	3534
836.753	3652
836.891	3606
837.029	3614
837.167	3618
837.305	3591
837.443	3538
837.58	3523
837.718	3557
837.856	3622
837.993	3584
838.131	3599
838.269	3641
838.406	3599
838.544	3625
838.681	3504
838.819	3492
838.956	3409
839.094	3386
839.231	3454
839.369	3515
839.506	3766
839.643	3667
839.781	3504
839.918	3466
840.055	3485
840.193	3557
840.33	3542
840.467	3557
840.604	3599
840.742	3762
840.879	3538
841.016	3576
841.153	3625
841.29	3823
841.427	3755
841.564	3694
841.701	3720
841.838	3698
841.975	3663
842.112	3740
842.249	3625
842.385	3656
842.522	3865
842.659	3713
842.796	3652
842.933	3724
843.069	3698
843.206	3713
843.343	3865
843.479	3808
843.616	3869
843.752	3686
843.889	3679
844.025	3857
844.162	3724
844.298	3857
844.435	3770
844.571	3770
844.708	3915
844.844	3972
844.98	4063
845.117	4006
845.253	3937
845.389	3892
845.525	3945
845.661	3994
845.798	3945
845.934	4025
846.07	3880
846.206	4071
846.342	4116
846.478	4105
846.614	3964
846.75	3953
846.886	3869
847.022	4032
847.158	3956
847.294	4010
847.429	4078
847.565	3972
847.701	4276
847.837	3888
847.972	3899
848.108	3941
848.244	3983
848.379	3861
848.515	3808
848.65	3846
848.786	3838
848.921	3861
849.057	3979
849.192	3964
849.328	3926
849.463	3907
849.598	3854
849.734	3873
849.869	3819
850.004	3778
850.14	3781
850.275	3854
850.41	3713
850.545	3728
850.68	3766
850.815	3800
850.95	3808
851.085	3960
851.22	3850
851.355	3835
851.49	3781
851.625	3778
851.76	3808
851.895	3766
852.03	3740
852.165	3804
852.299	3865
852.434	3911
852.569	3850
852.703	3876
852.838	3956
852.973	4006
853.107	3998
853.242	3911
853.376	3865
853.511	3755
853.645	3823
853.78	3968
853.914	3896
854.048	3922
854.183	3884
854.317	3979
854.451	4032
854.585	3956
854.72	3979
854.854	4074
854.988	3930
855.122	4048
855.256	3911
855.39	4025
855.524	4128
855.658	4105
855.792	4135
855.926	4128
856.06	4162
856.194	4204
856.327	4109
856.461	4166
856.595	4150
856.729	4169
856.862	4303
856.996	4223
857.13	4329
857.263	4344
857.397	4417
857.53	4318
857.664	4341
857.797	4455
857.931	4440
858.064	4352
858.197	4504
858.331	4390
858.464	4405
858.597	4417
858.731	4436
858.864	4470
858.997	4474
859.13	4546
859.263	4535
859.396	4561
859.529	4523
859.662	4565
859.795	4516
859.928	4645
860.061	4767
860.194	4706
860.327	4679
860.46	4622
860.592	4759
860.725	4740
860.858	4782
860.99	4702
861.123	4687
861.256	4691
861.388	4763
861.521	5429
861.653	4721
861.786	4702
861.918	4752
862.05	4801
862.183	4881
862.315	4892
862.447	4927
862.58	4858
862.712	4824
862.844	4782
862.976	4877
863.108	4862
863.24	5197
863.372	4870
863.504	4923
863.636	4843
863.768	4976
863.9	5018
864.032	4900
864.164	4934
864.296	5025
864.428	5094
864.559	5109
864.691	5105
864.823	5174
864.954	5216
865.086	5143
865.217	5121
865.349	5147
865.48	5124
865.612	5185
865.743	5280
865.875	5113
866.006	5204
866.137	5311
866.269	5246
866.4	5258
866.531	5246
866.662	5216
866.793	5292
866.924	5280
867.055	5349
867.186	5353
867.317	5357
867.448	5315
867.579	5372
867.71	5337
867.841	5364
867.972	5490
868.103	5486
868.233	5463
868.364	5528
868.495	5581
868.625	5722
868.756	5809
868.886	5710
869.017	5722
869.147	5901
869.278	5882
869.408	5844
869.539	5859
869.669	5904
869.799	5916
869.929	5965
870.06	6022
870.19	6209
870.32	6194
870.45	6292
870.58	6372
870.71	6483
870.84	6494
870.97	6475
871.1	6506
871.23	6700
871.36	6711
871.489	6684
871.619	6738
871.749	6802
871.879	6863
872.008	6939
872.138	7000
872.267	6993
872.397	7031
872.526	7034
872.656	7072
872.785	7202
872.915	7396
873.044	7624
873.173	7578
873.303	7655
873.432	7750
873.561	7894
873.69	7814
873.819	8062
873.948	8130
874.077	8248
874.206	8317
874.335	8484
874.464	8648
874.593	8880
874.722	8918
874.851	9089
874.979	9260
875.108	9431
875.237	9420
875.365	9462
875.494	9682
875.623	9819
875.751	9835
875.88	10029
876.008	10200
876.136	10325
876.265	10478
876.393	10740
876.521	10649
876.65	10793
876.778	10889
876.906	10911
877.034	10999
877.162	11136
877.29	11128
877.418	11372
877.546	11265
877.674	11433
877.802	11512
877.93	11402
878.058	11577
878.185	11619
878.313	11623
878.441	11745
878.568	11661
878.696	11794
878.824	11779
878.951	11935
879.079	12022
879.206	12117
879.333	11996
879.461	12057
879.588	12091
879.715	12083
879.842	12270
879.97	12102
880.097	11863
880.224	11942
880.351	11870
880.478	11999
880.605	11885
880.732	11904
880.859	12022
880.986	11798
881.112	11863
881.239	11737
881.366	11653
881.493	11596
881.619	11482
881.746	11611
881.872	11627
881.999	11490
882.125	11490
882.252	11493
882.378	11452
882.505	11619
882.631	11356
882.757	11337
882.883	11284
883.01	11273
883.136	11223
883.262	11216
883.388	11094
883.514	11151
883.64	11235
883.766	11170
883.892	10911
884.018	11045
884.143	11121
884.269	11098
884.395	10793
884.52	10759
884.646	10774
884.772	10706
884.897	10573
885.023	10748
885.148	10714
885.274	10729
885.399	10736
885.524	10588
885.65	10630
885.775	10603
885.9	10622
886.025	10573
886.15	10531
886.275	10440
886.4	10390
886.525	10386
886.65	10405
886.775	10428
886.9	10542
887.025	10550
887.149	10303
887.274	10177
887.399	10124
887.523	10162
887.648	10074
887.773	10188
887.897	10188
888.021	10215
888.146	10162
888.27	10204
888.395	10227
888.519	10147
888.643	10211
888.767	10150
888.891	10116
889.015	10036
889.139	10021
889.263	10032
889.387	10082
889.511	10166
889.635	10105
889.759	9998
889.883	10017
890.006	10029
890.13	9998
890.254	9903
890.377	9915
890.501	9888
890.624	9972
890.748	9907
890.871	9831
890.995	9755
891.118	9732
891.241	9800
891.364	9724
891.488	9899
891.611	9797
891.734	9762
891.857	9713
891.98	9736
892.103	9762
892.226	9732
892.349	9701
892.471	9561
892.594	9557
892.717	9564
892.839	9534
892.962	9606
893.085	9667
893.207	9568
893.33	9515
893.452	9572
893.575	9576
893.697	9504
893.819	9629
893.941	9564
894.064	9603
894.186	9389
894.308	9397
894.43	9561
894.552	9610
894.674	9526
894.796	9412
894.918	9458
895.04	9367
895.161	9378
895.283	9321
895.405	9195
895.526	9336
895.648	9279
895.769	9203
895.891	9214
896.012	9245
896.134	9211
896.255	9180
896.376	9104
896.498	9116
896.619	9154
896.74	9017
896.861	9180
896.982	9264
897.103	9332
897.224	9218
897.345	9081
897.466	9047
897.587	9066
897.708	9123
897.828	8994
897.949	8933
898.07	8857
898.19	8914
898.311	9077
898.431	8891
898.552	8944
898.672	8994
898.792	8902
898.913	8902
899.033	8849
899.153	8762
899.273	8762
899.393	8667
899.513	8746
899.633	8781
899.753	8754
899.873	8731
899.993	8746
900.113	8697
900.232	8708
900.352	8594
900.472	8629
900.591	8552
900.711	8587
900.83	8579
900.95	8632
901.069	8686
901.189	8632
901.308	8434
901.427	8389
901.546	8469
901.665	8514
901.784	8473
901.904	8358
902.023	8339
902.141	8244
902.26	8191
902.379	8248
902.498	8199
902.617	8263
902.735	8301
902.854	8324
902.973	8286
903.091	8145
903.21	8100
903.328	8157
903.446	8130
903.565	8046
903.683	8153
903.801	8069
903.919	8103
904.038	8157
904.156	8058
904.274	8073
904.392	8050
904.51	8073
904.627	8054
904.745	8062
904.863	8168
904.981	7928
905.098	7875
905.216	7913
905.334	7936
905.451	7871
905.569	7898
905.686	7925
905.803	7913
905.921	7788
906.038	7845
906.155	7849
906.272	7700
906.389	7765
906.506	7696
906.623	7677
906.74	7586
906.857	7613
906.974	7590
907.091	7704
907.208	7765
907.324	7647
907.441	7575
907.557	7491
907.674	7419
907.79	7419
907.907	7377
908.023	7480
908.139	7468
908.256	7377
908.372	7411
908.488	7335
908.604	7297
908.72	7217
908.836	7282
908.952	7198
909.068	7213
909.184	7331
909.3	7183
909.415	7301
909.531	7236
909.647	7091
909.762	7118
909.878	7126
909.993	7103
910.108	7107
910.224	7038
910.339	7057
910.454	7126
910.57	7034
910.685	6951
910.8	7198
910.915	7118
911.03	7057
911.145	6962
911.259	6848
911.374	6871
911.489	6890
911.604	6798
911.718	6730
911.833	6749
911.947	6669
912.062	6574
912.176	6692
912.291	6684
912.405	6715
912.519	6852
912.633	6848
912.748	6665
912.862	6768
912.976	6589
913.09	6547
913.204	6635
913.318	6627
913.431	6677
913.545	6688
913.659	6696
913.772	6650
913.886	6582
914	6570
914.113	6650
914.226	6631
914.34	6601
914.453	6460
914.566	6635
914.68	6509
914.793	6551
914.906	6391
915.019	6407
915.132	6346
915.245	6426
915.358	6452
915.47	6426
915.583	6467
915.696	6513
915.809	6483
915.921	6498
916.034	6445
916.146	6426
916.259	6418
916.371	6460
916.483	6433
916.595	6376
916.708	6426
916.82	6437
916.932	6369
917.044	6418
917.156	6418
917.268	6350
917.38	6403
917.491	6311
917.603	6380
917.715	6391
917.826	6502
917.938	6315
918.049	6296
918.161	6403
918.272	6426
918.384	6494
918.495	6365
918.606	6232
918.717	6239
918.828	6292
918.939	6224
919.05	6258
919.161	6243
919.272	6125
919.383	6163
919.494	6353
919.604	6441
919.715	6258
919.826	6228
919.936	6258
920.047	6323
920.157	6273
920.267	6380
920.378	6300
920.488	6213
920.598	6483
920.708	6570
920.818	6452
920.928	6464
921.038	6650
921.148	6646
921.258	6388
921.368	6292
921.477	6292
921.587	6197
921.697	6140
921.806	6209
921.916	6140
922.025	5958
922.134	5931
922.244	5916
922.353	5954
922.462	5904
922.571	5771
922.68	5714
922.789	5699
922.898	5668
923.007	5627
923.116	5710
923.224	5649
923.333	5661
923.442	5649
923.55	5630
923.659	5543
923.767	5634
923.876	5611
923.984	5665
924.092	5539
924.201	5566
924.309	5554
924.417	5539
924.525	5459
924.633	5558
924.741	6319
924.849	5387
924.956	5516
925.064	5341
925.172	5299
925.279	5364
925.387	5269
925.494	5353
925.602	5444
925.709	5372
925.816	5250
925.924	5280
926.031	5364
926.138	5322
926.245	5379
926.352	5231
926.459	5334
926.566	5398
926.673	5185
926.779	5231
926.886	5090
926.993	5033
927.099	5018
927.206	4942
927.312	4991
927.419	5010
927.525	4938
927.631	5022
927.737	4904
927.843	4896
927.95	4774
928.056	4824
928.162	4820
928.267	4911
928.373	5364
928.479	4862
928.585	4710
928.69	4820
928.796	4797
928.901	4675
929.007	4596
929.112	4668
929.218	4641
929.323	4596
929.428	4577
929.533	4668
929.638	4527
929.743	4523
929.848	4607
929.953	4523
930.058	4436
930.163	4360
930.267	4329
930.372	4394
930.477	4280
930.581	4489
930.685	4352
930.79	4261
930.894	4295
930.998	4284
931.103	4371
931.207	4116
931.311	4150
931.415	4090
931.519	3918
931.623	3949
