Data from glass_V78500241_163.txt Node
Date: Wed Sep 01 19:15:37 CST 2021
User: usil
Spectrometer: V785-0024
Trigger mode: 0
Integration Time (sec): 4.000000E-1
Scans to average: 1
Nonlinearity correction enabled: false
Boxcar width: 0
Storing dark spectrum: false
XAxis mode: Wavelengths
Number of Pixels in Spectrum: 1024
>>>>>Begin Spectral Data<<<<<
801.071	3778
801.214	3751
801.356	3717
801.499	3793
801.641	3755
801.783	3762
801.926	3865
802.068	3827
802.211	3857
802.353	3873
802.496	3869
802.638	3934
802.78	3888
802.923	3975
803.065	3892
803.208	3869
803.35	3907
803.492	3876
803.635	3968
803.777	3857
803.919	3911
804.061	4169
804.204	3983
804.346	3983
804.488	3903
804.63	4013
804.773	3994
804.915	4055
805.057	4154
805.199	4013
805.341	4082
805.483	4112
805.626	4143
805.768	4143
805.91	4287
806.052	4299
806.194	4265
806.336	4348
806.478	4204
806.62	4188
806.762	4166
806.904	4280
807.046	4390
807.188	4215
807.33	4192
807.472	4238
807.614	4211
807.756	4295
807.898	4242
808.04	4230
808.182	4322
808.324	4306
808.465	4363
808.607	4432
808.749	4440
808.891	4508
809.033	4584
809.174	4417
809.316	4284
809.458	4276
809.6	4223
809.741	4181
809.883	4147
810.025	4249
810.166	4181
810.308	4261
810.45	4246
810.591	4268
810.733	4303
810.875	4554
811.016	4835
811.158	5140
811.299	5288
811.441	5269
811.582	5067
811.724	4763
811.865	4451
812.007	4531
812.148	4478
812.29	4432
812.431	4424
812.573	4402
812.714	4413
812.855	4451
812.997	4402
813.138	4493
813.279	4459
813.421	4390
813.562	4417
813.703	4318
813.845	4356
813.986	4230
814.127	4234
814.268	4284
814.41	4318
814.551	4291
814.692	4352
814.833	4261
814.974	4314
815.115	4344
815.256	4257
815.397	4261
815.539	4242
815.68	4192
815.821	4234
815.962	4356
816.103	4295
816.244	4276
816.385	4268
816.526	4280
816.666	4181
816.807	4105
816.948	4211
817.089	4219
817.23	4131
817.371	4101
817.512	4067
817.653	4093
817.793	4067
817.934	4044
818.075	4090
818.216	4078
818.356	4097
818.497	4017
818.638	3884
818.778	3949
818.919	3922
819.06	3903
819.2	3926
819.341	3880
819.481	3835
819.622	3930
819.762	4010
819.903	3975
820.043	3899
820.184	3880
820.324	3797
820.465	3903
820.605	3842
820.746	3873
820.886	3778
821.026	3937
821.167	3915
821.307	4002
821.447	4025
821.588	3975
821.728	3964
821.868	3934
822.008	3884
822.149	3972
822.289	3896
822.429	3800
822.569	3774
822.709	3793
822.849	3682
822.99	3740
823.13	3781
823.27	3808
823.41	3720
823.55	3762
823.69	3789
823.83	3732
823.97	3713
824.11	3656
824.25	3591
824.389	3690
824.529	3652
824.669	3652
824.809	3694
824.949	3781
825.089	3743
825.228	3743
825.368	3610
825.508	3557
825.648	3584
825.787	3648
825.927	3679
826.067	3644
826.206	3675
826.346	3785
826.485	3831
826.625	3850
826.765	3949
826.904	3861
827.044	3610
827.183	3515
827.323	3458
827.462	3466
827.601	3458
827.741	3439
827.88	3450
828.02	3397
828.159	3420
828.298	3507
828.437	3557
828.577	3507
828.716	3614
828.855	3507
828.994	3382
829.134	3370
829.273	3412
829.412	3363
829.551	3363
829.69	3416
829.829	3466
829.968	3587
830.107	3439
830.246	3462
830.385	3435
830.524	3405
830.663	3275
830.802	3264
830.941	3207
831.08	3188
831.219	3283
831.357	3264
831.496	3431
831.635	3253
831.774	3184
831.913	3218
832.051	3142
832.19	3142
832.329	3237
832.467	3165
832.606	3108
832.744	3180
832.883	3165
833.022	3237
833.16	3249
833.299	3264
833.437	3348
833.576	3393
833.714	3428
833.852	3435
833.991	3481
834.129	3488
834.267	3447
834.406	3428
834.544	3443
834.682	3431
834.821	3428
834.959	3584
835.097	3466
835.235	3549
835.373	3519
835.511	3523
835.65	3534
835.788	3511
835.926	3397
836.064	3443
836.202	3405
836.34	3580
836.478	3614
836.615	3591
836.753	3610
836.891	3644
837.029	3618
837.167	3591
837.305	3557
837.443	3526
837.58	3496
837.718	3599
837.856	3587
837.993	3580
838.131	3603
838.269	3587
838.406	3584
838.544	3580
838.681	3458
838.819	3519
838.956	3386
839.094	3428
839.231	3492
839.369	3526
839.506	3751
839.643	3648
839.781	3492
839.918	3477
840.055	3515
840.193	3599
840.33	3534
840.467	3572
840.604	3610
840.742	3808
840.879	3591
841.016	3553
841.153	3618
841.29	3751
841.427	3732
841.564	3709
841.701	3755
841.838	3698
841.975	3686
842.112	3755
842.249	3618
842.385	3633
842.522	3865
842.659	3660
842.796	3698
842.933	3762
843.069	3694
843.206	3728
843.343	3835
843.479	3789
843.616	3846
843.752	3660
843.889	3717
844.025	3857
844.162	3747
844.298	3850
844.435	3816
844.571	3797
844.708	3907
844.844	4025
844.98	3987
845.117	4048
845.253	3899
845.389	3911
845.525	3998
845.661	4002
845.798	3953
845.934	4040
846.07	3937
846.206	4071
846.342	4147
846.478	4051
846.614	3998
846.75	3945
846.886	3911
847.022	4025
847.158	4017
847.294	4021
847.429	3987
847.565	4002
847.701	4257
847.837	3979
847.972	3888
848.108	3994
848.244	3968
848.379	3854
848.515	3838
848.65	3842
848.786	3854
848.921	3880
849.057	3979
849.192	4010
849.328	3922
849.463	3918
849.598	3896
849.734	3865
849.869	3861
850.004	3804
850.14	3857
850.275	3759
850.41	3755
850.545	3770
850.68	3781
850.815	3812
850.95	3766
851.085	3987
851.22	3892
851.355	3842
851.49	3831
851.625	3838
851.76	3819
851.895	3736
852.03	3698
852.165	3823
852.299	3854
852.434	3953
852.569	3876
852.703	3922
852.838	3987
852.973	4017
853.107	3972
853.242	3903
853.376	3888
853.511	3831
853.645	3861
853.78	3972
853.914	3918
854.048	3949
854.183	3903
854.317	3975
854.451	4067
854.585	3987
854.72	3979
854.854	4071
854.988	3922
855.122	4044
855.256	3956
855.39	4063
855.524	4116
855.658	4112
855.792	4090
855.926	4112
856.06	4177
856.194	4204
856.327	4173
856.461	4173
856.595	4166
856.729	4166
856.862	4265
856.996	4310
857.13	4276
857.263	4356
857.397	4352
857.53	4268
857.664	4341
857.797	4383
857.931	4432
858.064	4443
858.197	4451
858.331	4432
858.464	4367
858.597	4375
858.731	4462
858.864	4462
858.997	4474
859.13	4523
859.263	4558
859.396	4607
859.529	4554
859.662	4558
859.795	4538
859.928	4573
860.061	4687
860.194	4805
860.327	4672
860.46	4687
860.592	4778
860.725	4778
860.858	4824
860.99	4714
861.123	4649
861.256	4672
861.388	4717
861.521	5337
861.653	4782
861.786	4694
861.918	4820
862.05	4793
862.183	4850
862.315	4919
862.447	4946
862.58	4930
862.712	4850
862.844	4778
862.976	4938
863.108	4896
863.24	5246
863.372	4904
863.504	4919
863.636	4904
863.768	4961
863.9	4942
864.032	4938
864.164	4984
864.296	5052
864.428	5132
864.559	5132
864.691	5155
864.823	5075
864.954	5159
865.086	5159
865.217	5083
865.349	5136
865.48	5155
865.612	5166
865.743	5280
865.875	5204
866.006	5197
866.137	5208
866.269	5208
866.4	5231
866.531	5246
866.662	5273
866.793	5326
866.924	5292
867.055	5372
867.186	5341
867.317	5334
867.448	5292
867.579	5402
867.71	5387
867.841	5421
867.972	5471
868.103	5493
868.233	5471
868.364	5509
868.495	5532
868.625	5684
868.756	5767
868.886	5695
869.017	5745
869.147	5885
869.278	5885
869.408	5821
869.539	5859
869.669	5977
869.799	5958
869.929	6041
870.06	6079
870.19	6228
870.32	6178
870.45	6285
870.58	6357
870.71	6407
870.84	6475
870.97	6445
871.1	6433
871.23	6684
871.36	6696
871.489	6688
871.619	6764
871.749	6795
871.879	6897
872.008	7015
872.138	6989
872.267	7012
872.397	6973
872.526	7019
872.656	7095
872.785	7236
872.915	7403
873.044	7563
873.173	7544
873.303	7651
873.432	7727
873.561	7909
873.69	7906
873.819	8012
873.948	8149
874.077	8233
874.206	8240
874.335	8393
874.464	8720
874.593	8857
874.722	8960
874.851	9165
874.979	9230
875.108	9344
875.237	9374
875.365	9488
875.494	9675
875.623	9831
875.751	9838
875.88	9968
876.008	10196
876.136	10261
876.265	10558
876.393	10603
876.521	10710
876.65	10805
876.778	10911
876.906	10930
877.034	10965
877.162	11102
877.29	11166
877.418	11296
877.546	11429
877.674	11425
877.802	11528
877.93	11516
878.058	11532
878.185	11642
878.313	11558
878.441	11722
878.568	11668
878.696	11783
878.824	11969
878.951	11893
879.079	11973
879.206	12159
879.333	12182
879.461	11946
879.588	12064
879.715	11992
879.842	12201
879.97	12148
880.097	11882
880.224	11870
880.351	11866
880.478	11950
880.605	11851
880.732	11863
880.859	12030
880.986	11775
881.112	11893
881.239	11786
881.366	11619
881.493	11619
881.619	11535
881.746	11646
881.872	11577
881.999	11600
882.125	11539
882.252	11562
882.378	11547
882.505	11611
882.631	11372
882.757	11269
882.883	11368
883.01	11311
883.136	11216
883.262	11102
883.388	11048
883.514	11193
883.64	11307
883.766	11102
883.892	11048
884.018	11025
884.143	11052
884.269	11109
884.395	10831
884.52	10763
884.646	10801
884.772	10752
884.897	10634
885.023	10767
885.148	10702
885.274	10767
885.399	10717
885.524	10634
885.65	10580
885.775	10622
885.9	10538
886.025	10645
886.15	10596
886.275	10398
886.4	10436
886.525	10451
886.65	10405
886.775	10367
886.9	10466
887.025	10546
887.149	10363
887.274	10173
887.399	10158
887.523	10192
887.648	10150
887.773	10124
887.897	10257
888.021	10341
888.146	10116
888.27	10215
888.395	10249
888.519	10192
888.643	10280
888.767	10185
888.891	10143
889.015	10059
889.139	10063
889.263	9964
889.387	10120
889.511	10120
889.635	10097
889.759	10029
889.883	9949
890.006	10010
890.13	10181
890.254	9876
890.377	9960
890.501	9895
890.624	9842
890.748	9873
890.871	9774
890.995	9823
891.118	9736
891.241	9785
891.364	9751
891.488	9880
891.611	9770
891.734	9751
891.857	9709
891.98	9671
892.103	9747
892.226	9751
892.349	9671
892.471	9500
892.594	9622
892.717	9625
892.839	9553
892.962	9667
893.085	9648
893.207	9545
893.33	9557
893.452	9564
893.575	9679
893.697	9584
893.819	9656
893.941	9656
894.064	9584
894.186	9454
894.308	9348
894.43	9603
894.552	9606
894.674	9458
894.796	9389
894.918	9374
895.04	9412
895.161	9340
895.283	9325
895.405	9279
895.526	9272
895.648	9230
895.769	9245
895.891	9275
896.012	9268
896.134	9294
896.255	9131
896.376	9138
896.498	9142
896.619	9100
896.74	9070
896.861	9119
896.982	9249
897.103	9272
897.224	9146
897.345	9077
897.466	8990
897.587	8982
897.708	9142
897.828	9077
897.949	8910
898.07	8872
898.19	8906
898.311	8998
898.431	8887
898.552	9013
898.672	8941
898.792	8914
898.913	8868
899.033	8792
899.153	8754
899.273	8720
899.393	8750
899.513	8773
899.633	8705
899.753	8716
899.873	8720
899.993	8739
900.113	8621
900.232	8674
900.352	8659
900.472	8720
900.591	8556
900.711	8659
900.83	8545
900.95	8659
901.069	8708
901.189	8564
901.308	8423
901.427	8408
901.546	8507
901.665	8454
901.784	8499
901.904	8446
902.023	8370
902.141	8221
902.26	8286
902.379	8259
902.498	8229
902.617	8286
902.735	8385
902.854	8320
902.973	8309
903.091	8172
903.21	8126
903.328	8199
903.446	8115
903.565	8123
903.683	8107
903.801	8054
903.919	8134
904.038	8153
904.156	8050
904.274	8077
904.392	7986
904.51	7982
904.627	8077
904.745	8081
904.863	8199
904.981	7959
905.098	7936
905.216	7841
905.334	7932
905.451	7894
905.569	7875
905.686	7906
905.803	7909
905.921	7784
906.038	7852
906.155	7830
906.272	7731
906.389	7757
906.506	7696
906.623	7677
906.74	7624
906.857	7563
906.974	7571
907.091	7677
907.208	7765
907.324	7700
907.441	7624
907.557	7460
907.674	7483
907.79	7403
907.907	7438
908.023	7518
908.139	7468
908.256	7426
908.372	7392
908.488	7392
908.604	7263
908.72	7217
908.836	7289
908.952	7240
909.068	7255
909.184	7362
909.3	7293
909.415	7346
909.531	7308
909.647	7095
909.762	7122
909.878	7141
909.993	7107
910.108	7145
910.224	7129
910.339	7103
910.454	7076
910.57	6985
910.685	6894
910.8	7240
910.915	7118
911.03	7034
911.145	6890
911.259	6886
911.374	6913
911.489	6825
911.604	6829
911.718	6707
911.833	6673
911.947	6681
912.062	6582
912.176	6783
912.291	6741
912.405	6700
912.519	6848
912.633	6825
912.748	6783
912.862	6730
912.976	6627
913.09	6532
913.204	6608
913.318	6578
913.431	6715
913.545	6749
913.659	6757
913.772	6631
913.886	6517
914	6631
914.113	6585
914.226	6646
914.34	6627
914.453	6544
914.566	6585
914.68	6467
914.793	6631
914.906	6391
915.019	6395
915.132	6331
915.245	6494
915.358	6464
915.47	6460
915.583	6460
915.696	6536
915.809	6486
915.921	6593
916.034	6426
916.146	6452
916.259	6353
916.371	6536
916.483	6506
916.595	6395
916.708	6448
916.82	6410
916.932	6361
917.044	6376
917.156	6376
917.268	6357
917.38	6342
917.491	6369
917.603	6319
917.715	6433
917.826	6479
917.938	6357
918.049	6285
918.161	6292
918.272	6448
918.384	6475
918.495	6353
918.606	6292
918.717	6251
918.828	6209
918.939	6247
919.05	6182
919.161	6247
919.272	6125
919.383	6182
919.494	6369
919.604	6460
919.715	6266
919.826	6239
919.936	6235
920.047	6353
920.157	6277
920.267	6464
920.378	6311
920.488	6338
920.598	6441
920.708	6574
920.818	6532
920.928	6456
921.038	6658
921.148	6669
921.258	6384
921.368	6311
921.477	6209
921.587	6220
921.697	6117
921.806	6144
921.916	6072
922.025	5954
922.134	5965
922.244	5950
922.353	5920
922.462	5897
922.571	5840
922.68	5748
922.789	5756
922.898	5699
923.007	5627
923.116	5684
923.224	5649
923.333	5634
923.442	5634
923.55	5611
923.659	5627
923.767	5642
923.876	5554
923.984	5600
924.092	5478
924.201	5589
924.309	5554
924.417	5509
924.525	5474
924.633	5478
924.741	6144
924.849	5391
924.956	5501
925.064	5345
925.172	5296
925.279	5296
925.387	5360
925.494	5357
925.602	5440
925.709	5387
925.816	5341
925.924	5337
926.031	5395
926.138	5318
926.245	5353
926.352	5208
926.459	5334
926.566	5334
926.673	5223
926.779	5136
926.886	5143
926.993	5056
927.099	5006
927.206	4980
927.312	4961
927.419	5045
927.525	5048
927.631	4999
927.737	4919
927.843	4835
927.95	4805
928.056	4839
928.162	4824
928.267	4900
928.373	5360
928.479	4923
928.585	4698
928.69	4782
928.796	4763
928.901	4687
929.007	4588
929.112	4710
929.218	4626
929.323	4615
929.428	4618
929.533	4630
929.638	4554
929.743	4577
929.848	4561
929.953	4519
930.058	4459
930.163	4371
930.267	4344
930.372	4424
930.477	4295
930.581	4462
930.685	4379
930.79	4268
930.894	4360
930.998	4284
931.103	4421
931.207	4135
931.311	4078
931.415	4063
931.519	3941
931.623	3915
