Data from glass_V78500241_1337.txt Node
Date: Wed Sep 01 19:23:46 CST 2021
User: usil
Spectrometer: V785-0024
Trigger mode: 0
Integration Time (sec): 4.000000E-1
Scans to average: 1
Nonlinearity correction enabled: false
Boxcar width: 0
Storing dark spectrum: false
XAxis mode: Wavelengths
Number of Pixels in Spectrum: 1024
>>>>>Begin Spectral Data<<<<<
801.071	3743
801.214	3770
801.356	3740
801.499	3751
801.641	3728
801.783	3717
801.926	3861
802.068	3846
802.211	3835
802.353	3915
802.496	3880
802.638	3884
802.78	3880
802.923	3956
803.065	3869
803.208	3850
803.35	3854
803.492	3896
803.635	3896
803.777	3804
803.919	3922
804.061	4135
804.204	3964
804.346	3945
804.488	3949
804.63	4063
804.773	3998
804.915	4021
805.057	4143
805.199	4067
805.341	4078
805.483	4162
805.626	4116
805.768	4109
805.91	4234
806.052	4280
806.194	4200
806.336	4356
806.478	4192
806.62	4158
806.762	4196
806.904	4272
807.046	4363
807.188	4242
807.33	4162
807.472	4204
807.614	4223
807.756	4257
807.898	4261
808.04	4265
808.182	4303
808.324	4341
808.465	4344
808.607	4451
808.749	4428
808.891	4459
809.033	4512
809.174	4386
809.316	4303
809.458	4238
809.6	4166
809.741	4181
809.883	4147
810.025	4268
810.166	4188
810.308	4200
810.45	4257
810.591	4257
810.733	4295
810.875	4554
811.016	4809
811.158	5159
811.299	5242
811.441	5250
811.582	5083
811.724	4736
811.865	4481
812.007	4500
812.148	4443
812.29	4447
812.431	4394
812.573	4413
812.714	4413
812.855	4405
812.997	4432
813.138	4516
813.279	4440
813.421	4329
813.562	4306
813.703	4314
813.845	4398
813.986	4265
814.127	4204
814.268	4272
814.41	4299
814.551	4253
814.692	4329
814.833	4280
814.974	4356
815.115	4322
815.256	4257
815.397	4223
815.539	4253
815.68	4204
815.821	4238
815.962	4310
816.103	4314
816.244	4253
816.385	4204
816.526	4306
816.666	4196
816.807	4143
816.948	4173
817.089	4173
817.23	4071
817.371	4124
817.512	4097
817.653	4097
817.793	4051
817.934	4048
818.075	4120
818.216	4105
818.356	4063
818.497	3987
818.638	3903
818.778	3918
818.919	3956
819.06	3884
819.2	3945
819.341	3819
819.481	3835
819.622	3941
819.762	4040
819.903	3953
820.043	3892
820.184	3812
820.324	3835
820.465	3873
820.605	3880
820.746	3869
820.886	3838
821.026	3899
821.167	3934
821.307	3987
821.447	3949
821.588	3960
821.728	3949
821.868	3903
822.008	3880
822.149	3937
822.289	3945
822.429	3793
822.569	3778
822.709	3770
822.849	3720
822.99	3743
823.13	3759
823.27	3804
823.41	3785
823.55	3740
823.69	3705
823.83	3736
823.97	3660
824.11	3599
824.25	3599
824.389	3637
824.529	3671
824.669	3644
824.809	3694
824.949	3766
825.089	3724
825.228	3675
825.368	3584
825.508	3572
825.648	3557
825.787	3633
825.927	3641
826.067	3603
826.206	3682
826.346	3808
826.485	3823
826.625	3876
826.765	3972
826.904	3827
827.044	3633
827.183	3507
827.323	3439
827.462	3481
827.601	3477
827.741	3397
827.88	3462
828.02	3386
828.159	3462
828.298	3496
828.437	3523
828.577	3523
828.716	3599
828.855	3477
828.994	3382
829.134	3374
829.273	3359
829.412	3389
829.551	3355
829.69	3386
829.829	3462
829.968	3500
830.107	3454
830.246	3507
830.385	3409
830.524	3329
830.663	3310
830.802	3253
830.941	3169
831.08	3199
831.219	3264
831.357	3256
831.496	3416
831.635	3222
831.774	3199
831.913	3203
832.051	3138
832.19	3138
832.329	3226
832.467	3119
832.606	3119
832.744	3195
832.883	3165
833.022	3195
833.16	3214
833.299	3287
833.437	3351
833.576	3378
833.714	3382
833.852	3428
833.991	3454
834.129	3477
834.267	3462
834.406	3401
834.544	3458
834.682	3405
834.821	3409
834.959	3591
835.097	3439
835.235	3523
835.373	3466
835.511	3507
835.65	3428
835.788	3488
835.926	3393
836.064	3382
836.202	3409
836.34	3591
836.478	3606
836.615	3553
836.753	3599
836.891	3629
837.029	3625
837.167	3587
837.305	3587
837.443	3606
837.58	3507
837.718	3584
837.856	3584
837.993	3564
838.131	3603
838.269	3610
838.406	3549
838.544	3576
838.681	3485
838.819	3454
838.956	3386
839.094	3409
839.231	3439
839.369	3557
839.506	3728
839.643	3641
839.781	3515
839.918	3458
840.055	3530
840.193	3538
840.33	3553
840.467	3576
840.604	3587
840.742	3812
840.879	3584
841.016	3549
841.153	3595
841.29	3774
841.427	3686
841.564	3736
841.701	3732
841.838	3720
841.975	3663
842.112	3694
842.249	3709
842.385	3633
842.522	3850
842.659	3709
842.796	3679
842.933	3732
843.069	3701
843.206	3686
843.343	3812
843.479	3781
843.616	3816
843.752	3660
843.889	3679
844.025	3880
844.162	3720
844.298	3869
844.435	3785
844.571	3789
844.708	3899
844.844	3964
844.98	4013
845.117	3975
845.253	3930
845.389	3884
845.525	3983
845.661	4010
845.798	3941
845.934	4021
846.07	3911
846.206	4071
846.342	4128
846.478	4067
846.614	3975
846.75	3964
846.886	3888
847.022	4025
847.158	3964
847.294	4013
847.429	4032
847.565	4002
847.701	4249
847.837	3907
847.972	3888
848.108	3972
848.244	3972
848.379	3819
848.515	3785
848.65	3812
848.786	3819
848.921	3896
849.057	3937
849.192	3915
849.328	3842
849.463	3941
849.598	3892
849.734	3869
849.869	3857
850.004	3850
850.14	3823
850.275	3785
850.41	3778
850.545	3747
850.68	3778
850.815	3759
850.95	3800
851.085	3960
851.22	3892
851.355	3812
851.49	3770
851.625	3793
851.76	3831
851.895	3759
852.03	3724
852.165	3800
852.299	3873
852.434	3953
852.569	3899
852.703	3869
852.838	3937
852.973	4002
853.107	4010
853.242	3911
853.376	3884
853.511	3812
853.645	3819
853.78	3960
853.914	3911
854.048	3896
854.183	3892
854.317	3998
854.451	4055
854.585	3941
854.72	3991
854.854	4048
854.988	3979
855.122	3987
855.256	3918
855.39	4017
855.524	4112
855.658	4116
855.792	4135
855.926	4147
856.06	4169
856.194	4162
856.327	4143
856.461	4120
856.595	4143
856.729	4139
856.862	4261
856.996	4280
857.13	4333
857.263	4322
857.397	4371
857.53	4322
857.664	4386
857.797	4428
857.931	4447
858.064	4394
858.197	4504
858.331	4356
858.464	4402
858.597	4352
858.731	4424
858.864	4455
858.997	4402
859.13	4527
859.263	4538
859.396	4592
859.529	4565
859.662	4599
859.795	4519
859.928	4573
860.061	4721
860.194	4759
860.327	4656
860.46	4622
860.592	4733
860.725	4767
860.858	4733
860.99	4717
861.123	4755
861.256	4702
861.388	4771
861.521	5524
861.653	4733
861.786	4733
861.918	4740
862.05	4805
862.183	4862
862.315	4919
862.447	4934
862.58	4877
862.712	4812
862.844	4782
862.976	4908
863.108	4885
863.24	5128
863.372	4812
863.504	4873
863.636	4930
863.768	4999
863.9	4949
864.032	4919
864.164	4984
864.296	5064
864.428	5083
864.559	5086
864.691	5151
864.823	5124
864.954	5098
865.086	5174
865.217	5178
865.349	5105
865.48	5189
865.612	5185
865.743	5269
865.875	5193
866.006	5185
866.137	5250
866.269	5193
866.4	5288
866.531	5239
866.662	5254
866.793	5258
866.924	5349
867.055	5315
867.186	5318
867.317	5417
867.448	5345
867.579	5341
867.71	5368
867.841	5402
867.972	5459
868.103	5414
868.233	5417
868.364	5471
868.495	5501
868.625	5722
868.756	5828
868.886	5676
869.017	5745
869.147	5866
869.278	5904
869.408	5767
869.539	5859
869.669	5912
869.799	5897
869.929	5996
870.06	5999
870.19	6239
870.32	6213
870.45	6247
870.58	6384
870.71	6475
870.84	6479
870.97	6410
871.1	6517
871.23	6585
871.36	6639
871.489	6681
871.619	6791
871.749	6753
871.879	6890
872.008	7019
872.138	6973
872.267	7012
872.397	6977
872.526	7050
872.656	7080
872.785	7194
872.915	7438
873.044	7487
873.173	7578
873.303	7651
873.432	7784
873.561	7879
873.69	7871
873.819	8024
873.948	8176
874.077	8301
874.206	8389
874.335	8446
874.464	8735
874.593	8902
874.722	9032
874.851	9131
874.979	9199
875.108	9416
875.237	9466
875.365	9488
875.494	9720
875.623	9774
875.751	9793
875.88	10021
876.008	10150
876.136	10325
876.265	10550
876.393	10675
876.521	10714
876.65	10908
876.778	10869
876.906	10942
877.034	10980
877.162	11018
877.29	11185
877.418	11261
877.546	11337
877.674	11459
877.802	11425
877.93	11471
878.058	11505
878.185	11585
878.313	11627
878.441	11809
878.568	11684
878.696	11935
878.824	11874
878.951	11969
879.079	11965
879.206	12155
879.333	12026
879.461	11988
879.588	12098
879.715	12110
879.842	12251
879.97	12095
880.097	11958
880.224	11901
880.351	11828
880.478	11923
880.605	11741
880.732	11901
880.859	12026
880.986	11813
881.112	11885
881.239	11710
881.366	11657
881.493	11619
881.619	11596
881.746	11573
881.872	11573
881.999	11566
882.125	11478
882.252	11577
882.378	11516
882.505	11573
882.631	11429
882.757	11349
882.883	11398
883.01	11231
883.136	11159
883.262	11102
883.388	11018
883.514	11170
883.64	11140
883.766	11178
883.892	11018
884.018	11064
884.143	11109
884.269	11056
884.395	10877
884.52	10854
884.646	10748
884.772	10702
884.897	10668
885.023	10691
885.148	10687
885.274	10691
885.399	10630
885.524	10626
885.65	10599
885.775	10660
885.9	10508
886.025	10607
886.15	10615
886.275	10489
886.4	10352
886.525	10417
886.65	10360
886.775	10356
886.9	10481
887.025	10447
887.149	10379
887.274	10185
887.399	10162
887.523	10234
887.648	10143
887.773	10109
887.897	10227
888.021	10261
888.146	10128
888.27	10166
888.395	10246
888.519	10177
888.643	10204
888.767	10188
888.891	10097
889.015	10021
889.139	10036
889.263	10048
889.387	9998
889.511	10055
889.635	10071
889.759	9979
889.883	10013
890.006	9949
890.13	10055
890.254	10002
890.377	9915
890.501	9892
890.624	9819
890.748	9960
890.871	9831
890.995	9789
891.118	9774
891.241	9759
891.364	9766
891.488	9846
891.611	9762
891.734	9762
891.857	9823
891.98	9766
892.103	9812
892.226	9713
892.349	9625
892.471	9568
892.594	9648
892.717	9622
892.839	9564
892.962	9610
893.085	9637
893.207	9599
893.33	9549
893.452	9542
893.575	9572
893.697	9530
893.819	9622
893.941	9622
894.064	9584
894.186	9469
894.308	9370
894.43	9568
894.552	9580
894.674	9603
894.796	9393
894.918	9428
895.04	9283
895.161	9351
895.283	9389
895.405	9253
895.526	9336
895.648	9203
895.769	9214
895.891	9237
896.012	9298
896.134	9214
896.255	9146
896.376	9108
896.498	9207
896.619	9131
896.74	9024
896.861	9192
896.982	9283
897.103	9321
897.224	9154
897.345	9028
897.466	9013
897.587	9100
897.708	9081
897.828	9017
897.949	8929
898.07	8876
898.19	8933
898.311	9009
898.431	8902
898.552	8887
898.672	8998
898.792	8960
898.913	8960
899.033	8777
899.153	8807
899.273	8594
899.393	8739
899.513	8670
899.633	8773
899.753	8686
899.873	8712
899.993	8720
900.113	8686
900.232	8750
900.352	8667
900.472	8606
900.591	8511
900.711	8564
900.83	8495
900.95	8655
901.069	8689
901.189	8594
901.308	8431
901.427	8434
901.546	8370
901.665	8533
901.784	8495
901.904	8427
902.023	8282
902.141	8240
902.26	8183
902.379	8252
902.498	8214
902.617	8187
902.735	8347
902.854	8271
902.973	8282
903.091	8145
903.21	8172
903.328	8210
903.446	8103
903.565	8073
903.683	8111
903.801	8081
903.919	8035
904.038	8172
904.156	8065
904.274	8115
904.392	7993
904.51	8012
904.627	8077
904.745	8081
904.863	8035
904.981	7936
905.098	7875
905.216	7879
905.334	7890
905.451	7940
905.569	7856
905.686	7902
905.803	7928
905.921	7788
906.038	7830
906.155	7795
906.272	7723
906.389	7753
906.506	7719
906.623	7597
906.74	7696
906.857	7514
906.974	7609
907.091	7655
907.208	7795
907.324	7605
907.441	7571
907.557	7491
907.674	7476
907.79	7422
907.907	7453
908.023	7441
908.139	7453
908.256	7365
908.372	7358
908.488	7293
908.604	7217
908.72	7297
908.836	7316
908.952	7251
909.068	7251
909.184	7301
909.3	7278
909.415	7335
909.531	7282
909.647	7046
909.762	7084
909.878	7129
909.993	7126
910.108	7126
910.224	7107
910.339	7034
910.454	7012
910.57	7031
910.685	6989
910.8	7194
910.915	7076
911.03	7149
911.145	6916
911.259	6920
911.374	6958
911.489	6802
911.604	6814
911.718	6700
911.833	6757
911.947	6688
912.062	6608
912.176	6669
912.291	6707
912.405	6715
912.519	6875
912.633	6825
912.748	6711
912.862	6662
912.976	6642
913.09	6513
913.204	6635
913.318	6631
913.431	6681
913.545	6684
913.659	6768
913.772	6665
913.886	6536
914	6513
914.113	6635
914.226	6646
914.34	6620
914.453	6509
914.566	6627
914.68	6551
914.793	6540
914.906	6376
915.019	6369
915.132	6388
915.245	6422
915.358	6422
915.47	6429
915.583	6494
915.696	6437
915.809	6563
915.921	6486
916.034	6407
916.146	6429
916.259	6418
916.371	6502
916.483	6441
916.595	6350
916.708	6426
916.82	6410
916.932	6391
917.044	6410
917.156	6441
917.268	6342
917.38	6304
917.491	6327
917.603	6376
917.715	6414
917.826	6460
917.938	6323
918.049	6205
918.161	6327
918.272	6460
918.384	6460
918.495	6353
918.606	6220
918.717	6228
918.828	6266
918.939	6270
919.05	6201
919.161	6304
919.272	6152
919.383	6197
919.494	6247
919.604	6403
919.715	6258
919.826	6220
919.936	6209
920.047	6311
920.157	6319
920.267	6456
920.378	6361
920.488	6247
920.598	6418
920.708	6536
920.818	6483
920.928	6479
921.038	6566
921.148	6559
921.258	6429
921.368	6304
921.477	6213
921.587	6197
921.697	6110
921.806	6129
921.916	6083
922.025	5969
922.134	5954
922.244	5889
922.353	5954
922.462	5821
922.571	5813
922.68	5733
922.789	5726
922.898	5752
923.007	5668
923.116	5714
923.224	5688
923.333	5665
923.442	5630
923.55	5592
923.659	5528
923.767	5634
923.876	5592
923.984	5680
924.092	5509
924.201	5570
924.309	5573
924.417	5577
924.525	5471
924.633	5448
924.741	6300
924.849	5353
924.956	5478
925.064	5357
925.172	5288
925.279	5345
925.387	5387
925.494	5345
925.602	5429
925.709	5383
925.816	5299
925.924	5254
926.031	5360
926.138	5288
926.245	5296
926.352	5223
926.459	5326
926.566	5322
926.673	5189
926.779	5121
926.886	5143
926.993	5102
927.099	5025
927.206	4991
927.312	4972
927.419	5022
927.525	5025
927.631	4972
927.737	4919
927.843	4843
927.95	4778
928.056	4843
928.162	4824
928.267	4877
928.373	5376
928.479	4847
928.585	4675
928.69	4805
928.796	4771
928.901	4679
929.007	4599
929.112	4683
929.218	4653
929.323	4611
929.428	4588
929.533	4691
929.638	4523
929.743	4573
929.848	4588
929.953	4531
930.058	4436
930.163	4303
930.267	4322
930.372	4462
930.477	4344
930.581	4436
930.685	4337
930.79	4268
930.894	4329
930.998	4242
931.103	4424
931.207	4097
931.311	4093
931.415	4010
931.519	3979
931.623	3979
