Data from glass_V78500241_2438.txt Node
Date: Wed Sep 01 19:31:24 CST 2021
User: usil
Spectrometer: V785-0024
Trigger mode: 0
Integration Time (sec): 4.000000E-1
Scans to average: 1
Nonlinearity correction enabled: false
Boxcar width: 0
Storing dark spectrum: false
XAxis mode: Wavelengths
Number of Pixels in Spectrum: 1024
>>>>>Begin Spectral Data<<<<<
801.071	3732
801.214	3728
801.356	3682
801.499	3717
801.641	3724
801.783	3793
801.926	3846
802.068	3816
802.211	3861
802.353	3884
802.496	3831
802.638	3857
802.78	3945
802.923	3930
803.065	3956
803.208	3838
803.35	3892
803.492	3876
803.635	3915
803.777	3816
803.919	3888
804.061	4166
804.204	3956
804.346	3930
804.488	3941
804.63	4002
804.773	3911
804.915	4029
805.057	4105
805.199	4017
805.341	4086
805.483	4086
805.626	4093
805.768	4093
805.91	4223
806.052	4207
806.194	4192
806.336	4333
806.478	4238
806.62	4139
806.762	4150
806.904	4234
807.046	4303
807.188	4192
807.33	4177
807.472	4207
807.614	4131
807.756	4246
807.898	4207
808.04	4219
808.182	4276
808.324	4318
808.465	4337
808.607	4424
808.749	4424
808.891	4489
809.033	4470
809.174	4417
809.316	4238
809.458	4246
809.6	4120
809.741	4166
809.883	4124
810.025	4185
810.166	4162
810.308	4177
810.45	4287
810.591	4204
810.733	4261
810.875	4500
811.016	4831
811.158	5113
811.299	5174
811.441	5235
811.582	5045
811.724	4706
811.865	4421
812.007	4402
812.148	4386
812.29	4409
812.431	4371
812.573	4367
812.714	4375
812.855	4386
812.997	4398
813.138	4497
813.279	4409
813.421	4405
813.562	4325
813.703	4333
813.845	4306
813.986	4287
814.127	4200
814.268	4253
814.41	4272
814.551	4287
814.692	4280
814.833	4295
814.974	4253
815.115	4333
815.256	4284
815.397	4230
815.539	4211
815.68	4135
815.821	4207
815.962	4280
816.103	4242
816.244	4188
816.385	4196
816.526	4280
816.666	4207
816.807	4074
816.948	4162
817.089	4166
817.23	4086
817.371	4025
817.512	4082
817.653	4029
817.793	4010
817.934	4010
818.075	4078
818.216	4086
818.356	4048
818.497	4013
818.638	3903
818.778	3922
818.919	3880
819.06	3827
819.2	3880
819.341	3907
819.481	3842
819.622	3907
819.762	4048
819.903	3953
820.043	3854
820.184	3835
820.324	3789
820.465	3854
820.605	3854
820.746	3835
820.886	3823
821.026	3937
821.167	3926
821.307	3937
821.447	3941
821.588	3956
821.728	3918
821.868	3953
822.008	3876
822.149	3873
822.289	3911
822.429	3774
822.569	3778
822.709	3766
822.849	3644
822.99	3709
823.13	3740
823.27	3762
823.41	3682
823.55	3694
823.69	3717
823.83	3690
823.97	3629
824.11	3576
824.25	3553
824.389	3614
824.529	3671
824.669	3637
824.809	3698
824.949	3762
825.089	3701
825.228	3637
825.368	3568
825.508	3564
825.648	3545
825.787	3587
825.927	3625
826.067	3576
826.206	3644
826.346	3717
826.485	3857
826.625	3842
826.765	3945
826.904	3804
827.044	3625
827.183	3519
827.323	3409
827.462	3496
827.601	3397
827.741	3397
827.88	3443
828.02	3351
828.159	3435
828.298	3466
828.437	3515
828.577	3481
828.716	3587
828.855	3526
828.994	3386
829.134	3389
829.273	3393
829.412	3363
829.551	3355
829.69	3344
829.829	3397
829.968	3485
830.107	3389
830.246	3469
830.385	3363
830.524	3348
830.663	3325
830.802	3256
830.941	3184
831.08	3195
831.219	3268
831.357	3249
831.496	3351
831.635	3199
831.774	3165
831.913	3203
832.051	3116
832.19	3161
832.329	3180
832.467	3116
832.606	3093
832.744	3142
832.883	3199
833.022	3195
833.16	3264
833.299	3260
833.437	3344
833.576	3367
833.714	3363
833.852	3382
833.991	3435
834.129	3420
834.267	3435
834.406	3412
834.544	3420
834.682	3435
834.821	3409
834.959	3515
835.097	3412
835.235	3504
835.373	3496
835.511	3462
835.65	3443
835.788	3454
835.926	3412
836.064	3348
836.202	3397
836.34	3545
836.478	3587
836.615	3526
836.753	3553
836.891	3599
837.029	3584
837.167	3587
837.305	3519
837.443	3538
837.58	3481
837.718	3561
837.856	3542
837.993	3534
838.131	3568
838.269	3576
838.406	3557
838.544	3553
838.681	3477
838.819	3431
838.956	3382
839.094	3386
839.231	3443
839.369	3496
839.506	3705
839.643	3633
839.781	3469
839.918	3500
840.055	3530
840.193	3549
840.33	3492
840.467	3515
840.604	3576
840.742	3766
840.879	3530
841.016	3591
841.153	3580
841.29	3747
841.427	3682
841.564	3686
841.701	3720
841.838	3663
841.975	3652
842.112	3709
842.249	3606
842.385	3625
842.522	3778
842.659	3720
842.796	3690
842.933	3663
843.069	3690
843.206	3690
843.343	3816
843.479	3762
843.616	3781
843.752	3648
843.889	3671
844.025	3869
844.162	3705
844.298	3827
844.435	3759
844.571	3823
844.708	3869
844.844	3934
844.98	4013
845.117	4006
845.253	3953
845.389	3842
845.525	3926
845.661	3922
845.798	3911
845.934	3991
846.07	3922
846.206	4025
846.342	4128
846.478	4025
846.614	3941
846.75	3911
846.886	3911
847.022	4025
847.158	3987
847.294	4006
847.429	4021
847.565	3979
847.701	4166
847.837	3846
847.972	3835
848.108	3994
848.244	3949
848.379	3865
848.515	3774
848.65	3808
848.786	3835
848.921	3846
849.057	3892
849.192	3960
849.328	3876
849.463	3899
849.598	3846
849.734	3899
849.869	3850
850.004	3743
850.14	3781
850.275	3751
850.41	3732
850.545	3740
850.68	3724
850.815	3785
850.95	3778
851.085	3899
851.22	3850
851.355	3827
851.49	3755
851.625	3751
851.76	3751
851.895	3720
852.03	3732
852.165	3808
852.299	3800
852.434	3888
852.569	3876
852.703	3861
852.838	3915
852.973	4002
853.107	3987
853.242	3865
853.376	3869
853.511	3793
853.645	3774
853.78	4017
853.914	3915
854.048	3876
854.183	3911
854.317	3972
854.451	3975
854.585	3953
854.72	3911
854.854	4082
854.988	3956
855.122	4010
855.256	3918
855.39	4029
855.524	4090
855.658	4109
855.792	4105
855.926	4147
856.06	4173
856.194	4181
856.327	4143
856.461	4116
856.595	4131
856.729	4181
856.862	4249
856.996	4223
857.13	4284
857.263	4314
857.397	4344
857.53	4280
857.664	4348
857.797	4394
857.931	4386
858.064	4379
858.197	4462
858.331	4398
858.464	4402
858.597	4344
858.731	4413
858.864	4455
858.997	4451
859.13	4504
859.263	4519
859.396	4618
859.529	4538
859.662	4519
859.795	4500
859.928	4561
860.061	4698
860.194	4702
860.327	4634
860.46	4656
860.592	4721
860.725	4733
860.858	4706
860.99	4649
861.123	4668
861.256	4656
861.388	4797
861.521	5539
861.653	4694
861.786	4687
861.918	4733
862.05	4805
862.183	4831
862.315	4889
862.447	4900
862.58	4866
862.712	4782
862.844	4710
862.976	4892
863.108	4858
863.24	5128
863.372	4790
863.504	4896
863.636	4877
863.768	4953
863.9	4961
864.032	4908
864.164	4934
864.296	4995
864.428	5132
864.559	5124
864.691	5102
864.823	5090
864.954	5037
865.086	5113
865.217	5083
865.349	5109
865.48	5170
865.612	5239
865.743	5250
865.875	5185
866.006	5166
866.137	5239
866.269	5204
866.4	5242
866.531	5178
866.662	5235
866.793	5216
866.924	5258
867.055	5322
867.186	5273
867.317	5292
867.448	5288
867.579	5379
867.71	5357
867.841	5372
867.972	5463
868.103	5467
868.233	5459
868.364	5528
868.495	5551
868.625	5623
868.756	5824
868.886	5668
869.017	5767
869.147	5809
869.278	5844
869.408	5832
869.539	5824
869.669	5958
869.799	5935
869.929	5996
870.06	5973
870.19	6247
870.32	6243
870.45	6235
870.58	6315
870.71	6384
870.84	6483
870.97	6433
871.1	6456
871.23	6646
871.36	6700
871.489	6646
871.619	6734
871.749	6772
871.879	6814
872.008	7019
872.138	6985
872.267	7091
872.397	6962
872.526	7053
872.656	7091
872.785	7156
872.915	7331
873.044	7529
873.173	7468
873.303	7662
873.432	7761
873.561	7849
873.69	7906
873.819	7982
873.948	8221
874.077	8237
874.206	8237
874.335	8442
874.464	8632
874.593	8956
874.722	8849
874.851	9150
874.979	9241
875.108	9351
875.237	9431
875.365	9473
875.494	9576
875.623	9823
875.751	9861
875.88	9953
876.008	10032
876.136	10200
876.265	10459
876.393	10714
876.521	10710
876.65	10771
876.778	10885
876.906	10938
877.034	10953
877.162	11060
877.29	11147
877.418	11284
877.546	11322
877.674	11330
877.802	11414
877.93	11585
878.058	11551
878.185	11562
878.313	11737
878.441	11783
878.568	11726
878.696	11802
878.824	11855
878.951	11897
879.079	12068
879.206	12110
879.333	12034
879.461	12011
879.588	12022
879.715	12087
879.842	12220
879.97	12034
880.097	11821
880.224	11901
880.351	11882
880.478	11855
880.605	11859
880.732	11859
880.859	12011
880.986	11866
881.112	11813
881.239	11688
881.366	11604
881.493	11573
881.619	11482
881.746	11532
881.872	11509
881.999	11448
882.125	11493
882.252	11505
882.378	11486
882.505	11551
882.631	11410
882.757	11265
882.883	11334
883.01	11239
883.136	11170
883.262	11155
883.388	11033
883.514	11143
883.64	11105
883.766	11113
883.892	11037
884.018	11014
884.143	11136
884.269	11098
884.395	10873
884.52	10725
884.646	10774
884.772	10645
884.897	10675
885.023	10714
885.148	10691
885.274	10771
885.399	10679
885.524	10584
885.65	10649
885.775	10607
885.9	10485
886.025	10497
886.15	10489
886.275	10409
886.4	10386
886.525	10375
886.65	10371
886.775	10287
886.9	10474
887.025	10478
887.149	10360
887.274	10238
887.399	10173
887.523	10204
887.648	10128
887.773	10101
887.897	10257
888.021	10147
888.146	10162
888.27	10227
888.395	10173
888.519	10120
888.643	10166
888.767	10192
888.891	10029
889.015	9968
889.139	10013
889.263	9964
889.387	10109
889.511	10097
889.635	10025
889.759	9937
889.883	9949
890.006	10082
890.13	10086
890.254	9991
890.377	9998
890.501	9873
890.624	9903
890.748	9854
890.871	9770
890.995	9663
891.118	9732
891.241	9781
891.364	9671
891.488	9812
891.611	9675
891.734	9705
891.857	9785
891.98	9660
892.103	9717
892.226	9759
892.349	9682
892.471	9450
892.594	9553
892.717	9557
892.839	9610
892.962	9523
893.085	9587
893.207	9584
893.33	9412
893.452	9633
893.575	9606
893.697	9458
893.819	9606
893.941	9622
894.064	9606
894.186	9458
894.308	9405
894.43	9526
894.552	9557
894.674	9515
894.796	9420
894.918	9374
895.04	9329
895.161	9287
895.283	9302
895.405	9195
895.526	9245
895.648	9245
895.769	9272
895.891	9256
896.012	9283
896.134	9222
896.255	9142
896.376	9051
896.498	9154
896.619	9138
896.74	9077
896.861	9097
896.982	9207
897.103	9272
897.224	9199
897.345	9028
897.466	8960
897.587	8963
897.708	9104
897.828	8998
897.949	8937
898.07	8819
898.19	8918
898.311	8979
898.431	8914
898.552	8902
898.672	8933
898.792	8876
898.913	8849
899.033	8758
899.153	8762
899.273	8708
899.393	8667
899.513	8705
899.633	8724
899.753	8708
899.873	8689
899.993	8743
900.113	8651
900.232	8701
900.352	8606
900.472	8636
900.591	8499
900.711	8617
900.83	8526
900.95	8617
901.069	8648
901.189	8625
901.308	8469
901.427	8419
901.546	8446
901.665	8499
901.784	8431
901.904	8351
902.023	8339
902.141	8195
902.26	8164
902.379	8233
902.498	8237
902.617	8164
902.735	8347
902.854	8229
902.973	8176
903.091	8134
903.21	8107
903.328	8138
903.446	8134
903.565	8050
903.683	8115
903.801	8046
903.919	8149
904.038	8149
904.156	7932
904.274	8062
904.392	8031
904.51	8005
904.627	8035
904.745	8016
904.863	8050
904.981	7894
905.098	7868
905.216	7856
905.334	7852
905.451	7925
905.569	7792
905.686	7917
905.803	7921
905.921	7753
906.038	7856
906.155	7765
906.272	7742
906.389	7723
906.506	7597
906.623	7628
906.74	7590
906.857	7518
906.974	7552
907.091	7731
907.208	7700
907.324	7624
907.441	7537
907.557	7472
907.674	7426
907.79	7403
907.907	7354
908.023	7460
908.139	7438
908.256	7358
908.372	7331
908.488	7362
908.604	7240
908.72	7247
908.836	7244
908.952	7206
909.068	7209
909.184	7293
909.3	7206
909.415	7266
909.531	7278
909.647	7141
909.762	7110
909.878	7076
909.993	7072
910.108	7042
910.224	7050
910.339	7076
910.454	7027
910.57	6924
910.685	7019
910.8	7152
910.915	7126
911.03	7000
911.145	6882
911.259	6840
911.374	6863
911.489	6814
911.604	6837
911.718	6741
911.833	6707
911.947	6646
912.062	6570
912.176	6711
912.291	6665
912.405	6642
912.519	6840
912.633	6776
912.748	6741
912.862	6715
912.976	6589
913.09	6506
913.204	6547
913.318	6578
913.431	6650
913.545	6662
913.659	6673
913.772	6631
913.886	6540
914	6517
914.113	6627
914.226	6631
914.34	6566
914.453	6494
914.566	6555
914.68	6486
914.793	6452
914.906	6399
915.019	6445
915.132	6403
915.245	6422
915.358	6422
915.47	6384
915.583	6467
915.696	6441
915.809	6544
915.921	6559
916.034	6464
916.146	6403
916.259	6410
916.371	6433
916.483	6372
916.595	6369
916.708	6441
916.82	6334
916.932	6372
917.044	6407
917.156	6464
917.268	6323
917.38	6331
917.491	6323
917.603	6338
917.715	6422
917.826	6441
917.938	6292
918.049	6216
918.161	6327
918.272	6372
918.384	6361
918.495	6331
918.606	6270
918.717	6216
918.828	6239
918.939	6213
919.05	6163
919.161	6159
919.272	6087
919.383	6129
919.494	6281
919.604	6418
919.715	6262
919.826	6213
919.936	6277
920.047	6266
920.157	6277
920.267	6467
920.378	6357
920.488	6273
920.598	6452
920.708	6494
920.818	6467
920.928	6448
921.038	6559
921.148	6585
921.258	6357
921.368	6270
921.477	6216
921.587	6175
921.697	6129
921.806	6190
921.916	6019
922.025	5920
922.134	5897
922.244	5851
922.353	5931
922.462	5779
922.571	5847
922.68	5680
922.789	5672
922.898	5726
923.007	5608
923.116	5699
923.224	5611
923.333	5680
923.442	5543
923.55	5600
923.659	5562
923.767	5520
923.876	5532
923.984	5596
924.092	5520
924.201	5509
924.309	5455
924.417	5547
924.525	5474
924.633	5478
924.741	6235
924.849	5391
924.956	5455
925.064	5322
925.172	5288
925.279	5273
925.387	5368
925.494	5326
925.602	5387
925.709	5360
925.816	5216
925.924	5360
926.031	5303
926.138	5242
926.245	5326
926.352	5201
926.459	5379
926.566	5337
926.673	5201
926.779	5098
926.886	5083
926.993	5029
927.099	4984
927.206	4984
927.312	4976
927.419	5022
927.525	4995
927.631	4976
927.737	4934
927.843	4820
927.95	4786
928.056	4828
928.162	4805
928.267	4820
928.373	5216
928.479	4870
928.585	4672
928.69	4771
928.796	4736
928.901	4714
929.007	4607
929.112	4691
929.218	4656
929.323	4588
929.428	4565
929.533	4634
929.638	4542
929.743	4523
929.848	4538
929.953	4455
930.058	4459
930.163	4310
930.267	4322
930.372	4421
930.477	4314
930.581	4474
930.685	4329
930.79	4253
930.894	4242
930.998	4268
931.103	4424
931.207	4128
931.311	4048
931.415	4021
931.519	3930
931.623	3911
