Data from glass_V78500241_553.txt Node
Date: Wed Sep 01 19:18:19 CST 2021
User: usil
Spectrometer: V785-0024
Trigger mode: 0
Integration Time (sec): 4.000000E-1
Scans to average: 1
Nonlinearity correction enabled: false
Boxcar width: 0
Storing dark spectrum: false
XAxis mode: Wavelengths
Number of Pixels in Spectrum: 1024
>>>>>Begin Spectral Data<<<<<
801.071	3740
801.214	3747
801.356	3778
801.499	3724
801.641	3740
801.783	3774
801.926	3857
802.068	3846
802.211	3827
802.353	3911
802.496	3857
802.638	3911
802.78	3934
802.923	3930
803.065	3918
803.208	3861
803.35	3888
803.492	3979
803.635	3941
803.777	3812
803.919	3934
804.061	4188
804.204	3994
804.346	3953
804.488	3899
804.63	4055
804.773	3979
804.915	4082
805.057	4158
805.199	4071
805.341	4097
805.483	4101
805.626	4181
805.768	4143
805.91	4204
806.052	4219
806.194	4204
806.336	4348
806.478	4211
806.62	4215
806.762	4200
806.904	4314
807.046	4371
807.188	4219
807.33	4196
807.472	4211
807.614	4200
807.756	4265
807.898	4227
808.04	4242
808.182	4284
808.324	4386
808.465	4375
808.607	4481
808.749	4497
808.891	4478
809.033	4474
809.174	4409
809.316	4303
809.458	4207
809.6	4150
809.741	4082
809.883	4143
810.025	4173
810.166	4249
810.308	4238
810.45	4284
810.591	4284
810.733	4318
810.875	4481
811.016	4839
811.158	5136
811.299	5296
811.441	5334
811.582	5102
811.724	4672
811.865	4508
812.007	4462
812.148	4447
812.29	4455
812.431	4409
812.573	4352
812.714	4363
812.855	4428
812.997	4462
813.138	4504
813.279	4455
813.421	4424
813.562	4390
813.703	4356
813.845	4276
813.986	4238
814.127	4253
814.268	4291
814.41	4272
814.551	4284
814.692	4341
814.833	4295
814.974	4280
815.115	4371
815.256	4223
815.397	4272
815.539	4246
815.68	4227
815.821	4230
815.962	4314
816.103	4341
816.244	4261
816.385	4227
816.526	4325
816.666	4223
816.807	4131
816.948	4230
817.089	4242
817.23	4131
817.371	4029
817.512	4078
817.653	4082
817.793	4025
817.934	4036
818.075	4139
818.216	4059
818.356	4074
818.497	4048
818.638	3953
818.778	3880
818.919	3915
819.06	3899
819.2	3918
819.341	3857
819.481	3827
819.622	3915
819.762	4021
819.903	3987
820.043	3850
820.184	3838
820.324	3797
820.465	3873
820.605	3876
820.746	3850
820.886	3819
821.026	3934
821.167	3975
821.307	4002
821.447	4048
821.588	3937
821.728	3994
821.868	3930
822.008	3892
822.149	3926
822.289	3915
822.429	3778
822.569	3781
822.709	3812
822.849	3709
822.99	3724
823.13	3751
823.27	3766
823.41	3724
823.55	3709
823.69	3747
823.83	3747
823.97	3713
824.11	3641
824.25	3641
824.389	3641
824.529	3675
824.669	3629
824.809	3717
824.949	3759
825.089	3747
825.228	3762
825.368	3633
825.508	3625
825.648	3587
825.787	3599
825.927	3622
826.067	3599
826.206	3663
826.346	3797
826.485	3846
826.625	3865
826.765	3998
826.904	3808
827.044	3648
827.183	3549
827.323	3466
827.462	3488
827.601	3439
827.741	3450
827.88	3439
828.02	3374
828.159	3462
828.298	3454
828.437	3564
828.577	3507
828.716	3599
828.855	3519
828.994	3378
829.134	3332
829.273	3370
829.412	3359
829.551	3336
829.69	3355
829.829	3500
829.968	3530
830.107	3439
830.246	3447
830.385	3378
830.524	3363
830.663	3306
830.802	3272
830.941	3233
831.08	3192
831.219	3256
831.357	3313
831.496	3420
831.635	3230
831.774	3226
831.913	3169
832.051	3157
832.19	3135
832.329	3207
832.467	3154
832.606	3116
832.744	3161
832.883	3184
833.022	3199
833.16	3283
833.299	3291
833.437	3351
833.576	3378
833.714	3416
833.852	3431
833.991	3485
834.129	3549
834.267	3431
834.406	3393
834.544	3477
834.682	3450
834.821	3401
834.959	3614
835.097	3428
835.235	3519
835.373	3511
835.511	3500
835.65	3488
835.788	3477
835.926	3443
836.064	3367
836.202	3409
836.34	3576
836.478	3656
836.615	3561
836.753	3656
836.891	3656
837.029	3625
837.167	3614
837.305	3606
837.443	3553
837.58	3515
837.718	3614
837.856	3564
837.993	3523
838.131	3633
838.269	3614
838.406	3610
838.544	3599
838.681	3507
838.819	3469
838.956	3401
839.094	3412
839.231	3485
839.369	3557
839.506	3759
839.643	3663
839.781	3553
839.918	3473
840.055	3538
840.193	3553
840.33	3500
840.467	3576
840.604	3663
840.742	3808
840.879	3553
841.016	3561
841.153	3663
841.29	3770
841.427	3743
841.564	3770
841.701	3740
841.838	3728
841.975	3698
842.112	3762
842.249	3622
842.385	3641
842.522	3827
842.659	3709
842.796	3724
842.933	3724
843.069	3720
843.206	3736
843.343	3797
843.479	3747
843.616	3835
843.752	3663
843.889	3701
844.025	3827
844.162	3762
844.298	3888
844.435	3766
844.571	3819
844.708	3926
844.844	4013
844.98	4025
845.117	4010
845.253	3941
845.389	3911
845.525	3983
845.661	3994
845.798	3949
845.934	4032
846.07	3964
846.206	4063
846.342	4139
846.478	4086
846.614	3975
846.75	3979
846.886	3915
847.022	4063
847.158	3972
847.294	3998
847.429	4017
847.565	3994
847.701	4257
847.837	3884
847.972	3903
848.108	4010
848.244	3972
848.379	3869
848.515	3835
848.65	3823
848.786	3892
848.921	3899
849.057	3945
849.192	3960
849.328	3903
849.463	3903
849.598	3907
849.734	3884
849.869	3816
850.004	3785
850.14	3838
850.275	3842
850.41	3778
850.545	3774
850.68	3766
850.815	3819
850.95	3835
851.085	3945
851.22	3873
851.355	3842
851.49	3846
851.625	3797
851.76	3797
851.895	3720
852.03	3705
852.165	3831
852.299	3854
852.434	3888
852.569	3876
852.703	3899
852.838	3911
852.973	4025
853.107	3979
853.242	3876
853.376	3873
853.511	3762
853.645	3846
853.78	3998
853.914	3918
854.048	3911
854.183	3896
854.317	3949
854.451	4109
854.585	3964
854.72	3926
854.854	4078
854.988	3960
855.122	3983
855.256	3956
855.39	4029
855.524	4135
855.658	4101
855.792	4109
855.926	4158
856.06	4185
856.194	4230
856.327	4139
856.461	4143
856.595	4200
856.729	4162
856.862	4280
856.996	4291
857.13	4310
857.263	4329
857.397	4379
857.53	4299
857.664	4337
857.797	4424
857.931	4459
858.064	4383
858.197	4451
858.331	4421
858.464	4341
858.597	4352
858.731	4459
858.864	4459
858.997	4485
859.13	4538
859.263	4554
859.396	4618
859.529	4569
859.662	4554
859.795	4546
859.928	4611
860.061	4736
860.194	4729
860.327	4694
860.46	4641
860.592	4748
860.725	4828
860.858	4786
860.99	4721
861.123	4675
861.256	4740
861.388	4816
861.521	5505
861.653	4733
861.786	4733
861.918	4763
862.05	4820
862.183	4873
862.315	4919
862.447	4938
862.58	4896
862.712	4786
862.844	4790
862.976	4919
863.108	4877
863.24	5216
863.372	4854
863.504	4904
863.636	4877
863.768	4991
863.9	5018
864.032	4972
864.164	4999
864.296	5037
864.428	5143
864.559	5132
864.691	5117
864.823	5124
864.954	5086
865.086	5159
865.217	5143
865.349	5136
865.48	5143
865.612	5189
865.743	5330
865.875	5136
866.006	5201
866.137	5246
866.269	5239
866.4	5265
866.531	5231
866.662	5273
866.793	5277
866.924	5265
867.055	5330
867.186	5303
867.317	5353
867.448	5296
867.579	5379
867.71	5368
867.841	5376
867.972	5482
868.103	5493
868.233	5478
868.364	5535
868.495	5520
868.625	5691
868.756	5745
868.886	5699
869.017	5737
869.147	5836
869.278	5885
869.408	5805
869.539	5802
869.669	5942
869.799	5897
869.929	6022
870.06	5988
870.19	6194
870.32	6144
870.45	6277
870.58	6350
870.71	6456
870.84	6498
870.97	6384
871.1	6471
871.23	6646
871.36	6745
871.489	6669
871.619	6776
871.749	6814
871.879	6897
872.008	6924
872.138	7008
872.267	7046
872.397	7000
872.526	7076
872.656	7076
872.785	7228
872.915	7430
873.044	7499
873.173	7567
873.303	7647
873.432	7746
873.561	7875
873.69	7890
873.819	7989
873.948	8180
874.077	8263
874.206	8366
874.335	8511
874.464	8648
874.593	8902
874.722	9009
874.851	9089
874.979	9192
875.108	9336
875.237	9466
875.365	9530
875.494	9614
875.623	9804
875.751	9740
875.88	10017
876.008	10139
876.136	10238
876.265	10470
876.393	10710
876.521	10736
876.65	10812
876.778	10820
876.906	10968
877.034	11014
877.162	11132
877.29	11189
877.418	11299
877.546	11315
877.674	11455
877.802	11433
877.93	11558
878.058	11551
878.185	11497
878.313	11718
878.441	11752
878.568	11657
878.696	11752
878.824	11874
878.951	11954
879.079	11984
879.206	12163
879.333	12060
879.461	11965
879.588	12163
879.715	12114
879.842	12304
879.97	12068
880.097	11939
880.224	11889
880.351	11958
880.478	11893
880.605	11889
880.732	11920
880.859	12117
880.986	11783
881.112	11931
881.239	11688
881.366	11634
881.493	11570
881.619	11566
881.746	11688
881.872	11551
881.999	11505
882.125	11532
882.252	11554
882.378	11425
882.505	11573
882.631	11398
882.757	11379
882.883	11345
883.01	11284
883.136	11159
883.262	11090
883.388	11022
883.514	11162
883.64	11147
883.766	11136
883.892	11010
884.018	10946
884.143	11109
884.269	11052
884.395	10858
884.52	10812
884.646	10782
884.772	10740
884.897	10687
885.023	10660
885.148	10694
885.274	10767
885.399	10725
885.524	10679
885.65	10573
885.775	10603
885.9	10565
886.025	10622
886.15	10615
886.275	10478
886.4	10436
886.525	10394
886.65	10291
886.775	10379
886.9	10546
887.025	10538
887.149	10367
887.274	10306
887.399	10188
887.523	10169
887.648	10143
887.773	10109
887.897	10303
888.021	10280
888.146	10188
888.27	10306
888.395	10230
888.519	10162
888.643	10196
888.767	10230
888.891	10131
889.015	9979
889.139	10051
889.263	10010
889.387	10051
889.511	10082
889.635	10078
889.759	9972
889.883	9975
890.006	9972
890.13	10044
890.254	9918
890.377	9994
890.501	9831
890.624	9876
890.748	9835
890.871	9789
890.995	9797
891.118	9705
891.241	9770
891.364	9682
891.488	9888
891.611	9766
891.734	9804
891.857	9816
891.98	9755
892.103	9797
892.226	9625
892.349	9675
892.471	9576
892.594	9591
892.717	9610
892.839	9629
892.962	9614
893.085	9652
893.207	9568
893.33	9542
893.452	9500
893.575	9580
893.697	9519
893.819	9599
893.941	9641
894.064	9568
894.186	9469
894.308	9431
894.43	9538
894.552	9637
894.674	9534
894.796	9374
894.918	9428
895.04	9291
895.161	9367
895.283	9355
895.405	9275
895.526	9287
895.648	9275
895.769	9313
895.891	9264
896.012	9272
896.134	9226
896.255	9203
896.376	9123
896.498	9131
896.619	9157
896.74	9058
896.861	9112
896.982	9260
897.103	9332
897.224	9154
897.345	9097
897.466	9077
897.587	9089
897.708	9066
897.828	8990
897.949	9020
898.07	8941
898.19	8895
898.311	8948
898.431	8918
898.552	8876
898.672	8998
898.792	9001
898.913	8998
899.033	8792
899.153	8762
899.273	8689
899.393	8785
899.513	8674
899.633	8754
899.753	8781
899.873	8674
899.993	8750
900.113	8697
900.232	8670
900.352	8670
900.472	8632
900.591	8560
900.711	8621
900.83	8533
900.95	8712
901.069	8739
901.189	8644
901.308	8469
901.427	8370
901.546	8400
901.665	8476
901.784	8469
901.904	8347
902.023	8339
902.141	8290
902.26	8282
902.379	8282
902.498	8130
902.617	8180
902.735	8313
902.854	8294
902.973	8320
903.091	8153
903.21	8214
903.328	8145
903.446	8149
903.565	8100
903.683	8073
903.801	8073
903.919	8248
904.038	8115
904.156	7997
904.274	8084
904.392	8100
904.51	8077
904.627	7967
904.745	8115
904.863	8077
904.981	7928
905.098	7906
905.216	7902
905.334	7906
905.451	7860
905.569	7936
905.686	7875
905.803	7894
905.921	7734
906.038	7902
906.155	7849
906.272	7700
906.389	7761
906.506	7636
906.623	7636
906.74	7620
906.857	7571
906.974	7575
907.091	7628
907.208	7700
907.324	7685
907.441	7575
907.557	7521
907.674	7480
907.79	7384
907.907	7449
908.023	7491
908.139	7430
908.256	7438
908.372	7403
908.488	7346
908.604	7247
908.72	7259
908.836	7316
908.952	7213
909.068	7247
909.184	7396
909.3	7232
909.415	7320
909.531	7244
909.647	7141
909.762	7145
909.878	7122
909.993	7164
910.108	7122
910.224	7027
910.339	7095
910.454	7053
910.57	7027
910.685	6996
910.8	7228
910.915	7129
911.03	7034
911.145	6878
911.259	6856
911.374	6943
911.489	6856
911.604	6818
911.718	6677
911.833	6741
911.947	6635
912.062	6601
912.176	6681
912.291	6772
912.405	6734
912.519	6829
912.633	6878
912.748	6749
912.862	6711
912.976	6597
913.09	6631
913.204	6585
913.318	6593
913.431	6635
913.545	6726
913.659	6703
913.772	6642
913.886	6620
914	6566
914.113	6631
914.226	6574
914.34	6635
914.453	6475
914.566	6578
914.68	6570
914.793	6578
914.906	6388
915.019	6407
915.132	6372
915.245	6445
915.358	6410
915.47	6433
915.583	6445
915.696	6422
915.809	6471
915.921	6585
916.034	6471
916.146	6414
916.259	6422
916.371	6490
916.483	6475
916.595	6422
916.708	6410
916.82	6441
916.932	6350
917.044	6388
917.156	6384
917.268	6277
917.38	6304
917.491	6311
917.603	6388
917.715	6414
917.826	6407
917.938	6308
918.049	6235
918.161	6319
918.272	6479
918.384	6509
918.495	6384
918.606	6262
918.717	6201
918.828	6270
918.939	6277
919.05	6224
919.161	6254
919.272	6178
919.383	6152
919.494	6315
919.604	6426
919.715	6254
919.826	6270
919.936	6270
920.047	6372
920.157	6289
920.267	6445
920.378	6300
920.488	6262
920.598	6441
920.708	6589
920.818	6555
920.928	6456
921.038	6570
921.148	6601
921.258	6399
921.368	6296
921.477	6270
921.587	6163
921.697	6117
921.806	6220
921.916	6106
922.025	5946
922.134	5927
922.244	5897
922.353	5984
922.462	5851
922.571	5794
922.68	5726
922.789	5680
922.898	5752
923.007	5638
923.116	5668
923.224	5646
923.333	5752
923.442	5619
923.55	5592
923.659	5592
923.767	5646
923.876	5547
923.984	5585
924.092	5512
924.201	5532
924.309	5547
924.417	5539
924.525	5535
924.633	5516
924.741	6209
924.849	5406
924.956	5509
925.064	5353
925.172	5265
925.279	5315
925.387	5387
925.494	5395
925.602	5448
925.709	5402
925.816	5299
925.924	5269
926.031	5379
926.138	5307
926.245	5318
926.352	5197
926.459	5345
926.566	5315
926.673	5239
926.779	5181
926.886	5102
926.993	5064
927.099	5056
927.206	4961
927.312	4961
927.419	5010
927.525	4987
927.631	5003
927.737	4919
927.843	4885
927.95	4809
928.056	4816
928.162	4854
928.267	4870
928.373	5254
928.479	4831
928.585	4725
928.69	4763
928.796	4805
928.901	4698
929.007	4649
929.112	4653
929.218	4653
929.323	4607
929.428	4569
929.533	4683
929.638	4523
929.743	4546
929.848	4580
929.953	4508
930.058	4417
930.163	4329
930.267	4398
930.372	4447
930.477	4314
930.581	4447
930.685	4303
930.79	4234
930.894	4314
930.998	4211
931.103	4417
931.207	4135
931.311	4090
931.415	4082
931.519	3934
931.623	3945
