Data from glass_V78500241_640.txt Node
Date: Wed Sep 01 19:18:56 CST 2021
User: usil
Spectrometer: V785-0024
Trigger mode: 0
Integration Time (sec): 4.000000E-1
Scans to average: 1
Nonlinearity correction enabled: false
Boxcar width: 0
Storing dark spectrum: false
XAxis mode: Wavelengths
Number of Pixels in Spectrum: 1024
>>>>>Begin Spectral Data<<<<<
801.071	3736
801.214	3785
801.356	3755
801.499	3720
801.641	3724
801.783	3804
801.926	3869
802.068	3857
802.211	3846
802.353	3899
802.496	3857
802.638	3884
802.78	3945
802.923	3979
803.065	3918
803.208	3865
803.35	3896
803.492	3922
803.635	3953
803.777	3816
803.919	3926
804.061	4200
804.204	4029
804.346	3930
804.488	3941
804.63	4017
804.773	3926
804.915	4055
805.057	4150
805.199	4010
805.341	4112
805.483	4162
805.626	4109
805.768	4135
805.91	4284
806.052	4249
806.194	4257
806.336	4367
806.478	4280
806.62	4196
806.762	4242
806.904	4227
807.046	4379
807.188	4196
807.33	4223
807.472	4215
807.614	4196
807.756	4272
807.898	4272
808.04	4204
808.182	4276
808.324	4303
808.465	4367
808.607	4493
808.749	4470
808.891	4504
809.033	4523
809.174	4409
809.316	4284
809.458	4318
809.6	4135
809.741	4158
809.883	4177
810.025	4227
810.166	4242
810.308	4200
810.45	4276
810.591	4219
810.733	4306
810.875	4546
811.016	4843
811.158	5124
811.299	5292
811.441	5265
811.582	5060
811.724	4717
811.865	4451
812.007	4478
812.148	4493
812.29	4421
812.431	4447
812.573	4402
812.714	4367
812.855	4383
812.997	4436
813.138	4504
813.279	4459
813.421	4402
813.562	4375
813.703	4295
813.845	4352
813.986	4280
814.127	4227
814.268	4299
814.41	4333
814.551	4295
814.692	4356
814.833	4242
814.974	4344
815.115	4306
815.256	4265
815.397	4223
815.539	4287
815.68	4211
815.821	4253
815.962	4356
816.103	4276
816.244	4227
816.385	4246
816.526	4272
816.666	4200
816.807	4124
816.948	4230
817.089	4227
817.23	4143
817.371	4059
817.512	4055
817.653	4059
817.793	4101
817.934	4021
818.075	4154
818.216	4112
818.356	4074
818.497	3998
818.638	3934
818.778	3911
818.919	3892
819.06	3861
819.2	3922
819.341	3861
819.481	3842
819.622	3918
819.762	4006
819.903	3964
820.043	3892
820.184	3861
820.324	3857
820.465	3888
820.605	3857
820.746	3854
820.886	3846
821.026	3941
821.167	3949
821.307	3964
821.447	3960
821.588	4006
821.728	3892
821.868	3964
822.008	3896
822.149	3926
822.289	3922
822.429	3778
822.569	3785
822.709	3793
822.849	3694
822.99	3728
823.13	3732
823.27	3755
823.41	3747
823.55	3781
823.69	3713
823.83	3759
823.97	3709
824.11	3610
824.25	3580
824.389	3637
824.529	3682
824.669	3686
824.809	3740
824.949	3732
825.089	3743
825.228	3728
825.368	3557
825.508	3568
825.648	3584
825.787	3625
825.927	3614
826.067	3686
826.206	3656
826.346	3785
826.485	3869
826.625	3876
826.765	3972
826.904	3812
827.044	3629
827.183	3526
827.323	3466
827.462	3523
827.601	3473
827.741	3466
827.88	3401
828.02	3386
828.159	3447
828.298	3542
828.437	3584
828.577	3488
828.716	3603
828.855	3515
828.994	3370
829.134	3389
829.273	3397
829.412	3340
829.551	3332
829.69	3363
829.829	3496
829.968	3538
830.107	3386
830.246	3431
830.385	3378
830.524	3378
830.663	3321
830.802	3287
830.941	3207
831.08	3203
831.219	3291
831.357	3264
831.496	3405
831.635	3249
831.774	3192
831.913	3245
832.051	3154
832.19	3199
832.329	3207
832.467	3157
832.606	3131
832.744	3188
832.883	3180
833.022	3218
833.16	3249
833.299	3310
833.437	3332
833.576	3420
833.714	3412
833.852	3431
833.991	3473
834.129	3492
834.267	3466
834.406	3420
834.544	3458
834.682	3462
834.821	3431
834.959	3576
835.097	3416
835.235	3553
835.373	3473
835.511	3523
835.65	3469
835.788	3519
835.926	3435
836.064	3389
836.202	3447
836.34	3561
836.478	3599
836.615	3568
836.753	3610
836.891	3694
837.029	3644
837.167	3599
837.305	3595
837.443	3587
837.58	3519
837.718	3587
837.856	3507
837.993	3572
838.131	3618
838.269	3618
838.406	3572
838.544	3576
838.681	3469
838.819	3477
838.956	3367
839.094	3412
839.231	3450
839.369	3496
839.506	3740
839.643	3656
839.781	3545
839.918	3488
840.055	3500
840.193	3500
840.33	3561
840.467	3584
840.604	3587
840.742	3808
840.879	3580
841.016	3599
841.153	3610
841.29	3762
841.427	3740
841.564	3755
841.701	3747
841.838	3740
841.975	3694
842.112	3759
842.249	3686
842.385	3637
842.522	3861
842.659	3682
842.796	3694
842.933	3755
843.069	3736
843.206	3694
843.343	3781
843.479	3800
843.616	3838
843.752	3698
843.889	3698
844.025	3842
844.162	3732
844.298	3880
844.435	3759
844.571	3812
844.708	3934
844.844	4025
844.98	4078
845.117	4051
845.253	3968
845.389	3896
845.525	3949
845.661	3960
845.798	3918
845.934	3983
846.07	3968
846.206	4059
846.342	4135
846.478	4074
846.614	3968
846.75	3968
846.886	3922
847.022	4055
847.158	4025
847.294	4017
847.429	4036
847.565	3994
847.701	4246
847.837	3899
847.972	3812
848.108	4002
848.244	3945
848.379	3876
848.515	3835
848.65	3831
848.786	3827
848.921	3907
849.057	3960
849.192	3979
849.328	3937
849.463	3945
849.598	3899
849.734	3930
849.869	3880
850.004	3812
850.14	3827
850.275	3751
850.41	3778
850.545	3781
850.68	3781
850.815	3842
850.95	3808
851.085	4010
851.22	3930
851.355	3808
851.49	3770
851.625	3804
851.76	3804
851.895	3743
852.03	3762
852.165	3835
852.299	3888
852.434	3903
852.569	3842
852.703	3884
852.838	3972
852.973	4063
853.107	4032
853.242	3876
853.376	3854
853.511	3789
853.645	3857
853.78	4040
853.914	3892
854.048	3922
854.183	3899
854.317	3968
854.451	4029
854.585	3979
854.72	3937
854.854	4044
854.988	3918
855.122	3994
855.256	3956
855.39	4017
855.524	4154
855.658	4074
855.792	4112
855.926	4150
856.06	4204
856.194	4242
856.327	4154
856.461	4128
856.595	4177
856.729	4200
856.862	4291
856.996	4230
857.13	4306
857.263	4371
857.397	4329
857.53	4341
857.664	4390
857.797	4413
857.931	4424
858.064	4428
858.197	4451
858.331	4428
858.464	4402
858.597	4367
858.731	4428
858.864	4481
858.997	4493
859.13	4538
859.263	4497
859.396	4592
859.529	4542
859.662	4546
859.795	4531
859.928	4626
860.061	4740
860.194	4778
860.327	4645
860.46	4656
860.592	4744
860.725	4805
860.858	4759
860.99	4736
861.123	4752
861.256	4698
861.388	4820
861.521	5296
861.653	4736
861.786	4729
861.918	4782
862.05	4820
862.183	4847
862.315	4900
862.447	4942
862.58	4885
862.712	4850
862.844	4710
862.976	4938
863.108	4927
863.24	5174
863.372	4793
863.504	4915
863.636	4877
863.768	4980
863.9	4923
864.032	4919
864.164	4927
864.296	5022
864.428	5090
864.559	5094
864.691	5094
864.823	5094
864.954	5121
865.086	5166
865.217	5140
865.349	5109
865.48	5208
865.612	5223
865.743	5364
865.875	5185
866.006	5178
866.137	5223
866.269	5223
866.4	5288
866.531	5208
866.662	5250
866.793	5322
866.924	5242
867.055	5315
867.186	5376
867.317	5387
867.448	5326
867.579	5360
867.71	5414
867.841	5414
867.972	5448
868.103	5497
868.233	5490
868.364	5463
868.495	5524
868.625	5703
868.756	5866
868.886	5684
869.017	5752
869.147	5836
869.278	5870
869.408	5813
869.539	5885
869.669	5927
869.799	5904
869.929	6076
870.06	6041
870.19	6235
870.32	6213
870.45	6258
870.58	6327
870.71	6437
870.84	6464
870.97	6448
871.1	6437
871.23	6623
871.36	6700
871.489	6662
871.619	6787
871.749	6871
871.879	6818
872.008	6905
872.138	6966
872.267	6993
872.397	7004
872.526	7053
872.656	7133
872.785	7240
872.915	7358
873.044	7537
873.173	7609
873.303	7632
873.432	7719
873.561	7868
873.69	7959
873.819	8039
873.948	8153
874.077	8271
874.206	8347
874.335	8404
874.464	8663
874.593	8895
874.722	8948
874.851	9119
874.979	9184
875.108	9363
875.237	9458
875.365	9488
875.494	9622
875.623	9785
875.751	9857
875.88	9998
876.008	10192
876.136	10223
876.265	10519
876.393	10683
876.521	10733
876.65	10858
876.778	10839
876.906	10927
877.034	11018
877.162	11124
877.29	11269
877.418	11231
877.546	11414
877.674	11486
877.802	11524
877.93	11512
878.058	11493
878.185	11585
878.313	11718
878.441	11680
878.568	11688
878.696	11809
878.824	11874
878.951	11961
879.079	11973
879.206	12091
879.333	12140
879.461	12011
879.588	12053
879.715	12091
879.842	12232
879.97	12102
880.097	11897
880.224	11897
880.351	11863
880.478	11939
880.605	11916
880.732	11798
880.859	12003
880.986	11908
881.112	11836
881.239	11714
881.366	11672
881.493	11547
881.619	11570
881.746	11516
881.872	11558
881.999	11524
882.125	11505
882.252	11554
882.378	11577
882.505	11551
882.631	11353
882.757	11235
882.883	11318
883.01	11337
883.136	11292
883.262	11151
883.388	11105
883.514	11178
883.64	11174
883.766	11174
883.892	11041
884.018	11094
884.143	11105
884.269	11155
884.395	10831
884.52	10714
884.646	10782
884.772	10725
884.897	10649
885.023	10691
885.148	10710
885.274	10748
885.399	10740
885.524	10626
885.65	10630
885.775	10565
885.9	10447
886.025	10561
886.15	10615
886.275	10500
886.4	10432
886.525	10394
886.65	10413
886.775	10409
886.9	10508
887.025	10504
887.149	10295
887.274	10246
887.399	10223
887.523	10192
887.648	10185
887.773	10135
887.897	10223
888.021	10257
888.146	10116
888.27	10246
888.395	10246
888.519	10192
888.643	10276
888.767	10192
888.891	10025
889.015	10006
889.139	10101
889.263	10010
889.387	10097
889.511	10147
889.635	10150
889.759	9964
889.883	9987
890.006	9979
890.13	10071
890.254	9972
890.377	10013
890.501	9892
890.624	9869
890.748	9892
890.871	9892
890.995	9652
891.118	9686
891.241	9846
891.364	9774
891.488	9899
891.611	9698
891.734	9789
891.857	9766
891.98	9694
892.103	9743
892.226	9816
892.349	9660
892.471	9534
892.594	9599
892.717	9618
892.839	9679
892.962	9694
893.085	9675
893.207	9622
893.33	9481
893.452	9610
893.575	9557
893.697	9599
893.819	9633
893.941	9633
894.064	9637
894.186	9447
894.308	9454
894.43	9530
894.552	9564
894.674	9561
894.796	9389
894.918	9458
895.04	9298
895.161	9386
895.283	9336
895.405	9260
895.526	9321
895.648	9287
895.769	9230
895.891	9298
896.012	9355
896.134	9233
896.255	9207
896.376	9146
896.498	9169
896.619	9116
896.74	9089
896.861	9032
896.982	9329
897.103	9306
897.224	9104
897.345	9077
897.466	9028
897.587	9055
897.708	9138
897.828	9058
897.949	9055
898.07	8861
898.19	9017
898.311	9043
898.431	8918
898.552	8845
898.672	8994
898.792	8979
898.913	8902
899.033	8804
899.153	8804
899.273	8667
899.393	8781
899.513	8777
899.633	8735
899.753	8727
899.873	8739
899.993	8743
900.113	8648
900.232	8648
900.352	8712
900.472	8571
900.591	8545
900.711	8644
900.83	8564
900.95	8640
901.069	8739
901.189	8606
901.308	8415
901.427	8530
901.546	8438
901.665	8488
901.784	8492
901.904	8438
902.023	8324
902.141	8191
902.26	8202
902.379	8275
902.498	8221
902.617	8195
902.735	8351
902.854	8317
902.973	8279
903.091	8084
903.21	8164
903.328	8130
903.446	8168
903.565	8088
903.683	8077
903.801	8088
903.919	8130
904.038	8149
904.156	8096
904.274	8126
904.392	8081
904.51	8058
904.627	8046
904.745	8073
904.863	8100
904.981	7967
905.098	7856
905.216	7887
905.334	7917
905.451	7826
905.569	7875
905.686	7967
905.803	7955
905.921	7788
906.038	7822
906.155	7826
906.272	7685
906.389	7750
906.506	7685
906.623	7681
906.74	7582
906.857	7548
906.974	7552
907.091	7632
907.208	7693
907.324	7651
907.441	7567
907.557	7438
907.674	7480
907.79	7453
907.907	7419
908.023	7457
908.139	7457
908.256	7392
908.372	7468
908.488	7282
908.604	7316
908.72	7312
908.836	7301
908.952	7270
909.068	7240
909.184	7327
909.3	7278
909.415	7232
909.531	7327
909.647	7095
909.762	7076
909.878	7141
909.993	7156
910.108	7080
910.224	7095
910.339	7027
910.454	7034
910.57	6981
910.685	6932
910.8	7129
910.915	7065
911.03	7046
911.145	6867
911.259	6867
911.374	6954
911.489	6875
911.604	6806
911.718	6684
911.833	6787
911.947	6635
912.062	6578
912.176	6673
912.291	6745
912.405	6722
912.519	6878
912.633	6844
912.748	6806
912.862	6726
912.976	6616
913.09	6566
913.204	6631
913.318	6681
913.431	6719
913.545	6696
913.659	6738
913.772	6578
913.886	6612
914	6608
914.113	6658
914.226	6642
914.34	6601
914.453	6536
914.566	6604
914.68	6513
914.793	6559
914.906	6422
915.019	6395
915.132	6399
915.245	6418
915.358	6391
915.47	6479
915.583	6464
915.696	6536
915.809	6521
915.921	6521
916.034	6384
916.146	6437
916.259	6403
916.371	6532
916.483	6486
916.595	6437
916.708	6429
916.82	6380
916.932	6391
917.044	6403
917.156	6437
917.268	6327
917.38	6331
917.491	6292
917.603	6331
917.715	6350
917.826	6414
917.938	6308
918.049	6224
918.161	6376
918.272	6448
918.384	6391
918.495	6342
918.606	6213
918.717	6270
918.828	6254
918.939	6258
919.05	6209
919.161	6266
919.272	6102
919.383	6201
919.494	6331
919.604	6452
919.715	6315
919.826	6254
919.936	6228
920.047	6357
920.157	6289
920.267	6517
920.378	6372
920.488	6331
920.598	6429
920.708	6563
920.818	6399
920.928	6418
921.038	6650
921.148	6574
921.258	6410
921.368	6277
921.477	6232
921.587	6201
921.697	6121
921.806	6155
921.916	6083
922.025	5965
922.134	5950
922.244	5889
922.353	6030
922.462	5863
922.571	5817
922.68	5722
922.789	5699
922.898	5714
923.007	5657
923.116	5676
923.224	5630
923.333	5649
923.442	5608
923.55	5596
923.659	5604
923.767	5665
923.876	5524
923.984	5611
924.092	5532
924.201	5611
924.309	5566
924.417	5604
924.525	5512
924.633	5524
924.741	6315
924.849	5379
924.956	5467
925.064	5372
925.172	5322
925.279	5322
925.387	5383
925.494	5357
925.602	5436
925.709	5368
925.816	5296
925.924	5307
926.031	5406
926.138	5322
926.245	5341
926.352	5212
926.459	5303
926.566	5341
926.673	5250
926.779	5155
926.886	5159
926.993	5094
927.099	5010
927.206	4961
927.312	4976
927.419	5025
927.525	5018
927.631	4961
927.737	4843
927.843	4862
927.95	4782
928.056	4793
928.162	4816
928.267	4866
928.373	5376
928.479	4862
928.585	4736
928.69	4759
928.796	4767
928.901	4725
929.007	4580
929.112	4675
929.218	4622
929.323	4603
929.428	4607
929.533	4687
929.638	4497
929.743	4542
929.848	4588
929.953	4542
930.058	4440
930.163	4333
930.267	4348
930.372	4405
930.477	4341
930.581	4470
930.685	4356
930.79	4230
930.894	4322
930.998	4246
931.103	4402
931.207	4162
931.311	4124
931.415	4013
931.519	3949
931.623	3941
