Data from glass_V78500241_2674.txt Node
Date: Wed Sep 01 19:33:02 CST 2021
User: usil
Spectrometer: V785-0024
Trigger mode: 0
Integration Time (sec): 4.000000E-1
Scans to average: 1
Nonlinearity correction enabled: false
Boxcar width: 0
Storing dark spectrum: false
XAxis mode: Wavelengths
Number of Pixels in Spectrum: 1024
>>>>>Begin Spectral Data<<<<<
801.071	3701
801.214	3759
801.356	3686
801.499	3705
801.641	3751
801.783	3808
801.926	3838
802.068	3827
802.211	3854
802.353	3850
802.496	3846
802.638	3854
802.78	3865
802.923	3888
803.065	3888
803.208	3857
803.35	3846
803.492	3876
803.635	3903
803.777	3789
803.919	3915
804.061	4154
804.204	3918
804.346	3937
804.488	3899
804.63	3998
804.773	3941
804.915	4036
805.057	4135
805.199	4013
805.341	4025
805.483	4131
805.626	4082
805.768	4128
805.91	4166
806.052	4238
806.194	4211
806.336	4341
806.478	4200
806.62	4177
806.762	4188
806.904	4238
807.046	4314
807.188	4200
807.33	4139
807.472	4246
807.614	4234
807.756	4257
807.898	4234
808.04	4227
808.182	4287
808.324	4310
808.465	4363
808.607	4462
808.749	4436
808.891	4466
809.033	4497
809.174	4375
809.316	4306
809.458	4215
809.6	4105
809.741	4143
809.883	4177
810.025	4185
810.166	4185
810.308	4166
810.45	4253
810.591	4219
810.733	4204
810.875	4481
811.016	4801
811.158	5098
811.299	5193
811.441	5273
811.582	5075
811.724	4694
811.865	4424
812.007	4443
812.148	4417
812.29	4409
812.431	4390
812.573	4409
812.714	4390
812.855	4394
812.997	4360
813.138	4478
813.279	4360
813.421	4356
813.562	4386
813.703	4295
813.845	4295
813.986	4200
814.127	4196
814.268	4272
814.41	4276
814.551	4207
814.692	4314
814.833	4249
814.974	4265
815.115	4352
815.256	4280
815.397	4230
815.539	4211
815.68	4188
815.821	4234
815.962	4303
816.103	4257
816.244	4207
816.385	4158
816.526	4253
816.666	4200
816.807	4078
816.948	4166
817.089	4131
817.23	4067
817.371	4036
817.512	4025
817.653	4071
817.793	4032
817.934	4059
818.075	4086
818.216	4074
818.356	4063
818.497	3987
818.638	3903
818.778	3941
818.919	3907
819.06	3869
819.2	3884
819.341	3819
819.481	3873
819.622	3880
819.762	3994
819.903	3918
820.043	3800
820.184	3812
820.324	3774
820.465	3857
820.605	3850
820.746	3880
820.886	3724
821.026	3884
821.167	3899
821.307	3945
821.447	3991
821.588	3949
821.728	3918
821.868	3884
822.008	3808
822.149	3896
822.289	3899
822.429	3770
822.569	3766
822.709	3740
822.849	3679
822.99	3713
823.13	3717
823.27	3743
823.41	3686
823.55	3698
823.69	3698
823.83	3720
823.97	3675
824.11	3587
824.25	3549
824.389	3614
824.529	3663
824.669	3614
824.809	3671
824.949	3740
825.089	3789
825.228	3720
825.368	3606
825.508	3538
825.648	3511
825.787	3584
825.927	3625
826.067	3622
826.206	3618
826.346	3732
826.485	3789
826.625	3850
826.765	3915
826.904	3857
827.044	3614
827.183	3564
827.323	3393
827.462	3469
827.601	3424
827.741	3412
827.88	3473
828.02	3382
828.159	3454
828.298	3447
828.437	3500
828.577	3458
828.716	3538
828.855	3485
828.994	3310
829.134	3370
829.273	3382
829.412	3321
829.551	3336
829.69	3348
829.829	3431
829.968	3526
830.107	3412
830.246	3389
830.385	3382
830.524	3359
830.663	3279
830.802	3283
830.941	3180
831.08	3218
831.219	3260
831.357	3249
831.496	3420
831.635	3222
831.774	3169
831.913	3184
832.051	3089
832.19	3169
832.329	3188
832.467	3108
832.606	3085
832.744	3131
832.883	3176
833.022	3146
833.16	3203
833.299	3306
833.437	3321
833.576	3355
833.714	3382
833.852	3439
833.991	3428
834.129	3439
834.267	3454
834.406	3382
834.544	3409
834.682	3409
834.821	3389
834.959	3549
835.097	3420
835.235	3504
835.373	3481
835.511	3504
835.65	3473
835.788	3473
835.926	3370
836.064	3378
836.202	3424
836.34	3549
836.478	3568
836.615	3538
836.753	3545
836.891	3599
837.029	3618
837.167	3542
837.305	3500
837.443	3545
837.58	3477
837.718	3572
837.856	3526
837.993	3485
838.131	3580
838.269	3545
838.406	3568
838.544	3561
838.681	3450
838.819	3454
838.956	3389
839.094	3412
839.231	3435
839.369	3481
839.506	3720
839.643	3595
839.781	3473
839.918	3466
840.055	3492
840.193	3530
840.33	3523
840.467	3576
840.604	3580
840.742	3797
840.879	3519
841.016	3538
841.153	3618
841.29	3766
841.427	3663
841.564	3736
841.701	3736
841.838	3682
841.975	3652
842.112	3705
842.249	3576
842.385	3637
842.522	3812
842.659	3667
842.796	3652
842.933	3698
843.069	3679
843.206	3698
843.343	3789
843.479	3759
843.616	3789
843.752	3717
843.889	3694
844.025	3835
844.162	3728
844.298	3827
844.435	3793
844.571	3789
844.708	3934
844.844	3926
844.98	3994
845.117	3972
845.253	3918
845.389	3854
845.525	3983
845.661	3915
845.798	3892
845.934	3899
846.07	3953
846.206	4044
846.342	4097
846.478	4055
846.614	3918
846.75	3937
846.886	3896
847.022	3975
847.158	4002
847.294	3937
847.429	4021
847.565	4002
847.701	4242
847.837	3857
847.972	3869
848.108	3979
848.244	3941
848.379	3846
848.515	3789
848.65	3838
848.786	3778
848.921	3869
849.057	3884
849.192	3941
849.328	3915
849.463	3934
849.598	3884
849.734	3838
849.869	3865
850.004	3751
850.14	3751
850.275	3816
850.41	3690
850.545	3701
850.68	3800
850.815	3766
850.95	3785
851.085	3956
851.22	3816
851.355	3819
851.49	3751
851.625	3800
851.76	3789
851.895	3705
852.03	3679
852.165	3793
852.299	3797
852.434	3899
852.569	3888
852.703	3888
852.838	3907
852.973	4002
853.107	3972
853.242	3892
853.376	3850
853.511	3770
853.645	3831
853.78	3945
853.914	3918
854.048	3857
854.183	3876
854.317	3945
854.451	4006
854.585	3945
854.72	3945
854.854	3987
854.988	3911
855.122	3979
855.256	3880
855.39	3975
855.524	4036
855.658	4048
855.792	4086
855.926	4078
856.06	4166
856.194	4196
856.327	4112
856.461	4109
856.595	4112
856.729	4147
856.862	4276
856.996	4242
857.13	4287
857.263	4333
857.397	4383
857.53	4272
857.664	4379
857.797	4352
857.931	4383
858.064	4360
858.197	4447
858.331	4341
858.464	4440
858.597	4371
858.731	4390
858.864	4470
858.997	4417
859.13	4500
859.263	4504
859.396	4554
859.529	4558
859.662	4508
859.795	4519
859.928	4565
860.061	4687
860.194	4733
860.327	4675
860.46	4596
860.592	4691
860.725	4733
860.858	4748
860.99	4645
861.123	4626
861.256	4683
861.388	4736
861.521	5318
861.653	4717
861.786	4736
861.918	4717
862.05	4763
862.183	4850
862.315	4908
862.447	4919
862.58	4866
862.712	4778
862.844	4771
862.976	4854
863.108	4850
863.24	5212
863.372	4812
863.504	4839
863.636	4877
863.768	4930
863.9	4984
864.032	4927
864.164	4961
864.296	4953
864.428	5048
864.559	5098
864.691	5102
864.823	5105
864.954	5140
865.086	5140
865.217	5113
865.349	5041
865.48	5132
865.612	5166
865.743	5280
865.875	5155
866.006	5189
866.137	5212
866.269	5201
866.4	5284
866.531	5220
866.662	5216
866.793	5269
866.924	5223
867.055	5372
867.186	5303
867.317	5364
867.448	5292
867.579	5326
867.71	5341
867.841	5421
867.972	5471
868.103	5410
868.233	5474
868.364	5474
868.495	5497
868.625	5630
868.756	5764
868.886	5684
869.017	5729
869.147	5828
869.278	5866
869.408	5790
869.539	5836
869.669	5908
869.799	5920
869.929	6011
870.06	5969
870.19	6201
870.32	6136
870.45	6239
870.58	6338
870.71	6429
870.84	6414
870.97	6357
871.1	6426
871.23	6620
871.36	6650
871.489	6642
871.619	6700
871.749	6814
871.879	6871
872.008	6935
872.138	7027
872.267	7008
872.397	6996
872.526	7065
872.656	7114
872.785	7175
872.915	7373
873.044	7441
873.173	7590
873.303	7609
873.432	7795
873.561	7860
873.69	7845
873.819	7997
873.948	8187
874.077	8210
874.206	8332
874.335	8480
874.464	8575
874.593	8811
874.722	8933
874.851	9138
874.979	9272
875.108	9363
875.237	9435
875.365	9473
875.494	9682
875.623	9835
875.751	9838
875.88	9945
876.008	10143
876.136	10246
876.265	10478
876.393	10717
876.521	10748
876.65	10801
876.778	10839
876.906	10881
877.034	10942
877.162	11014
877.29	11105
877.418	11242
877.546	11288
877.674	11463
877.802	11433
877.93	11493
878.058	11512
878.185	11528
878.313	11676
878.441	11710
878.568	11638
878.696	11798
878.824	11885
878.951	11897
879.079	11969
879.206	12129
879.333	12034
879.461	11969
879.588	12110
879.715	12026
879.842	12197
879.97	12045
880.097	11866
880.224	11870
880.351	11904
880.478	11855
880.605	11847
880.732	11798
880.859	12007
880.986	11726
881.112	11748
881.239	11653
881.366	11642
881.493	11661
881.619	11554
881.746	11520
881.872	11497
881.999	11429
882.125	11486
882.252	11573
882.378	11440
882.505	11604
882.631	11356
882.757	11280
882.883	11212
883.01	11239
883.136	11174
883.262	11178
883.388	11079
883.514	11147
883.64	11071
883.766	11094
883.892	10980
884.018	10949
884.143	11143
884.269	11048
884.395	10824
884.52	10774
884.646	10755
884.772	10653
884.897	10691
885.023	10653
885.148	10782
885.274	10733
885.399	10599
885.524	10561
885.65	10565
885.775	10558
885.9	10497
886.025	10637
886.15	10588
886.275	10424
886.4	10325
886.525	10455
886.65	10424
886.775	10280
886.9	10432
887.025	10546
887.149	10352
887.274	10268
887.399	10162
887.523	10181
887.648	10082
887.773	10166
887.897	10219
888.021	10223
888.146	10093
888.27	10181
888.395	10207
888.519	10173
888.643	10185
888.767	10093
888.891	9994
889.015	9994
889.139	10025
889.263	9945
889.387	10029
889.511	10063
889.635	10074
889.759	9953
889.883	9972
890.006	10078
890.13	10040
890.254	9979
890.377	9972
890.501	9762
890.624	9831
890.748	9953
890.871	9793
890.995	9736
891.118	9694
891.241	9656
891.364	9671
891.488	9831
891.611	9747
891.734	9793
891.857	9720
891.98	9637
892.103	9713
892.226	9759
892.349	9606
892.471	9542
892.594	9610
892.717	9606
892.839	9568
892.962	9633
893.085	9641
893.207	9526
893.33	9507
893.452	9504
893.575	9675
893.697	9561
893.819	9561
893.941	9606
894.064	9580
894.186	9397
894.308	9389
894.43	9511
894.552	9568
894.674	9534
894.796	9374
894.918	9412
895.04	9405
895.161	9317
895.283	9260
895.405	9241
895.526	9211
895.648	9268
895.769	9218
895.891	9203
896.012	9268
896.134	9199
896.255	9176
896.376	9180
896.498	9074
896.619	9165
896.74	9001
896.861	9097
896.982	9272
897.103	9226
897.224	9119
897.345	9047
897.466	8952
897.587	9043
897.708	9112
897.828	9005
897.949	8956
898.07	8880
898.19	8880
898.311	8902
898.431	8823
898.552	8937
898.672	8952
898.792	9020
898.913	8944
899.033	8826
899.153	8785
899.273	8686
899.393	8655
899.513	8727
899.633	8750
899.753	8655
899.873	8708
899.993	8750
900.113	8651
900.232	8663
900.352	8655
900.472	8598
900.591	8484
900.711	8583
900.83	8533
900.95	8632
901.069	8693
901.189	8587
901.308	8423
901.427	8374
901.546	8389
901.665	8419
901.784	8518
901.904	8282
902.023	8320
902.141	8176
902.26	8187
902.379	8309
902.498	8275
902.617	8237
902.735	8328
902.854	8259
902.973	8225
903.091	8096
903.21	8062
903.328	8168
903.446	8065
903.565	8096
903.683	8134
903.801	8058
903.919	8069
904.038	8157
904.156	7978
904.274	8065
904.392	8012
904.51	7993
904.627	8084
904.745	7978
904.863	8054
904.981	7913
905.098	7849
905.216	7792
905.334	7917
905.451	7947
905.569	7887
905.686	7898
905.803	7887
905.921	7738
906.038	7864
906.155	7738
906.272	7639
906.389	7693
906.506	7620
906.623	7632
906.74	7647
906.857	7548
906.974	7559
907.091	7605
907.208	7712
907.324	7609
907.441	7586
907.557	7483
907.674	7419
907.79	7377
907.907	7438
908.023	7426
908.139	7441
908.256	7339
908.372	7301
908.488	7339
908.604	7255
908.72	7217
908.836	7236
908.952	7225
909.068	7240
909.184	7263
909.3	7259
909.415	7251
909.531	7255
909.647	7137
909.762	7091
909.878	7072
909.993	7088
910.108	7126
910.224	7122
910.339	7095
910.454	7088
910.57	6966
910.685	6935
910.8	7114
910.915	7076
911.03	6970
911.145	6837
911.259	6806
911.374	6875
911.489	6806
911.604	6791
911.718	6764
911.833	6741
911.947	6612
912.062	6627
912.176	6639
912.291	6692
912.405	6631
912.519	6859
912.633	6814
912.748	6757
912.862	6669
912.976	6559
913.09	6532
913.204	6589
913.318	6589
913.431	6715
913.545	6715
913.659	6700
913.772	6684
913.886	6513
914	6540
914.113	6582
914.226	6646
914.34	6604
914.453	6403
914.566	6608
914.68	6490
914.793	6517
914.906	6467
915.019	6391
915.132	6380
915.245	6388
915.358	6384
915.47	6395
915.583	6422
915.696	6509
915.809	6467
915.921	6460
916.034	6372
916.146	6410
916.259	6357
916.371	6460
916.483	6403
916.595	6426
916.708	6399
916.82	6346
916.932	6346
917.044	6334
917.156	6350
917.268	6304
917.38	6292
917.491	6315
917.603	6350
917.715	6357
917.826	6441
917.938	6323
918.049	6213
918.161	6266
918.272	6445
918.384	6376
918.495	6308
918.606	6197
918.717	6144
918.828	6300
918.939	6331
919.05	6152
919.161	6167
919.272	6136
919.383	6098
919.494	6296
919.604	6350
919.715	6277
919.826	6190
919.936	6220
920.047	6285
920.157	6194
920.267	6407
920.378	6254
920.488	6300
920.598	6426
920.708	6525
920.818	6475
920.928	6403
921.038	6566
921.148	6521
921.258	6350
921.368	6281
921.477	6167
921.587	6205
921.697	6102
921.806	6209
921.916	6030
922.025	5935
922.134	5939
922.244	5889
922.353	5893
922.462	5805
922.571	5764
922.68	5707
922.789	5646
922.898	5688
923.007	5604
923.116	5703
923.224	5623
923.333	5623
923.442	5596
923.55	5535
923.659	5570
923.767	5589
923.876	5501
923.984	5623
924.092	5512
924.201	5539
924.309	5543
924.417	5585
924.525	5497
924.633	5478
924.741	6258
924.849	5406
924.956	5467
925.064	5360
925.172	5322
925.279	5299
925.387	5360
925.494	5296
925.602	5410
925.709	5395
925.816	5235
925.924	5261
926.031	5406
926.138	5273
926.245	5258
926.352	5235
926.459	5284
926.566	5250
926.673	5181
926.779	5140
926.886	5090
926.993	5014
927.099	4965
927.206	4953
927.312	4862
927.419	4987
927.525	4957
927.631	4965
927.737	4889
927.843	4847
927.95	4729
928.056	4786
928.162	4801
928.267	4824
928.373	5216
928.479	4805
928.585	4664
928.69	4755
928.796	4771
928.901	4683
929.007	4558
929.112	4664
929.218	4645
929.323	4611
929.428	4546
929.533	4675
929.638	4531
929.743	4504
929.848	4485
929.953	4519
930.058	4478
930.163	4280
930.267	4306
930.372	4440
930.477	4268
930.581	4474
930.685	4356
930.79	4242
930.894	4276
930.998	4238
931.103	4375
931.207	4071
931.311	4067
931.415	3987
931.519	3922
931.623	3934
