Data from glass_V78500241_1090.txt Node
Date: Wed Sep 01 19:22:03 CST 2021
User: usil
Spectrometer: V785-0024
Trigger mode: 0
Integration Time (sec): 4.000000E-1
Scans to average: 1
Nonlinearity correction enabled: false
Boxcar width: 0
Storing dark spectrum: false
XAxis mode: Wavelengths
Number of Pixels in Spectrum: 1024
>>>>>Begin Spectral Data<<<<<
801.071	3755
801.214	3781
801.356	3648
801.499	3740
801.641	3720
801.783	3793
801.926	3884
802.068	3804
802.211	3907
802.353	3918
802.496	3816
802.638	3915
802.78	3911
802.923	3975
803.065	3896
803.208	3854
803.35	3857
803.492	3930
803.635	3975
803.777	3819
803.919	3930
804.061	4238
804.204	3956
804.346	3968
804.488	3964
804.63	4048
804.773	3945
804.915	4032
805.057	4188
805.199	4063
805.341	4109
805.483	4166
805.626	4166
805.768	4150
805.91	4200
806.052	4230
806.194	4253
806.336	4386
806.478	4192
806.62	4188
806.762	4185
806.904	4253
807.046	4318
807.188	4246
807.33	4223
807.472	4261
807.614	4192
807.756	4257
807.898	4230
808.04	4242
808.182	4337
808.324	4337
808.465	4394
808.607	4443
808.749	4451
808.891	4481
809.033	4550
809.174	4424
809.316	4295
809.458	4276
809.6	4097
809.741	4192
809.883	4147
810.025	4211
810.166	4204
810.308	4219
810.45	4230
810.591	4295
810.733	4322
810.875	4538
811.016	4847
811.158	5121
811.299	5269
811.441	5284
811.582	5045
811.724	4675
811.865	4451
812.007	4451
812.148	4409
812.29	4462
812.431	4440
812.573	4443
812.714	4394
812.855	4470
812.997	4417
813.138	4470
813.279	4428
813.421	4421
813.562	4360
813.703	4352
813.845	4348
813.986	4257
814.127	4230
814.268	4291
814.41	4280
814.551	4249
814.692	4325
814.833	4257
814.974	4352
815.115	4329
815.256	4295
815.397	4246
815.539	4196
815.68	4238
815.821	4219
815.962	4348
816.103	4306
816.244	4249
816.385	4249
816.526	4322
816.666	4223
816.807	4112
816.948	4173
817.089	4200
817.23	4090
817.371	4090
817.512	4128
817.653	4074
817.793	4044
817.934	4059
818.075	4071
818.216	4105
818.356	4086
818.497	3960
818.638	3926
818.778	3945
818.919	3899
819.06	3812
819.2	3945
819.341	3869
819.481	3823
819.622	3907
819.762	4002
819.903	3979
820.043	3888
820.184	3812
820.324	3846
820.465	3873
820.605	3869
820.746	3880
820.886	3793
821.026	3956
821.167	3949
821.307	4013
821.447	3979
821.588	3941
821.728	3937
821.868	3956
822.008	3869
822.149	3941
822.289	3922
822.429	3759
822.569	3789
822.709	3808
822.849	3667
822.99	3717
823.13	3774
823.27	3778
823.41	3713
823.55	3713
823.69	3694
823.83	3724
823.97	3663
824.11	3648
824.25	3587
824.389	3667
824.529	3679
824.669	3652
824.809	3717
824.949	3770
825.089	3747
825.228	3690
825.368	3606
825.508	3580
825.648	3599
825.787	3667
825.927	3648
826.067	3671
826.206	3679
826.346	3793
826.485	3850
826.625	3899
826.765	3930
826.904	3842
827.044	3610
827.183	3530
827.323	3473
827.462	3473
827.601	3409
827.741	3462
827.88	3420
828.02	3416
828.159	3412
828.298	3481
828.437	3519
828.577	3473
828.716	3595
828.855	3523
828.994	3378
829.134	3378
829.273	3389
829.412	3329
829.551	3336
829.69	3389
829.829	3439
829.968	3500
830.107	3420
830.246	3431
830.385	3382
830.524	3348
830.663	3294
830.802	3272
830.941	3199
831.08	3233
831.219	3226
831.357	3313
831.496	3389
831.635	3249
831.774	3199
831.913	3199
832.051	3123
832.19	3135
832.329	3199
832.467	3142
832.606	3104
832.744	3176
832.883	3199
833.022	3184
833.16	3237
833.299	3332
833.437	3359
833.576	3355
833.714	3447
833.852	3435
833.991	3469
834.129	3488
834.267	3469
834.406	3393
834.544	3435
834.682	3424
834.821	3420
834.959	3564
835.097	3431
835.235	3561
835.373	3511
835.511	3515
835.65	3439
835.788	3564
835.926	3409
836.064	3397
836.202	3405
836.34	3530
836.478	3618
836.615	3534
836.753	3633
836.891	3633
837.029	3614
837.167	3595
837.305	3591
837.443	3538
837.58	3481
837.718	3599
837.856	3591
837.993	3526
838.131	3629
838.269	3584
838.406	3572
838.544	3576
838.681	3443
838.819	3481
838.956	3386
839.094	3397
839.231	3443
839.369	3549
839.506	3736
839.643	3633
839.781	3526
839.918	3500
840.055	3526
840.193	3545
840.33	3549
840.467	3545
840.604	3580
840.742	3797
840.879	3545
841.016	3587
841.153	3564
841.29	3713
841.427	3724
841.564	3720
841.701	3785
841.838	3720
841.975	3686
842.112	3709
842.249	3652
842.385	3618
842.522	3781
842.659	3717
842.796	3644
842.933	3660
843.069	3709
843.206	3709
843.343	3823
843.479	3778
843.616	3785
843.752	3652
843.889	3682
844.025	3861
844.162	3759
844.298	3869
844.435	3808
844.571	3789
844.708	3922
844.844	3949
844.98	4017
845.117	4013
845.253	3934
845.389	3918
845.525	3945
845.661	3964
845.798	3934
845.934	3983
846.07	3934
846.206	4036
846.342	4093
846.478	4059
846.614	3972
846.75	3953
846.886	3922
847.022	4071
847.158	3991
847.294	3991
847.429	4017
847.565	4006
847.701	4196
847.837	3926
847.972	3907
848.108	3987
848.244	3930
848.379	3846
848.515	3838
848.65	3846
848.786	3842
848.921	3850
849.057	3949
849.192	3960
849.328	3884
849.463	3926
849.598	3937
849.734	3842
849.869	3835
850.004	3819
850.14	3857
850.275	3812
850.41	3755
850.545	3781
850.68	3835
850.815	3838
850.95	3816
851.085	3896
851.22	3842
851.355	3865
851.49	3778
851.625	3808
851.76	3808
851.895	3755
852.03	3728
852.165	3816
852.299	3857
852.434	3911
852.569	3892
852.703	3869
852.838	3964
852.973	4025
853.107	3972
853.242	3888
853.376	3873
853.511	3778
853.645	3835
853.78	3987
853.914	3911
854.048	3915
854.183	3880
854.317	3972
854.451	4051
854.585	3945
854.72	3945
854.854	4105
854.988	3953
855.122	3994
855.256	3934
855.39	4051
855.524	4112
855.658	4124
855.792	4128
855.926	4158
856.06	4192
856.194	4238
856.327	4181
856.461	4169
856.595	4147
856.729	4200
856.862	4306
856.996	4287
857.13	4261
857.263	4344
857.397	4367
857.53	4261
857.664	4386
857.797	4428
857.931	4459
858.064	4405
858.197	4451
858.331	4417
858.464	4424
858.597	4325
858.731	4398
858.864	4493
858.997	4478
859.13	4527
859.263	4527
859.396	4607
859.529	4535
859.662	4535
859.795	4519
859.928	4653
860.061	4721
860.194	4744
860.327	4660
860.46	4668
860.592	4755
860.725	4706
860.858	4740
860.99	4702
861.123	4702
861.256	4740
861.388	4774
861.521	5425
861.653	4679
861.786	4710
861.918	4698
862.05	4801
862.183	4828
862.315	4843
862.447	4892
862.58	4877
862.712	4778
862.844	4820
862.976	4873
863.108	4854
863.24	5166
863.372	4881
863.504	4923
863.636	4904
863.768	4961
863.9	4995
864.032	4930
864.164	4972
864.296	5033
864.428	5132
864.559	5109
864.691	5102
864.823	5159
864.954	5117
865.086	5147
865.217	5178
865.349	5090
865.48	5159
865.612	5170
865.743	5292
865.875	5227
866.006	5174
866.137	5254
866.269	5269
866.4	5261
866.531	5250
866.662	5258
866.793	5303
866.924	5280
867.055	5376
867.186	5345
867.317	5330
867.448	5318
867.579	5383
867.71	5391
867.841	5452
867.972	5459
868.103	5497
868.233	5539
868.364	5509
868.495	5581
868.625	5691
868.756	5794
868.886	5668
869.017	5699
869.147	5874
869.278	5874
869.408	5817
869.539	5885
869.669	5897
869.799	5931
869.929	6034
870.06	5999
870.19	6190
870.32	6232
870.45	6258
870.58	6289
870.71	6418
870.84	6486
870.97	6448
871.1	6395
871.23	6658
871.36	6673
871.489	6662
871.619	6768
871.749	6776
871.879	6829
872.008	6989
872.138	6966
872.267	7023
872.397	7027
872.526	7046
872.656	7122
872.785	7213
872.915	7369
873.044	7499
873.173	7605
873.303	7636
873.432	7765
873.561	7932
873.69	7925
873.819	8012
873.948	8195
874.077	8248
874.206	8324
874.335	8438
874.464	8617
874.593	8910
874.722	8895
874.851	9097
874.979	9249
875.108	9340
875.237	9435
875.365	9523
875.494	9591
875.623	9903
875.751	9823
875.88	10017
876.008	10135
876.136	10375
876.265	10558
876.393	10759
876.521	10687
876.65	10896
876.778	10824
876.906	10885
877.034	10995
877.162	11136
877.29	11231
877.418	11345
877.546	11383
877.674	11512
877.802	11490
877.93	11532
878.058	11611
878.185	11611
878.313	11691
878.441	11836
878.568	11688
878.696	11760
878.824	11912
878.951	11954
879.079	12068
879.206	12197
879.333	12079
879.461	12038
879.588	12182
879.715	12072
879.842	12262
879.97	12110
880.097	11870
880.224	11821
880.351	11897
880.478	11878
880.605	11958
880.732	11794
880.859	12034
880.986	11836
881.112	11874
881.239	11726
881.366	11729
881.493	11577
881.619	11520
881.746	11608
881.872	11516
881.999	11490
882.125	11532
882.252	11505
882.378	11547
882.505	11512
882.631	11383
882.757	11311
882.883	11299
883.01	11288
883.136	11269
883.262	11128
883.388	11143
883.514	11204
883.64	11227
883.766	11159
883.892	10968
884.018	11033
884.143	11086
884.269	11079
884.395	10816
884.52	10896
884.646	10839
884.772	10698
884.897	10683
885.023	10786
885.148	10694
885.274	10755
885.399	10714
885.524	10637
885.65	10679
885.775	10580
885.9	10542
886.025	10675
886.15	10538
886.275	10569
886.4	10390
886.525	10398
886.65	10474
886.775	10348
886.9	10523
887.025	10531
887.149	10291
887.274	10303
887.399	10253
887.523	10200
887.648	10261
887.773	10135
887.897	10234
888.021	10169
888.146	10230
888.27	10223
888.395	10295
888.519	10124
888.643	10249
888.767	10227
888.891	10071
889.015	10055
889.139	10101
889.263	9960
889.387	10147
889.511	10196
889.635	10040
889.759	9949
889.883	10021
890.006	10006
890.13	10120
890.254	9945
890.377	9926
890.501	9903
890.624	9903
890.748	9880
890.871	9774
890.995	9770
891.118	9637
891.241	9709
891.364	9755
891.488	9861
891.611	9850
891.734	9781
891.857	9724
891.98	9728
892.103	9747
892.226	9694
892.349	9610
892.471	9564
892.594	9564
892.717	9610
892.839	9637
892.962	9584
893.085	9614
893.207	9542
893.33	9515
893.452	9591
893.575	9633
893.697	9599
893.819	9561
893.941	9660
894.064	9603
894.186	9389
894.308	9443
894.43	9477
894.552	9663
894.674	9599
894.796	9405
894.918	9485
895.04	9344
895.161	9332
895.283	9340
895.405	9245
895.526	9283
895.648	9298
895.769	9237
895.891	9340
896.012	9272
896.134	9294
896.255	9173
896.376	9142
896.498	9184
896.619	9173
896.74	9058
896.861	9077
896.982	9298
897.103	9306
897.224	9150
897.345	9077
897.466	9043
897.587	8921
897.708	9127
897.828	9039
897.949	9017
898.07	8899
898.19	8948
898.311	8941
898.431	8925
898.552	8963
898.672	8967
898.792	8925
898.913	8834
899.033	8842
899.153	8804
899.273	8705
899.393	8720
899.513	8777
899.633	8807
899.753	8731
899.873	8777
899.993	8766
900.113	8708
900.232	8743
900.352	8701
900.472	8632
900.591	8594
900.711	8651
900.83	8629
900.95	8712
901.069	8731
901.189	8594
901.308	8495
901.427	8431
901.546	8454
901.665	8488
901.784	8484
901.904	8396
902.023	8355
902.141	8263
902.26	8176
902.379	8294
902.498	8195
902.617	8218
902.735	8324
902.854	8256
902.973	8267
903.091	8134
903.21	8168
903.328	8187
903.446	8103
903.565	8134
903.683	8134
903.801	7993
903.919	8073
904.038	8100
904.156	8027
904.274	8107
904.392	8073
904.51	8065
904.627	8081
904.745	8130
904.863	8050
904.981	7978
905.098	7871
905.216	7902
905.334	7936
905.451	7925
905.569	7856
905.686	7928
905.803	7997
905.921	7811
906.038	7822
906.155	7795
906.272	7685
906.389	7719
906.506	7693
906.623	7639
906.74	7613
906.857	7578
906.974	7597
907.091	7628
907.208	7712
907.324	7712
907.441	7521
907.557	7495
907.674	7449
907.79	7419
907.907	7373
908.023	7472
908.139	7434
908.256	7430
908.372	7343
908.488	7297
908.604	7225
908.72	7228
908.836	7225
908.952	7278
909.068	7289
909.184	7335
909.3	7259
909.415	7297
909.531	7270
909.647	7149
909.762	7122
909.878	7080
909.993	7160
910.108	7095
910.224	7122
910.339	7095
910.454	7080
910.57	7053
910.685	7004
910.8	7202
910.915	7156
911.03	7031
911.145	6905
911.259	6844
911.374	6875
911.489	6810
911.604	6829
911.718	6798
911.833	6734
911.947	6738
912.062	6662
912.176	6688
912.291	6726
912.405	6719
912.519	6806
912.633	6829
912.748	6730
912.862	6798
912.976	6631
913.09	6563
913.204	6540
913.318	6578
913.431	6665
913.545	6684
913.659	6673
913.772	6639
913.886	6620
914	6563
914.113	6623
914.226	6601
914.34	6578
914.453	6490
914.566	6593
914.68	6570
914.793	6525
914.906	6464
915.019	6407
915.132	6357
915.245	6445
915.358	6464
915.47	6525
915.583	6471
915.696	6551
915.809	6547
915.921	6498
916.034	6384
916.146	6448
916.259	6372
916.371	6528
916.483	6422
916.595	6391
916.708	6395
916.82	6399
916.932	6334
917.044	6433
917.156	6365
917.268	6308
917.38	6331
917.491	6407
917.603	6388
917.715	6448
917.826	6479
917.938	6342
918.049	6296
918.161	6308
918.272	6403
918.384	6498
918.495	6372
918.606	6235
918.717	6243
918.828	6273
918.939	6315
919.05	6205
919.161	6292
919.272	6087
919.383	6129
919.494	6289
919.604	6361
919.715	6296
919.826	6262
919.936	6216
920.047	6315
920.157	6266
920.267	6483
920.378	6304
920.488	6300
920.598	6464
920.708	6616
920.818	6456
920.928	6475
921.038	6639
921.148	6608
921.258	6384
921.368	6353
921.477	6228
921.587	6205
921.697	6110
921.806	6175
921.916	6079
922.025	5973
922.134	5954
922.244	5908
922.353	5977
922.462	5859
922.571	5844
922.68	5722
922.789	5680
922.898	5672
923.007	5615
923.116	5710
923.224	5680
923.333	5714
923.442	5589
923.55	5558
923.659	5604
923.767	5596
923.876	5608
923.984	5570
924.092	5516
924.201	5615
924.309	5539
924.417	5543
924.525	5444
924.633	5440
924.741	6285
924.849	5478
924.956	5497
925.064	5360
925.172	5345
925.279	5330
925.387	5357
925.494	5395
925.602	5414
925.709	5398
925.816	5315
925.924	5341
926.031	5406
926.138	5292
926.245	5307
926.352	5265
926.459	5311
926.566	5322
926.673	5208
926.779	5170
926.886	5155
926.993	5105
927.099	5003
927.206	4995
927.312	4980
927.419	5075
927.525	5006
927.631	5029
927.737	4923
927.843	4847
927.95	4782
928.056	4850
928.162	4877
928.267	4877
928.373	5357
928.479	4854
928.585	4664
928.69	4790
928.796	4790
928.901	4729
929.007	4630
929.112	4733
929.218	4641
929.323	4630
929.428	4550
929.533	4664
929.638	4519
929.743	4565
929.848	4558
929.953	4519
930.058	4485
930.163	4360
930.267	4325
930.372	4455
930.477	4341
930.581	4489
930.685	4360
930.79	4230
930.894	4303
930.998	4219
931.103	4383
931.207	4120
931.311	4116
931.415	4006
931.519	3983
931.623	3968
