Data from glass_V78500241_2081.txt Node
Date: Wed Sep 01 19:28:55 CST 2021
User: usil
Spectrometer: V785-0024
Trigger mode: 0
Integration Time (sec): 4.000000E-1
Scans to average: 1
Nonlinearity correction enabled: false
Boxcar width: 0
Storing dark spectrum: false
XAxis mode: Wavelengths
Number of Pixels in Spectrum: 1024
>>>>>Begin Spectral Data<<<<<
801.071	3736
801.214	3747
801.356	3690
801.499	3751
801.641	3755
801.783	3785
801.926	3838
802.068	3797
802.211	3865
802.353	3873
802.496	3797
802.638	3896
802.78	3899
802.923	3934
803.065	3873
803.208	3873
803.35	3899
803.492	3876
803.635	3915
803.777	3785
803.919	3869
804.061	4143
804.204	3922
804.346	3934
804.488	3888
804.63	4078
804.773	3972
804.915	4055
805.057	4116
805.199	4048
805.341	4036
805.483	4124
805.626	4105
805.768	4093
805.91	4204
806.052	4265
806.194	4154
806.336	4329
806.478	4181
806.62	4169
806.762	4177
806.904	4253
807.046	4348
807.188	4185
807.33	4177
807.472	4272
807.614	4166
807.756	4211
807.898	4215
808.04	4219
808.182	4280
808.324	4322
808.465	4325
808.607	4409
808.749	4462
808.891	4470
809.033	4474
809.174	4405
809.316	4272
809.458	4227
809.6	4169
809.741	4128
809.883	4101
810.025	4196
810.166	4238
810.308	4215
810.45	4230
810.591	4207
810.733	4276
810.875	4527
811.016	4843
811.158	5102
811.299	5239
811.441	5265
811.582	5037
811.724	4744
811.865	4478
812.007	4432
812.148	4424
812.29	4367
812.431	4383
812.573	4417
812.714	4318
812.855	4398
812.997	4405
813.138	4485
813.279	4413
813.421	4409
813.562	4325
813.703	4337
813.845	4341
813.986	4295
814.127	4253
814.268	4272
814.41	4287
814.551	4261
814.692	4325
814.833	4272
814.974	4268
815.115	4318
815.256	4211
815.397	4272
815.539	4253
815.68	4188
815.821	4200
815.962	4257
816.103	4291
816.244	4246
816.385	4196
816.526	4268
816.666	4158
816.807	4112
816.948	4200
817.089	4196
817.23	4120
817.371	4086
817.512	4029
817.653	4116
817.793	4051
817.934	4055
818.075	4063
818.216	4067
818.356	4082
818.497	3979
818.638	3903
818.778	3926
818.919	3850
819.06	3850
819.2	3873
819.341	3880
819.481	3846
819.622	3911
819.762	4044
819.903	3956
820.043	3896
820.184	3861
820.324	3743
820.465	3846
820.605	3857
820.746	3903
820.886	3819
821.026	3930
821.167	3907
821.307	3979
821.447	4002
821.588	3949
821.728	3930
821.868	3937
822.008	3884
822.149	3926
822.289	3934
822.429	3762
822.569	3797
822.709	3778
822.849	3701
822.99	3728
823.13	3740
823.27	3789
823.41	3709
823.55	3694
823.69	3682
823.83	3747
823.97	3709
824.11	3568
824.25	3553
824.389	3618
824.529	3690
824.669	3641
824.809	3743
824.949	3732
825.089	3698
825.228	3682
825.368	3564
825.508	3557
825.648	3568
825.787	3595
825.927	3618
826.067	3629
826.206	3644
826.346	3785
826.485	3873
826.625	3861
826.765	3934
826.904	3846
827.044	3633
827.183	3545
827.323	3428
827.462	3485
827.601	3431
827.741	3431
827.88	3488
828.02	3344
828.159	3450
828.298	3488
828.437	3534
828.577	3462
828.716	3591
828.855	3443
828.994	3382
829.134	3344
829.273	3439
829.412	3325
829.551	3348
829.69	3359
829.829	3420
829.968	3435
830.107	3454
830.246	3412
830.385	3389
830.524	3348
830.663	3291
830.802	3237
830.941	3203
831.08	3211
831.219	3241
831.357	3256
831.496	3382
831.635	3245
831.774	3184
831.913	3203
832.051	3104
832.19	3131
832.329	3203
832.467	3119
832.606	3093
832.744	3142
832.883	3195
833.022	3192
833.16	3230
833.299	3287
833.437	3329
833.576	3367
833.714	3340
833.852	3447
833.991	3447
834.129	3469
834.267	3431
834.406	3397
834.544	3443
834.682	3428
834.821	3431
834.959	3580
835.097	3420
835.235	3534
835.373	3519
835.511	3504
835.65	3447
835.788	3454
835.926	3409
836.064	3374
836.202	3405
836.34	3568
836.478	3629
836.615	3507
836.753	3603
836.891	3648
837.029	3595
837.167	3587
837.305	3564
837.443	3515
837.58	3481
837.718	3542
837.856	3500
837.993	3534
838.131	3591
838.269	3557
838.406	3603
838.544	3580
838.681	3450
838.819	3439
838.956	3359
839.094	3355
839.231	3443
839.369	3488
839.506	3724
839.643	3629
839.781	3458
839.918	3454
840.055	3492
840.193	3511
840.33	3545
840.467	3534
840.604	3591
840.742	3793
840.879	3580
841.016	3542
841.153	3591
841.29	3789
841.427	3698
841.564	3698
841.701	3709
841.838	3663
841.975	3682
842.112	3698
842.249	3599
842.385	3618
842.522	3842
842.659	3682
842.796	3656
842.933	3694
843.069	3732
843.206	3728
843.343	3850
843.479	3816
843.616	3800
843.752	3675
843.889	3648
844.025	3800
844.162	3709
844.298	3827
844.435	3819
844.571	3778
844.708	3899
844.844	3975
844.98	3975
845.117	3998
845.253	3926
845.389	3934
845.525	3937
845.661	3972
845.798	3926
845.934	3979
846.07	3956
846.206	4055
846.342	4109
846.478	4082
846.614	3915
846.75	3915
846.886	3903
847.022	3998
847.158	3968
847.294	3972
847.429	3987
847.565	3983
847.701	4204
847.837	3865
847.972	3857
848.108	3979
848.244	3937
848.379	3857
848.515	3876
848.65	3846
848.786	3827
848.921	3854
849.057	3922
849.192	3892
849.328	3903
849.463	3911
849.598	3903
849.734	3880
849.869	3838
850.004	3781
850.14	3823
850.275	3766
850.41	3701
850.545	3740
850.68	3759
850.815	3770
850.95	3827
851.085	3922
851.22	3873
851.355	3835
851.49	3816
851.625	3770
851.76	3789
851.895	3759
852.03	3701
852.165	3838
852.299	3865
852.434	3888
852.569	3915
852.703	3903
852.838	3945
852.973	3998
853.107	3937
853.242	3876
853.376	3857
853.511	3770
853.645	3823
853.78	3972
853.914	3892
854.048	3873
854.183	3930
854.317	3941
854.451	4071
854.585	3964
854.72	3880
854.854	4067
854.988	3899
855.122	4010
855.256	3865
855.39	3968
855.524	4109
855.658	4051
855.792	4074
855.926	4124
856.06	4181
856.194	4177
856.327	4116
856.461	4086
856.595	4154
856.729	4188
856.862	4246
856.996	4166
857.13	4310
857.263	4318
857.397	4322
857.53	4257
857.664	4318
857.797	4405
857.931	4379
858.064	4363
858.197	4466
858.331	4356
858.464	4337
858.597	4356
858.731	4500
858.864	4440
858.997	4440
859.13	4451
859.263	4512
859.396	4512
859.529	4500
859.662	4550
859.795	4512
859.928	4546
860.061	4687
860.194	4744
860.327	4664
860.46	4653
860.592	4729
860.725	4740
860.858	4771
860.99	4675
861.123	4653
861.256	4694
861.388	4786
861.521	5474
861.653	4733
861.786	4714
861.918	4778
862.05	4744
862.183	4771
862.315	4896
862.447	4942
862.58	4847
862.712	4801
862.844	4717
862.976	4866
863.108	4870
863.24	5174
863.372	4793
863.504	4919
863.636	4885
863.768	4972
863.9	4976
864.032	4961
864.164	4877
864.296	5033
864.428	5075
864.559	5121
864.691	5109
864.823	5155
864.954	5109
865.086	5109
865.217	5098
865.349	5052
865.48	5136
865.612	5201
865.743	5307
865.875	5208
866.006	5220
866.137	5231
866.269	5197
866.4	5231
866.531	5212
866.662	5185
866.793	5273
866.924	5269
867.055	5315
867.186	5315
867.317	5376
867.448	5307
867.579	5349
867.71	5402
867.841	5429
867.972	5421
868.103	5452
868.233	5493
868.364	5467
868.495	5520
868.625	5604
868.756	5844
868.886	5653
869.017	5718
869.147	5809
869.278	5847
869.408	5813
869.539	5851
869.669	5882
869.799	5893
869.929	5973
870.06	6019
870.19	6152
870.32	6235
870.45	6220
870.58	6380
870.71	6422
870.84	6483
870.97	6422
871.1	6399
871.23	6616
871.36	6673
871.489	6635
871.619	6665
871.749	6814
871.879	6871
872.008	7038
872.138	7012
872.267	7004
872.397	6920
872.526	7053
872.656	7137
872.785	7217
872.915	7346
873.044	7472
873.173	7575
873.303	7677
873.432	7715
873.561	7864
873.69	7932
873.819	7959
873.948	8111
874.077	8210
874.206	8286
874.335	8526
874.464	8682
874.593	8872
874.722	8891
874.851	9119
874.979	9211
875.108	9351
875.237	9386
875.365	9481
875.494	9648
875.623	9819
875.751	9876
875.88	9983
876.008	10120
876.136	10276
876.265	10493
876.393	10675
876.521	10698
876.65	10801
876.778	10831
876.906	10927
877.034	10911
877.162	11121
877.29	11185
877.418	11239
877.546	11406
877.674	11459
877.802	11482
877.93	11497
878.058	11474
878.185	11497
878.313	11657
878.441	11771
878.568	11703
878.696	11779
878.824	11908
878.951	11950
879.079	11935
879.206	12038
879.333	12057
879.461	11946
879.588	12083
879.715	12110
879.842	12205
879.97	12045
880.097	11847
880.224	11912
880.351	11870
880.478	11954
880.605	11897
880.732	11847
880.859	11984
880.986	11790
881.112	11764
881.239	11703
881.366	11684
881.493	11589
881.619	11524
881.746	11554
881.872	11554
881.999	11493
882.125	11429
882.252	11551
882.378	11566
882.505	11516
882.631	11349
882.757	11284
882.883	11277
883.01	11261
883.136	11193
883.262	11086
883.388	11060
883.514	11151
883.64	11166
883.766	11117
883.892	10949
884.018	10995
884.143	11105
884.269	11086
884.395	10816
884.52	10790
884.646	10740
884.772	10736
884.897	10637
885.023	10660
885.148	10664
885.274	10801
885.399	10714
885.524	10641
885.65	10577
885.775	10637
885.9	10565
886.025	10622
886.15	10538
886.275	10527
886.4	10337
886.525	10382
886.65	10295
886.775	10367
886.9	10485
887.025	10493
887.149	10329
887.274	10150
887.399	10204
887.523	10196
887.648	10120
887.773	10090
887.897	10265
888.021	10200
888.146	10101
888.27	10238
888.395	10253
888.519	10112
888.643	10185
888.767	10147
888.891	10063
889.015	9968
889.139	10059
889.263	10040
889.387	10071
889.511	10086
889.635	10074
889.759	9994
889.883	9953
890.006	9975
890.13	10112
890.254	9979
890.377	9964
890.501	9857
890.624	9823
890.748	9899
890.871	9831
890.995	9743
891.118	9785
891.241	9785
891.364	9781
891.488	9827
891.611	9705
891.734	9781
891.857	9736
891.98	9671
892.103	9724
892.226	9717
892.349	9648
892.471	9572
892.594	9587
892.717	9557
892.839	9671
892.962	9568
893.085	9633
893.207	9584
893.33	9435
893.452	9591
893.575	9667
893.697	9530
893.819	9576
893.941	9622
894.064	9625
894.186	9416
894.308	9454
894.43	9519
894.552	9595
894.674	9549
894.796	9363
894.918	9397
895.04	9256
895.161	9325
895.283	9306
895.405	9245
895.526	9264
895.648	9161
895.769	9226
895.891	9241
896.012	9302
896.134	9241
896.255	9131
896.376	9119
896.498	9161
896.619	9138
896.74	9024
896.861	9017
896.982	9306
897.103	9275
897.224	9119
897.345	9104
897.466	8986
897.587	8979
897.708	9070
897.828	9062
897.949	8883
898.07	8853
898.19	8902
898.311	9032
898.431	8845
898.552	8895
898.672	9005
898.792	8975
898.913	8925
899.033	8769
899.153	8788
899.273	8629
899.393	8667
899.513	8758
899.633	8689
899.753	8682
899.873	8686
899.993	8712
900.113	8773
900.232	8689
900.352	8674
900.472	8556
900.591	8568
900.711	8590
900.83	8594
900.95	8716
901.069	8701
901.189	8556
901.308	8427
901.427	8358
901.546	8408
901.665	8396
901.784	8461
901.904	8336
902.023	8381
902.141	8202
902.26	8214
902.379	8343
902.498	8221
902.617	8206
902.735	8343
902.854	8282
902.973	8279
903.091	8172
903.21	8073
903.328	8176
903.446	8161
903.565	8031
903.683	8035
903.801	8065
903.919	8096
904.038	8183
904.156	8073
904.274	8046
904.392	8058
904.51	8054
904.627	8077
904.745	8111
904.863	8077
904.981	7883
905.098	7868
905.216	7860
905.334	7917
905.451	7852
905.569	7898
905.686	7883
905.803	7871
905.921	7871
906.038	7837
906.155	7731
906.272	7681
906.389	7738
906.506	7594
906.623	7605
906.74	7609
906.857	7582
906.974	7563
907.091	7613
907.208	7727
907.324	7681
907.441	7605
907.557	7460
907.674	7426
907.79	7457
907.907	7392
908.023	7476
908.139	7472
908.256	7316
908.372	7373
908.488	7339
908.604	7251
908.72	7232
908.836	7266
908.952	7278
909.068	7244
909.184	7400
909.3	7202
909.415	7259
909.531	7270
909.647	7122
909.762	7118
909.878	7091
909.993	7122
910.108	7110
910.224	7069
910.339	7088
910.454	7069
910.57	7034
910.685	6928
910.8	7137
910.915	7126
911.03	6966
911.145	6863
911.259	6852
911.374	6905
911.489	6859
911.604	6840
911.718	6715
911.833	6684
911.947	6654
912.062	6616
912.176	6703
912.291	6681
912.405	6677
912.519	6795
912.633	6821
912.748	6768
912.862	6692
912.976	6570
913.09	6506
913.204	6604
913.318	6566
913.431	6635
913.545	6646
913.659	6684
913.772	6654
913.886	6521
914	6536
914.113	6688
914.226	6623
914.34	6616
914.453	6517
914.566	6608
914.68	6528
914.793	6498
914.906	6460
915.019	6384
915.132	6376
915.245	6372
915.358	6437
915.47	6433
915.583	6479
915.696	6544
915.809	6486
915.921	6513
916.034	6399
916.146	6437
916.259	6456
916.371	6517
916.483	6418
916.595	6388
916.708	6388
916.82	6391
916.932	6410
917.044	6350
917.156	6342
917.268	6281
917.38	6311
917.491	6380
917.603	6338
917.715	6407
917.826	6426
917.938	6277
918.049	6262
918.161	6327
918.272	6467
918.384	6426
918.495	6323
918.606	6235
918.717	6190
918.828	6209
918.939	6273
919.05	6224
919.161	6243
919.272	6121
919.383	6106
919.494	6342
919.604	6418
919.715	6254
919.826	6235
919.936	6304
920.047	6327
920.157	6292
920.267	6433
920.378	6281
920.488	6247
920.598	6437
920.708	6525
920.818	6475
920.928	6407
921.038	6555
921.148	6563
921.258	6361
921.368	6273
921.477	6239
921.587	6175
921.697	6083
921.806	6159
921.916	6083
922.025	5973
922.134	5912
922.244	5840
922.353	5958
922.462	5817
922.571	5805
922.68	5703
922.789	5661
922.898	5699
923.007	5646
923.116	5699
923.224	5676
923.333	5649
923.442	5592
923.55	5573
923.659	5581
923.767	5657
923.876	5570
923.984	5589
924.092	5493
924.201	5558
924.309	5505
924.417	5535
924.525	5471
924.633	5501
924.741	6308
924.849	5387
924.956	5516
925.064	5368
925.172	5330
925.279	5318
925.387	5379
925.494	5341
925.602	5398
925.709	5330
925.816	5299
925.924	5242
926.031	5322
926.138	5284
926.245	5315
926.352	5223
926.459	5315
926.566	5273
926.673	5162
926.779	5090
926.886	5159
926.993	5041
927.099	5022
927.206	4946
927.312	4934
927.419	5014
927.525	4999
927.631	4987
927.737	4889
927.843	4911
927.95	4805
928.056	4831
928.162	4843
928.267	4831
928.373	5250
928.479	4850
928.585	4691
928.69	4771
928.796	4809
928.901	4664
929.007	4588
929.112	4683
929.218	4622
929.323	4596
929.428	4584
929.533	4679
929.638	4485
929.743	4512
929.848	4535
929.953	4527
930.058	4462
930.163	4394
930.267	4352
930.372	4455
930.477	4322
930.581	4428
930.685	4333
930.79	4234
930.894	4310
930.998	4257
931.103	4375
931.207	4147
931.311	4097
931.415	3998
931.519	3884
931.623	3930
