Data from glass_V78500241_1064.txt Node
Date: Wed Sep 01 19:21:52 CST 2021
User: usil
Spectrometer: V785-0024
Trigger mode: 0
Integration Time (sec): 4.000000E-1
Scans to average: 1
Nonlinearity correction enabled: false
Boxcar width: 0
Storing dark spectrum: false
XAxis mode: Wavelengths
Number of Pixels in Spectrum: 1024
>>>>>Begin Spectral Data<<<<<
801.071	3713
801.214	3785
801.356	3755
801.499	3743
801.641	3743
801.783	3793
801.926	3876
802.068	3819
802.211	3846
802.353	3911
802.496	3850
802.638	3884
802.78	3892
802.923	3983
803.065	3922
803.208	3854
803.35	3930
803.492	3918
803.635	3930
803.777	3823
803.919	3937
804.061	4169
804.204	3930
804.346	3911
804.488	3930
804.63	4017
804.773	3968
804.915	4025
805.057	4147
805.199	4044
805.341	4124
805.483	4143
805.626	4173
805.768	4139
805.91	4227
806.052	4246
806.194	4200
806.336	4348
806.478	4261
806.62	4181
806.762	4234
806.904	4295
807.046	4348
807.188	4223
807.33	4207
807.472	4211
807.614	4185
807.756	4287
807.898	4223
808.04	4196
808.182	4303
808.324	4371
808.465	4379
808.607	4470
808.749	4409
808.891	4462
809.033	4527
809.174	4455
809.316	4272
809.458	4280
809.6	4173
809.741	4143
809.883	4109
810.025	4204
810.166	4234
810.308	4265
810.45	4215
810.591	4234
810.733	4303
810.875	4493
811.016	4889
811.158	5128
811.299	5277
811.441	5353
811.582	5098
811.724	4729
811.865	4462
812.007	4500
812.148	4417
812.29	4436
812.431	4451
812.573	4405
812.714	4383
812.855	4436
812.997	4390
813.138	4500
813.279	4428
813.421	4356
813.562	4337
813.703	4367
813.845	4356
813.986	4284
814.127	4223
814.268	4276
814.41	4310
814.551	4284
814.692	4367
814.833	4310
814.974	4333
815.115	4375
815.256	4299
815.397	4215
815.539	4238
815.68	4185
815.821	4192
815.962	4341
816.103	4329
816.244	4287
816.385	4242
816.526	4291
816.666	4261
816.807	4082
816.948	4196
817.089	4207
817.23	4131
817.371	4067
817.512	4082
817.653	4040
817.793	4048
817.934	4059
818.075	4135
818.216	4074
818.356	4093
818.497	4021
818.638	3964
818.778	3930
818.919	3934
819.06	3892
819.2	3911
819.341	3854
819.481	3876
819.622	3911
819.762	3998
819.903	3979
820.043	3865
820.184	3831
820.324	3827
820.465	3903
820.605	3884
820.746	3869
820.886	3800
821.026	3922
821.167	3945
821.307	3998
821.447	3972
821.588	3956
821.728	3949
821.868	3941
822.008	3846
822.149	3892
822.289	3922
822.429	3831
822.569	3804
822.709	3816
822.849	3743
822.99	3770
823.13	3785
823.27	3774
823.41	3732
823.55	3743
823.69	3740
823.83	3720
823.97	3682
824.11	3595
824.25	3622
824.389	3644
824.529	3679
824.669	3622
824.809	3728
824.949	3747
825.089	3759
825.228	3720
825.368	3587
825.508	3568
825.648	3572
825.787	3618
825.927	3603
826.067	3644
826.206	3679
826.346	3774
826.485	3785
826.625	3888
826.765	3964
826.904	3827
827.044	3633
827.183	3557
827.323	3435
827.462	3534
827.601	3439
827.741	3428
827.88	3462
828.02	3397
828.159	3431
828.298	3492
828.437	3523
828.577	3481
828.716	3587
828.855	3542
828.994	3348
829.134	3389
829.273	3359
829.412	3321
829.551	3336
829.69	3374
829.829	3428
829.968	3504
830.107	3450
830.246	3485
830.385	3409
830.524	3389
830.663	3279
830.802	3260
830.941	3233
831.08	3195
831.219	3310
831.357	3253
831.496	3424
831.635	3226
831.774	3180
831.913	3226
832.051	3146
832.19	3138
832.329	3233
832.467	3142
832.606	3066
832.744	3211
832.883	3184
833.022	3233
833.16	3291
833.299	3294
833.437	3359
833.576	3409
833.714	3424
833.852	3431
833.991	3458
834.129	3481
834.267	3458
834.406	3397
834.544	3409
834.682	3401
834.821	3443
834.959	3622
835.097	3431
835.235	3523
835.373	3534
835.511	3500
835.65	3435
835.788	3454
835.926	3382
836.064	3378
836.202	3431
836.34	3606
836.478	3663
836.615	3568
836.753	3606
836.891	3603
837.029	3641
837.167	3599
837.305	3587
837.443	3553
837.58	3553
837.718	3610
837.856	3584
837.993	3534
838.131	3576
838.269	3622
838.406	3557
838.544	3553
838.681	3450
838.819	3492
838.956	3420
839.094	3382
839.231	3469
839.369	3526
839.506	3762
839.643	3660
839.781	3549
839.918	3504
840.055	3538
840.193	3545
840.33	3572
840.467	3580
840.604	3587
840.742	3812
840.879	3587
841.016	3576
841.153	3610
841.29	3751
841.427	3732
841.564	3770
841.701	3785
841.838	3720
841.975	3690
842.112	3694
842.249	3622
842.385	3667
842.522	3876
842.659	3694
842.796	3705
842.933	3675
843.069	3724
843.206	3709
843.343	3819
843.479	3789
843.616	3823
843.752	3690
843.889	3686
844.025	3876
844.162	3705
844.298	3880
844.435	3812
844.571	3762
844.708	3896
844.844	4010
844.98	3960
845.117	4040
845.253	3911
845.389	3915
845.525	3972
845.661	3975
845.798	3926
845.934	4013
846.07	3941
846.206	4055
846.342	4116
846.478	4044
846.614	3991
846.75	3899
846.886	3896
847.022	4017
847.158	3968
847.294	4025
847.429	4021
847.565	4017
847.701	4238
847.837	3884
847.972	3888
848.108	3998
848.244	3960
848.379	3873
848.515	3838
848.65	3861
848.786	3838
848.921	3888
849.057	3968
849.192	3915
849.328	3892
849.463	3941
849.598	3869
849.734	3873
849.869	3838
850.004	3812
850.14	3819
850.275	3808
850.41	3785
850.545	3778
850.68	3827
850.815	3804
850.95	3827
851.085	3945
851.22	3918
851.355	3846
851.49	3766
851.625	3800
851.76	3816
851.895	3766
852.03	3740
852.165	3827
852.299	3865
852.434	3903
852.569	3911
852.703	3903
852.838	3937
852.973	4006
853.107	3994
853.242	3873
853.376	3873
853.511	3819
853.645	3842
853.78	3987
853.914	3915
854.048	3892
854.183	3869
854.317	3972
854.451	4036
854.585	3926
854.72	3964
854.854	4067
854.988	3953
855.122	4010
855.256	3903
855.39	4029
855.524	4086
855.658	4120
855.792	4124
855.926	4143
856.06	4135
856.194	4246
856.327	4185
856.461	4150
856.595	4154
856.729	4177
856.862	4295
856.996	4280
857.13	4322
857.263	4348
857.397	4337
857.53	4325
857.664	4363
857.797	4428
857.931	4413
858.064	4386
858.197	4493
858.331	4405
858.464	4383
858.597	4348
858.731	4440
858.864	4459
858.997	4485
859.13	4546
859.263	4558
859.396	4580
859.529	4504
859.662	4519
859.795	4516
859.928	4649
860.061	4660
860.194	4733
860.327	4660
860.46	4668
860.592	4782
860.725	4820
860.858	4771
860.99	4725
861.123	4698
861.256	4752
861.388	4729
861.521	5376
861.653	4759
861.786	4675
861.918	4714
862.05	4828
862.183	4835
862.315	4896
862.447	4908
862.58	4919
862.712	4828
862.844	4752
862.976	4854
863.108	4911
863.24	5265
863.372	4850
863.504	4942
863.636	4896
863.768	4946
863.9	4946
864.032	4949
864.164	4930
864.296	5006
864.428	5052
864.559	5132
864.691	5140
864.823	5143
864.954	5121
865.086	5121
865.217	5086
865.349	5086
865.48	5181
865.612	5231
865.743	5299
865.875	5197
866.006	5246
866.137	5208
866.269	5288
866.4	5284
866.531	5250
866.662	5212
866.793	5337
866.924	5288
867.055	5376
867.186	5379
867.317	5326
867.448	5311
867.579	5425
867.71	5337
867.841	5341
867.972	5459
868.103	5486
868.233	5486
868.364	5539
868.495	5589
868.625	5665
868.756	5786
868.886	5729
869.017	5726
869.147	5851
869.278	5859
869.408	5794
869.539	5847
869.669	5935
869.799	5901
869.929	5996
870.06	6007
870.19	6155
870.32	6182
870.45	6285
870.58	6361
870.71	6418
870.84	6547
870.97	6471
871.1	6471
871.23	6662
871.36	6711
871.489	6642
871.619	6738
871.749	6776
871.879	6901
872.008	6981
872.138	6970
872.267	7019
872.397	7038
872.526	6993
872.656	7118
872.785	7171
872.915	7457
873.044	7559
873.173	7563
873.303	7666
873.432	7681
873.561	7894
873.69	7928
873.819	7967
873.948	8176
874.077	8240
874.206	8305
874.335	8415
874.464	8701
874.593	8910
874.722	8948
874.851	9157
874.979	9233
875.108	9283
875.237	9401
875.365	9488
875.494	9629
875.623	9793
875.751	9865
875.88	9983
876.008	10131
876.136	10253
876.265	10577
876.393	10710
876.521	10793
876.65	10812
876.778	10824
876.906	10938
877.034	11018
877.162	11075
877.29	11147
877.418	11326
877.546	11356
877.674	11463
877.802	11512
877.93	11524
878.058	11558
878.185	11627
878.313	11611
878.441	11684
878.568	11657
878.696	11805
878.824	11828
878.951	11980
879.079	11984
879.206	12197
879.333	12155
879.461	12022
879.588	12049
879.715	12049
879.842	12178
879.97	12022
880.097	11901
880.224	11973
880.351	11939
880.478	11954
880.605	11882
880.732	11824
880.859	12019
880.986	11870
881.112	11863
881.239	11802
881.366	11688
881.493	11611
881.619	11604
881.746	11646
881.872	11562
881.999	11543
882.125	11528
882.252	11623
882.378	11528
882.505	11554
882.631	11391
882.757	11326
882.883	11315
883.01	11204
883.136	11269
883.262	11025
883.388	11178
883.514	11223
883.64	11201
883.766	11197
883.892	11033
884.018	11052
884.143	10968
884.269	11090
884.395	10869
884.52	10824
884.646	10854
884.772	10744
884.897	10717
885.023	10664
885.148	10702
885.274	10816
885.399	10706
885.524	10702
885.65	10664
885.775	10603
885.9	10603
886.025	10687
886.15	10466
886.275	10504
886.4	10348
886.525	10485
886.65	10360
886.775	10265
886.9	10481
887.025	10447
887.149	10299
887.274	10204
887.399	10230
887.523	10131
887.648	10135
887.773	10112
887.897	10295
888.021	10238
888.146	10135
888.27	10215
888.395	10242
888.519	10188
888.643	10185
888.767	10230
888.891	10021
889.015	10063
889.139	10101
889.263	9983
889.387	10135
889.511	10124
889.635	10074
889.759	9991
889.883	9934
890.006	10013
890.13	10082
890.254	9922
890.377	9884
890.501	9865
890.624	9861
890.748	9876
890.871	9831
890.995	9751
891.118	9732
891.241	9804
891.364	9785
891.488	9804
891.611	9762
891.734	9751
891.857	9808
891.98	9732
892.103	9816
892.226	9751
892.349	9728
892.471	9576
892.594	9568
892.717	9675
892.839	9584
892.962	9584
893.085	9663
893.207	9606
893.33	9561
893.452	9538
893.575	9523
893.697	9496
893.819	9603
893.941	9679
894.064	9606
894.186	9450
894.308	9488
894.43	9568
894.552	9633
894.674	9568
894.796	9439
894.918	9397
895.04	9340
895.161	9386
895.283	9386
895.405	9253
895.526	9302
895.648	9195
895.769	9245
895.891	9214
896.012	9249
896.134	9180
896.255	9169
896.376	9089
896.498	9161
896.619	9131
896.74	9138
896.861	9146
896.982	9287
897.103	9283
897.224	9089
897.345	9138
897.466	9024
897.587	8994
897.708	9157
897.828	9055
897.949	8921
898.07	8834
898.19	8975
898.311	9047
898.431	8883
898.552	8864
898.672	8937
898.792	8929
898.913	8941
899.033	8811
899.153	8743
899.273	8644
899.393	8720
899.513	8788
899.633	8746
899.753	8724
899.873	8716
899.993	8705
900.113	8716
900.232	8712
900.352	8655
900.472	8663
900.591	8530
900.711	8617
900.83	8579
900.95	8697
901.069	8686
901.189	8579
901.308	8461
901.427	8385
901.546	8396
901.665	8492
901.784	8533
901.904	8389
902.023	8271
902.141	8256
902.26	8221
902.379	8362
902.498	8195
902.617	8183
902.735	8286
902.854	8298
902.973	8282
903.091	8157
903.21	8119
903.328	8138
903.446	8168
903.565	8077
903.683	8161
903.801	8096
903.919	8237
904.038	8145
904.156	7963
904.274	8092
904.392	8043
904.51	8039
904.627	7986
904.745	8065
904.863	8111
904.981	7970
905.098	7868
905.216	7936
905.334	7837
905.451	7925
905.569	7860
905.686	7951
905.803	7955
905.921	7746
906.038	7883
906.155	7799
906.272	7700
906.389	7700
906.506	7616
906.623	7689
906.74	7620
906.857	7556
906.974	7609
907.091	7670
907.208	7761
907.324	7677
907.441	7677
907.557	7544
907.674	7521
907.79	7464
907.907	7381
908.023	7441
908.139	7415
908.256	7335
908.372	7324
908.488	7301
908.604	7278
908.72	7232
908.836	7289
908.952	7285
909.068	7263
909.184	7400
909.3	7285
909.415	7339
909.531	7251
909.647	7084
909.762	7122
909.878	7080
909.993	7133
910.108	7133
910.224	7091
910.339	7088
910.454	7103
910.57	7034
910.685	7004
910.8	7168
910.915	7156
911.03	7076
911.145	6901
911.259	6894
911.374	6943
911.489	6856
911.604	6829
911.718	6719
911.833	6734
911.947	6616
912.062	6582
912.176	6711
912.291	6745
912.405	6719
912.519	6795
912.633	6871
912.748	6738
912.862	6692
912.976	6612
913.09	6585
913.204	6616
913.318	6631
913.431	6662
913.545	6688
913.659	6707
913.772	6681
913.886	6582
914	6574
914.113	6646
914.226	6681
914.34	6635
914.453	6448
914.566	6642
914.68	6540
914.793	6536
914.906	6483
915.019	6384
915.132	6342
915.245	6437
915.358	6471
915.47	6410
915.583	6490
915.696	6494
915.809	6551
915.921	6566
916.034	6445
916.146	6403
916.259	6395
916.371	6445
916.483	6513
916.595	6391
916.708	6445
916.82	6418
916.932	6388
917.044	6410
917.156	6403
917.268	6376
917.38	6289
917.491	6331
917.603	6388
917.715	6372
917.826	6429
917.938	6376
918.049	6247
918.161	6361
918.272	6460
918.384	6437
918.495	6327
918.606	6289
918.717	6239
918.828	6273
918.939	6258
919.05	6194
919.161	6296
919.272	6136
919.383	6190
919.494	6281
919.604	6422
919.715	6315
919.826	6270
919.936	6262
920.047	6353
920.157	6331
920.267	6441
920.378	6296
920.488	6327
920.598	6513
920.708	6555
920.818	6513
920.928	6521
921.038	6620
921.148	6582
921.258	6395
921.368	6365
921.477	6205
921.587	6205
921.697	6072
921.806	6216
921.916	6076
922.025	5977
922.134	5904
922.244	5866
922.353	5977
922.462	5863
922.571	5859
922.68	5718
922.789	5707
922.898	5718
923.007	5661
923.116	5733
923.224	5653
923.333	5714
923.442	5608
923.55	5581
923.659	5608
923.767	5665
923.876	5524
923.984	5646
924.092	5547
924.201	5570
924.309	5585
924.417	5528
924.525	5509
924.633	5497
924.741	6289
924.849	5391
924.956	5459
925.064	5334
925.172	5360
925.279	5315
925.387	5421
925.494	5334
925.602	5433
925.709	5463
925.816	5280
925.924	5288
926.031	5372
926.138	5288
926.245	5364
926.352	5231
926.459	5322
926.566	5353
926.673	5235
926.779	5178
926.886	5189
926.993	5018
927.099	5014
927.206	5014
927.312	4953
927.419	5079
927.525	5010
927.631	5033
927.737	4896
927.843	4835
927.95	4790
928.056	4797
928.162	4839
928.267	4881
928.373	5368
928.479	4862
928.585	4725
928.69	4740
928.796	4816
928.901	4683
929.007	4596
929.112	4687
929.218	4694
929.323	4634
929.428	4573
929.533	4653
929.638	4535
929.743	4565
929.848	4569
929.953	4489
930.058	4424
930.163	4329
930.267	4371
930.372	4459
930.477	4322
930.581	4466
930.685	4386
930.79	4227
930.894	4287
930.998	4257
931.103	4447
931.207	4135
931.311	4124
931.415	4105
931.519	3930
931.623	3994
