Data from glass_V78500241_1423.txt Node
Date: Wed Sep 01 19:24:21 CST 2021
User: usil
Spectrometer: V785-0024
Trigger mode: 0
Integration Time (sec): 4.000000E-1
Scans to average: 1
Nonlinearity correction enabled: false
Boxcar width: 0
Storing dark spectrum: false
XAxis mode: Wavelengths
Number of Pixels in Spectrum: 1024
>>>>>Begin Spectral Data<<<<<
801.071	3717
801.214	3774
801.356	3720
801.499	3724
801.641	3701
801.783	3720
801.926	3854
802.068	3835
802.211	3835
802.353	3888
802.496	3831
802.638	3922
802.78	3945
802.923	3953
803.065	3854
803.208	3789
803.35	3880
803.492	3899
803.635	3911
803.777	3823
803.919	3915
804.061	4227
804.204	3945
804.346	3956
804.488	3918
804.63	4036
804.773	3949
804.915	4017
805.057	4128
805.199	4040
805.341	4074
805.483	4120
805.626	4116
805.768	4124
805.91	4234
806.052	4272
806.194	4196
806.336	4344
806.478	4192
806.62	4162
806.762	4211
806.904	4261
807.046	4344
807.188	4280
807.33	4143
807.472	4230
807.614	4185
807.756	4253
807.898	4215
808.04	4227
808.182	4265
808.324	4325
808.465	4402
808.607	4474
808.749	4455
808.891	4485
809.033	4508
809.174	4424
809.316	4272
809.458	4227
809.6	4166
809.741	4173
809.883	4116
810.025	4219
810.166	4257
810.308	4227
810.45	4234
810.591	4242
810.733	4322
810.875	4538
811.016	4820
811.158	5143
811.299	5254
811.441	5277
811.582	5067
811.724	4725
811.865	4440
812.007	4478
812.148	4405
812.29	4432
812.431	4398
812.573	4440
812.714	4371
812.855	4440
812.997	4413
813.138	4485
813.279	4436
813.421	4402
813.562	4390
813.703	4344
813.845	4360
813.986	4291
814.127	4215
814.268	4265
814.41	4280
814.551	4238
814.692	4318
814.833	4284
814.974	4299
815.115	4314
815.256	4246
815.397	4257
815.539	4200
815.68	4192
815.821	4223
815.962	4280
816.103	4291
816.244	4253
816.385	4249
816.526	4257
816.666	4204
816.807	4124
816.948	4215
817.089	4204
817.23	4154
817.371	4055
817.512	4090
817.653	4078
817.793	4032
817.934	4067
818.075	4055
818.216	4105
818.356	4086
818.497	4017
818.638	3949
818.778	3896
818.919	3873
819.06	3816
819.2	3907
819.341	3884
819.481	3842
819.622	3915
819.762	3991
819.903	3953
820.043	3869
820.184	3831
820.324	3797
820.465	3854
820.605	3865
820.746	3903
820.886	3778
821.026	3922
821.167	3922
821.307	3987
821.447	3987
821.588	3964
821.728	3945
821.868	3953
822.008	3850
822.149	3922
822.289	3911
822.429	3778
822.569	3755
822.709	3770
822.849	3732
822.99	3724
823.13	3797
823.27	3736
823.41	3694
823.55	3740
823.69	3682
823.83	3759
823.97	3656
824.11	3637
824.25	3580
824.389	3599
824.529	3660
824.669	3622
824.809	3728
824.949	3747
825.089	3755
825.228	3732
825.368	3572
825.508	3587
825.648	3618
825.787	3572
825.927	3629
826.067	3648
826.206	3652
826.346	3797
826.485	3808
826.625	3850
826.765	3953
826.904	3819
827.044	3610
827.183	3515
827.323	3424
827.462	3507
827.601	3462
827.741	3450
827.88	3412
828.02	3401
828.159	3469
828.298	3515
828.437	3523
828.577	3488
828.716	3568
828.855	3504
828.994	3420
829.134	3363
829.273	3382
829.412	3359
829.551	3355
829.69	3359
829.829	3431
829.968	3557
830.107	3439
830.246	3492
830.385	3351
830.524	3340
830.663	3287
830.802	3249
830.941	3199
831.08	3154
831.219	3279
831.357	3245
831.496	3443
831.635	3207
831.774	3214
831.913	3169
832.051	3138
832.19	3142
832.329	3188
832.467	3146
832.606	3081
832.744	3199
832.883	3173
833.022	3192
833.16	3253
833.299	3306
833.437	3321
833.576	3420
833.714	3416
833.852	3405
833.991	3424
834.129	3523
834.267	3420
834.406	3359
834.544	3393
834.682	3447
834.821	3401
834.959	3568
835.097	3382
835.235	3515
835.373	3504
835.511	3481
835.65	3439
835.788	3488
835.926	3393
836.064	3389
836.202	3382
836.34	3534
836.478	3584
836.615	3526
836.753	3614
836.891	3633
837.029	3637
837.167	3526
837.305	3549
837.443	3542
837.58	3534
837.718	3622
837.856	3549
837.993	3545
838.131	3568
838.269	3595
838.406	3587
838.544	3553
838.681	3473
838.819	3462
838.956	3397
839.094	3424
839.231	3450
839.369	3500
839.506	3732
839.643	3599
839.781	3515
839.918	3462
840.055	3526
840.193	3549
840.33	3549
840.467	3553
840.604	3591
840.742	3835
840.879	3584
841.016	3561
841.153	3603
841.29	3747
841.427	3736
841.564	3728
841.701	3755
841.838	3736
841.975	3728
842.112	3743
842.249	3641
842.385	3652
842.522	3781
842.659	3717
842.796	3641
842.933	3690
843.069	3713
843.206	3713
843.343	3808
843.479	3804
843.616	3823
843.752	3701
843.889	3679
844.025	3842
844.162	3713
844.298	3838
844.435	3808
844.571	3823
844.708	3876
844.844	3956
844.98	4017
845.117	4002
845.253	3884
845.389	3896
845.525	3968
845.661	4013
845.798	3949
845.934	3991
846.07	3911
846.206	4074
846.342	4124
846.478	4063
846.614	4002
846.75	3949
846.886	3892
847.022	4040
847.158	3972
847.294	3979
847.429	4040
847.565	3998
847.701	4188
847.837	3880
847.972	3899
848.108	4013
848.244	3975
848.379	3888
848.515	3819
848.65	3842
848.786	3835
848.921	3892
849.057	3903
849.192	3926
849.328	3911
849.463	3960
849.598	3892
849.734	3850
849.869	3804
850.004	3781
850.14	3819
850.275	3797
850.41	3781
850.545	3747
850.68	3789
850.815	3808
850.95	3766
851.085	3968
851.22	3857
851.355	3846
851.49	3789
851.625	3800
851.76	3759
851.895	3717
852.03	3705
852.165	3823
852.299	3819
852.434	3888
852.569	3850
852.703	3903
852.838	3937
852.973	4010
853.107	4044
853.242	3937
853.376	3861
853.511	3804
853.645	3896
853.78	3956
853.914	3926
854.048	3903
854.183	3880
854.317	3918
854.451	4051
854.585	3960
854.72	3937
854.854	4086
854.988	3975
855.122	4029
855.256	3903
855.39	4048
855.524	4124
855.658	4101
855.792	4086
855.926	4131
856.06	4177
856.194	4230
856.327	4177
856.461	4128
856.595	4139
856.729	4215
856.862	4272
856.996	4257
857.13	4325
857.263	4344
857.397	4356
857.53	4306
857.664	4352
857.797	4405
857.931	4447
858.064	4390
858.197	4398
858.331	4379
858.464	4367
858.597	4325
858.731	4443
858.864	4405
858.997	4474
859.13	4523
859.263	4573
859.396	4588
859.529	4554
859.662	4580
859.795	4554
859.928	4588
860.061	4668
860.194	4744
860.327	4641
860.46	4653
860.592	4763
860.725	4771
860.858	4755
860.99	4694
861.123	4714
861.256	4679
861.388	4744
861.521	5398
861.653	4721
861.786	4694
861.918	4790
862.05	4797
862.183	4892
862.315	4896
862.447	4934
862.58	4881
862.712	4793
862.844	4729
862.976	4866
863.108	4858
863.24	5178
863.372	4820
863.504	4930
863.636	4858
863.768	4991
863.9	4961
864.032	4938
864.164	4896
864.296	5014
864.428	5075
864.559	5086
864.691	5098
864.823	5121
864.954	5136
865.086	5162
865.217	5124
865.349	5140
865.48	5113
865.612	5178
865.743	5337
865.875	5174
866.006	5193
866.137	5246
866.269	5296
866.4	5254
866.531	5246
866.662	5258
866.793	5292
866.924	5296
867.055	5334
867.186	5341
867.317	5288
867.448	5318
867.579	5406
867.71	5360
867.841	5387
867.972	5414
868.103	5478
868.233	5474
868.364	5509
868.495	5528
868.625	5615
868.756	5775
868.886	5668
869.017	5699
869.147	5802
869.278	5863
869.408	5798
869.539	5824
869.669	5920
869.799	5916
869.929	5977
870.06	5992
870.19	6205
870.32	6182
870.45	6273
870.58	6338
870.71	6445
870.84	6513
870.97	6441
871.1	6448
871.23	6639
871.36	6703
871.489	6658
871.619	6795
871.749	6837
871.879	6818
872.008	6913
872.138	6947
872.267	7107
872.397	7034
872.526	7000
872.656	7122
872.785	7187
872.915	7388
873.044	7514
873.173	7582
873.303	7677
873.432	7769
873.561	7890
873.69	7894
873.819	8077
873.948	8111
874.077	8214
874.206	8328
874.335	8461
874.464	8636
874.593	8864
874.722	8925
874.851	9146
874.979	9264
875.108	9408
875.237	9408
875.365	9435
875.494	9637
875.623	9808
875.751	9857
875.88	10013
876.008	10173
876.136	10284
876.265	10516
876.393	10653
876.521	10664
876.65	10862
876.778	10946
876.906	10881
877.034	11022
877.162	11121
877.29	11170
877.418	11265
877.546	11364
877.674	11448
877.802	11520
877.93	11524
878.058	11471
878.185	11505
878.313	11653
878.441	11710
878.568	11684
878.696	11802
878.824	11882
878.951	11984
879.079	12076
879.206	12079
879.333	12167
879.461	11996
879.588	12087
879.715	11988
879.842	12224
879.97	12034
880.097	11859
880.224	11885
880.351	11885
880.478	11901
880.605	11863
880.732	11809
880.859	11958
880.986	11821
881.112	11836
881.239	11729
881.366	11661
881.493	11604
881.619	11516
881.746	11589
881.872	11543
881.999	11482
882.125	11387
882.252	11482
882.378	11478
882.505	11604
882.631	11421
882.757	11299
882.883	11376
883.01	11299
883.136	11178
883.262	11136
883.388	11075
883.514	11178
883.64	11231
883.766	11124
883.892	10976
884.018	11052
884.143	11067
884.269	11098
884.395	10854
884.52	10816
884.646	10740
884.772	10706
884.897	10653
885.023	10675
885.148	10683
885.274	10797
885.399	10656
885.524	10637
885.65	10592
885.775	10611
885.9	10554
886.025	10599
886.15	10508
886.275	10436
886.4	10451
886.525	10379
886.65	10348
886.775	10375
886.9	10462
887.025	10508
887.149	10306
887.274	10306
887.399	10223
887.523	10230
887.648	10150
887.773	10086
887.897	10246
888.021	10188
888.146	10097
888.27	10188
888.395	10166
888.519	10227
888.643	10154
888.767	10223
888.891	10150
889.015	10059
889.139	10055
889.263	9983
889.387	10025
889.511	10101
889.635	10147
889.759	9888
889.883	10063
890.006	10048
890.13	10158
890.254	9964
890.377	9922
890.501	9884
890.624	9907
890.748	9823
890.871	9850
890.995	9831
891.118	9732
891.241	9762
891.364	9701
891.488	9831
891.611	9667
891.734	9732
891.857	9698
891.98	9724
892.103	9823
892.226	9713
892.349	9629
892.471	9466
892.594	9679
892.717	9667
892.839	9618
892.962	9656
893.085	9633
893.207	9584
893.33	9538
893.452	9557
893.575	9656
893.697	9526
893.819	9629
893.941	9644
894.064	9530
894.186	9431
894.308	9511
894.43	9542
894.552	9485
894.674	9561
894.796	9389
894.918	9355
895.04	9313
895.161	9355
895.283	9374
895.405	9245
895.526	9245
895.648	9214
895.769	9306
895.891	9214
896.012	9321
896.134	9237
896.255	9165
896.376	9142
896.498	9184
896.619	9116
896.74	9013
896.861	9077
896.982	9325
897.103	9325
897.224	9112
897.345	9112
897.466	9013
897.587	9070
897.708	9017
897.828	9009
897.949	9020
898.07	8864
898.19	8933
898.311	8975
898.431	8864
898.552	8933
898.672	8906
898.792	8986
898.913	8944
899.033	8830
899.153	8724
899.273	8693
899.393	8644
899.513	8746
899.633	8735
899.753	8735
899.873	8655
899.993	8727
900.113	8693
900.232	8701
900.352	8659
900.472	8587
900.591	8507
900.711	8564
900.83	8594
900.95	8640
901.069	8708
901.189	8545
901.308	8446
901.427	8381
901.546	8484
901.665	8454
901.784	8503
901.904	8343
902.023	8385
902.141	8183
902.26	8214
902.379	8320
902.498	8195
902.617	8259
902.735	8267
902.854	8309
902.973	8263
903.091	8202
903.21	8172
903.328	8157
903.446	8119
903.565	8142
903.683	8115
903.801	7997
903.919	8035
904.038	8065
904.156	8020
904.274	8069
904.392	7944
904.51	8043
904.627	7997
904.745	8107
904.863	8027
904.981	7894
905.098	7890
905.216	7868
905.334	7917
905.451	7898
905.569	7894
905.686	7997
905.803	7955
905.921	7776
906.038	7932
906.155	7803
906.272	7746
906.389	7628
906.506	7628
906.623	7575
906.74	7578
906.857	7559
906.974	7544
907.091	7708
907.208	7742
907.324	7666
907.441	7616
907.557	7445
907.674	7483
907.79	7377
907.907	7434
908.023	7419
908.139	7457
908.256	7396
908.372	7346
908.488	7327
908.604	7244
908.72	7236
908.836	7232
908.952	7266
909.068	7221
909.184	7331
909.3	7244
909.415	7259
909.531	7255
909.647	7107
909.762	7179
909.878	7053
909.993	7129
910.108	7099
910.224	7107
910.339	7118
910.454	7031
910.57	6989
910.685	7008
910.8	7156
910.915	7114
911.03	6989
911.145	6897
911.259	6894
911.374	6863
911.489	6840
911.604	6798
911.718	6707
911.833	6764
911.947	6658
912.062	6551
912.176	6711
912.291	6715
912.405	6749
912.519	6787
912.633	6848
912.748	6681
912.862	6707
912.976	6601
913.09	6547
913.204	6570
913.318	6681
913.431	6658
913.545	6642
913.659	6665
913.772	6688
913.886	6627
914	6555
914.113	6631
914.226	6623
914.34	6639
914.453	6490
914.566	6604
914.68	6490
914.793	6551
914.906	6407
915.019	6388
915.132	6388
915.245	6445
915.358	6467
915.47	6418
915.583	6395
915.696	6483
915.809	6544
915.921	6525
916.034	6399
916.146	6429
916.259	6353
916.371	6448
916.483	6467
916.595	6422
916.708	6433
916.82	6372
916.932	6342
917.044	6414
917.156	6391
917.268	6304
917.38	6353
917.491	6319
917.603	6308
917.715	6384
917.826	6452
917.938	6331
918.049	6239
918.161	6304
918.272	6441
918.384	6433
918.495	6334
918.606	6254
918.717	6190
918.828	6353
918.939	6289
919.05	6220
919.161	6262
919.272	6072
919.383	6167
919.494	6277
919.604	6407
919.715	6266
919.826	6194
919.936	6228
920.047	6346
920.157	6285
920.267	6494
920.378	6353
920.488	6300
920.598	6399
920.708	6513
920.818	6509
920.928	6456
921.038	6593
921.148	6646
921.258	6361
921.368	6315
921.477	6251
921.587	6182
921.697	6136
921.806	6167
921.916	6087
922.025	5904
922.134	5866
922.244	5889
922.353	6003
922.462	5904
922.571	5809
922.68	5695
922.789	5646
922.898	5710
923.007	5592
923.116	5665
923.224	5703
923.333	5668
923.442	5615
923.55	5661
923.659	5589
923.767	5627
923.876	5562
923.984	5600
924.092	5509
924.201	5558
924.309	5596
924.417	5581
924.525	5516
924.633	5436
924.741	6167
924.849	5364
924.956	5486
925.064	5372
925.172	5372
925.279	5284
925.387	5345
925.494	5318
925.602	5452
925.709	5398
925.816	5288
925.924	5326
926.031	5318
926.138	5280
926.245	5326
926.352	5201
926.459	5311
926.566	5334
926.673	5189
926.779	5113
926.886	5075
926.993	5025
927.099	5022
927.206	4980
927.312	4972
927.419	4999
927.525	5022
927.631	4980
927.737	4911
927.843	4835
927.95	4812
928.056	4858
928.162	4759
928.267	4862
928.373	5239
928.479	4904
928.585	4710
928.69	4816
928.796	4778
928.901	4698
929.007	4618
929.112	4660
929.218	4679
929.323	4626
929.428	4565
929.533	4679
929.638	4550
929.743	4611
929.848	4577
929.953	4497
930.058	4470
930.163	4280
930.267	4280
930.372	4462
930.477	4295
930.581	4455
930.685	4402
930.79	4219
930.894	4306
930.998	4284
931.103	4413
931.207	4177
931.311	4044
931.415	4010
931.519	3960
931.623	3949
