Data from glass_V78500241_2764.txt Node
Date: Wed Sep 01 19:33:39 CST 2021
User: usil
Spectrometer: V785-0024
Trigger mode: 0
Integration Time (sec): 4.000000E-1
Scans to average: 1
Nonlinearity correction enabled: false
Boxcar width: 0
Storing dark spectrum: false
XAxis mode: Wavelengths
Number of Pixels in Spectrum: 1024
>>>>>Begin Spectral Data<<<<<
801.071	3694
801.214	3728
801.356	3675
801.499	3686
801.641	3736
801.783	3759
801.926	3804
802.068	3789
802.211	3797
802.353	3876
802.496	3816
802.638	3835
802.78	3892
802.923	3903
803.065	3857
803.208	3804
803.35	3804
803.492	3857
803.635	3953
803.777	3713
803.919	3888
804.061	4128
804.204	3968
804.346	3934
804.488	3937
804.63	3994
804.773	3960
804.915	4025
805.057	4158
805.199	4017
805.341	4120
805.483	4154
805.626	4147
805.768	4086
805.91	4177
806.052	4238
806.194	4166
806.336	4383
806.478	4147
806.62	4173
806.762	4192
806.904	4200
807.046	4303
807.188	4188
807.33	4162
807.472	4207
807.614	4169
807.756	4257
807.898	4200
808.04	4188
808.182	4276
808.324	4303
808.465	4318
808.607	4421
808.749	4440
808.891	4451
809.033	4455
809.174	4371
809.316	4181
809.458	4192
809.6	4139
809.741	4158
809.883	4105
810.025	4185
810.166	4188
810.308	4207
810.45	4215
810.591	4192
810.733	4299
810.875	4489
811.016	4816
811.158	5090
811.299	5239
811.441	5261
811.582	5033
811.724	4717
811.865	4485
812.007	4447
812.148	4440
812.29	4413
812.431	4386
812.573	4383
812.714	4394
812.855	4398
812.997	4417
813.138	4474
813.279	4344
813.421	4409
813.562	4363
813.703	4295
813.845	4287
813.986	4268
814.127	4169
814.268	4272
814.41	4287
814.551	4265
814.692	4249
814.833	4230
814.974	4230
815.115	4329
815.256	4211
815.397	4207
815.539	4249
815.68	4162
815.821	4211
815.962	4280
816.103	4295
816.244	4246
816.385	4162
816.526	4242
816.666	4215
816.807	4090
816.948	4143
817.089	4162
817.23	4120
817.371	4002
817.512	4021
817.653	4067
817.793	4006
817.934	4025
818.075	4120
818.216	4101
818.356	4040
818.497	3934
818.638	3896
818.778	3930
818.919	3926
819.06	3884
819.2	3876
819.341	3869
819.481	3819
819.622	3922
819.762	4013
819.903	3949
820.043	3831
820.184	3835
820.324	3808
820.465	3865
820.605	3812
820.746	3789
820.886	3808
821.026	3869
821.167	3880
821.307	3949
821.447	3949
821.588	3922
821.728	3934
821.868	3907
822.008	3915
822.149	3888
822.289	3926
822.429	3808
822.569	3736
822.709	3827
822.849	3682
822.99	3675
823.13	3736
823.27	3717
823.41	3694
823.55	3698
823.69	3698
823.83	3705
823.97	3641
824.11	3564
824.25	3580
824.389	3633
824.529	3641
824.669	3618
824.809	3736
824.949	3724
825.089	3743
825.228	3686
825.368	3557
825.508	3561
825.648	3542
825.787	3568
825.927	3625
826.067	3637
826.206	3682
826.346	3778
826.485	3751
826.625	3819
826.765	3960
826.904	3804
827.044	3580
827.183	3595
827.323	3416
827.462	3466
827.601	3450
827.741	3386
827.88	3386
828.02	3367
828.159	3389
828.298	3496
828.437	3526
828.577	3466
828.716	3580
828.855	3485
828.994	3367
829.134	3359
829.273	3363
829.412	3306
829.551	3329
829.69	3359
829.829	3431
829.968	3523
830.107	3401
830.246	3382
830.385	3348
830.524	3321
830.663	3249
830.802	3275
830.941	3184
831.08	3169
831.219	3241
831.357	3230
831.496	3412
831.635	3237
831.774	3188
831.913	3173
832.051	3089
832.19	3127
832.329	3218
832.467	3097
832.606	3066
832.744	3146
832.883	3173
833.022	3192
833.16	3218
833.299	3272
833.437	3302
833.576	3336
833.714	3420
833.852	3393
833.991	3431
834.129	3428
834.267	3412
834.406	3367
834.544	3424
834.682	3405
834.821	3409
834.959	3553
835.097	3412
835.235	3511
835.373	3439
835.511	3477
835.65	3435
835.788	3462
835.926	3367
836.064	3378
836.202	3386
836.34	3492
836.478	3618
836.615	3534
836.753	3557
836.891	3652
837.029	3614
837.167	3584
837.305	3538
837.443	3511
837.58	3431
837.718	3591
837.856	3545
837.993	3519
838.131	3606
838.269	3545
838.406	3610
838.544	3557
838.681	3454
838.819	3435
838.956	3374
839.094	3393
839.231	3466
839.369	3500
839.506	3694
839.643	3599
839.781	3466
839.918	3466
840.055	3473
840.193	3496
840.33	3519
840.467	3545
840.604	3610
840.742	3785
840.879	3530
841.016	3523
841.153	3599
841.29	3797
841.427	3679
841.564	3652
841.701	3641
841.838	3694
841.975	3648
842.112	3690
842.249	3580
842.385	3625
842.522	3800
842.659	3656
842.796	3660
842.933	3690
843.069	3679
843.206	3709
843.343	3804
843.479	3793
843.616	3808
843.752	3644
843.889	3648
844.025	3850
844.162	3709
844.298	3861
844.435	3759
844.571	3808
844.708	3861
844.844	3956
844.98	4029
845.117	3987
845.253	3918
845.389	3884
845.525	3945
845.661	3994
845.798	3934
845.934	3945
846.07	3918
846.206	4013
846.342	4109
846.478	4055
846.614	3964
846.75	3888
846.886	3846
847.022	4044
847.158	3987
847.294	3994
847.429	4040
847.565	3983
847.701	4268
847.837	3857
847.972	3857
848.108	4032
848.244	3972
848.379	3808
848.515	3762
848.65	3793
848.786	3808
848.921	3842
849.057	3884
849.192	3930
849.328	3937
849.463	3873
849.598	3892
849.734	3819
849.869	3854
850.004	3740
850.14	3804
850.275	3766
850.41	3720
850.545	3740
850.68	3755
850.815	3770
850.95	3766
851.085	3915
851.22	3857
851.355	3808
851.49	3770
851.625	3774
851.76	3785
851.895	3728
852.03	3686
852.165	3751
852.299	3816
852.434	3884
852.569	3873
852.703	3812
852.838	3911
852.973	4006
853.107	3949
853.242	3873
853.376	3800
853.511	3709
853.645	3785
853.78	3991
853.914	3854
854.048	3899
854.183	3865
854.317	3926
854.451	4071
854.585	3937
854.72	3937
854.854	4032
854.988	3941
855.122	3953
855.256	3903
855.39	4013
855.524	4101
855.658	4109
855.792	4055
855.926	4093
856.06	4135
856.194	4181
856.327	4097
856.461	4131
856.595	4116
856.729	4097
856.862	4249
856.996	4188
857.13	4265
857.263	4287
857.397	4284
857.53	4276
857.664	4310
857.797	4322
857.931	4375
858.064	4390
858.197	4451
858.331	4394
858.464	4371
858.597	4348
858.731	4436
858.864	4443
858.997	4455
859.13	4462
859.263	4519
859.396	4550
859.529	4459
859.662	4550
859.795	4493
859.928	4596
860.061	4668
860.194	4736
860.327	4656
860.46	4634
860.592	4710
860.725	4736
860.858	4755
860.99	4717
861.123	4622
861.256	4694
861.388	4748
861.521	5265
861.653	4725
861.786	4664
861.918	4714
862.05	4801
862.183	4854
862.315	4854
862.447	4896
862.58	4900
862.712	4778
862.844	4786
862.976	4866
863.108	4866
863.24	5223
863.372	4843
863.504	4877
863.636	4908
863.768	4991
863.9	4915
864.032	4889
864.164	4946
864.296	4999
864.428	5060
864.559	5045
864.691	5128
864.823	5109
864.954	5124
865.086	5136
865.217	5060
865.349	5045
865.48	5113
865.612	5242
865.743	5284
865.875	5128
866.006	5178
866.137	5220
866.269	5254
866.4	5204
866.531	5216
866.662	5212
866.793	5223
866.924	5239
867.055	5326
867.186	5311
867.317	5261
867.448	5231
867.579	5368
867.71	5334
867.841	5383
867.972	5440
868.103	5467
868.233	5448
868.364	5520
868.495	5520
868.625	5653
868.756	5737
868.886	5592
869.017	5714
869.147	5836
869.278	5840
869.408	5813
869.539	5794
869.669	5832
869.799	5897
869.929	5954
870.06	5984
870.19	6125
870.32	6197
870.45	6273
870.58	6304
870.71	6388
870.84	6388
870.97	6433
871.1	6380
871.23	6639
871.36	6642
871.489	6631
871.619	6715
871.749	6783
871.879	6859
872.008	7050
872.138	6894
872.267	6958
872.397	6970
872.526	6996
872.656	7091
872.785	7221
872.915	7369
873.044	7411
873.173	7552
873.303	7636
873.432	7689
873.561	7830
873.69	7894
873.819	7989
873.948	8191
874.077	8218
874.206	8366
874.335	8438
874.464	8670
874.593	8849
874.722	8921
874.851	9138
874.979	9199
875.108	9294
875.237	9374
875.365	9431
875.494	9614
875.623	9793
875.751	9759
875.88	9907
876.008	10067
876.136	10234
876.265	10535
876.393	10687
876.521	10641
876.65	10763
876.778	10858
876.906	10908
877.034	10915
877.162	11113
877.29	11098
877.418	11326
877.546	11353
877.674	11482
877.802	11459
877.93	11493
878.058	11611
878.185	11528
878.313	11710
878.441	11733
878.568	11672
878.696	11794
878.824	11798
878.951	11977
879.079	11992
879.206	12129
879.333	12022
879.461	11946
879.588	12121
879.715	12083
879.842	12216
879.97	12057
880.097	11882
880.224	11855
880.351	11813
880.478	11901
880.605	11855
880.732	11817
880.859	11999
880.986	11775
881.112	11866
881.239	11722
881.366	11649
881.493	11566
881.619	11562
881.746	11532
881.872	11486
881.999	11444
882.125	11463
882.252	11638
882.378	11501
882.505	11543
882.631	11379
882.757	11356
882.883	11299
883.01	11315
883.136	11174
883.262	11124
883.388	11064
883.514	11185
883.64	11098
883.766	11064
883.892	10991
884.018	10968
884.143	11033
884.269	11105
884.395	10793
884.52	10763
884.646	10748
884.772	10675
884.897	10550
885.023	10679
885.148	10755
885.274	10679
885.399	10694
885.524	10599
885.65	10546
885.775	10523
885.9	10573
886.025	10592
886.15	10558
886.275	10421
886.4	10386
886.525	10390
886.65	10432
886.775	10371
886.9	10379
887.025	10531
887.149	10265
887.274	10173
887.399	10284
887.523	10112
887.648	10135
887.773	10101
887.897	10185
888.021	10196
888.146	10090
888.27	10196
888.395	10185
888.519	10188
888.643	10150
888.767	10196
888.891	10044
889.015	10071
889.139	9972
889.263	9998
889.387	10105
889.511	10025
889.635	10048
889.759	9960
889.883	9937
890.006	10017
890.13	10017
890.254	9918
890.377	9911
890.501	9778
890.624	9899
890.748	9854
890.871	9781
890.995	9778
891.118	9717
891.241	9797
891.364	9732
891.488	9728
891.611	9701
891.734	9713
891.857	9732
891.98	9686
892.103	9789
892.226	9629
892.349	9644
892.471	9511
892.594	9580
892.717	9542
892.839	9587
892.962	9584
893.085	9667
893.207	9515
893.33	9469
893.452	9507
893.575	9545
893.697	9523
893.819	9523
893.941	9633
894.064	9614
894.186	9515
894.308	9443
894.43	9519
894.552	9584
894.674	9454
894.796	9382
894.918	9348
895.04	9348
895.161	9397
895.283	9374
895.405	9184
895.526	9313
895.648	9241
895.769	9184
895.891	9245
896.012	9294
896.134	9230
896.255	9176
896.376	9047
896.498	9108
896.619	9089
896.74	9024
896.861	9043
896.982	9275
897.103	9313
897.224	9192
897.345	8998
897.466	9005
897.587	8925
897.708	9074
897.828	9020
897.949	8906
898.07	8823
898.19	8891
898.311	8998
898.431	8883
898.552	8941
898.672	8963
898.792	8944
898.913	8910
899.033	8777
899.153	8708
899.273	8678
899.393	8716
899.513	8705
899.633	8678
899.753	8804
899.873	8697
899.993	8735
900.113	8689
900.232	8712
900.352	8583
900.472	8571
900.591	8476
900.711	8571
900.83	8507
900.95	8640
901.069	8655
901.189	8560
901.308	8454
901.427	8450
901.546	8423
901.665	8423
901.784	8434
901.904	8476
902.023	8267
902.141	8214
902.26	8168
902.379	8358
902.498	8180
902.617	8191
902.735	8225
902.854	8279
902.973	8206
903.091	8138
903.21	8130
903.328	8138
903.446	8161
903.565	8062
903.683	8062
903.801	7978
903.919	8073
904.038	8103
904.156	7970
904.274	7986
904.392	7944
904.51	8043
904.627	8058
904.745	8081
904.863	8077
904.981	7909
905.098	7852
905.216	7887
905.334	7864
905.451	7807
905.569	7845
905.686	7890
905.803	7852
905.921	7700
906.038	7860
906.155	7818
906.272	7689
906.389	7689
906.506	7636
906.623	7594
906.74	7605
906.857	7582
906.974	7514
907.091	7628
907.208	7712
907.324	7632
907.441	7597
907.557	7449
907.674	7434
907.79	7480
907.907	7331
908.023	7457
908.139	7400
908.256	7312
908.372	7377
908.488	7327
908.604	7282
908.72	7213
908.836	7270
908.952	7247
909.068	7293
909.184	7324
909.3	7247
909.415	7225
909.531	7266
909.647	7072
909.762	7080
909.878	7080
909.993	7110
910.108	7080
910.224	7080
910.339	7076
910.454	7061
910.57	6966
910.685	6943
910.8	7103
910.915	7046
911.03	6970
911.145	6848
911.259	6924
911.374	6886
911.489	6856
911.604	6787
911.718	6700
911.833	6741
911.947	6642
912.062	6631
912.176	6669
912.291	6722
912.405	6688
912.519	6791
912.633	6806
912.748	6734
912.862	6738
912.976	6627
913.09	6486
913.204	6578
913.318	6604
913.431	6608
913.545	6646
913.659	6715
913.772	6631
913.886	6532
914	6525
914.113	6623
914.226	6616
914.34	6574
914.453	6441
914.566	6563
914.68	6566
914.793	6532
914.906	6403
915.019	6388
915.132	6376
915.245	6391
915.358	6407
915.47	6399
915.583	6456
915.696	6365
915.809	6555
915.921	6544
916.034	6399
916.146	6384
916.259	6353
916.371	6445
916.483	6483
916.595	6365
916.708	6376
916.82	6391
916.932	6319
917.044	6346
917.156	6361
917.268	6296
917.38	6391
917.491	6292
917.603	6407
917.715	6350
917.826	6315
917.938	6399
918.049	6247
918.161	6361
918.272	6399
918.384	6433
918.495	6300
918.606	6247
918.717	6171
918.828	6254
918.939	6247
919.05	6171
919.161	6247
919.272	6125
919.383	6117
919.494	6319
919.604	6391
919.715	6273
919.826	6197
919.936	6205
920.047	6338
920.157	6247
920.267	6467
920.378	6281
920.488	6266
920.598	6410
920.708	6486
920.818	6441
920.928	6471
921.038	6540
921.148	6570
921.258	6323
921.368	6239
921.477	6216
921.587	6194
921.697	6087
921.806	6098
921.916	6015
922.025	5942
922.134	5893
922.244	5855
922.353	5847
922.462	5821
922.571	5764
922.68	5665
922.789	5630
922.898	5695
923.007	5611
923.116	5688
923.224	5661
923.333	5642
923.442	5627
923.55	5528
923.659	5547
923.767	5657
923.876	5505
923.984	5581
924.092	5436
924.201	5524
924.309	5558
924.417	5539
924.525	5535
924.633	5463
924.741	6232
924.849	5334
924.956	5444
925.064	5353
925.172	5326
925.279	5326
925.387	5330
925.494	5322
925.602	5372
925.709	5387
925.816	5231
925.924	5299
926.031	5284
926.138	5307
926.245	5311
926.352	5170
926.459	5315
926.566	5334
926.673	5208
926.779	5140
926.886	5071
926.993	4984
927.099	4987
927.206	4976
927.312	4953
927.419	4987
927.525	4972
927.631	4949
927.737	4843
927.843	4816
927.95	4755
928.056	4763
928.162	4820
928.267	4854
928.373	5318
928.479	4850
928.585	4637
928.69	4759
928.796	4778
928.901	4637
929.007	4596
929.112	4641
929.218	4580
929.323	4558
929.428	4584
929.533	4630
929.638	4542
929.743	4504
929.848	4527
929.953	4508
930.058	4409
930.163	4314
930.267	4356
930.372	4417
930.477	4265
930.581	4455
930.685	4379
930.79	4230
930.894	4261
930.998	4253
931.103	4367
931.207	4120
931.311	4063
931.415	4059
931.519	3892
931.623	3884
