Data from glass_V78500241_2665.txt Node
Date: Wed Sep 01 19:32:58 CST 2021
User: usil
Spectrometer: V785-0024
Trigger mode: 0
Integration Time (sec): 4.000000E-1
Scans to average: 1
Nonlinearity correction enabled: false
Boxcar width: 0
Storing dark spectrum: false
XAxis mode: Wavelengths
Number of Pixels in Spectrum: 1024
>>>>>Begin Spectral Data<<<<<
801.071	3713
801.214	3747
801.356	3698
801.499	3736
801.641	3694
801.783	3774
801.926	3793
802.068	3838
802.211	3869
802.353	3876
802.496	3797
802.638	3876
802.78	3911
802.923	3918
803.065	3903
803.208	3842
803.35	3854
803.492	3873
803.635	3903
803.777	3812
803.919	3869
804.061	4135
804.204	3956
804.346	3903
804.488	3873
804.63	3987
804.773	3983
804.915	4002
805.057	4143
805.199	4044
805.341	4032
805.483	4101
805.626	4063
805.768	4139
805.91	4169
806.052	4200
806.194	4181
806.336	4287
806.478	4211
806.62	4162
806.762	4154
806.904	4257
807.046	4287
807.188	4192
807.33	4188
807.472	4249
807.614	4177
807.756	4272
807.898	4185
808.04	4234
808.182	4249
808.324	4306
808.465	4344
808.607	4405
808.749	4432
808.891	4447
809.033	4432
809.174	4405
809.316	4223
809.458	4242
809.6	4143
809.741	4131
809.883	4158
810.025	4219
810.166	4185
810.308	4196
810.45	4215
810.591	4230
810.733	4265
810.875	4500
811.016	4812
811.158	5086
811.299	5269
811.441	5250
811.582	5102
811.724	4649
811.865	4470
812.007	4459
812.148	4409
812.29	4390
812.431	4394
812.573	4402
812.714	4333
812.855	4428
812.997	4402
813.138	4470
813.279	4363
813.421	4352
813.562	4322
813.703	4375
813.845	4314
813.986	4246
814.127	4204
814.268	4284
814.41	4268
814.551	4276
814.692	4356
814.833	4287
814.974	4333
815.115	4398
815.256	4215
815.397	4207
815.539	4280
815.68	4215
815.821	4230
815.962	4329
816.103	4333
816.244	4215
816.385	4196
816.526	4234
816.666	4188
816.807	4078
816.948	4135
817.089	4131
817.23	4128
817.371	4025
817.512	4067
817.653	4063
817.793	4048
817.934	4093
818.075	4086
818.216	4078
818.356	4097
818.497	3911
818.638	3918
818.778	3899
818.919	3854
819.06	3892
819.2	3968
819.341	3869
819.481	3827
819.622	3876
819.762	4002
819.903	3918
820.043	3850
820.184	3797
820.324	3816
820.465	3827
820.605	3861
820.746	3857
820.886	3797
821.026	3922
821.167	3884
821.307	3975
821.447	3972
821.588	3953
821.728	3968
821.868	3918
822.008	3816
822.149	3911
822.289	3922
822.429	3781
822.569	3755
822.709	3804
822.849	3694
822.99	3701
823.13	3701
823.27	3740
823.41	3728
823.55	3709
823.69	3694
823.83	3747
823.97	3679
824.11	3622
824.25	3584
824.389	3644
824.529	3652
824.669	3610
824.809	3709
824.949	3717
825.089	3713
825.228	3698
825.368	3572
825.508	3561
825.648	3564
825.787	3587
825.927	3622
826.067	3633
826.206	3644
826.346	3789
826.485	3785
826.625	3827
826.765	3922
826.904	3827
827.044	3625
827.183	3504
827.323	3401
827.462	3473
827.601	3450
827.741	3382
827.88	3409
828.02	3367
828.159	3439
828.298	3450
828.437	3530
828.577	3428
828.716	3595
828.855	3485
828.994	3378
829.134	3355
829.273	3378
829.412	3332
829.551	3332
829.69	3321
829.829	3416
829.968	3515
830.107	3397
830.246	3450
830.385	3351
830.524	3351
830.663	3256
830.802	3222
830.941	3195
831.08	3195
831.219	3253
831.357	3268
831.496	3382
831.635	3245
831.774	3173
831.913	3150
832.051	3104
832.19	3131
832.329	3161
832.467	3093
832.606	3077
832.744	3161
832.883	3184
833.022	3157
833.16	3268
833.299	3310
833.437	3325
833.576	3355
833.714	3393
833.852	3420
833.991	3428
834.129	3435
834.267	3424
834.406	3370
834.544	3443
834.682	3393
834.821	3401
834.959	3603
835.097	3409
835.235	3488
835.373	3458
835.511	3507
835.65	3416
835.788	3454
835.926	3416
836.064	3386
836.202	3416
836.34	3545
836.478	3564
836.615	3538
836.753	3591
836.891	3641
837.029	3576
837.167	3599
837.305	3538
837.443	3515
837.58	3481
837.718	3564
837.856	3561
837.993	3523
838.131	3606
838.269	3568
838.406	3545
838.544	3519
838.681	3466
838.819	3435
838.956	3370
839.094	3382
839.231	3450
839.369	3530
839.506	3720
839.643	3606
839.781	3466
839.918	3462
840.055	3507
840.193	3496
840.33	3545
840.467	3568
840.604	3564
840.742	3781
840.879	3545
841.016	3553
841.153	3580
841.29	3762
841.427	3736
841.564	3701
841.701	3751
841.838	3720
841.975	3637
842.112	3682
842.249	3644
842.385	3629
842.522	3774
842.659	3663
842.796	3682
842.933	3724
843.069	3701
843.206	3728
843.343	3755
843.479	3762
843.616	3838
843.752	3663
843.889	3679
844.025	3831
844.162	3698
844.298	3838
844.435	3755
844.571	3778
844.708	3884
844.844	3975
844.98	4013
845.117	3987
845.253	3861
845.389	3899
845.525	3945
845.661	3972
845.798	3896
845.934	4010
846.07	3930
846.206	4048
846.342	4078
846.478	4071
846.614	3968
846.75	3899
846.886	3857
847.022	4013
847.158	3956
847.294	3983
847.429	4006
847.565	4010
847.701	4261
847.837	3861
847.972	3857
848.108	3937
848.244	3930
848.379	3854
848.515	3804
848.65	3873
848.786	3819
848.921	3888
849.057	3941
849.192	3949
849.328	3896
849.463	3873
849.598	3842
849.734	3823
849.869	3793
850.004	3770
850.14	3781
850.275	3816
850.41	3732
850.545	3762
850.68	3789
850.815	3766
850.95	3770
851.085	3941
851.22	3896
851.355	3812
851.49	3785
851.625	3736
851.76	3759
851.895	3736
852.03	3736
852.165	3743
852.299	3823
852.434	3876
852.569	3888
852.703	3903
852.838	3930
852.973	3983
853.107	3987
853.242	3892
853.376	3838
853.511	3766
853.645	3762
853.78	3945
853.914	3896
854.048	3850
854.183	3880
854.317	3915
854.451	4051
854.585	3941
854.72	3922
854.854	4040
854.988	3953
855.122	3979
855.256	3899
855.39	3998
855.524	4082
855.658	4116
855.792	4048
855.926	4162
856.06	4162
856.194	4166
856.327	4143
856.461	4150
856.595	4158
856.729	4120
856.862	4310
856.996	4200
857.13	4230
857.263	4257
857.397	4356
857.53	4295
857.664	4371
857.797	4383
857.931	4447
858.064	4337
858.197	4451
858.331	4363
858.464	4394
858.597	4341
858.731	4398
858.864	4413
858.997	4447
859.13	4508
859.263	4500
859.396	4546
859.529	4512
859.662	4474
859.795	4550
859.928	4622
860.061	4649
860.194	4714
860.327	4618
860.46	4603
860.592	4748
860.725	4725
860.858	4748
860.99	4645
861.123	4698
861.256	4744
861.388	4763
861.521	5372
861.653	4714
861.786	4679
861.918	4725
862.05	4778
862.183	4801
862.315	4870
862.447	4961
862.58	4881
862.712	4835
862.844	4752
862.976	4835
863.108	4900
863.24	5231
863.372	4797
863.504	4889
863.636	4892
863.768	4957
863.9	4946
864.032	4892
864.164	4919
864.296	5022
864.428	5113
864.559	5083
864.691	5102
864.823	5151
864.954	5178
865.086	5132
865.217	5128
865.349	5124
865.48	5155
865.612	5197
865.743	5258
865.875	5246
866.006	5212
866.137	5216
866.269	5212
866.4	5239
866.531	5208
866.662	5193
866.793	5261
866.924	5265
867.055	5345
867.186	5318
867.317	5299
867.448	5292
867.579	5379
867.71	5318
867.841	5376
867.972	5436
868.103	5463
868.233	5493
868.364	5516
868.495	5520
868.625	5577
868.756	5691
868.886	5657
869.017	5714
869.147	5832
869.278	5874
869.408	5764
869.539	5836
869.669	5874
869.799	5901
869.929	5927
870.06	6030
870.19	6224
870.32	6175
870.45	6216
870.58	6270
870.71	6414
870.84	6471
870.97	6414
871.1	6422
871.23	6677
871.36	6707
871.489	6692
871.619	6726
871.749	6818
871.879	6814
872.008	6993
872.138	6985
872.267	6989
872.397	6977
872.526	7046
872.656	7141
872.785	7160
872.915	7396
873.044	7472
873.173	7590
873.303	7655
873.432	7719
873.561	7898
873.69	7814
873.819	8020
873.948	8123
874.077	8210
874.206	8317
874.335	8473
874.464	8610
874.593	8792
874.722	8975
874.851	9097
874.979	9165
875.108	9408
875.237	9473
875.365	9473
875.494	9580
875.623	9842
875.751	9850
875.88	9949
876.008	10131
876.136	10253
876.265	10500
876.393	10729
876.521	10721
876.65	10793
876.778	10824
876.906	10889
877.034	10896
877.162	11041
877.29	11162
877.418	11284
877.546	11345
877.674	11452
877.802	11444
877.93	11509
878.058	11577
878.185	11585
878.313	11646
878.441	11733
878.568	11615
878.696	11794
878.824	11878
878.951	11912
879.079	12129
879.206	12068
879.333	12079
879.461	11923
879.588	12091
879.715	12038
879.842	12277
879.97	12038
880.097	11874
880.224	11920
880.351	11847
880.478	11897
880.605	11920
880.732	11786
880.859	11992
880.986	11863
881.112	11859
881.239	11771
881.366	11585
881.493	11657
881.619	11528
881.746	11539
881.872	11478
881.999	11566
882.125	11463
882.252	11570
882.378	11551
882.505	11558
882.631	11429
882.757	11376
882.883	11288
883.01	11235
883.136	11231
883.262	11113
883.388	11067
883.514	11193
883.64	11231
883.766	11121
883.892	11003
884.018	11041
884.143	11071
884.269	11102
884.395	10824
884.52	10752
884.646	10828
884.772	10717
884.897	10694
885.023	10656
885.148	10611
885.274	10755
885.399	10725
885.524	10546
885.65	10546
885.775	10641
885.9	10546
886.025	10523
886.15	10580
886.275	10413
886.4	10314
886.525	10440
886.65	10432
886.775	10310
886.9	10402
887.025	10470
887.149	10310
887.274	10276
887.399	10143
887.523	10162
887.648	10078
887.773	10044
887.897	10166
888.021	10219
888.146	10101
888.27	10211
888.395	10158
888.519	10169
888.643	10105
888.767	10192
888.891	10086
889.015	10063
889.139	10048
889.263	9983
889.387	10013
889.511	10093
889.635	10040
889.759	9972
889.883	9968
890.006	9949
890.13	10086
890.254	9991
890.377	9934
890.501	9835
890.624	9956
890.748	9937
890.871	9785
890.995	9797
891.118	9660
891.241	9728
891.364	9705
891.488	9854
891.611	9812
891.734	9762
891.857	9736
891.98	9660
892.103	9781
892.226	9709
892.349	9603
892.471	9454
892.594	9557
892.717	9606
892.839	9515
892.962	9587
893.085	9599
893.207	9557
893.33	9469
893.452	9515
893.575	9576
893.697	9496
893.819	9614
893.941	9584
894.064	9599
894.186	9424
894.308	9408
894.43	9500
894.552	9618
894.674	9530
894.796	9359
894.918	9382
895.04	9283
895.161	9351
895.283	9367
895.405	9310
895.526	9192
895.648	9275
895.769	9298
895.891	9192
896.012	9256
896.134	9176
896.255	9104
896.376	9077
896.498	9104
896.619	9135
896.74	9093
896.861	9165
896.982	9233
897.103	9329
897.224	9214
897.345	9089
897.466	8971
897.587	9024
897.708	9116
897.828	8967
897.949	8891
898.07	8849
898.19	8826
898.311	8986
898.431	8842
898.552	8864
898.672	8929
898.792	8929
898.913	8899
899.033	8819
899.153	8773
899.273	8613
899.393	8670
899.513	8777
899.633	8701
899.753	8731
899.873	8697
899.993	8746
900.113	8640
900.232	8746
900.352	8651
900.472	8606
900.591	8556
900.711	8568
900.83	8537
900.95	8636
901.069	8651
901.189	8583
901.308	8454
901.427	8408
901.546	8484
901.665	8484
901.784	8484
901.904	8400
902.023	8339
902.141	8149
902.26	8153
902.379	8229
902.498	8221
902.617	8191
902.735	8282
902.854	8301
902.973	8218
903.091	8149
903.21	8168
903.328	8096
903.446	8149
903.565	8096
903.683	8081
903.801	8043
903.919	8111
904.038	8096
904.156	7989
904.274	8100
904.392	8069
904.51	7986
904.627	8039
904.745	8054
904.863	8020
904.981	7959
905.098	7906
905.216	7883
905.334	7875
905.451	7833
905.569	7883
905.686	7845
905.803	7890
905.921	7833
906.038	7826
906.155	7772
906.272	7704
906.389	7727
906.506	7616
906.623	7586
906.74	7540
906.857	7537
906.974	7548
907.091	7651
907.208	7700
907.324	7708
907.441	7582
907.557	7422
907.674	7407
907.79	7403
907.907	7297
908.023	7445
908.139	7369
908.256	7339
908.372	7358
908.488	7350
908.604	7179
908.72	7206
908.836	7266
908.952	7187
909.068	7278
909.184	7320
909.3	7236
909.415	7316
909.531	7266
909.647	7072
909.762	7088
909.878	7076
909.993	7107
910.108	7114
910.224	7034
910.339	7061
910.454	6993
910.57	6996
910.685	6935
910.8	7164
910.915	7110
911.03	6985
911.145	6856
911.259	6871
911.374	6913
911.489	6863
911.604	6856
911.718	6692
911.833	6722
911.947	6608
912.062	6601
912.176	6642
912.291	6745
912.405	6612
912.519	6818
912.633	6852
912.748	6703
912.862	6749
912.976	6608
913.09	6475
913.204	6536
913.318	6608
913.431	6730
913.545	6623
913.659	6658
913.772	6642
913.886	6540
914	6475
914.113	6635
914.226	6646
914.34	6620
914.453	6452
914.566	6578
914.68	6509
914.793	6525
914.906	6372
915.019	6384
915.132	6331
915.245	6467
915.358	6433
915.47	6426
915.583	6452
915.696	6467
915.809	6544
915.921	6490
916.034	6372
916.146	6437
916.259	6350
916.371	6528
916.483	6365
916.595	6319
916.708	6369
916.82	6388
916.932	6334
917.044	6369
917.156	6410
917.268	6277
917.38	6369
917.491	6311
917.603	6270
917.715	6380
917.826	6418
917.938	6220
918.049	6216
918.161	6327
918.272	6399
918.384	6464
918.495	6357
918.606	6201
918.717	6213
918.828	6304
918.939	6262
919.05	6201
919.161	6163
919.272	6125
919.383	6201
919.494	6281
919.604	6391
919.715	6270
919.826	6228
919.936	6270
920.047	6300
920.157	6232
920.267	6456
920.378	6304
920.488	6235
920.598	6429
920.708	6490
920.818	6471
920.928	6471
921.038	6544
921.148	6498
921.258	6372
921.368	6292
921.477	6224
921.587	6144
921.697	6068
921.806	6148
921.916	6057
922.025	5969
922.134	5969
922.244	5855
922.353	5908
922.462	5836
922.571	5813
922.68	5710
922.789	5649
922.898	5680
923.007	5592
923.116	5745
923.224	5638
923.333	5634
923.442	5623
923.55	5558
923.659	5566
923.767	5619
923.876	5509
923.984	5573
924.092	5543
924.201	5524
924.309	5520
924.417	5493
924.525	5505
924.633	5467
924.741	6254
924.849	5326
924.956	5467
925.064	5337
925.172	5273
925.279	5277
925.387	5330
925.494	5330
925.602	5391
925.709	5387
925.816	5269
925.924	5292
926.031	5337
926.138	5299
926.245	5337
926.352	5216
926.459	5265
926.566	5303
926.673	5231
926.779	5136
926.886	5124
926.993	5025
927.099	4991
927.206	4934
927.312	4972
927.419	4987
927.525	4930
927.631	4938
927.737	4889
927.843	4850
927.95	4786
928.056	4858
928.162	4782
928.267	4835
928.373	5231
928.479	4831
928.585	4668
928.69	4801
928.796	4759
928.901	4649
929.007	4554
929.112	4649
929.218	4630
929.323	4622
929.428	4542
929.533	4649
929.638	4481
929.743	4504
929.848	4569
929.953	4516
930.058	4474
930.163	4280
930.267	4344
930.372	4443
930.477	4310
930.581	4466
930.685	4322
930.79	4249
930.894	4230
930.998	4272
931.103	4356
931.207	4135
931.311	4071
931.415	4036
931.519	3930
931.623	3926
