Data from glass_V78500241_556.txt Node
Date: Wed Sep 01 19:18:21 CST 2021
User: usil
Spectrometer: V785-0024
Trigger mode: 0
Integration Time (sec): 4.000000E-1
Scans to average: 1
Nonlinearity correction enabled: false
Boxcar width: 0
Storing dark spectrum: false
XAxis mode: Wavelengths
Number of Pixels in Spectrum: 1024
>>>>>Begin Spectral Data<<<<<
801.071	3759
801.214	3766
801.356	3709
801.499	3736
801.641	3759
801.783	3797
801.926	3930
802.068	3873
802.211	3880
802.353	3884
802.496	3850
802.638	3903
802.78	3945
802.923	4010
803.065	3911
803.208	3850
803.35	3907
803.492	3918
803.635	3896
803.777	3789
803.919	3915
804.061	4181
804.204	3983
804.346	3960
804.488	3994
804.63	4059
804.773	3956
804.915	4021
805.057	4116
805.199	4029
805.341	4112
805.483	4120
805.626	4139
805.768	4112
805.91	4265
806.052	4219
806.194	4181
806.336	4344
806.478	4173
806.62	4185
806.762	4207
806.904	4257
807.046	4322
807.188	4223
807.33	4227
807.472	4223
807.614	4230
807.756	4280
807.898	4230
808.04	4242
808.182	4291
808.324	4333
808.465	4398
808.607	4466
808.749	4497
808.891	4443
809.033	4538
809.174	4432
809.316	4291
809.458	4188
809.6	4177
809.741	4166
809.883	4124
810.025	4211
810.166	4227
810.308	4200
810.45	4261
810.591	4230
810.733	4325
810.875	4523
811.016	4854
811.158	5105
811.299	5307
811.441	5311
811.582	5098
811.724	4717
811.865	4466
812.007	4462
812.148	4466
812.29	4371
812.431	4455
812.573	4440
812.714	4386
812.855	4424
812.997	4394
813.138	4481
813.279	4440
813.421	4352
813.562	4402
813.703	4348
813.845	4333
813.986	4253
814.127	4249
814.268	4276
814.41	4310
814.551	4257
814.692	4383
814.833	4265
814.974	4295
815.115	4341
815.256	4284
815.397	4230
815.539	4234
815.68	4204
815.821	4249
815.962	4337
816.103	4280
816.244	4268
816.385	4284
816.526	4314
816.666	4253
816.807	4124
816.948	4177
817.089	4192
817.23	4109
817.371	4067
817.512	4006
817.653	4086
817.793	4013
817.934	4025
818.075	4093
818.216	4082
818.356	4090
818.497	3975
818.638	3918
818.778	3915
818.919	3953
819.06	3888
819.2	3915
819.341	3896
819.481	3873
819.622	3922
819.762	4017
819.903	3987
820.043	3888
820.184	3835
820.324	3819
820.465	3896
820.605	3854
820.746	3854
820.886	3800
821.026	3934
821.167	3911
821.307	3953
821.447	3991
821.588	3983
821.728	3975
821.868	3949
822.008	3884
822.149	3911
822.289	3941
822.429	3793
822.569	3781
822.709	3831
822.849	3713
822.99	3705
823.13	3732
823.27	3774
823.41	3728
823.55	3740
823.69	3743
823.83	3728
823.97	3679
824.11	3606
824.25	3595
824.389	3652
824.529	3667
824.669	3622
824.809	3720
824.949	3724
825.089	3755
825.228	3717
825.368	3599
825.508	3603
825.648	3584
825.787	3663
825.927	3618
826.067	3599
826.206	3709
826.346	3808
826.485	3831
826.625	3903
826.765	3945
826.904	3789
827.044	3644
827.183	3545
827.323	3458
827.462	3519
827.601	3443
827.741	3458
827.88	3424
828.02	3386
828.159	3431
828.298	3496
828.437	3519
828.577	3454
828.716	3584
828.855	3492
828.994	3412
829.134	3397
829.273	3428
829.412	3355
829.551	3393
829.69	3409
829.829	3393
829.968	3526
830.107	3447
830.246	3447
830.385	3386
830.524	3363
830.663	3279
830.802	3279
830.941	3241
831.08	3222
831.219	3283
831.357	3291
831.496	3382
831.635	3256
831.774	3218
831.913	3203
832.051	3127
832.19	3165
832.329	3199
832.467	3119
832.606	3127
832.744	3180
832.883	3199
833.022	3218
833.16	3264
833.299	3355
833.437	3340
833.576	3389
833.714	3458
833.852	3447
833.991	3485
834.129	3481
834.267	3435
834.406	3374
834.544	3435
834.682	3447
834.821	3435
834.959	3610
835.097	3409
835.235	3542
835.373	3519
835.511	3500
835.65	3462
835.788	3515
835.926	3416
836.064	3412
836.202	3420
836.34	3591
836.478	3652
836.615	3561
836.753	3625
836.891	3637
837.029	3644
837.167	3580
837.305	3576
837.443	3523
837.58	3564
837.718	3595
837.856	3580
837.993	3542
838.131	3614
838.269	3553
838.406	3606
838.544	3614
838.681	3469
838.819	3477
838.956	3363
839.094	3409
839.231	3439
839.369	3485
839.506	3724
839.643	3675
839.781	3511
839.918	3485
840.055	3519
840.193	3481
840.33	3557
840.467	3553
840.604	3606
840.742	3781
840.879	3545
841.016	3610
841.153	3606
841.29	3808
841.427	3709
841.564	3713
841.701	3759
841.838	3705
841.975	3690
842.112	3747
842.249	3656
842.385	3656
842.522	3789
842.659	3713
842.796	3671
842.933	3751
843.069	3713
843.206	3724
843.343	3819
843.479	3812
843.616	3804
843.752	3663
843.889	3701
844.025	3861
844.162	3759
844.298	3865
844.435	3789
844.571	3789
844.708	3918
844.844	3994
844.98	4032
845.117	3994
845.253	3907
845.389	3918
845.525	3964
845.661	3945
845.798	3899
845.934	3998
846.07	3956
846.206	4082
846.342	4139
846.478	4120
846.614	3922
846.75	3911
846.886	3941
847.022	4029
847.158	4006
847.294	4044
847.429	4044
847.565	3994
847.701	4257
847.837	3892
847.972	3880
848.108	4021
848.244	3972
848.379	3854
848.515	3812
848.65	3812
848.786	3857
848.921	3850
849.057	3926
849.192	3972
849.328	3960
849.463	3926
849.598	3907
849.734	3873
849.869	3846
850.004	3759
850.14	3869
850.275	3793
850.41	3751
850.545	3781
850.68	3759
850.815	3781
850.95	3800
851.085	3922
851.22	3888
851.355	3892
851.49	3808
851.625	3778
851.76	3781
851.895	3751
852.03	3701
852.165	3819
852.299	3876
852.434	3892
852.569	3865
852.703	3918
852.838	3972
852.973	3991
853.107	3987
853.242	3915
853.376	3907
853.511	3740
853.645	3838
853.78	4013
853.914	3903
854.048	3892
854.183	3873
854.317	3994
854.451	4109
854.585	3964
854.72	3899
854.854	4040
854.988	3922
855.122	3956
855.256	3937
855.39	4017
855.524	4093
855.658	4097
855.792	4128
855.926	4139
856.06	4173
856.194	4192
856.327	4143
856.461	4124
856.595	4135
856.729	4181
856.862	4322
856.996	4234
857.13	4337
857.263	4356
857.397	4409
857.53	4246
857.664	4386
857.797	4421
857.931	4402
858.064	4455
858.197	4432
858.331	4371
858.464	4405
858.597	4402
858.731	4462
858.864	4478
858.997	4432
859.13	4538
859.263	4550
859.396	4580
859.529	4546
859.662	4546
859.795	4546
859.928	4634
860.061	4660
860.194	4748
860.327	4687
860.46	4653
860.592	4725
860.725	4763
860.858	4736
860.99	4740
861.123	4675
861.256	4733
861.388	4771
861.521	5493
861.653	4729
861.786	4672
861.918	4790
862.05	4774
862.183	4919
862.315	4900
862.447	4915
862.58	4915
862.712	4820
862.844	4801
862.976	4870
863.108	4911
863.24	5162
863.372	4854
863.504	4927
863.636	4908
863.768	4976
863.9	4953
864.032	4908
864.164	4991
864.296	5006
864.428	5064
864.559	5064
864.691	5151
864.823	5185
864.954	5124
865.086	5193
865.217	5124
865.349	5128
865.48	5197
865.612	5250
865.743	5303
865.875	5231
866.006	5212
866.137	5239
866.269	5246
866.4	5269
866.531	5311
866.662	5212
866.793	5280
866.924	5296
867.055	5318
867.186	5368
867.317	5326
867.448	5357
867.579	5383
867.71	5414
867.841	5341
867.972	5444
868.103	5471
868.233	5493
868.364	5528
868.495	5535
868.625	5718
868.756	5805
868.886	5726
869.017	5714
869.147	5916
869.278	5870
869.408	5893
869.539	5870
869.669	5874
869.799	5965
869.929	6003
870.06	6045
870.19	6239
870.32	6251
870.45	6266
870.58	6353
870.71	6479
870.84	6407
870.97	6437
871.1	6544
871.23	6631
871.36	6738
871.489	6665
871.619	6764
871.749	6833
871.879	6798
872.008	6981
872.138	6947
872.267	7027
872.397	7015
872.526	7027
872.656	7194
872.785	7206
872.915	7457
873.044	7537
873.173	7597
873.303	7575
873.432	7738
873.561	7868
873.69	7959
873.819	8058
873.948	8214
874.077	8229
874.206	8419
874.335	8450
874.464	8617
874.593	8853
874.722	8937
874.851	9161
874.979	9199
875.108	9367
875.237	9389
875.365	9519
875.494	9606
875.623	9854
875.751	9793
875.88	9979
876.008	10120
876.136	10348
876.265	10535
876.393	10744
876.521	10710
876.65	10850
876.778	10930
876.906	10881
877.034	11064
877.162	11064
877.29	11079
877.418	11258
877.546	11299
877.674	11478
877.802	11562
877.93	11463
878.058	11573
878.185	11558
878.313	11543
878.441	11786
878.568	11760
878.696	11802
878.824	11786
878.951	11912
879.079	12087
879.206	12190
879.333	12098
879.461	11908
879.588	12136
879.715	12102
879.842	12220
879.97	12102
880.097	11832
880.224	11912
880.351	11798
880.478	11828
880.605	11939
880.732	11859
880.859	12041
880.986	11786
881.112	11897
881.239	11737
881.366	11760
881.493	11680
881.619	11562
881.746	11558
881.872	11532
881.999	11474
882.125	11486
882.252	11573
882.378	11554
882.505	11581
882.631	11395
882.757	11345
882.883	11372
883.01	11239
883.136	11117
883.262	11048
883.388	11048
883.514	11246
883.64	11151
883.766	11132
883.892	10965
884.018	11079
884.143	11094
884.269	11132
884.395	10831
884.52	10797
884.646	10767
884.772	10786
884.897	10698
885.023	10672
885.148	10786
885.274	10752
885.399	10706
885.524	10622
885.65	10615
885.775	10592
885.9	10618
886.025	10618
886.15	10554
886.275	10527
886.4	10398
886.525	10443
886.65	10314
886.775	10333
886.9	10421
887.025	10500
887.149	10322
887.274	10192
887.399	10215
887.523	10204
887.648	10158
887.773	10032
887.897	10329
888.021	10268
888.146	10116
888.27	10242
888.395	10192
888.519	10246
888.643	10215
888.767	10185
888.891	10063
889.015	9983
889.139	10078
889.263	10074
889.387	10067
889.511	10067
889.635	10109
889.759	9903
889.883	9930
890.006	9945
890.13	10135
890.254	9960
890.377	9880
890.501	9911
890.624	9880
890.748	9934
890.871	9816
890.995	9770
891.118	9804
891.241	9755
891.364	9778
891.488	9869
891.611	9724
891.734	9740
891.857	9785
891.98	9686
892.103	9740
892.226	9732
892.349	9652
892.471	9500
892.594	9652
892.717	9641
892.839	9519
892.962	9629
893.085	9629
893.207	9530
893.33	9496
893.452	9530
893.575	9656
893.697	9526
893.819	9595
893.941	9641
894.064	9584
894.186	9382
894.308	9507
894.43	9561
894.552	9606
894.674	9534
894.796	9321
894.918	9420
895.04	9416
895.161	9416
895.283	9332
895.405	9287
895.526	9218
895.648	9233
895.769	9291
895.891	9245
896.012	9283
896.134	9245
896.255	9199
896.376	9169
896.498	9142
896.619	9138
896.74	9108
896.861	9077
896.982	9233
897.103	9321
897.224	9131
897.345	9062
897.466	8967
897.587	8986
897.708	9154
897.828	9051
897.949	9005
898.07	8872
898.19	8956
898.311	8998
898.431	8914
898.552	8952
898.672	8921
898.792	8960
898.913	8887
899.033	8762
899.153	8777
899.273	8701
899.393	8754
899.513	8754
899.633	8785
899.753	8693
899.873	8705
899.993	8758
900.113	8678
900.232	8746
900.352	8648
900.472	8625
900.591	8583
900.711	8640
900.83	8594
900.95	8613
901.069	8716
901.189	8625
901.308	8423
901.427	8469
901.546	8408
901.665	8476
901.784	8507
901.904	8351
902.023	8351
902.141	8282
902.26	8237
902.379	8347
902.498	8263
902.617	8157
902.735	8305
902.854	8309
902.973	8298
903.091	8161
903.21	8126
903.328	8180
903.446	8126
903.565	8065
903.683	8142
903.801	8100
903.919	8084
904.038	8145
904.156	8027
904.274	8088
904.392	8058
904.51	8050
904.627	8058
904.745	8062
904.863	8142
904.981	7894
905.098	7906
905.216	7864
905.334	7932
905.451	7925
905.569	7913
905.686	7970
905.803	7982
905.921	7769
906.038	7898
906.155	7769
906.272	7681
906.389	7715
906.506	7658
906.623	7613
906.74	7628
906.857	7533
906.974	7582
907.091	7700
907.208	7811
907.324	7590
907.441	7590
907.557	7476
907.674	7525
907.79	7381
907.907	7468
908.023	7415
908.139	7426
908.256	7312
908.372	7403
908.488	7373
908.604	7293
908.72	7266
908.836	7263
908.952	7209
909.068	7285
909.184	7354
909.3	7221
909.415	7282
909.531	7327
909.647	7110
909.762	7137
909.878	7034
909.993	7171
910.108	7023
910.224	7057
910.339	7110
910.454	7072
910.57	7027
910.685	6977
910.8	7160
910.915	7145
911.03	7053
911.145	6973
911.259	6924
911.374	6901
911.489	6825
911.604	6779
911.718	6734
911.833	6711
911.947	6673
912.062	6623
912.176	6707
912.291	6745
912.405	6688
912.519	6863
912.633	6859
912.748	6745
912.862	6753
912.976	6662
913.09	6509
913.204	6635
913.318	6623
913.431	6700
913.545	6684
913.659	6768
913.772	6677
913.886	6612
914	6578
914.113	6642
914.226	6604
914.34	6658
914.453	6555
914.566	6597
914.68	6536
914.793	6517
914.906	6429
915.019	6410
915.132	6395
915.245	6445
915.358	6456
915.47	6525
915.583	6506
915.696	6490
915.809	6547
915.921	6570
916.034	6429
916.146	6376
916.259	6429
916.371	6483
916.483	6437
916.595	6338
916.708	6422
916.82	6407
916.932	6426
917.044	6391
917.156	6365
917.268	6323
917.38	6353
917.491	6319
917.603	6403
917.715	6395
917.826	6445
917.938	6426
918.049	6243
918.161	6338
918.272	6422
918.384	6426
918.495	6350
918.606	6281
918.717	6220
918.828	6247
918.939	6251
919.05	6216
919.161	6247
919.272	6171
919.383	6194
919.494	6300
919.604	6384
919.715	6350
919.826	6235
919.936	6289
920.047	6319
920.157	6334
920.267	6490
920.378	6334
920.488	6338
920.598	6498
920.708	6551
920.818	6486
920.928	6506
921.038	6597
921.148	6593
921.258	6338
921.368	6323
921.477	6266
921.587	6148
921.697	6079
921.806	6224
921.916	6114
922.025	5950
922.134	5916
922.244	5866
922.353	5946
922.462	5878
922.571	5832
922.68	5764
922.789	5672
922.898	5684
923.007	5668
923.116	5741
923.224	5748
923.333	5703
923.442	5608
923.55	5634
923.659	5604
923.767	5581
923.876	5589
923.984	5570
924.092	5543
924.201	5554
924.309	5623
924.417	5596
924.525	5417
924.633	5497
924.741	6262
924.849	5387
924.956	5471
925.064	5379
925.172	5292
925.279	5349
925.387	5330
925.494	5330
925.602	5433
925.709	5357
925.816	5258
925.924	5330
926.031	5322
926.138	5265
926.245	5303
926.352	5254
926.459	5315
926.566	5318
926.673	5242
926.779	5140
926.886	5098
926.993	5041
927.099	5014
927.206	4953
927.312	4938
927.419	5052
927.525	5014
927.631	5022
927.737	4908
927.843	4862
927.95	4771
928.056	4870
928.162	4824
928.267	4881
928.373	5303
928.479	4805
928.585	4748
928.69	4744
928.796	4767
928.901	4736
929.007	4660
929.112	4698
929.218	4622
929.323	4634
929.428	4550
929.533	4691
929.638	4558
929.743	4500
929.848	4584
929.953	4504
930.058	4489
930.163	4375
930.267	4360
930.372	4462
930.477	4276
930.581	4497
930.685	4371
930.79	4265
930.894	4257
930.998	4272
931.103	4421
931.207	4147
931.311	4067
931.415	4051
931.519	3918
931.623	3968
