Data from glass_V78500241_2030.txt Node
Date: Wed Sep 01 19:28:34 CST 2021
User: usil
Spectrometer: V785-0024
Trigger mode: 0
Integration Time (sec): 4.000000E-1
Scans to average: 1
Nonlinearity correction enabled: false
Boxcar width: 0
Storing dark spectrum: false
XAxis mode: Wavelengths
Number of Pixels in Spectrum: 1024
>>>>>Begin Spectral Data<<<<<
801.071	3709
801.214	3781
801.356	3717
801.499	3747
801.641	3698
801.783	3766
801.926	3827
802.068	3865
802.211	3880
802.353	3896
802.496	3819
802.638	3865
802.78	3861
802.923	3941
803.065	3907
803.208	3880
803.35	3896
803.492	3896
803.635	3930
803.777	3762
803.919	3892
804.061	4116
804.204	3956
804.346	3922
804.488	3911
804.63	4055
804.773	3975
804.915	4051
805.057	4124
805.199	4055
805.341	4097
805.483	4086
805.626	4116
805.768	4120
805.91	4196
806.052	4219
806.194	4196
806.336	4284
806.478	4227
806.62	4173
806.762	4158
806.904	4257
807.046	4322
807.188	4215
807.33	4162
807.472	4242
807.614	4204
807.756	4291
807.898	4200
808.04	4242
808.182	4295
808.324	4363
808.465	4360
808.607	4455
808.749	4443
808.891	4455
809.033	4489
809.174	4424
809.316	4276
809.458	4230
809.6	4143
809.741	4204
809.883	4147
810.025	4188
810.166	4253
810.308	4147
810.45	4215
810.591	4234
810.733	4344
810.875	4519
811.016	4809
811.158	5121
811.299	5212
811.441	5326
811.582	4995
811.724	4706
811.865	4459
812.007	4451
812.148	4443
812.29	4394
812.431	4390
812.573	4405
812.714	4413
812.855	4398
812.997	4409
813.138	4466
813.279	4424
813.421	4386
813.562	4398
813.703	4303
813.845	4322
813.986	4253
814.127	4215
814.268	4261
814.41	4284
814.551	4238
814.692	4325
814.833	4276
814.974	4314
815.115	4333
815.256	4230
815.397	4276
815.539	4257
815.68	4204
815.821	4154
815.962	4325
816.103	4284
816.244	4234
816.385	4227
816.526	4287
816.666	4196
816.807	4124
816.948	4215
817.089	4109
817.23	4128
817.371	4067
817.512	4051
817.653	4067
817.793	4036
817.934	4025
818.075	4116
818.216	4105
818.356	4105
818.497	3972
818.638	3876
818.778	3911
818.919	3930
819.06	3865
819.2	3922
819.341	3865
819.481	3842
819.622	3903
819.762	4029
819.903	3937
820.043	3838
820.184	3831
820.324	3808
820.465	3873
820.605	3827
820.746	3854
820.886	3781
821.026	3949
821.167	3918
821.307	4010
821.447	3968
821.588	3941
821.728	3972
821.868	3922
822.008	3857
822.149	3915
822.289	3888
822.429	3778
822.569	3766
822.709	3816
822.849	3701
822.99	3736
823.13	3732
823.27	3816
823.41	3709
823.55	3743
823.69	3690
823.83	3709
823.97	3641
824.11	3584
824.25	3557
824.389	3622
824.529	3671
824.669	3614
824.809	3724
824.949	3759
825.089	3694
825.228	3690
825.368	3557
825.508	3564
825.648	3580
825.787	3587
825.927	3603
826.067	3614
826.206	3625
826.346	3816
826.485	3861
826.625	3823
826.765	3934
826.904	3835
827.044	3591
827.183	3511
827.323	3424
827.462	3462
827.601	3424
827.741	3374
827.88	3405
828.02	3405
828.159	3439
828.298	3454
828.437	3515
828.577	3488
828.716	3576
828.855	3462
828.994	3370
829.134	3351
829.273	3378
829.412	3355
829.551	3325
829.69	3332
829.829	3386
829.968	3488
830.107	3443
830.246	3401
830.385	3359
830.524	3332
830.663	3302
830.802	3245
830.941	3184
831.08	3157
831.219	3249
831.357	3230
831.496	3401
831.635	3226
831.774	3154
831.913	3173
832.051	3138
832.19	3169
832.329	3203
832.467	3146
832.606	3108
832.744	3169
832.883	3146
833.022	3226
833.16	3272
833.299	3272
833.437	3313
833.576	3367
833.714	3386
833.852	3469
833.991	3431
834.129	3450
834.267	3431
834.406	3409
834.544	3435
834.682	3401
834.821	3454
834.959	3538
835.097	3401
835.235	3519
835.373	3454
835.511	3466
835.65	3458
835.788	3458
835.926	3401
836.064	3367
836.202	3424
836.34	3545
836.478	3591
836.615	3572
836.753	3603
836.891	3641
837.029	3584
837.167	3599
837.305	3557
837.443	3534
837.58	3492
837.718	3591
837.856	3580
837.993	3488
838.131	3580
838.269	3568
838.406	3568
838.544	3572
838.681	3492
838.819	3492
838.956	3409
839.094	3420
839.231	3458
839.369	3481
839.506	3728
839.643	3633
839.781	3488
839.918	3443
840.055	3488
840.193	3530
840.33	3523
840.467	3534
840.604	3614
840.742	3759
840.879	3549
841.016	3591
841.153	3587
841.29	3740
841.427	3709
841.564	3724
841.701	3755
841.838	3671
841.975	3656
842.112	3720
842.249	3629
842.385	3644
842.522	3804
842.659	3682
842.796	3686
842.933	3698
843.069	3720
843.206	3774
843.343	3785
843.479	3800
843.616	3869
843.752	3698
843.889	3663
844.025	3869
844.162	3732
844.298	3896
844.435	3819
844.571	3797
844.708	3903
844.844	3975
844.98	4063
845.117	3987
845.253	3941
845.389	3869
845.525	3987
845.661	3983
845.798	3918
845.934	4025
846.07	3953
846.206	4082
846.342	4116
846.478	4021
846.614	3949
846.75	3922
846.886	3907
847.022	4032
847.158	3994
847.294	3964
847.429	4044
847.565	3968
847.701	4227
847.837	3899
847.972	3831
848.108	3972
848.244	3953
848.379	3838
848.515	3808
848.65	3781
848.786	3846
848.921	3899
849.057	3934
849.192	3956
849.328	3892
849.463	3907
849.598	3915
849.734	3842
849.869	3819
850.004	3743
850.14	3804
850.275	3816
850.41	3747
850.545	3766
850.68	3766
850.815	3774
850.95	3800
851.085	3915
851.22	3838
851.355	3816
851.49	3766
851.625	3778
851.76	3755
851.895	3701
852.03	3694
852.165	3793
852.299	3800
852.434	3892
852.569	3884
852.703	3861
852.838	3934
852.973	4006
853.107	3983
853.242	3922
853.376	3869
853.511	3781
853.645	3812
853.78	3964
853.914	3884
854.048	3876
854.183	3876
854.317	3915
854.451	4055
854.585	3964
854.72	3956
854.854	4036
854.988	3972
855.122	3998
855.256	3907
855.39	4006
855.524	4101
855.658	4074
855.792	4055
855.926	4166
856.06	4166
856.194	4192
856.327	4090
856.461	4090
856.595	4139
856.729	4124
856.862	4284
856.996	4280
857.13	4318
857.263	4348
857.397	4325
857.53	4310
857.664	4322
857.797	4367
857.931	4390
858.064	4341
858.197	4390
858.331	4402
858.464	4383
858.597	4314
858.731	4436
858.864	4447
858.997	4436
859.13	4550
859.263	4455
859.396	4550
859.529	4542
859.662	4550
859.795	4561
859.928	4569
860.061	4660
860.194	4740
860.327	4683
860.46	4656
860.592	4740
860.725	4778
860.858	4736
860.99	4687
861.123	4679
861.256	4683
861.388	4736
861.521	5398
861.653	4649
861.786	4752
861.918	4687
862.05	4778
862.183	4812
862.315	4866
862.447	4896
862.58	4862
862.712	4736
862.844	4752
862.976	4858
863.108	4870
863.24	5151
863.372	4820
863.504	4866
863.636	4934
863.768	4968
863.9	4984
864.032	4919
864.164	4915
864.296	4968
864.428	5071
864.559	5079
864.691	5128
864.823	5121
864.954	5124
865.086	5128
865.217	5155
865.349	5102
865.48	5140
865.612	5174
865.743	5311
865.875	5212
866.006	5178
866.137	5201
866.269	5223
866.4	5223
866.531	5235
866.662	5178
866.793	5284
866.924	5261
867.055	5345
867.186	5318
867.317	5349
867.448	5326
867.579	5406
867.71	5383
867.841	5360
867.972	5471
868.103	5505
868.233	5467
868.364	5501
868.495	5554
868.625	5615
868.756	5775
868.886	5684
869.017	5710
869.147	5851
869.278	5882
869.408	5817
869.539	5828
869.669	5836
869.799	5844
869.929	6007
870.06	5961
870.19	6190
870.32	6182
870.45	6266
870.58	6350
870.71	6441
870.84	6467
870.97	6399
871.1	6445
871.23	6665
871.36	6734
871.489	6620
871.619	6707
871.749	6833
871.879	6852
872.008	6993
872.138	6954
872.267	7008
872.397	7019
872.526	7012
872.656	7103
872.785	7152
872.915	7289
873.044	7518
873.173	7502
873.303	7693
873.432	7792
873.561	7826
873.69	7932
873.819	7967
873.948	8157
874.077	8320
874.206	8385
874.335	8431
874.464	8602
874.593	8842
874.722	8868
874.851	9100
874.979	9241
875.108	9321
875.237	9351
875.365	9431
875.494	9652
875.623	9766
875.751	9873
875.88	9956
876.008	10128
876.136	10379
876.265	10531
876.393	10660
876.521	10675
876.65	10797
876.778	10908
876.906	10923
877.034	11010
877.162	11025
877.29	11094
877.418	11315
877.546	11376
877.674	11562
877.802	11436
877.93	11532
878.058	11573
878.185	11547
878.313	11699
878.441	11642
878.568	11653
878.696	11703
878.824	11889
878.951	11908
879.079	12011
879.206	12121
879.333	12064
879.461	12030
879.588	12041
879.715	12076
879.842	12205
879.97	12163
880.097	11939
880.224	11874
880.351	11851
880.478	11901
880.605	11878
880.732	11824
880.859	11946
880.986	11771
881.112	11824
881.239	11752
881.366	11707
881.493	11604
881.619	11551
881.746	11585
881.872	11566
881.999	11455
882.125	11577
882.252	11585
882.378	11452
882.505	11615
882.631	11372
882.757	11277
882.883	11360
883.01	11322
883.136	11143
883.262	11178
883.388	11033
883.514	11143
883.64	11166
883.766	11121
883.892	10999
884.018	10949
884.143	11075
884.269	11079
884.395	10881
884.52	10790
884.646	10778
884.772	10748
884.897	10675
885.023	10698
885.148	10767
885.274	10752
885.399	10656
885.524	10577
885.65	10558
885.775	10535
885.9	10618
886.025	10561
886.15	10558
886.275	10447
886.4	10341
886.525	10344
886.65	10360
886.775	10356
886.9	10470
887.025	10554
887.149	10390
887.274	10169
887.399	10234
887.523	10166
887.648	10116
887.773	10071
887.897	10219
888.021	10200
888.146	10131
888.27	10246
888.395	10128
888.519	10162
888.643	10223
888.767	10131
888.891	10105
889.015	10025
889.139	9987
889.263	10002
889.387	10067
889.511	10109
889.635	10090
889.759	9903
889.883	9994
890.006	10013
890.13	10074
890.254	9945
890.377	9922
890.501	9880
890.624	9835
890.748	9842
890.871	9770
890.995	9709
891.118	9759
891.241	9857
891.364	9759
891.488	9774
891.611	9781
891.734	9698
891.857	9724
891.98	9762
892.103	9793
892.226	9736
892.349	9644
892.471	9542
892.594	9584
892.717	9553
892.839	9610
892.962	9618
893.085	9641
893.207	9633
893.33	9515
893.452	9523
893.575	9568
893.697	9534
893.819	9549
893.941	9629
894.064	9564
894.186	9458
894.308	9428
894.43	9386
894.552	9526
894.674	9454
894.796	9374
894.918	9481
895.04	9405
895.161	9348
895.283	9332
895.405	9241
895.526	9211
895.648	9222
895.769	9279
895.891	9344
896.012	9294
896.134	9207
896.255	9146
896.376	9108
896.498	9237
896.619	9100
896.74	9077
896.861	9097
896.982	9264
897.103	9298
897.224	9058
897.345	9074
897.466	8998
897.587	9028
897.708	9104
897.828	8982
897.949	9020
898.07	8853
898.19	8929
898.311	9013
898.431	8910
898.552	8956
898.672	8960
898.792	8914
898.913	8895
899.033	8766
899.153	8769
899.273	8659
899.393	8735
899.513	8800
899.633	8708
899.753	8708
899.873	8712
899.993	8739
900.113	8670
900.232	8678
900.352	8659
900.472	8606
900.591	8556
900.711	8625
900.83	8492
900.95	8663
901.069	8674
901.189	8571
901.308	8412
901.427	8328
901.546	8434
901.665	8442
901.784	8503
901.904	8339
902.023	8324
902.141	8263
902.26	8229
902.379	8294
902.498	8225
902.617	8180
902.735	8332
902.854	8221
902.973	8210
903.091	8107
903.21	8115
903.328	8149
903.446	8103
903.565	8020
903.683	8031
903.801	8035
903.919	8103
904.038	8168
904.156	7970
904.274	8149
904.392	7993
904.51	8039
904.627	8031
904.745	8123
904.863	8081
904.981	7963
905.098	7887
905.216	7852
905.334	7864
905.451	7894
905.569	7849
905.686	7967
905.803	7947
905.921	7841
906.038	7906
906.155	7803
906.272	7769
906.389	7731
906.506	7605
906.623	7693
906.74	7510
906.857	7537
906.974	7643
907.091	7704
907.208	7651
907.324	7643
907.441	7571
907.557	7472
907.674	7476
907.79	7381
907.907	7441
908.023	7403
908.139	7411
908.256	7324
908.372	7350
908.488	7358
908.604	7274
908.72	7255
908.836	7259
908.952	7213
909.068	7232
909.184	7312
909.3	7251
909.415	7297
909.531	7301
909.647	7061
909.762	7202
909.878	7053
909.993	7076
910.108	7145
910.224	7091
910.339	7088
910.454	7053
910.57	7038
910.685	6924
910.8	7103
910.915	7095
911.03	7053
911.145	6878
911.259	6814
911.374	6894
911.489	6783
911.604	6818
911.718	6730
911.833	6730
911.947	6593
912.062	6654
912.176	6703
912.291	6688
912.405	6726
912.519	6814
912.633	6798
912.748	6745
912.862	6707
912.976	6612
913.09	6566
913.204	6532
913.318	6559
913.431	6654
913.545	6688
913.659	6665
913.772	6650
913.886	6566
914	6601
914.113	6650
914.226	6662
914.34	6563
914.453	6521
914.566	6578
914.68	6494
914.793	6513
914.906	6467
915.019	6395
915.132	6388
915.245	6467
915.358	6426
915.47	6380
915.583	6475
915.696	6486
915.809	6536
915.921	6547
916.034	6422
916.146	6380
916.259	6357
916.371	6490
916.483	6452
916.595	6372
916.708	6426
916.82	6369
916.932	6350
917.044	6395
917.156	6391
917.268	6357
917.38	6384
917.491	6311
917.603	6346
917.715	6380
917.826	6376
917.938	6327
918.049	6201
918.161	6346
918.272	6357
918.384	6486
918.495	6285
918.606	6232
918.717	6186
918.828	6258
918.939	6258
919.05	6186
919.161	6209
919.272	6068
919.383	6205
919.494	6334
919.604	6422
919.715	6266
919.826	6247
919.936	6243
920.047	6338
920.157	6232
920.267	6429
920.378	6357
920.488	6216
920.598	6429
920.708	6456
920.818	6414
920.928	6418
921.038	6570
921.148	6551
921.258	6350
921.368	6247
921.477	6186
921.587	6167
921.697	6106
921.806	6163
921.916	6106
922.025	5965
922.134	5912
922.244	5931
922.353	5923
922.462	5870
922.571	5817
922.68	5710
922.789	5703
922.898	5699
923.007	5585
923.116	5657
923.224	5668
923.333	5592
923.442	5592
923.55	5592
923.659	5539
923.767	5668
923.876	5570
923.984	5566
924.092	5497
924.201	5501
924.309	5482
924.417	5539
924.525	5463
924.633	5570
924.741	6254
924.849	5391
924.956	5433
925.064	5360
925.172	5330
925.279	5280
925.387	5360
925.494	5334
925.602	5379
925.709	5391
925.816	5227
925.924	5341
926.031	5383
926.138	5303
926.245	5341
926.352	5162
926.459	5303
926.566	5265
926.673	5178
926.779	5136
926.886	5109
926.993	5060
927.099	4999
927.206	4987
927.312	5010
927.419	4984
927.525	4999
927.631	4980
927.737	4881
927.843	4873
927.95	4763
928.056	4843
928.162	4904
928.267	4850
928.373	5307
928.479	4812
928.585	4698
928.69	4782
928.796	4797
928.901	4687
929.007	4615
929.112	4694
929.218	4622
929.323	4592
929.428	4546
929.533	4668
929.638	4504
929.743	4523
929.848	4558
929.953	4538
930.058	4417
930.163	4333
930.267	4257
930.372	4436
930.477	4325
930.581	4493
930.685	4352
930.79	4291
930.894	4238
930.998	4280
931.103	4390
931.207	4131
931.311	4086
931.415	4010
931.519	3915
931.623	3941
