Data from glass_V78500241_1079.txt Node
Date: Wed Sep 01 19:21:58 CST 2021
User: usil
Spectrometer: V785-0024
Trigger mode: 0
Integration Time (sec): 4.000000E-1
Scans to average: 1
Nonlinearity correction enabled: false
Boxcar width: 0
Storing dark spectrum: false
XAxis mode: Wavelengths
Number of Pixels in Spectrum: 1024
>>>>>Begin Spectral Data<<<<<
801.071	3743
801.214	3808
801.356	3675
801.499	3743
801.641	3724
801.783	3793
801.926	3842
802.068	3842
802.211	3861
802.353	3903
802.496	3896
802.638	3918
802.78	3922
802.923	3922
803.065	3915
803.208	3880
803.35	3911
803.492	3880
803.635	3918
803.777	3800
803.919	3892
804.061	4154
804.204	3975
804.346	3937
804.488	3918
804.63	4067
804.773	3983
804.915	4040
805.057	4128
805.199	4055
805.341	4112
805.483	4181
805.626	4131
805.768	4135
805.91	4249
806.052	4200
806.194	4207
806.336	4341
806.478	4257
806.62	4181
806.762	4196
806.904	4227
807.046	4303
807.188	4204
807.33	4207
807.472	4291
807.614	4158
807.756	4230
807.898	4162
808.04	4238
808.182	4348
808.324	4310
808.465	4402
808.607	4481
808.749	4436
808.891	4451
809.033	4535
809.174	4413
809.316	4223
809.458	4249
809.6	4139
809.741	4188
809.883	4154
810.025	4207
810.166	4234
810.308	4265
810.45	4253
810.591	4284
810.733	4280
810.875	4577
811.016	4782
811.158	5109
811.299	5261
811.441	5284
811.582	5071
811.724	4675
811.865	4512
812.007	4474
812.148	4436
812.29	4432
812.431	4447
812.573	4402
812.714	4367
812.855	4417
812.997	4390
813.138	4558
813.279	4398
813.421	4409
813.562	4356
813.703	4348
813.845	4318
813.986	4246
814.127	4287
814.268	4257
814.41	4287
814.551	4299
814.692	4291
814.833	4295
814.974	4341
815.115	4360
815.256	4318
815.397	4246
815.539	4249
815.68	4211
815.821	4242
815.962	4272
816.103	4272
816.244	4268
816.385	4188
816.526	4280
816.666	4192
816.807	4147
816.948	4223
817.089	4185
817.23	4112
817.371	4063
817.512	4059
817.653	4097
817.793	4006
817.934	4101
818.075	4097
818.216	4071
818.356	4116
818.497	4006
818.638	3922
818.778	3915
818.919	3903
819.06	3869
819.2	3937
819.341	3884
819.481	3861
819.622	3907
819.762	4025
819.903	3937
820.043	3888
820.184	3842
820.324	3835
820.465	3922
820.605	3888
820.746	3876
820.886	3838
821.026	3922
821.167	3915
821.307	3994
821.447	4006
821.588	3934
821.728	3979
821.868	3975
822.008	3880
822.149	3953
822.289	3949
822.429	3755
822.569	3778
822.709	3854
822.849	3720
822.99	3717
823.13	3789
823.27	3808
823.41	3705
823.55	3774
823.69	3717
823.83	3797
823.97	3679
824.11	3622
824.25	3614
824.389	3652
824.529	3660
824.669	3618
824.809	3740
824.949	3747
825.089	3736
825.228	3713
825.368	3561
825.508	3553
825.648	3576
825.787	3599
825.927	3633
826.067	3667
826.206	3686
826.346	3781
826.485	3869
826.625	3838
826.765	3964
826.904	3808
827.044	3606
827.183	3545
827.323	3420
827.462	3500
827.601	3424
827.741	3393
827.88	3450
828.02	3374
828.159	3420
828.298	3500
828.437	3526
828.577	3496
828.716	3564
828.855	3515
828.994	3382
829.134	3355
829.273	3397
829.412	3351
829.551	3321
829.69	3389
829.829	3450
829.968	3519
830.107	3447
830.246	3424
830.385	3367
830.524	3374
830.663	3325
830.802	3256
830.941	3233
831.08	3199
831.219	3268
831.357	3249
831.496	3443
831.635	3211
831.774	3188
831.913	3226
832.051	3123
832.19	3127
832.329	3195
832.467	3123
832.606	3127
832.744	3211
832.883	3230
833.022	3188
833.16	3226
833.299	3291
833.437	3310
833.576	3386
833.714	3412
833.852	3462
833.991	3481
834.129	3485
834.267	3458
834.406	3416
834.544	3435
834.682	3420
834.821	3443
834.959	3584
835.097	3428
835.235	3500
835.373	3500
835.511	3523
835.65	3450
835.788	3500
835.926	3424
836.064	3416
836.202	3431
836.34	3584
836.478	3606
836.615	3534
836.753	3603
836.891	3660
837.029	3603
837.167	3584
837.305	3561
837.443	3603
837.58	3534
837.718	3606
837.856	3564
837.993	3519
838.131	3606
838.269	3599
838.406	3584
838.544	3568
838.681	3496
838.819	3481
838.956	3370
839.094	3378
839.231	3443
839.369	3496
839.506	3743
839.643	3629
839.781	3530
839.918	3469
840.055	3538
840.193	3523
840.33	3549
840.467	3576
840.604	3614
840.742	3812
840.879	3591
841.016	3591
841.153	3610
841.29	3785
841.427	3717
841.564	3720
841.701	3732
841.838	3690
841.975	3698
842.112	3709
842.249	3641
842.385	3629
842.522	3869
842.659	3694
842.796	3675
842.933	3732
843.069	3705
843.206	3728
843.343	3789
843.479	3766
843.616	3827
843.752	3728
843.889	3679
844.025	3808
844.162	3694
844.298	3854
844.435	3785
844.571	3793
844.708	3911
844.844	3991
844.98	4032
845.117	4032
845.253	3956
845.389	3926
845.525	3994
845.661	4021
845.798	3960
845.934	3960
846.07	3960
846.206	4097
846.342	4131
846.478	4032
846.614	4002
846.75	3949
846.886	3861
847.022	4055
847.158	3937
847.294	4002
847.429	4055
847.565	4029
847.701	4276
847.837	3926
847.972	3831
848.108	3987
848.244	3979
848.379	3846
848.515	3838
848.65	3854
848.786	3899
848.921	3869
849.057	3968
849.192	3960
849.328	3888
849.463	3945
849.598	3869
849.734	3865
849.869	3930
850.004	3789
850.14	3819
850.275	3785
850.41	3759
850.545	3804
850.68	3789
850.815	3812
850.95	3827
851.085	3953
851.22	3903
851.355	3865
851.49	3804
851.625	3785
851.76	3785
851.895	3736
852.03	3755
852.165	3831
852.299	3850
852.434	3907
852.569	3873
852.703	3873
852.838	3903
852.973	4010
853.107	3968
853.242	3926
853.376	3869
853.511	3804
853.645	3850
853.78	4021
853.914	3934
854.048	3892
854.183	3915
854.317	3968
854.451	4048
854.585	3975
854.72	3975
854.854	4048
854.988	3934
855.122	4017
855.256	3918
855.39	4029
855.524	4105
855.658	4139
855.792	4093
855.926	4169
856.06	4219
856.194	4215
856.327	4147
856.461	4116
856.595	4169
856.729	4211
856.862	4253
856.996	4272
857.13	4348
857.263	4325
857.397	4398
857.53	4329
857.664	4352
857.797	4405
857.931	4451
858.064	4379
858.197	4462
858.331	4363
858.464	4375
858.597	4356
858.731	4451
858.864	4459
858.997	4466
859.13	4538
859.263	4561
859.396	4599
859.529	4569
859.662	4546
859.795	4516
859.928	4584
860.061	4694
860.194	4733
860.327	4653
860.46	4634
860.592	4714
860.725	4774
860.858	4782
860.99	4717
861.123	4698
861.256	4714
861.388	4763
861.521	5436
861.653	4717
861.786	4660
861.918	4752
862.05	4820
862.183	4835
862.315	4885
862.447	4946
862.58	4930
862.712	4828
862.844	4790
862.976	4900
863.108	4881
863.24	5265
863.372	4854
863.504	4904
863.636	4870
863.768	5018
863.9	4999
864.032	4877
864.164	4991
864.296	5014
864.428	5128
864.559	5128
864.691	5117
864.823	5159
864.954	5174
865.086	5117
865.217	5132
865.349	5090
865.48	5197
865.612	5181
865.743	5280
865.875	5178
866.006	5162
866.137	5258
866.269	5250
866.4	5261
866.531	5307
866.662	5334
866.793	5273
866.924	5284
867.055	5372
867.186	5299
867.317	5357
867.448	5318
867.579	5398
867.71	5379
867.841	5379
867.972	5478
868.103	5474
868.233	5490
868.364	5512
868.495	5551
868.625	5688
868.756	5798
868.886	5722
869.017	5748
869.147	5851
869.278	5874
869.408	5813
869.539	5847
869.669	5882
869.799	5885
869.929	5954
870.06	6049
870.19	6201
870.32	6216
870.45	6232
870.58	6350
870.71	6448
870.84	6471
870.97	6437
871.1	6437
871.23	6597
871.36	6703
871.489	6684
871.619	6749
871.749	6776
871.879	6882
872.008	7004
872.138	6943
872.267	6993
872.397	7042
872.526	7061
872.656	7107
872.785	7217
872.915	7373
873.044	7552
873.173	7575
873.303	7704
873.432	7757
873.561	7883
873.69	7921
873.819	8031
873.948	8206
874.077	8263
874.206	8358
874.335	8434
874.464	8602
874.593	8891
874.722	8933
874.851	9154
874.979	9275
875.108	9393
875.237	9405
875.365	9462
875.494	9705
875.623	9857
875.751	9857
875.88	10013
876.008	10177
876.136	10299
876.265	10470
876.393	10672
876.521	10763
876.65	10824
876.778	10900
876.906	10949
877.034	10991
877.162	11231
877.29	11155
877.418	11292
877.546	11334
877.674	11474
877.802	11429
877.93	11482
878.058	11608
878.185	11608
878.313	11676
878.441	11764
878.568	11707
878.696	11775
878.824	11878
878.951	12019
879.079	12106
879.206	12155
879.333	12026
879.461	12022
879.588	12152
879.715	12152
879.842	12186
879.97	12003
880.097	11882
880.224	11931
880.351	11863
880.478	11996
880.605	11832
880.732	11851
880.859	11961
880.986	11859
881.112	11840
881.239	11752
881.366	11733
881.493	11668
881.619	11535
881.746	11512
881.872	11497
881.999	11501
882.125	11455
882.252	11463
882.378	11490
882.505	11680
882.631	11387
882.757	11379
882.883	11284
883.01	11220
883.136	11178
883.262	11155
883.388	11086
883.514	11220
883.64	11151
883.766	11178
883.892	10949
884.018	10976
884.143	11083
884.269	11105
884.395	10797
884.52	10790
884.646	10721
884.772	10729
884.897	10649
885.023	10694
885.148	10740
885.274	10698
885.399	10672
885.524	10634
885.65	10599
885.775	10645
885.9	10558
886.025	10634
886.15	10489
886.275	10478
886.4	10421
886.525	10398
886.65	10363
886.775	10295
886.9	10459
887.025	10569
887.149	10337
887.274	10181
887.399	10204
887.523	10105
887.648	10173
887.773	10055
887.897	10276
888.021	10242
888.146	10169
888.27	10246
888.395	10200
888.519	10223
888.643	10215
888.767	10166
888.891	10135
889.015	10105
889.139	10036
889.263	10010
889.387	10090
889.511	10097
889.635	10093
889.759	10017
889.883	9987
890.006	10067
890.13	10139
890.254	9915
890.377	9949
890.501	9861
890.624	9835
890.748	9899
890.871	9854
890.995	9804
891.118	9743
891.241	9770
891.364	9827
891.488	9785
891.611	9747
891.734	9789
891.857	9762
891.98	9747
892.103	9861
892.226	9675
892.349	9618
892.471	9492
892.594	9625
892.717	9572
892.839	9648
892.962	9622
893.085	9564
893.207	9637
893.33	9515
893.452	9572
893.575	9629
893.697	9538
893.819	9663
893.941	9622
894.064	9648
894.186	9435
894.308	9462
894.43	9542
894.552	9599
894.674	9507
894.796	9351
894.918	9428
895.04	9382
895.161	9420
895.283	9359
895.405	9218
895.526	9287
895.648	9237
895.769	9268
895.891	9325
896.012	9256
896.134	9283
896.255	9176
896.376	9264
896.498	9154
896.619	9142
896.74	9097
896.861	9188
896.982	9302
897.103	9310
897.224	9138
897.345	8975
897.466	9051
897.587	9116
897.708	9051
897.828	9081
897.949	8963
898.07	8857
898.19	8921
898.311	9055
898.431	8948
898.552	8979
898.672	9009
898.792	8967
898.913	8895
899.033	8796
899.153	8800
899.273	8697
899.393	8800
899.513	8754
899.633	8693
899.753	8823
899.873	8727
899.993	8724
900.113	8655
900.232	8766
900.352	8663
900.472	8667
900.591	8503
900.711	8564
900.83	8568
900.95	8617
901.069	8701
901.189	8617
901.308	8454
901.427	8389
901.546	8476
901.665	8522
901.784	8507
901.904	8408
902.023	8385
902.141	8233
902.26	8263
902.379	8324
902.498	8263
902.617	8244
902.735	8305
902.854	8324
902.973	8229
903.091	8138
903.21	8164
903.328	8202
903.446	8069
903.565	8058
903.683	8092
903.801	8054
903.919	8176
904.038	8168
904.156	8016
904.274	8077
904.392	8016
904.51	8062
904.627	8050
904.745	8088
904.863	8149
904.981	7925
905.098	7879
905.216	7944
905.334	7856
905.451	7955
905.569	7928
905.686	7944
905.803	7917
905.921	7738
906.038	7909
906.155	7784
906.272	7700
906.389	7719
906.506	7609
906.623	7578
906.74	7597
906.857	7616
906.974	7639
907.091	7693
907.208	7742
907.324	7666
907.441	7578
907.557	7460
907.674	7472
907.79	7441
907.907	7426
908.023	7411
908.139	7468
908.256	7388
908.372	7495
908.488	7327
908.604	7305
908.72	7293
908.836	7228
908.952	7247
909.068	7259
909.184	7373
909.3	7270
909.415	7305
909.531	7335
909.647	7183
909.762	7137
909.878	7114
909.993	7122
910.108	7168
910.224	7091
910.339	7107
910.454	7023
910.57	6989
910.685	6954
910.8	7149
910.915	7145
911.03	7046
911.145	6890
911.259	6951
911.374	6833
911.489	6821
911.604	6837
911.718	6722
911.833	6772
911.947	6692
912.062	6601
912.176	6696
912.291	6730
912.405	6730
912.519	6852
912.633	6818
912.748	6791
912.862	6658
912.976	6677
913.09	6597
913.204	6574
913.318	6642
913.431	6627
913.545	6688
913.659	6722
913.772	6700
913.886	6566
914	6582
914.113	6642
914.226	6650
914.34	6612
914.453	6509
914.566	6665
914.68	6479
914.793	6528
914.906	6441
915.019	6372
915.132	6388
915.245	6448
915.358	6418
915.47	6437
915.583	6475
915.696	6532
915.809	6517
915.921	6559
916.034	6429
916.146	6399
916.259	6346
916.371	6486
916.483	6460
916.595	6464
916.708	6410
916.82	6403
916.932	6380
917.044	6399
917.156	6403
917.268	6273
917.38	6410
917.491	6273
917.603	6380
917.715	6376
917.826	6407
917.938	6308
918.049	6216
918.161	6334
918.272	6418
918.384	6475
918.495	6426
918.606	6270
918.717	6216
918.828	6277
918.939	6247
919.05	6182
919.161	6228
919.272	6175
919.383	6201
919.494	6285
919.604	6448
919.715	6251
919.826	6243
919.936	6258
920.047	6361
920.157	6350
920.267	6456
920.378	6308
920.488	6311
920.598	6464
920.708	6532
920.818	6486
920.928	6521
921.038	6665
921.148	6601
921.258	6361
921.368	6281
921.477	6182
921.587	6205
921.697	6110
921.806	6213
921.916	6064
922.025	5965
922.134	5935
922.244	5935
922.353	5912
922.462	5874
922.571	5760
922.68	5760
922.789	5657
922.898	5726
923.007	5630
923.116	5699
923.224	5657
923.333	5642
923.442	5554
923.55	5611
923.659	5573
923.767	5676
923.876	5547
923.984	5661
924.092	5566
924.201	5547
924.309	5509
924.417	5532
924.525	5474
924.633	5551
924.741	6273
924.849	5360
924.956	5467
925.064	5334
925.172	5315
925.279	5330
925.387	5353
925.494	5368
925.602	5463
925.709	5364
925.816	5296
925.924	5326
926.031	5379
926.138	5345
926.245	5368
926.352	5261
926.459	5326
926.566	5326
926.673	5220
926.779	5121
926.886	5094
926.993	5041
927.099	4984
927.206	5018
927.312	4946
927.419	5086
927.525	5010
927.631	5041
927.737	4908
927.843	4892
927.95	4778
928.056	4850
928.162	4850
928.267	4908
928.373	5337
928.479	4904
928.585	4698
928.69	4805
928.796	4763
928.901	4721
929.007	4611
929.112	4694
929.218	4634
929.323	4626
929.428	4588
929.533	4691
929.638	4523
929.743	4531
929.848	4592
929.953	4535
930.058	4455
930.163	4379
930.267	4337
930.372	4497
930.477	4322
930.581	4405
930.685	4367
930.79	4261
930.894	4276
930.998	4249
931.103	4371
931.207	4150
931.311	4086
931.415	4040
931.519	3903
931.623	3945
