Data from glass_V78500241_842.txt Node
Date: Wed Sep 01 19:20:20 CST 2021
User: usil
Spectrometer: V785-0024
Trigger mode: 0
Integration Time (sec): 4.000000E-1
Scans to average: 1
Nonlinearity correction enabled: false
Boxcar width: 0
Storing dark spectrum: false
XAxis mode: Wavelengths
Number of Pixels in Spectrum: 1024
>>>>>Begin Spectral Data<<<<<
801.071	3747
801.214	3774
801.356	3724
801.499	3759
801.641	3686
801.783	3781
801.926	3884
802.068	3873
802.211	3854
802.353	3888
802.496	3812
802.638	3865
802.78	3888
802.923	3956
803.065	3918
803.208	3831
803.35	3896
803.492	3937
803.635	3949
803.777	3835
803.919	3922
804.061	4154
804.204	3991
804.346	3949
804.488	3915
804.63	4067
804.773	3983
804.915	4044
805.057	4166
805.199	4055
805.341	4109
805.483	4128
805.626	4128
805.768	4105
805.91	4242
806.052	4227
806.194	4227
806.336	4356
806.478	4181
806.62	4211
806.762	4192
806.904	4272
807.046	4322
807.188	4242
807.33	4173
807.472	4196
807.614	4166
807.756	4268
807.898	4200
808.04	4284
808.182	4284
808.324	4325
808.465	4390
808.607	4481
808.749	4485
808.891	4485
809.033	4474
809.174	4390
809.316	4253
809.458	4227
809.6	4227
809.741	4154
809.883	4166
810.025	4238
810.166	4234
810.308	4246
810.45	4234
810.591	4257
810.733	4325
810.875	4554
811.016	4862
811.158	5132
811.299	5311
811.441	5265
811.582	5121
811.724	4698
811.865	4485
812.007	4478
812.148	4432
812.29	4409
812.431	4432
812.573	4440
812.714	4333
812.855	4413
812.997	4405
813.138	4470
813.279	4459
813.421	4402
813.562	4360
813.703	4284
813.845	4383
813.986	4257
814.127	4238
814.268	4295
814.41	4291
814.551	4284
814.692	4291
814.833	4287
814.974	4276
815.115	4356
815.256	4268
815.397	4295
815.539	4249
815.68	4196
815.821	4230
815.962	4325
816.103	4291
816.244	4230
816.385	4257
816.526	4344
816.666	4215
816.807	4112
816.948	4169
817.089	4219
817.23	4150
817.371	4059
817.512	4090
817.653	4071
817.793	3991
817.934	4051
818.075	4109
818.216	4025
818.356	4101
818.497	4006
818.638	3903
818.778	3884
818.919	3922
819.06	3911
819.2	3945
819.341	3896
819.481	3846
819.622	3899
819.762	4021
819.903	3991
820.043	3896
820.184	3827
820.324	3850
820.465	3892
820.605	3850
820.746	3861
820.886	3854
821.026	3911
821.167	3926
821.307	4006
821.447	3979
821.588	3941
821.728	3956
821.868	3987
822.008	3861
822.149	3934
822.289	3922
822.429	3800
822.569	3774
822.709	3819
822.849	3728
822.99	3694
823.13	3743
823.27	3816
823.41	3713
823.55	3785
823.69	3732
823.83	3724
823.97	3656
824.11	3637
824.25	3637
824.389	3610
824.529	3656
824.669	3637
824.809	3736
824.949	3766
825.089	3736
825.228	3724
825.368	3591
825.508	3557
825.648	3580
825.787	3610
825.927	3656
826.067	3633
826.206	3656
826.346	3800
826.485	3892
826.625	3846
826.765	3987
826.904	3808
827.044	3614
827.183	3568
827.323	3454
827.462	3504
827.601	3424
827.741	3500
827.88	3485
828.02	3382
828.159	3458
828.298	3447
828.437	3515
828.577	3462
828.716	3625
828.855	3515
828.994	3382
829.134	3355
829.273	3435
829.412	3348
829.551	3317
829.69	3367
829.829	3424
829.968	3507
830.107	3447
830.246	3454
830.385	3367
830.524	3416
830.663	3340
830.802	3294
830.941	3188
831.08	3195
831.219	3272
831.357	3275
831.496	3397
831.635	3237
831.774	3184
831.913	3230
832.051	3154
832.19	3192
832.329	3203
832.467	3123
832.606	3127
832.744	3176
832.883	3161
833.022	3207
833.16	3245
833.299	3310
833.437	3355
833.576	3382
833.714	3382
833.852	3416
833.991	3454
834.129	3477
834.267	3466
834.406	3420
834.544	3443
834.682	3435
834.821	3412
834.959	3584
835.097	3416
835.235	3553
835.373	3511
835.511	3519
835.65	3454
835.788	3469
835.926	3409
836.064	3367
836.202	3431
836.34	3576
836.478	3648
836.615	3549
836.753	3614
836.891	3629
837.029	3648
837.167	3618
837.305	3606
837.443	3576
837.58	3515
837.718	3603
837.856	3580
837.993	3511
838.131	3633
838.269	3591
838.406	3572
838.544	3534
838.681	3469
838.819	3447
838.956	3397
839.094	3431
839.231	3458
839.369	3473
839.506	3747
839.643	3637
839.781	3515
839.918	3473
840.055	3530
840.193	3534
840.33	3504
840.467	3580
840.604	3641
840.742	3850
840.879	3572
841.016	3614
841.153	3614
841.29	3793
841.427	3713
841.564	3740
841.701	3740
841.838	3736
841.975	3740
842.112	3705
842.249	3686
842.385	3641
842.522	3800
842.659	3709
842.796	3709
842.933	3717
843.069	3690
843.206	3728
843.343	3800
843.479	3797
843.616	3800
843.752	3720
843.889	3701
844.025	3865
844.162	3713
844.298	3892
844.435	3766
844.571	3778
844.708	3934
844.844	3994
844.98	4067
845.117	4051
845.253	3903
845.389	3899
845.525	4002
845.661	4010
845.798	3896
845.934	4036
846.07	3937
846.206	4017
846.342	4109
846.478	4071
846.614	4017
846.75	3956
846.886	3964
847.022	4051
847.158	3998
847.294	4013
847.429	4017
847.565	4013
847.701	4280
847.837	3937
847.972	3892
848.108	3979
848.244	3998
848.379	3911
848.515	3846
848.65	3793
848.786	3842
848.921	3873
849.057	3949
849.192	3930
849.328	3945
849.463	3911
849.598	3956
849.734	3888
849.869	3816
850.004	3819
850.14	3876
850.275	3766
850.41	3766
850.545	3778
850.68	3804
850.815	3800
850.95	3797
851.085	3983
851.22	3876
851.355	3857
851.49	3804
851.625	3774
851.76	3804
851.895	3740
852.03	3747
852.165	3835
852.299	3861
852.434	3918
852.569	3888
852.703	3926
852.838	3937
852.973	4059
853.107	4006
853.242	3896
853.376	3857
853.511	3781
853.645	3819
853.78	3987
853.914	3884
854.048	3896
854.183	3899
854.317	3987
854.451	4105
854.585	3972
854.72	3953
854.854	4074
854.988	3922
855.122	3998
855.256	3918
855.39	4017
855.524	4105
855.658	4112
855.792	4112
855.926	4207
856.06	4177
856.194	4211
856.327	4135
856.461	4116
856.595	4158
856.729	4192
856.862	4276
856.996	4227
857.13	4348
857.263	4303
857.397	4379
857.53	4291
857.664	4360
857.797	4409
857.931	4402
858.064	4398
858.197	4470
858.331	4432
858.464	4390
858.597	4348
858.731	4523
858.864	4451
858.997	4451
859.13	4542
859.263	4580
859.396	4596
859.529	4542
859.662	4542
859.795	4516
859.928	4653
860.061	4714
860.194	4710
860.327	4634
860.46	4664
860.592	4748
860.725	4809
860.858	4763
860.99	4687
861.123	4675
861.256	4740
861.388	4778
861.521	5372
861.653	4755
861.786	4736
861.918	4736
862.05	4759
862.183	4892
862.315	4911
862.447	4915
862.58	4885
862.712	4782
862.844	4816
862.976	4881
863.108	4889
863.24	5201
863.372	4828
863.504	4900
863.636	4908
863.768	4953
863.9	4946
864.032	4900
864.164	4961
864.296	5029
864.428	5048
864.559	5121
864.691	5136
864.823	5162
864.954	5132
865.086	5166
865.217	5094
865.349	5083
865.48	5223
865.612	5204
865.743	5296
865.875	5223
866.006	5227
866.137	5258
866.269	5239
866.4	5254
866.531	5258
866.662	5254
866.793	5269
866.924	5307
867.055	5364
867.186	5364
867.317	5357
867.448	5337
867.579	5402
867.71	5353
867.841	5395
867.972	5474
868.103	5478
868.233	5512
868.364	5493
868.495	5562
868.625	5649
868.756	5783
868.886	5729
869.017	5699
869.147	5885
869.278	5863
869.408	5889
869.539	5847
869.669	5912
869.799	5965
869.929	6015
870.06	6041
870.19	6239
870.32	6239
870.45	6262
870.58	6300
870.71	6441
870.84	6467
870.97	6448
871.1	6437
871.23	6658
871.36	6711
871.489	6646
871.619	6779
871.749	6837
871.879	6863
872.008	6973
872.138	7008
872.267	7012
872.397	7034
872.526	7023
872.656	7099
872.785	7187
872.915	7365
873.044	7514
873.173	7567
873.303	7624
873.432	7776
873.561	7868
873.69	7986
873.819	8031
873.948	8187
874.077	8202
874.206	8336
874.335	8442
874.464	8678
874.593	8883
874.722	8941
874.851	9157
874.979	9298
875.108	9397
875.237	9389
875.365	9412
875.494	9625
875.623	9873
875.751	9869
875.88	9991
876.008	10078
876.136	10287
876.265	10584
876.393	10771
876.521	10755
876.65	10942
876.778	10839
876.906	10957
877.034	11025
877.162	11185
877.29	11166
877.418	11269
877.546	11417
877.674	11505
877.802	11474
877.93	11558
878.058	11589
878.185	11615
878.313	11756
878.441	11733
878.568	11695
878.696	11733
878.824	11859
878.951	11969
879.079	11984
879.206	12159
879.333	12140
879.461	12068
879.588	12041
879.715	12114
879.842	12262
879.97	12117
880.097	11866
880.224	11931
880.351	11882
880.478	11802
880.605	11832
880.732	11851
880.859	12011
880.986	11859
881.112	11889
881.239	11771
881.366	11714
881.493	11623
881.619	11585
881.746	11577
881.872	11638
881.999	11467
882.125	11425
882.252	11459
882.378	11619
882.505	11573
882.631	11360
882.757	11349
882.883	11356
883.01	11292
883.136	11212
883.262	11109
883.388	11143
883.514	11121
883.64	11105
883.766	11132
883.892	11140
884.018	10987
884.143	11071
884.269	11162
884.395	10797
884.52	10774
884.646	10778
884.772	10717
884.897	10596
885.023	10740
885.148	10702
885.274	10793
885.399	10710
885.524	10546
885.65	10603
885.775	10599
885.9	10558
886.025	10687
886.15	10535
886.275	10489
886.4	10379
886.525	10394
886.65	10386
886.775	10341
886.9	10466
887.025	10561
887.149	10356
887.274	10173
887.399	10211
887.523	10173
887.648	10162
887.773	10051
887.897	10295
888.021	10112
888.146	10090
888.27	10257
888.395	10261
888.519	10261
888.643	10158
888.767	10207
888.891	10109
889.015	10074
889.139	10036
889.263	9987
889.387	10071
889.511	10124
889.635	10162
889.759	10040
889.883	10006
890.006	9926
890.13	10086
890.254	9991
890.377	9911
890.501	9873
890.624	9884
890.748	9899
890.871	9812
890.995	9819
891.118	9785
891.241	9759
891.364	9789
891.488	9854
891.611	9728
891.734	9747
891.857	9747
891.98	9701
892.103	9816
892.226	9694
892.349	9720
892.471	9523
892.594	9580
892.717	9587
892.839	9526
892.962	9625
893.085	9618
893.207	9614
893.33	9496
893.452	9549
893.575	9637
893.697	9507
893.819	9580
893.941	9618
894.064	9701
894.186	9500
894.308	9515
894.43	9504
894.552	9618
894.674	9488
894.796	9367
894.918	9435
895.04	9332
895.161	9416
895.283	9401
895.405	9268
895.526	9272
895.648	9294
895.769	9237
895.891	9275
896.012	9321
896.134	9253
896.255	9211
896.376	9131
896.498	9218
896.619	9131
896.74	9135
896.861	9127
896.982	9374
897.103	9336
897.224	9211
897.345	9070
897.466	8952
897.587	9039
897.708	9108
897.828	9062
897.949	9013
898.07	8895
898.19	8864
898.311	9039
898.431	8857
898.552	8876
898.672	8975
898.792	8979
898.913	8895
899.033	8853
899.153	8781
899.273	8663
899.393	8682
899.513	8708
899.633	8724
899.753	8796
899.873	8773
899.993	8766
900.113	8689
900.232	8815
900.352	8693
900.472	8564
900.591	8564
900.711	8655
900.83	8511
900.95	8716
901.069	8712
901.189	8594
901.308	8511
901.427	8366
901.546	8457
901.665	8454
901.784	8465
901.904	8404
902.023	8279
902.141	8233
902.26	8210
902.379	8237
902.498	8233
902.617	8267
902.735	8294
902.854	8282
902.973	8275
903.091	8084
903.21	8168
903.328	8142
903.446	8183
903.565	8103
903.683	8172
903.801	8138
903.919	8119
904.038	8115
904.156	8062
904.274	8142
904.392	8065
904.51	8020
904.627	8020
904.745	8050
904.863	8054
904.981	7947
905.098	7902
905.216	7841
905.334	7944
905.451	7947
905.569	7852
905.686	7955
905.803	7925
905.921	7772
906.038	7856
906.155	7811
906.272	7719
906.389	7772
906.506	7601
906.623	7636
906.74	7601
906.857	7552
906.974	7571
907.091	7670
907.208	7704
907.324	7605
907.441	7624
907.557	7441
907.674	7460
907.79	7422
907.907	7350
908.023	7449
908.139	7407
908.256	7362
908.372	7396
908.488	7320
908.604	7278
908.72	7327
908.836	7339
908.952	7289
909.068	7266
909.184	7422
909.3	7270
909.415	7320
909.531	7240
909.647	7156
909.762	7107
909.878	7076
909.993	7141
910.108	7088
910.224	7061
910.339	7099
910.454	7050
910.57	6951
910.685	6973
910.8	7145
910.915	7160
911.03	7019
911.145	6905
911.259	6878
911.374	6920
911.489	6844
911.604	6875
911.718	6745
911.833	6757
911.947	6665
912.062	6608
912.176	6738
912.291	6719
912.405	6715
912.519	6818
912.633	6844
912.748	6719
912.862	6753
912.976	6593
913.09	6521
913.204	6582
913.318	6585
913.431	6696
913.545	6703
913.659	6738
913.772	6696
913.886	6547
914	6585
914.113	6604
914.226	6662
914.34	6631
914.453	6506
914.566	6608
914.68	6551
914.793	6582
914.906	6391
915.019	6380
915.132	6380
915.245	6403
915.358	6452
915.47	6452
915.583	6437
915.696	6452
915.809	6532
915.921	6623
916.034	6464
916.146	6384
916.259	6388
916.371	6429
916.483	6445
916.595	6422
916.708	6445
916.82	6410
916.932	6410
917.044	6422
917.156	6437
917.268	6342
917.38	6391
917.491	6308
917.603	6323
917.715	6391
917.826	6429
917.938	6315
918.049	6220
918.161	6361
918.272	6441
918.384	6391
918.495	6319
918.606	6228
918.717	6224
918.828	6304
918.939	6296
919.05	6190
919.161	6266
919.272	6083
919.383	6175
919.494	6342
919.604	6418
919.715	6338
919.826	6228
919.936	6239
920.047	6338
920.157	6270
920.267	6414
920.378	6331
920.488	6243
920.598	6433
920.708	6578
920.818	6494
920.928	6486
921.038	6623
921.148	6585
921.258	6331
921.368	6304
921.477	6247
921.587	6171
921.697	6117
921.806	6224
921.916	6136
922.025	5950
922.134	5920
922.244	5935
922.353	5961
922.462	5813
922.571	5817
922.68	5764
922.789	5699
922.898	5680
923.007	5634
923.116	5752
923.224	5623
923.333	5657
923.442	5562
923.55	5608
923.659	5539
923.767	5657
923.876	5524
923.984	5573
924.092	5547
924.201	5543
924.309	5570
924.417	5551
924.525	5455
924.633	5463
924.741	6148
924.849	5357
924.956	5497
925.064	5429
925.172	5299
925.279	5341
925.387	5448
925.494	5326
925.602	5452
925.709	5398
925.816	5299
925.924	5368
926.031	5383
926.138	5326
926.245	5326
926.352	5239
926.459	5311
926.566	5341
926.673	5216
926.779	5185
926.886	5136
926.993	5045
927.099	4995
927.206	5003
927.312	4923
927.419	5033
927.525	5018
927.631	4984
927.737	4900
927.843	4892
927.95	4805
928.056	4816
928.162	4831
928.267	4828
928.373	5360
928.479	4892
928.585	4687
928.69	4748
928.796	4786
928.901	4691
929.007	4596
929.112	4687
929.218	4603
929.323	4580
929.428	4554
929.533	4694
929.638	4535
929.743	4523
929.848	4573
929.953	4535
930.058	4462
930.163	4341
930.267	4344
930.372	4443
930.477	4333
930.581	4485
930.685	4383
930.79	4329
930.894	4272
930.998	4295
931.103	4405
931.207	4147
931.311	4082
931.415	4082
931.519	3918
931.623	3945
