Data from glass_V78500241_12.txt Node
Date: Wed Sep 01 19:14:34 CST 2021
User: usil
Spectrometer: V785-0024
Trigger mode: 0
Integration Time (sec): 4.000000E-1
Scans to average: 1
Nonlinearity correction enabled: false
Boxcar width: 0
Storing dark spectrum: false
XAxis mode: Wavelengths
Number of Pixels in Spectrum: 1024
>>>>>Begin Spectral Data<<<<<
801.071	3762
801.214	3774
801.356	3709
801.499	3755
801.641	3747
801.783	3816
801.926	3918
802.068	3888
802.211	3873
802.353	3922
802.496	3842
802.638	3903
802.78	3918
802.923	3960
803.065	3953
803.208	3876
803.35	3892
803.492	3884
803.635	3922
803.777	3827
803.919	3934
804.061	4150
804.204	3979
804.346	3918
804.488	3949
804.63	4040
804.773	3949
804.915	4063
805.057	4139
805.199	4040
805.341	4135
805.483	4116
805.626	4173
805.768	4112
805.91	4211
806.052	4253
806.194	4207
806.336	4356
806.478	4249
806.62	4192
806.762	4238
806.904	4295
807.046	4352
807.188	4192
807.33	4200
807.472	4242
807.614	4215
807.756	4299
807.898	4234
808.04	4215
808.182	4257
808.324	4325
808.465	4383
808.607	4459
808.749	4470
808.891	4516
809.033	4538
809.174	4428
809.316	4249
809.458	4295
809.6	4177
809.741	4169
809.883	4158
810.025	4234
810.166	4196
810.308	4185
810.45	4257
810.591	4238
810.733	4291
810.875	4542
811.016	4866
811.158	5117
811.299	5250
811.441	5322
811.582	5064
811.724	4736
811.865	4497
812.007	4466
812.148	4462
812.29	4424
812.431	4424
812.573	4398
812.714	4405
812.855	4428
812.997	4424
813.138	4485
813.279	4443
813.421	4428
813.562	4348
813.703	4360
813.845	4329
813.986	4299
814.127	4280
814.268	4322
814.41	4306
814.551	4314
814.692	4348
814.833	4238
814.974	4344
815.115	4329
815.256	4303
815.397	4242
815.539	4303
815.68	4200
815.821	4230
815.962	4333
816.103	4295
816.244	4200
816.385	4230
816.526	4314
816.666	4215
816.807	4135
816.948	4177
817.089	4196
817.23	4154
817.371	4040
817.512	4051
817.653	4090
817.793	4044
817.934	4036
818.075	4131
818.216	4086
818.356	4063
818.497	4013
818.638	3964
818.778	3937
818.919	3899
819.06	3861
819.2	3922
819.341	3880
819.481	3880
819.622	3911
819.762	4071
819.903	3968
820.043	3846
820.184	3873
820.324	3857
820.465	3816
820.605	3899
820.746	3899
820.886	3804
821.026	3949
821.167	3918
821.307	3998
821.447	3975
821.588	3987
821.728	3964
821.868	3979
822.008	3857
822.149	3903
822.289	3953
822.429	3778
822.569	3781
822.709	3816
822.849	3705
822.99	3682
823.13	3793
823.27	3789
823.41	3766
823.55	3755
823.69	3759
823.83	3724
823.97	3682
824.11	3633
824.25	3625
824.389	3675
824.529	3698
824.669	3633
824.809	3701
824.949	3747
825.089	3759
825.228	3686
825.368	3568
825.508	3538
825.648	3618
825.787	3595
825.927	3690
826.067	3671
826.206	3709
826.346	3793
826.485	3816
826.625	3880
826.765	3979
826.904	3846
827.044	3633
827.183	3526
827.323	3435
827.462	3515
827.601	3458
827.741	3481
827.88	3504
828.02	3378
828.159	3469
828.298	3500
828.437	3488
828.577	3466
828.716	3587
828.855	3538
828.994	3405
829.134	3367
829.273	3405
829.412	3355
829.551	3378
829.69	3367
829.829	3412
829.968	3549
830.107	3466
830.246	3481
830.385	3363
830.524	3405
830.663	3355
830.802	3302
830.941	3195
831.08	3203
831.219	3256
831.357	3268
831.496	3412
831.635	3253
831.774	3199
831.913	3199
832.051	3157
832.19	3207
832.329	3161
832.467	3157
832.606	3104
832.744	3169
832.883	3214
833.022	3222
833.16	3268
833.299	3348
833.437	3363
833.576	3405
833.714	3382
833.852	3466
833.991	3481
834.129	3496
834.267	3496
834.406	3401
834.544	3424
834.682	3439
834.821	3386
834.959	3591
835.097	3439
835.235	3553
835.373	3485
835.511	3549
835.65	3492
835.788	3504
835.926	3412
836.064	3412
836.202	3416
836.34	3603
836.478	3652
836.615	3553
836.753	3656
836.891	3671
837.029	3648
837.167	3629
837.305	3595
837.443	3587
837.58	3557
837.718	3625
837.856	3549
837.993	3557
838.131	3637
838.269	3576
838.406	3606
838.544	3595
838.681	3534
838.819	3424
838.956	3412
839.094	3412
839.231	3485
839.369	3462
839.506	3736
839.643	3679
839.781	3469
839.918	3477
840.055	3526
840.193	3553
840.33	3534
840.467	3545
840.604	3606
840.742	3838
840.879	3584
841.016	3625
841.153	3618
841.29	3789
841.427	3709
841.564	3778
841.701	3762
841.838	3705
841.975	3717
842.112	3751
842.249	3713
842.385	3652
842.522	3880
842.659	3682
842.796	3667
842.933	3743
843.069	3698
843.206	3675
843.343	3804
843.479	3819
843.616	3797
843.752	3698
843.889	3694
844.025	3865
844.162	3755
844.298	3896
844.435	3827
844.571	3762
844.708	3907
844.844	4002
844.98	4051
845.117	4055
845.253	3937
845.389	3876
845.525	3972
845.661	3998
845.798	3945
845.934	3991
846.07	3975
846.206	4051
846.342	4128
846.478	4059
846.614	4013
846.75	3922
846.886	3899
847.022	4032
847.158	3964
847.294	3964
847.429	4013
847.565	4002
847.701	4272
847.837	3918
847.972	3888
848.108	4002
848.244	3953
848.379	3838
848.515	3827
848.65	3873
848.786	3873
848.921	3869
849.057	3949
849.192	3998
849.328	3953
849.463	3937
849.598	3876
849.734	3884
849.869	3873
850.004	3762
850.14	3800
850.275	3838
850.41	3747
850.545	3770
850.68	3800
850.815	3838
850.95	3823
851.085	4010
851.22	3903
851.355	3842
851.49	3804
851.625	3797
851.76	3808
851.895	3747
852.03	3747
852.165	3781
852.299	3869
852.434	3876
852.569	3899
852.703	3892
852.838	3956
852.973	3991
853.107	4036
853.242	3884
853.376	3861
853.511	3770
853.645	3808
853.78	4006
853.914	3903
854.048	3892
854.183	3846
854.317	3956
854.451	4059
854.585	3960
854.72	3987
854.854	4059
854.988	3964
855.122	4032
855.256	3911
855.39	4074
855.524	4139
855.658	4101
855.792	4124
855.926	4128
856.06	4219
856.194	4230
856.327	4158
856.461	4150
856.595	4128
856.729	4219
856.862	4306
856.996	4280
857.13	4333
857.263	4348
857.397	4398
857.53	4314
857.664	4314
857.797	4451
857.931	4409
858.064	4405
858.197	4432
858.331	4398
858.464	4383
858.597	4344
858.731	4497
858.864	4500
858.997	4519
859.13	4504
859.263	4569
859.396	4615
859.529	4508
859.662	4558
859.795	4561
859.928	4603
860.061	4748
860.194	4717
860.327	4694
860.46	4664
860.592	4733
860.725	4767
860.858	4755
860.99	4740
861.123	4668
861.256	4725
861.388	4801
861.521	5448
861.653	4752
861.786	4729
861.918	4797
862.05	4839
862.183	4870
862.315	4908
862.447	4972
862.58	4949
862.712	4778
862.844	4767
862.976	4877
863.108	4923
863.24	5269
863.372	4820
863.504	4908
863.636	4877
863.768	4995
863.9	4987
864.032	4900
864.164	5003
864.296	5064
864.428	5113
864.559	5128
864.691	5136
864.823	5124
864.954	5155
865.086	5159
865.217	5132
865.349	5071
865.48	5166
865.612	5170
865.743	5330
865.875	5231
866.006	5204
866.137	5197
866.269	5231
866.4	5277
866.531	5242
866.662	5242
866.793	5277
866.924	5280
867.055	5368
867.186	5414
867.317	5353
867.448	5292
867.579	5398
867.71	5376
867.841	5387
867.972	5406
868.103	5490
868.233	5570
868.364	5532
868.495	5551
868.625	5642
868.756	5802
868.886	5676
869.017	5703
869.147	5855
869.278	5885
869.408	5836
869.539	5809
869.669	5954
869.799	5939
869.929	6026
870.06	6022
870.19	6232
870.32	6201
870.45	6266
870.58	6391
870.71	6475
870.84	6544
870.97	6441
871.1	6414
871.23	6677
871.36	6677
871.489	6684
871.619	6802
871.749	6818
871.879	6863
872.008	7023
872.138	6943
872.267	7050
872.397	7019
872.526	7027
872.656	7072
872.785	7190
872.915	7400
873.044	7537
873.173	7578
873.303	7655
873.432	7731
873.561	7883
873.69	7951
873.819	7997
873.948	8103
874.077	8275
874.206	8294
874.335	8438
874.464	8708
874.593	8902
874.722	8952
874.851	9116
874.979	9310
875.108	9325
875.237	9412
875.365	9420
875.494	9675
875.623	9953
875.751	9850
875.88	10059
876.008	10166
876.136	10295
876.265	10485
876.393	10774
876.521	10717
876.65	10831
876.778	10892
876.906	10942
877.034	11022
877.162	11086
877.29	11216
877.418	11364
877.546	11326
877.674	11421
877.802	11436
877.93	11482
878.058	11539
878.185	11604
878.313	11611
878.441	11775
878.568	11729
878.696	11813
878.824	11863
878.951	12045
879.079	11984
879.206	12186
879.333	12083
879.461	12057
879.588	12102
879.715	12057
879.842	12232
879.97	11996
880.097	11908
880.224	11843
880.351	11878
880.478	11847
880.605	11817
880.732	11779
880.859	11954
880.986	11824
881.112	11866
881.239	11699
881.366	11714
881.493	11577
881.619	11532
881.746	11581
881.872	11604
881.999	11444
882.125	11573
882.252	11634
882.378	11512
882.505	11611
882.631	11337
882.757	11379
882.883	11376
883.01	11288
883.136	11147
883.262	11075
883.388	11132
883.514	11155
883.64	11185
883.766	11162
883.892	11029
884.018	10995
884.143	11105
884.269	11132
884.395	10862
884.52	10763
884.646	10740
884.772	10858
884.897	10729
885.023	10740
885.148	10771
885.274	10721
885.399	10656
885.524	10607
885.65	10596
885.775	10481
885.9	10508
886.025	10649
886.15	10550
886.275	10474
886.4	10470
886.525	10421
886.65	10386
886.775	10405
886.9	10478
887.025	10538
887.149	10375
887.274	10318
887.399	10276
887.523	10109
887.648	10181
887.773	10090
887.897	10295
888.021	10261
888.146	10139
888.27	10234
888.395	10242
888.519	10135
888.643	10150
888.767	10234
888.891	10135
889.015	10010
889.139	10067
889.263	9979
889.387	10112
889.511	10074
889.635	10093
889.759	10006
889.883	10071
890.006	10021
890.13	10109
890.254	9956
890.377	10036
890.501	9861
890.624	9842
890.748	9888
890.871	9770
890.995	9781
891.118	9732
891.241	9797
891.364	9785
891.488	9781
891.611	9766
891.734	9728
891.857	9816
891.98	9656
892.103	9789
892.226	9679
892.349	9629
892.471	9549
892.594	9603
892.717	9591
892.839	9622
892.962	9553
893.085	9705
893.207	9587
893.33	9564
893.452	9553
893.575	9660
893.697	9488
893.819	9606
893.941	9648
894.064	9652
894.186	9504
894.308	9420
894.43	9538
894.552	9629
894.674	9572
894.796	9466
894.918	9454
895.04	9321
895.161	9329
895.283	9298
895.405	9325
895.526	9317
895.648	9249
895.769	9245
895.891	9283
896.012	9275
896.134	9230
896.255	9203
896.376	9157
896.498	9131
896.619	9222
896.74	9066
896.861	9142
896.982	9367
897.103	9325
897.224	9135
897.345	9058
897.466	9051
897.587	9036
897.708	9150
897.828	9085
897.949	8960
898.07	8864
898.19	8872
898.311	9081
898.431	8876
898.552	8994
898.672	8990
898.792	9051
898.913	8864
899.033	8826
899.153	8819
899.273	8640
899.393	8720
899.513	8830
899.633	8720
899.753	8750
899.873	8716
899.993	8781
900.113	8708
900.232	8716
900.352	8724
900.472	8670
900.591	8530
900.711	8499
900.83	8579
900.95	8651
901.069	8735
901.189	8674
901.308	8442
901.427	8431
901.546	8514
901.665	8427
901.784	8454
901.904	8412
902.023	8370
902.141	8294
902.26	8107
902.379	8240
902.498	8309
902.617	8214
902.735	8286
902.854	8332
902.973	8279
903.091	8103
903.21	8107
903.328	8180
903.446	8164
903.565	8024
903.683	8123
903.801	8084
903.919	8161
904.038	8130
904.156	8035
904.274	8199
904.392	8020
904.51	8073
904.627	8145
904.745	8103
904.863	8107
904.981	7947
905.098	7852
905.216	7879
905.334	7959
905.451	7921
905.569	7902
905.686	7989
905.803	7944
905.921	7784
906.038	7909
906.155	7887
906.272	7746
906.389	7746
906.506	7689
906.623	7601
906.74	7620
906.857	7552
906.974	7597
907.091	7647
907.208	7712
907.324	7639
907.441	7544
907.557	7491
907.674	7434
907.79	7343
907.907	7434
908.023	7464
908.139	7464
908.256	7384
908.372	7369
908.488	7331
908.604	7293
908.72	7198
908.836	7312
908.952	7293
909.068	7274
909.184	7350
909.3	7232
909.415	7331
909.531	7289
909.647	7175
909.762	7118
909.878	7129
909.993	7149
910.108	7107
910.224	7072
910.339	7137
910.454	7061
910.57	7000
910.685	6958
910.8	7179
910.915	7126
911.03	7023
911.145	6924
911.259	6837
911.374	6924
911.489	6871
911.604	6837
911.718	6665
911.833	6772
911.947	6631
912.062	6635
912.176	6764
912.291	6760
912.405	6726
912.519	6833
912.633	6844
912.748	6700
912.862	6700
912.976	6631
913.09	6555
913.204	6566
913.318	6650
913.431	6749
913.545	6673
913.659	6722
913.772	6692
913.886	6642
914	6589
914.113	6616
914.226	6608
914.34	6612
914.453	6601
914.566	6536
914.68	6566
914.793	6532
914.906	6391
915.019	6357
915.132	6357
915.245	6448
915.358	6467
915.47	6471
915.583	6445
915.696	6498
915.809	6559
915.921	6521
916.034	6471
916.146	6395
916.259	6395
916.371	6490
916.483	6498
916.595	6369
916.708	6407
916.82	6403
916.932	6353
917.044	6456
917.156	6475
917.268	6296
917.38	6380
917.491	6315
917.603	6346
917.715	6475
917.826	6429
917.938	6353
918.049	6289
918.161	6346
918.272	6441
918.384	6384
918.495	6346
918.606	6273
918.717	6194
918.828	6251
918.939	6292
919.05	6235
919.161	6262
919.272	6167
919.383	6121
919.494	6323
919.604	6464
919.715	6331
919.826	6258
919.936	6292
920.047	6365
920.157	6270
920.267	6410
920.378	6304
920.488	6315
920.598	6509
920.708	6582
920.818	6517
920.928	6452
921.038	6646
921.148	6585
921.258	6395
921.368	6365
921.477	6190
921.587	6167
921.697	6125
921.806	6136
921.916	6125
922.025	5942
922.134	5927
922.244	5889
922.353	6022
922.462	5813
922.571	5821
922.68	5733
922.789	5703
922.898	5710
923.007	5680
923.116	5775
923.224	5657
923.333	5699
923.442	5581
923.55	5615
923.659	5600
923.767	5619
923.876	5566
923.984	5638
924.092	5478
924.201	5604
924.309	5505
924.417	5585
924.525	5459
924.633	5528
924.741	6331
924.849	5360
924.956	5474
925.064	5383
925.172	5345
925.279	5345
925.387	5417
925.494	5345
925.602	5398
925.709	5406
925.816	5315
925.924	5337
926.031	5425
926.138	5341
926.245	5292
926.352	5220
926.459	5307
926.566	5376
926.673	5227
926.779	5140
926.886	5174
926.993	5086
927.099	5006
927.206	4987
927.312	4957
927.419	5041
927.525	5022
927.631	5025
927.737	4946
927.843	4858
927.95	4801
928.056	4870
928.162	4839
928.267	4816
928.373	5330
928.479	4850
928.585	4702
928.69	4774
928.796	4809
928.901	4672
929.007	4599
929.112	4733
929.218	4691
929.323	4660
929.428	4637
929.533	4733
929.638	4573
929.743	4550
929.848	4558
929.953	4546
930.058	4481
930.163	4348
930.267	4375
930.372	4493
930.477	4303
930.581	4481
930.685	4379
930.79	4253
930.894	4337
930.998	4265
931.103	4375
931.207	4101
931.311	4105
931.415	4063
931.519	3953
931.623	3907
