Data from glass_V78500241_1888.txt Node
Date: Wed Sep 01 19:27:35 CST 2021
User: usil
Spectrometer: V785-0024
Trigger mode: 0
Integration Time (sec): 4.000000E-1
Scans to average: 1
Nonlinearity correction enabled: false
Boxcar width: 0
Storing dark spectrum: false
XAxis mode: Wavelengths
Number of Pixels in Spectrum: 1024
>>>>>Begin Spectral Data<<<<<
801.071	3740
801.214	3743
801.356	3720
801.499	3736
801.641	3740
801.783	3770
801.926	3876
802.068	3842
802.211	3835
802.353	3869
802.496	3873
802.638	3907
802.78	3907
802.923	3956
803.065	3846
803.208	3857
803.35	3903
803.492	3922
803.635	3907
803.777	3812
803.919	3915
804.061	4131
804.204	3960
804.346	3899
804.488	3915
804.63	4025
804.773	3926
804.915	4017
805.057	4097
805.199	4002
805.341	4090
805.483	4090
805.626	4139
805.768	4116
805.91	4166
806.052	4150
806.194	4234
806.336	4329
806.478	4177
806.62	4147
806.762	4143
806.904	4261
807.046	4310
807.188	4215
807.33	4207
807.472	4207
807.614	4173
807.756	4246
807.898	4162
808.04	4227
808.182	4276
808.324	4284
808.465	4352
808.607	4497
808.749	4440
808.891	4413
809.033	4508
809.174	4421
809.316	4287
809.458	4219
809.6	4139
809.741	4135
809.883	4173
810.025	4196
810.166	4188
810.308	4249
810.45	4253
810.591	4223
810.733	4276
810.875	4478
811.016	4820
811.158	5124
811.299	5258
811.441	5258
811.582	5064
811.724	4714
811.865	4455
812.007	4508
812.148	4402
812.29	4405
812.431	4424
812.573	4428
812.714	4329
812.855	4421
812.997	4394
813.138	4466
813.279	4390
813.421	4375
813.562	4386
813.703	4322
813.845	4337
813.986	4249
814.127	4230
814.268	4234
814.41	4318
814.551	4253
814.692	4341
814.833	4246
814.974	4322
815.115	4333
815.256	4223
815.397	4227
815.539	4268
815.68	4188
815.821	4185
815.962	4310
816.103	4249
816.244	4276
816.385	4253
816.526	4291
816.666	4200
816.807	4097
816.948	4158
817.089	4147
817.23	4124
817.371	4093
817.512	4017
817.653	4078
817.793	4025
817.934	4055
818.075	4090
818.216	4036
818.356	4112
818.497	4025
818.638	3899
818.778	3945
818.919	3873
819.06	3842
819.2	3945
819.341	3812
819.481	3819
819.622	3861
819.762	4010
819.903	3956
820.043	3854
820.184	3850
820.324	3819
820.465	3873
820.605	3861
820.746	3907
820.886	3846
821.026	3930
821.167	3941
821.307	3960
821.447	3979
821.588	3953
821.728	3998
821.868	3918
822.008	3911
822.149	3880
822.289	3896
822.429	3827
822.569	3720
822.709	3823
822.849	3724
822.99	3732
823.13	3694
823.27	3816
823.41	3686
823.55	3751
823.69	3701
823.83	3751
823.97	3705
824.11	3610
824.25	3599
824.389	3622
824.529	3652
824.669	3648
824.809	3720
824.949	3755
825.089	3686
825.228	3682
825.368	3587
825.508	3534
825.648	3561
825.787	3629
825.927	3660
826.067	3614
826.206	3633
826.346	3785
826.485	3808
826.625	3873
826.765	3964
826.904	3865
827.044	3618
827.183	3557
827.323	3454
827.462	3458
827.601	3416
827.741	3466
827.88	3462
828.02	3401
828.159	3439
828.298	3488
828.437	3523
828.577	3511
828.716	3557
828.855	3538
828.994	3397
829.134	3351
829.273	3401
829.412	3298
829.551	3321
829.69	3340
829.829	3397
829.968	3526
830.107	3458
830.246	3447
830.385	3393
830.524	3336
830.663	3279
830.802	3245
830.941	3203
831.08	3165
831.219	3260
831.357	3268
831.496	3420
831.635	3211
831.774	3157
831.913	3192
832.051	3131
832.19	3093
832.329	3207
832.467	3127
832.606	3112
832.744	3161
832.883	3157
833.022	3218
833.16	3237
833.299	3275
833.437	3363
833.576	3344
833.714	3397
833.852	3458
833.991	3447
834.129	3447
834.267	3439
834.406	3405
834.544	3424
834.682	3454
834.821	3389
834.959	3557
835.097	3439
835.235	3534
835.373	3500
835.511	3523
835.65	3515
835.788	3492
835.926	3412
836.064	3344
836.202	3389
836.34	3564
836.478	3599
836.615	3545
836.753	3549
836.891	3606
837.029	3633
837.167	3580
837.305	3545
837.443	3553
837.58	3500
837.718	3618
837.856	3523
837.993	3584
838.131	3603
838.269	3595
838.406	3606
838.544	3549
838.681	3458
838.819	3458
838.956	3363
839.094	3374
839.231	3401
839.369	3507
839.506	3709
839.643	3652
839.781	3488
839.918	3462
840.055	3526
840.193	3530
840.33	3564
840.467	3500
840.604	3538
840.742	3842
840.879	3599
841.016	3564
841.153	3587
841.29	3781
841.427	3709
841.564	3759
841.701	3675
841.838	3709
841.975	3705
842.112	3736
842.249	3625
842.385	3614
842.522	3808
842.659	3698
842.796	3622
842.933	3728
843.069	3694
843.206	3686
843.343	3743
843.479	3743
843.616	3838
843.752	3682
843.889	3690
844.025	3876
844.162	3690
844.298	3835
844.435	3762
844.571	3816
844.708	3937
844.844	3945
844.98	3994
845.117	4071
845.253	3941
845.389	3907
845.525	3994
845.661	3975
845.798	3896
845.934	4025
846.07	3937
846.206	4048
846.342	4074
846.478	4051
846.614	3964
846.75	3930
846.886	3892
847.022	4013
847.158	3972
847.294	3987
847.429	4055
847.565	3998
847.701	4246
847.837	3876
847.972	3884
848.108	3987
848.244	3934
848.379	3861
848.515	3804
848.65	3797
848.786	3865
848.921	3896
849.057	3918
849.192	3979
849.328	3888
849.463	3945
849.598	3869
849.734	3838
849.869	3869
850.004	3770
850.14	3808
850.275	3770
850.41	3785
850.545	3720
850.68	3766
850.815	3759
850.95	3797
851.085	3937
851.22	3876
851.355	3827
851.49	3789
851.625	3797
851.76	3823
851.895	3762
852.03	3667
852.165	3781
852.299	3838
852.434	3876
852.569	3880
852.703	3861
852.838	3956
852.973	3998
853.107	3975
853.242	3884
853.376	3876
853.511	3762
853.645	3823
853.78	3972
853.914	3899
854.048	3873
854.183	3888
854.317	3937
854.451	4074
854.585	3907
854.72	3930
854.854	4040
854.988	3892
855.122	4017
855.256	3915
855.39	4021
855.524	4112
855.658	4025
855.792	4097
855.926	4120
856.06	4120
856.194	4196
856.327	4162
856.461	4147
856.595	4154
856.729	4166
856.862	4234
856.996	4249
857.13	4318
857.263	4329
857.397	4356
857.53	4291
857.664	4318
857.797	4383
857.931	4447
858.064	4413
858.197	4459
858.331	4360
858.464	4390
858.597	4371
858.731	4443
858.864	4432
858.997	4489
859.13	4478
859.263	4565
859.396	4535
859.529	4569
859.662	4542
859.795	4527
859.928	4611
860.061	4725
860.194	4687
860.327	4641
860.46	4634
860.592	4653
860.725	4774
860.858	4786
860.99	4710
861.123	4740
861.256	4672
861.388	4771
861.521	5395
861.653	4714
861.786	4694
861.918	4702
862.05	4786
862.183	4812
862.315	4881
862.447	4934
862.58	4900
862.712	4831
862.844	4733
862.976	4885
863.108	4915
863.24	5121
863.372	4831
863.504	4923
863.636	4843
863.768	4938
863.9	4919
864.032	4934
864.164	4946
864.296	5022
864.428	5029
864.559	5056
864.691	5098
864.823	5121
864.954	5124
865.086	5105
865.217	5159
865.349	5117
865.48	5159
865.612	5178
865.743	5307
865.875	5178
866.006	5174
866.137	5250
866.269	5280
866.4	5227
866.531	5235
866.662	5246
866.793	5258
866.924	5269
867.055	5341
867.186	5330
867.317	5326
867.448	5242
867.579	5353
867.71	5395
867.841	5452
867.972	5452
868.103	5455
868.233	5459
868.364	5474
868.495	5493
868.625	5676
868.756	5771
868.886	5699
869.017	5695
869.147	5870
869.278	5866
869.408	5828
869.539	5794
869.669	5965
869.799	5882
869.929	5961
870.06	6015
870.19	6182
870.32	6197
870.45	6289
870.58	6346
870.71	6441
870.84	6517
870.97	6388
871.1	6448
871.23	6700
871.36	6734
871.489	6593
871.619	6741
871.749	6825
871.879	6848
872.008	6985
872.138	6962
872.267	7023
872.397	6829
872.526	7095
872.656	7065
872.785	7183
872.915	7346
873.044	7514
873.173	7460
873.303	7605
873.432	7765
873.561	7837
873.69	7913
873.819	8058
873.948	8164
874.077	8275
874.206	8370
874.335	8423
874.464	8651
874.593	8895
874.722	8994
874.851	9085
874.979	9241
875.108	9310
875.237	9504
875.365	9389
875.494	9622
875.623	9816
875.751	9873
875.88	9930
876.008	10188
876.136	10306
876.265	10500
876.393	10668
876.521	10835
876.65	10843
876.778	10873
876.906	10938
877.034	10965
877.162	11064
877.29	11216
877.418	11288
877.546	11280
877.674	11467
877.802	11417
877.93	11512
878.058	11642
878.185	11528
878.313	11634
878.441	11741
878.568	11627
878.696	11760
878.824	11916
878.951	11923
879.079	11977
879.206	12095
879.333	12026
879.461	11984
879.588	12011
879.715	12079
879.842	12235
879.97	12079
880.097	11923
880.224	11935
880.351	11904
880.478	11889
880.605	11767
880.732	11783
880.859	12015
880.986	11843
881.112	11783
881.239	11653
881.366	11665
881.493	11638
881.619	11459
881.746	11551
881.872	11539
881.999	11497
882.125	11448
882.252	11570
882.378	11493
882.505	11619
882.631	11337
882.757	11280
882.883	11261
883.01	11231
883.136	11204
883.262	11086
883.388	11025
883.514	11227
883.64	11166
883.766	11143
883.892	10976
884.018	11033
884.143	11090
884.269	11132
884.395	10736
884.52	10752
884.646	10774
884.772	10744
884.897	10702
885.023	10714
885.148	10702
885.274	10797
885.399	10763
885.524	10615
885.65	10596
885.775	10577
885.9	10573
886.025	10660
886.15	10558
886.275	10504
886.4	10485
886.525	10363
886.65	10367
886.775	10322
886.9	10402
887.025	10565
887.149	10295
887.274	10147
887.399	10166
887.523	10204
887.648	10101
887.773	10029
887.897	10185
888.021	10188
888.146	10154
888.27	10246
888.395	10181
888.519	10177
888.643	10181
888.767	10257
888.891	10093
889.015	9979
889.139	10074
889.263	9922
889.387	10082
889.511	10128
889.635	10051
889.759	9979
889.883	10036
890.006	10006
890.13	10048
890.254	9922
890.377	10025
890.501	9800
890.624	9937
890.748	9911
890.871	9759
890.995	9759
891.118	9671
891.241	9759
891.364	9717
891.488	9823
891.611	9785
891.734	9740
891.857	9724
891.98	9675
892.103	9808
892.226	9701
892.349	9603
892.471	9507
892.594	9568
892.717	9561
892.839	9603
892.962	9625
893.085	9606
893.207	9610
893.33	9439
893.452	9504
893.575	9561
893.697	9488
893.819	9641
893.941	9637
894.064	9618
894.186	9412
894.308	9443
894.43	9534
894.552	9488
894.674	9496
894.796	9374
894.918	9416
895.04	9382
895.161	9348
895.283	9374
895.405	9291
895.526	9245
895.648	9275
895.769	9264
895.891	9169
896.012	9275
896.134	9195
896.255	9142
896.376	9207
896.498	9104
896.619	9081
896.74	9165
896.861	9074
896.982	9272
897.103	9298
897.224	9192
897.345	8963
897.466	9005
897.587	9028
897.708	9055
897.828	9055
897.949	8929
898.07	8815
898.19	8861
898.311	9013
898.431	8883
898.552	8883
898.672	8941
898.792	8975
898.913	8906
899.033	8804
899.153	8766
899.273	8663
899.393	8727
899.513	8678
899.633	8746
899.753	8727
899.873	8613
899.993	8758
900.113	8785
900.232	8708
900.352	8590
900.472	8583
900.591	8598
900.711	8533
900.83	8503
900.95	8670
901.069	8697
901.189	8533
901.308	8415
901.427	8343
901.546	8469
901.665	8450
901.784	8457
901.904	8381
902.023	8282
902.141	8233
902.26	8180
902.379	8317
902.498	8259
902.617	8164
902.735	8214
902.854	8298
902.973	8298
903.091	8119
903.21	8168
903.328	8180
903.446	8035
903.565	8035
903.683	8046
903.801	8115
903.919	8164
904.038	8123
904.156	8115
904.274	8084
904.392	8008
904.51	8001
904.627	8043
904.745	8123
904.863	8138
904.981	7860
905.098	7871
905.216	7917
905.334	7894
905.451	7890
905.569	7864
905.686	7917
905.803	7917
905.921	7792
906.038	7890
906.155	7803
906.272	7712
906.389	7708
906.506	7696
906.623	7647
906.74	7575
906.857	7499
906.974	7567
907.091	7632
907.208	7689
907.324	7658
907.441	7556
907.557	7419
907.674	7449
907.79	7384
907.907	7362
908.023	7434
908.139	7510
908.256	7422
908.372	7388
908.488	7335
908.604	7308
908.72	7194
908.836	7270
908.952	7206
909.068	7240
909.184	7316
909.3	7285
909.415	7278
909.531	7270
909.647	7122
909.762	7118
909.878	7072
909.993	7080
910.108	7164
910.224	7004
910.339	7126
910.454	7099
910.57	6985
910.685	6905
910.8	7137
910.915	7057
911.03	7019
911.145	6867
911.259	6875
911.374	6909
911.489	6833
911.604	6844
911.718	6734
911.833	6753
911.947	6677
912.062	6658
912.176	6711
912.291	6707
912.405	6711
912.519	6802
912.633	6859
912.748	6707
912.862	6684
912.976	6681
913.09	6593
913.204	6570
913.318	6566
913.431	6684
913.545	6688
913.659	6722
913.772	6673
913.886	6563
914	6521
914.113	6597
914.226	6646
914.34	6593
914.453	6528
914.566	6658
914.68	6517
914.793	6509
914.906	6410
915.019	6414
915.132	6342
915.245	6426
915.358	6471
915.47	6407
915.583	6433
915.696	6521
915.809	6555
915.921	6585
916.034	6456
916.146	6471
916.259	6479
916.371	6467
916.483	6437
916.595	6350
916.708	6391
916.82	6410
916.932	6350
917.044	6445
917.156	6410
917.268	6296
917.38	6361
917.491	6338
917.603	6361
917.715	6346
917.826	6403
917.938	6285
918.049	6220
918.161	6338
918.272	6441
918.384	6452
918.495	6308
918.606	6254
918.717	6209
918.828	6243
918.939	6296
919.05	6228
919.161	6277
919.272	6136
919.383	6182
919.494	6243
919.604	6403
919.715	6277
919.826	6205
919.936	6258
920.047	6365
920.157	6247
920.267	6410
920.378	6353
920.488	6277
920.598	6456
920.708	6559
920.818	6456
920.928	6445
921.038	6563
921.148	6574
921.258	6365
921.368	6243
921.477	6201
921.587	6155
921.697	6117
921.806	6205
921.916	6076
922.025	5961
922.134	5908
922.244	5904
922.353	5965
922.462	5824
922.571	5798
922.68	5672
922.789	5691
922.898	5741
923.007	5661
923.116	5718
923.224	5657
923.333	5680
923.442	5589
923.55	5562
923.659	5604
923.767	5627
923.876	5543
923.984	5585
924.092	5493
924.201	5547
924.309	5577
924.417	5551
924.525	5493
924.633	5497
924.741	6220
924.849	5398
924.956	5482
925.064	5372
925.172	5288
925.279	5334
925.387	5360
925.494	5364
925.602	5391
925.709	5364
925.816	5258
925.924	5288
926.031	5410
926.138	5337
926.245	5269
926.352	5246
926.459	5288
926.566	5307
926.673	5189
926.779	5117
926.886	5132
926.993	5025
927.099	5018
927.206	4965
927.312	4949
927.419	5022
927.525	4972
927.631	4999
927.737	4881
927.843	4858
927.95	4774
928.056	4812
928.162	4820
928.267	4801
928.373	5220
928.479	4835
928.585	4660
928.69	4782
928.796	4782
928.901	4668
929.007	4573
929.112	4649
929.218	4618
929.323	4584
929.428	4565
929.533	4645
929.638	4497
929.743	4489
929.848	4531
929.953	4538
930.058	4428
930.163	4314
930.267	4356
930.372	4459
930.477	4276
930.581	4466
930.685	4356
930.79	4280
930.894	4314
930.998	4253
931.103	4379
931.207	4116
931.311	4044
931.415	4090
931.519	3903
931.623	3934
