Data from glass_V78500241_1981.txt Node
Date: Wed Sep 01 19:28:14 CST 2021
User: usil
Spectrometer: V785-0024
Trigger mode: 0
Integration Time (sec): 4.000000E-1
Scans to average: 1
Nonlinearity correction enabled: false
Boxcar width: 0
Storing dark spectrum: false
XAxis mode: Wavelengths
Number of Pixels in Spectrum: 1024
>>>>>Begin Spectral Data<<<<<
801.071	3720
801.214	3663
801.356	3762
801.499	3747
801.641	3701
801.783	3736
801.926	3842
802.068	3812
802.211	3804
802.353	3873
802.496	3857
802.638	3896
802.78	3888
802.923	3949
803.065	3896
803.208	3865
803.35	3884
803.492	3880
803.635	3903
803.777	3812
803.919	3892
804.061	4135
804.204	3994
804.346	3972
804.488	3915
804.63	4021
804.773	3953
804.915	4040
805.057	4112
805.199	4021
805.341	4074
805.483	4105
805.626	4112
805.768	4124
805.91	4207
806.052	4249
806.194	4188
806.336	4329
806.478	4207
806.62	4215
806.762	4185
806.904	4234
807.046	4363
807.188	4196
807.33	4150
807.472	4223
807.614	4200
807.756	4280
807.898	4238
808.04	4192
808.182	4280
808.324	4291
808.465	4394
808.607	4462
808.749	4451
808.891	4432
809.033	4497
809.174	4417
809.316	4272
809.458	4242
809.6	4116
809.741	4143
809.883	4063
810.025	4200
810.166	4173
810.308	4227
810.45	4265
810.591	4211
810.733	4306
810.875	4527
811.016	4812
811.158	5151
811.299	5322
811.441	5273
811.582	5113
811.724	4664
811.865	4474
812.007	4485
812.148	4413
812.29	4451
812.431	4417
812.573	4379
812.714	4375
812.855	4390
812.997	4390
813.138	4459
813.279	4455
813.421	4428
813.562	4375
813.703	4325
813.845	4318
813.986	4257
814.127	4249
814.268	4253
814.41	4280
814.551	4234
814.692	4306
814.833	4268
814.974	4306
815.115	4367
815.256	4242
815.397	4249
815.539	4284
815.68	4147
815.821	4158
815.962	4268
816.103	4265
816.244	4223
816.385	4230
816.526	4268
816.666	4200
816.807	4071
816.948	4200
817.089	4181
817.23	4097
817.371	4029
817.512	4067
817.653	4071
817.793	4013
817.934	4067
818.075	4116
818.216	4071
818.356	4097
818.497	3979
818.638	3915
818.778	3911
818.919	3915
819.06	3892
819.2	3941
819.341	3812
819.481	3831
819.622	3911
819.762	4059
819.903	3953
820.043	3816
820.184	3835
820.324	3819
820.465	3896
820.605	3854
820.746	3827
820.886	3785
821.026	3876
821.167	3892
821.307	3964
821.447	3945
821.588	3888
821.728	3926
821.868	3941
822.008	3888
822.149	3945
822.289	3907
822.429	3751
822.569	3762
822.709	3785
822.849	3713
822.99	3679
823.13	3728
823.27	3736
823.41	3698
823.55	3774
823.69	3720
823.83	3709
823.97	3660
824.11	3576
824.25	3595
824.389	3610
824.529	3675
824.669	3663
824.809	3728
824.949	3762
825.089	3701
825.228	3698
825.368	3557
825.508	3580
825.648	3568
825.787	3603
825.927	3656
826.067	3644
826.206	3663
826.346	3819
826.485	3819
826.625	3869
826.765	3972
826.904	3857
827.044	3599
827.183	3530
827.323	3428
827.462	3504
827.601	3401
827.741	3389
827.88	3450
828.02	3370
828.159	3424
828.298	3500
828.437	3534
828.577	3454
828.716	3591
828.855	3530
828.994	3409
829.134	3393
829.273	3401
829.412	3306
829.551	3298
829.69	3344
829.829	3431
829.968	3519
830.107	3431
830.246	3454
830.385	3401
830.524	3355
830.663	3336
830.802	3233
830.941	3214
831.08	3222
831.219	3253
831.357	3268
831.496	3428
831.635	3203
831.774	3195
831.913	3184
832.051	3100
832.19	3127
832.329	3218
832.467	3131
832.606	3085
832.744	3214
832.883	3154
833.022	3157
833.16	3283
833.299	3325
833.437	3351
833.576	3344
833.714	3409
833.852	3439
833.991	3439
834.129	3507
834.267	3401
834.406	3370
834.544	3405
834.682	3443
834.821	3409
834.959	3564
835.097	3374
835.235	3519
835.373	3477
835.511	3488
835.65	3462
835.788	3485
835.926	3374
836.064	3359
836.202	3428
836.34	3557
836.478	3561
836.615	3523
836.753	3591
836.891	3584
837.029	3595
837.167	3587
837.305	3534
837.443	3538
837.58	3534
837.718	3599
837.856	3545
837.993	3530
838.131	3587
838.269	3580
838.406	3572
838.544	3568
838.681	3466
838.819	3450
838.956	3370
839.094	3351
839.231	3412
839.369	3469
839.506	3717
839.643	3648
839.781	3507
839.918	3507
840.055	3496
840.193	3511
840.33	3492
840.467	3526
840.604	3622
840.742	3838
840.879	3526
841.016	3538
841.153	3545
841.29	3762
841.427	3701
841.564	3686
841.701	3694
841.838	3637
841.975	3667
842.112	3690
842.249	3656
842.385	3637
842.522	3823
842.659	3698
842.796	3675
842.933	3701
843.069	3682
843.206	3713
843.343	3838
843.479	3800
843.616	3778
843.752	3675
843.889	3705
844.025	3835
844.162	3701
844.298	3800
844.435	3797
844.571	3743
844.708	3907
844.844	3987
844.98	3998
845.117	4044
845.253	3899
845.389	3930
845.525	3945
845.661	3960
845.798	3911
845.934	3979
846.07	3937
846.206	4013
846.342	4074
846.478	4029
846.614	3960
846.75	3953
846.886	3896
847.022	4063
847.158	3949
847.294	4010
847.429	4055
847.565	3983
847.701	4291
847.837	3876
847.972	3861
848.108	3930
848.244	3922
848.379	3903
848.515	3816
848.65	3812
848.786	3861
848.921	3854
849.057	3956
849.192	3918
849.328	3896
849.463	3899
849.598	3884
849.734	3816
849.869	3838
850.004	3766
850.14	3797
850.275	3797
850.41	3743
850.545	3774
850.68	3812
850.815	3819
850.95	3762
851.085	3926
851.22	3880
851.355	3827
851.49	3819
851.625	3759
851.76	3789
851.895	3743
852.03	3660
852.165	3766
852.299	3846
852.434	3892
852.569	3869
852.703	3876
852.838	3956
852.973	3968
853.107	4017
853.242	3892
853.376	3850
853.511	3774
853.645	3800
853.78	3983
853.914	3918
854.048	3857
854.183	3903
854.317	3983
854.451	4071
854.585	3945
854.72	3949
854.854	4051
854.988	3922
855.122	4002
855.256	3903
855.39	3987
855.524	4093
855.658	4128
855.792	4082
855.926	4139
856.06	4124
856.194	4215
856.327	4131
856.461	4116
856.595	4150
856.729	4154
856.862	4246
856.996	4227
857.13	4291
857.263	4341
857.397	4318
857.53	4268
857.664	4356
857.797	4405
857.931	4394
858.064	4352
858.197	4428
858.331	4383
858.464	4329
858.597	4363
858.731	4466
858.864	4436
858.997	4421
859.13	4481
859.263	4516
859.396	4618
859.529	4569
859.662	4523
859.795	4519
859.928	4592
860.061	4721
860.194	4691
860.327	4675
860.46	4641
860.592	4706
860.725	4771
860.858	4786
860.99	4664
861.123	4717
861.256	4691
861.388	4752
861.521	5376
861.653	4767
861.786	4653
861.918	4755
862.05	4790
862.183	4835
862.315	4881
862.447	4949
862.58	4870
862.712	4774
862.844	4774
862.976	4881
863.108	4870
863.24	5166
863.372	4835
863.504	4820
863.636	4862
863.768	4984
863.9	4987
864.032	4976
864.164	4953
864.296	4984
864.428	5113
864.559	5105
864.691	5090
864.823	5105
864.954	5117
865.086	5094
865.217	5117
865.349	5121
865.48	5159
865.612	5109
865.743	5273
865.875	5197
866.006	5216
866.137	5227
866.269	5258
866.4	5265
866.531	5216
866.662	5201
866.793	5277
866.924	5258
867.055	5341
867.186	5303
867.317	5330
867.448	5322
867.579	5357
867.71	5398
867.841	5379
867.972	5463
868.103	5444
868.233	5486
868.364	5551
868.495	5554
868.625	5623
868.756	5767
868.886	5756
869.017	5718
869.147	5832
869.278	5859
869.408	5745
869.539	5756
869.669	5870
869.799	5950
869.929	5973
870.06	6011
870.19	6186
870.32	6209
870.45	6239
870.58	6391
870.71	6372
870.84	6460
870.97	6395
871.1	6418
871.23	6658
871.36	6677
871.489	6669
871.619	6707
871.749	6856
871.879	6825
872.008	6977
872.138	6905
872.267	6996
872.397	6973
872.526	7057
872.656	7103
872.785	7194
872.915	7354
873.044	7529
873.173	7563
873.303	7597
873.432	7727
873.561	7913
873.69	7921
873.819	7974
873.948	8164
874.077	8199
874.206	8381
874.335	8465
874.464	8590
874.593	8891
874.722	8895
874.851	9058
874.979	9199
875.108	9351
875.237	9344
875.365	9488
875.494	9610
875.623	9838
875.751	9797
875.88	9991
876.008	10131
876.136	10249
876.265	10489
876.393	10668
876.521	10778
876.65	10736
876.778	10904
876.906	10850
877.034	11014
877.162	11128
877.29	11159
877.418	11261
877.546	11334
877.674	11459
877.802	11448
877.93	11608
878.058	11532
878.185	11524
878.313	11642
878.441	11733
878.568	11729
878.696	11828
878.824	11863
878.951	11935
879.079	11927
879.206	12148
879.333	12083
879.461	12026
879.588	12053
879.715	12083
879.842	12197
879.97	12045
880.097	11893
880.224	11916
880.351	11885
880.478	11828
880.605	11809
880.732	11790
880.859	12041
880.986	11821
881.112	11771
881.239	11729
881.366	11634
881.493	11707
881.619	11562
881.746	11535
881.872	11497
881.999	11558
882.125	11547
882.252	11486
882.378	11566
882.505	11573
882.631	11376
882.757	11277
882.883	11330
883.01	11258
883.136	11117
883.262	11147
883.388	11064
883.514	11124
883.64	11189
883.766	11052
883.892	11006
884.018	11010
884.143	11075
884.269	11136
884.395	10873
884.52	10691
884.646	10744
884.772	10710
884.897	10592
885.023	10580
885.148	10645
885.274	10729
885.399	10691
885.524	10694
885.65	10649
885.775	10558
885.9	10577
886.025	10615
886.15	10531
886.275	10542
886.4	10344
886.525	10489
886.65	10303
886.775	10291
886.9	10478
887.025	10573
887.149	10398
887.274	10295
887.399	10185
887.523	10242
887.648	10166
887.773	10086
887.897	10268
888.021	10196
888.146	10101
888.27	10166
888.395	10177
888.519	10181
888.643	10223
888.767	10158
888.891	10139
889.015	10078
889.139	10086
889.263	9979
889.387	10105
889.511	10154
889.635	10128
889.759	9918
889.883	9998
890.006	9998
890.13	10051
890.254	9949
890.377	9983
890.501	9812
890.624	9895
890.748	9911
890.871	9800
890.995	9751
891.118	9694
891.241	9701
891.364	9717
891.488	9899
891.611	9686
891.734	9774
891.857	9831
891.98	9713
892.103	9789
892.226	9682
892.349	9622
892.471	9473
892.594	9572
892.717	9660
892.839	9595
892.962	9652
893.085	9682
893.207	9606
893.33	9496
893.452	9511
893.575	9584
893.697	9545
893.819	9557
893.941	9625
894.064	9549
894.186	9416
894.308	9355
894.43	9519
894.552	9595
894.674	9485
894.796	9393
894.918	9382
895.04	9340
895.161	9367
895.283	9401
895.405	9195
895.526	9268
895.648	9195
895.769	9245
895.891	9218
896.012	9222
896.134	9241
896.255	9169
896.376	9123
896.498	9081
896.619	9207
896.74	9085
896.861	9066
896.982	9214
897.103	9173
897.224	9173
897.345	9074
897.466	9013
897.587	8990
897.708	9066
897.828	9032
897.949	8887
898.07	8880
898.19	8906
898.311	8982
898.431	8857
898.552	8941
898.672	8975
898.792	8933
898.913	8902
899.033	8826
899.153	8716
899.273	8625
899.393	8727
899.513	8773
899.633	8743
899.753	8724
899.873	8724
899.993	8667
900.113	8686
900.232	8739
900.352	8705
900.472	8590
900.591	8488
900.711	8560
900.83	8541
900.95	8686
901.069	8682
901.189	8590
901.308	8438
901.427	8385
901.546	8438
901.665	8461
901.784	8495
901.904	8362
902.023	8389
902.141	8263
902.26	8294
902.379	8279
902.498	8267
902.617	8202
902.735	8286
902.854	8294
902.973	8290
903.091	8088
903.21	8126
903.328	8046
903.446	8149
903.565	8024
903.683	8081
903.801	8016
903.919	8157
904.038	8119
904.156	8039
904.274	8050
904.392	7970
904.51	7997
904.627	8069
904.745	8077
904.863	8084
904.981	7928
905.098	7864
905.216	7982
905.334	7833
905.451	7803
905.569	7887
905.686	7932
905.803	7875
905.921	7784
906.038	7944
906.155	7856
906.272	7723
906.389	7715
906.506	7586
906.623	7620
906.74	7571
906.857	7499
906.974	7548
907.091	7696
907.208	7719
907.324	7639
907.441	7483
907.557	7396
907.674	7411
907.79	7434
907.907	7381
908.023	7453
908.139	7373
908.256	7411
908.372	7407
908.488	7289
908.604	7320
908.72	7179
908.836	7236
908.952	7259
909.068	7289
909.184	7282
909.3	7244
909.415	7289
909.531	7255
909.647	7084
909.762	7156
909.878	7084
909.993	7118
910.108	7046
910.224	7057
910.339	7080
910.454	7080
910.57	6973
910.685	6989
910.8	7133
910.915	7110
911.03	6970
911.145	6897
911.259	6806
911.374	6894
911.489	6829
911.604	6795
911.718	6738
911.833	6798
911.947	6620
912.062	6555
912.176	6722
912.291	6734
912.405	6658
912.519	6779
912.633	6837
912.748	6749
912.862	6711
912.976	6532
913.09	6528
913.204	6582
913.318	6623
913.431	6745
913.545	6662
913.659	6681
913.772	6631
913.886	6589
914	6494
914.113	6658
914.226	6582
914.34	6662
914.453	6513
914.566	6597
914.68	6498
914.793	6498
914.906	6437
915.019	6342
915.132	6403
915.245	6308
915.358	6483
915.47	6422
915.583	6441
915.696	6441
915.809	6464
915.921	6532
916.034	6448
916.146	6464
916.259	6372
916.371	6410
916.483	6445
916.595	6380
916.708	6410
916.82	6311
916.932	6414
917.044	6380
917.156	6369
917.268	6300
917.38	6262
917.491	6315
917.603	6361
917.715	6448
917.826	6403
917.938	6327
918.049	6258
918.161	6273
918.272	6414
918.384	6464
918.495	6304
918.606	6285
918.717	6243
918.828	6266
918.939	6289
919.05	6171
919.161	6289
919.272	6114
919.383	6159
919.494	6277
919.604	6448
919.715	6273
919.826	6258
919.936	6277
920.047	6365
920.157	6190
920.267	6410
920.378	6289
920.488	6281
920.598	6479
920.708	6589
920.818	6452
920.928	6429
921.038	6563
921.148	6559
921.258	6403
921.368	6285
921.477	6228
921.587	6178
921.697	6095
921.806	6159
921.916	6102
922.025	5954
922.134	5927
922.244	5916
922.353	5942
922.462	5794
922.571	5790
922.68	5657
922.789	5684
922.898	5729
923.007	5619
923.116	5699
923.224	5657
923.333	5665
923.442	5608
923.55	5581
923.659	5566
923.767	5600
923.876	5524
923.984	5604
924.092	5501
924.201	5566
924.309	5528
924.417	5581
924.525	5528
924.633	5505
924.741	6270
924.849	5341
924.956	5452
925.064	5326
925.172	5303
925.279	5220
925.387	5318
925.494	5288
925.602	5414
925.709	5360
925.816	5315
925.924	5345
926.031	5398
926.138	5307
926.245	5318
926.352	5193
926.459	5280
926.566	5349
926.673	5231
926.779	5143
926.886	5094
926.993	5041
927.099	5025
927.206	4972
927.312	4946
927.419	5033
927.525	4957
927.631	4995
927.737	4877
927.843	4847
927.95	4831
928.056	4797
928.162	4824
928.267	4847
928.373	5307
928.479	4866
928.585	4672
928.69	4748
928.796	4778
928.901	4706
929.007	4603
929.112	4672
929.218	4660
929.323	4622
929.428	4531
929.533	4683
929.638	4516
929.743	4577
929.848	4523
929.953	4512
930.058	4405
930.163	4314
930.267	4329
930.372	4417
930.477	4295
930.581	4451
930.685	4379
930.79	4223
930.894	4299
930.998	4276
931.103	4379
931.207	4120
931.311	4051
931.415	4013
931.519	3915
931.623	3968
