Data from glass_V78500241_668.txt Node
Date: Wed Sep 01 19:19:07 CST 2021
User: usil
Spectrometer: V785-0024
Trigger mode: 0
Integration Time (sec): 4.000000E-1
Scans to average: 1
Nonlinearity correction enabled: false
Boxcar width: 0
Storing dark spectrum: false
XAxis mode: Wavelengths
Number of Pixels in Spectrum: 1024
>>>>>Begin Spectral Data<<<<<
801.071	3743
801.214	3743
801.356	3717
801.499	3732
801.641	3720
801.783	3793
801.926	3827
802.068	3884
802.211	3857
802.353	3907
802.496	3896
802.638	3846
802.78	3873
802.923	3930
803.065	3915
803.208	3884
803.35	3869
803.492	3918
803.635	3918
803.777	3789
803.919	3892
804.061	4147
804.204	3975
804.346	3941
804.488	3991
804.63	4097
804.773	3953
804.915	4036
805.057	4128
805.199	4063
805.341	4143
805.483	4139
805.626	4147
805.768	4093
805.91	4207
806.052	4192
806.194	4192
806.336	4390
806.478	4234
806.62	4154
806.762	4215
806.904	4276
807.046	4318
807.188	4268
807.33	4150
807.472	4230
807.614	4169
807.756	4253
807.898	4211
808.04	4230
808.182	4287
808.324	4348
808.465	4402
808.607	4512
808.749	4504
808.891	4485
809.033	4523
809.174	4421
809.316	4306
809.458	4249
809.6	4139
809.741	4207
809.883	4150
810.025	4219
810.166	4207
810.308	4242
810.45	4234
810.591	4268
810.733	4303
810.875	4504
811.016	4812
811.158	5113
811.299	5299
811.441	5292
811.582	5079
811.724	4672
811.865	4455
812.007	4531
812.148	4428
812.29	4443
812.431	4432
812.573	4421
812.714	4329
812.855	4417
812.997	4451
813.138	4531
813.279	4447
813.421	4394
813.562	4363
813.703	4341
813.845	4356
813.986	4257
814.127	4295
814.268	4204
814.41	4268
814.551	4238
814.692	4329
814.833	4284
814.974	4322
815.115	4348
815.256	4253
815.397	4276
815.539	4314
815.68	4223
815.821	4246
815.962	4341
816.103	4291
816.244	4223
816.385	4261
816.526	4287
816.666	4227
816.807	4120
816.948	4139
817.089	4185
817.23	4101
817.371	4063
817.512	4078
817.653	4044
817.793	4055
817.934	4044
818.075	4078
818.216	4124
818.356	4112
818.497	4013
818.638	3926
818.778	3892
818.919	3873
819.06	3846
819.2	3964
819.341	3892
819.481	3888
819.622	3907
819.762	4002
819.903	3964
820.043	3865
820.184	3884
820.324	3865
820.465	3926
820.605	3911
820.746	3915
820.886	3857
821.026	3926
821.167	3953
821.307	3983
821.447	3972
821.588	3987
821.728	3960
821.868	3926
822.008	3899
822.149	3926
822.289	3934
822.429	3785
822.569	3766
822.709	3846
822.849	3713
822.99	3717
823.13	3732
823.27	3819
823.41	3728
823.55	3755
823.69	3720
823.83	3789
823.97	3671
824.11	3618
824.25	3606
824.389	3679
824.529	3652
824.669	3625
824.809	3740
824.949	3789
825.089	3736
825.228	3717
825.368	3606
825.508	3572
825.648	3591
825.787	3625
825.927	3660
826.067	3606
826.206	3713
826.346	3850
826.485	3819
826.625	3907
826.765	3953
826.904	3865
827.044	3610
827.183	3534
827.323	3488
827.462	3511
827.601	3428
827.741	3412
827.88	3450
828.02	3344
828.159	3439
828.298	3477
828.437	3561
828.577	3485
828.716	3587
828.855	3526
828.994	3420
829.134	3351
829.273	3416
829.412	3351
829.551	3302
829.69	3386
829.829	3439
829.968	3561
830.107	3435
830.246	3454
830.385	3409
830.524	3397
830.663	3306
830.802	3306
830.941	3199
831.08	3226
831.219	3272
831.357	3306
831.496	3424
831.635	3222
831.774	3176
831.913	3226
832.051	3165
832.19	3161
832.329	3256
832.467	3161
832.606	3127
832.744	3180
832.883	3207
833.022	3173
833.16	3260
833.299	3310
833.437	3332
833.576	3397
833.714	3435
833.852	3439
833.991	3443
834.129	3485
834.267	3409
834.406	3435
834.544	3420
834.682	3393
834.821	3412
834.959	3606
835.097	3458
835.235	3496
835.373	3485
835.511	3530
835.65	3374
835.788	3519
835.926	3397
836.064	3367
836.202	3409
836.34	3633
836.478	3629
836.615	3545
836.753	3606
836.891	3690
837.029	3667
837.167	3606
837.305	3595
837.443	3580
837.58	3538
837.718	3625
837.856	3568
837.993	3587
838.131	3614
838.269	3557
838.406	3595
838.544	3580
838.681	3511
838.819	3435
838.956	3386
839.094	3405
839.231	3469
839.369	3526
839.506	3789
839.643	3648
839.781	3557
839.918	3439
840.055	3549
840.193	3549
840.33	3545
840.467	3591
840.604	3625
840.742	3785
840.879	3568
841.016	3568
841.153	3629
841.29	3751
841.427	3705
841.564	3766
841.701	3789
841.838	3724
841.975	3709
842.112	3751
842.249	3660
842.385	3679
842.522	3869
842.659	3720
842.796	3705
842.933	3743
843.069	3774
843.206	3705
843.343	3781
843.479	3774
843.616	3838
843.752	3694
843.889	3686
844.025	3876
844.162	3694
844.298	3865
844.435	3831
844.571	3778
844.708	3903
844.844	4006
844.98	4048
845.117	4063
845.253	3915
845.389	3869
845.525	4013
845.661	3949
845.798	3880
845.934	4021
846.07	3987
846.206	4036
846.342	4109
846.478	4051
846.614	3975
846.75	3968
846.886	3941
847.022	4059
847.158	4010
847.294	4002
847.429	4006
847.565	4021
847.701	4211
847.837	3861
847.972	3876
848.108	3994
848.244	4006
848.379	3850
848.515	3865
848.65	3819
848.786	3861
848.921	3892
849.057	3918
849.192	3937
849.328	3907
849.463	3945
849.598	3918
849.734	3827
849.869	3819
850.004	3778
850.14	3869
850.275	3812
850.41	3747
850.545	3759
850.68	3778
850.815	3827
850.95	3819
851.085	3975
851.22	3888
851.355	3854
851.49	3816
851.625	3800
851.76	3831
851.895	3747
852.03	3747
852.165	3808
852.299	3838
852.434	3945
852.569	3915
852.703	3876
852.838	3915
852.973	4013
853.107	3983
853.242	3884
853.376	3854
853.511	3831
853.645	3816
853.78	3945
853.914	3911
854.048	3911
854.183	3884
854.317	3937
854.451	4044
854.585	3998
854.72	3945
854.854	4093
854.988	3983
855.122	4029
855.256	3926
855.39	4067
855.524	4139
855.658	4078
855.792	4067
855.926	4135
856.06	4173
856.194	4234
856.327	4158
856.461	4158
856.595	4158
856.729	4185
856.862	4314
856.996	4207
857.13	4284
857.263	4344
857.397	4322
857.53	4322
857.664	4348
857.797	4394
857.931	4443
858.064	4405
858.197	4455
858.331	4405
858.464	4386
858.597	4428
858.731	4508
858.864	4474
858.997	4485
859.13	4516
859.263	4584
859.396	4611
859.529	4500
859.662	4554
859.795	4558
859.928	4630
860.061	4679
860.194	4748
860.327	4675
860.46	4641
860.592	4729
860.725	4797
860.858	4714
860.99	4706
861.123	4702
861.256	4717
861.388	4790
861.521	5280
861.653	4725
861.786	4675
861.918	4786
862.05	4824
862.183	4835
862.315	4904
862.447	4949
862.58	4911
862.712	4835
862.844	4793
862.976	4866
863.108	4873
863.24	5322
863.372	4778
863.504	4923
863.636	4850
863.768	4953
863.9	4949
864.032	4904
864.164	4987
864.296	5029
864.428	5090
864.559	5143
864.691	5098
864.823	5151
864.954	5128
865.086	5109
865.217	5166
865.349	5117
865.48	5170
865.612	5250
865.743	5322
865.875	5216
866.006	5201
866.137	5246
866.269	5242
866.4	5265
866.531	5269
866.662	5254
866.793	5273
866.924	5280
867.055	5372
867.186	5379
867.317	5280
867.448	5299
867.579	5368
867.71	5341
867.841	5326
867.972	5429
868.103	5444
868.233	5551
868.364	5501
868.495	5623
868.625	5649
868.756	5832
868.886	5657
869.017	5737
869.147	5813
869.278	5897
869.408	5836
869.539	5790
869.669	5916
869.799	5916
869.929	5999
870.06	6007
870.19	6216
870.32	6243
870.45	6296
870.58	6346
870.71	6437
870.84	6441
870.97	6445
871.1	6509
871.23	6654
871.36	6715
871.489	6684
871.619	6662
871.749	6886
871.879	6840
872.008	7000
872.138	6973
872.267	7027
872.397	7000
872.526	7004
872.656	7069
872.785	7247
872.915	7362
873.044	7552
873.173	7567
873.303	7643
873.432	7784
873.561	7860
873.69	7890
873.819	8058
873.948	8233
874.077	8286
874.206	8320
874.335	8434
874.464	8598
874.593	8883
874.722	8899
874.851	9161
874.979	9306
875.108	9397
875.237	9443
875.365	9496
875.494	9686
875.623	9869
875.751	9888
875.88	10006
876.008	10185
876.136	10295
876.265	10561
876.393	10763
876.521	10725
876.65	10828
876.778	10965
876.906	10850
877.034	11006
877.162	11041
877.29	11178
877.418	11265
877.546	11349
877.674	11414
877.802	11520
877.93	11554
878.058	11577
878.185	11638
878.313	11604
878.441	11767
878.568	11665
878.696	11802
878.824	11870
878.951	11942
879.079	12057
879.206	12102
879.333	12045
879.461	12030
879.588	12110
879.715	12038
879.842	12262
879.97	12064
880.097	11977
880.224	11870
880.351	11916
880.478	11870
880.605	11882
880.732	11836
880.859	12057
880.986	11897
881.112	11893
881.239	11764
881.366	11592
881.493	11611
881.619	11528
881.746	11570
881.872	11490
881.999	11463
882.125	11539
882.252	11558
882.378	11554
882.505	11657
882.631	11330
882.757	11364
882.883	11387
883.01	11337
883.136	11201
883.262	11090
883.388	11143
883.514	11216
883.64	11136
883.766	11181
883.892	10919
884.018	11067
884.143	11033
884.269	11109
884.395	10866
884.52	10755
884.646	10873
884.772	10675
884.897	10645
885.023	10660
885.148	10736
885.274	10698
885.399	10679
885.524	10645
885.65	10542
885.775	10660
885.9	10512
886.025	10584
886.15	10634
886.275	10474
886.4	10333
886.525	10382
886.65	10405
886.775	10356
886.9	10478
887.025	10535
887.149	10363
887.274	10295
887.399	10192
887.523	10173
887.648	10143
887.773	10063
887.897	10268
888.021	10169
888.146	10169
888.27	10204
888.395	10265
888.519	10261
888.643	10253
888.767	10215
888.891	10051
889.015	10059
889.139	10013
889.263	10051
889.387	10135
889.511	10162
889.635	10067
889.759	9987
889.883	10010
890.006	10051
890.13	10177
890.254	9953
890.377	10029
890.501	9888
890.624	9835
890.748	9911
890.871	9720
890.995	9770
891.118	9778
891.241	9827
891.364	9755
891.488	9816
891.611	9785
891.734	9778
891.857	9778
891.98	9701
892.103	9823
892.226	9701
892.349	9656
892.471	9488
892.594	9599
892.717	9603
892.839	9622
892.962	9682
893.085	9660
893.207	9576
893.33	9519
893.452	9625
893.575	9644
893.697	9488
893.819	9591
893.941	9561
894.064	9614
894.186	9454
894.308	9420
894.43	9557
894.552	9663
894.674	9542
894.796	9374
894.918	9351
895.04	9420
895.161	9332
895.283	9363
895.405	9317
895.526	9325
895.648	9256
895.769	9275
895.891	9291
896.012	9233
896.134	9211
896.255	9184
896.376	9142
896.498	9089
896.619	9176
896.74	9093
896.861	9066
896.982	9294
897.103	9351
897.224	9135
897.345	9036
897.466	8994
897.587	9062
897.708	9089
897.828	9074
897.949	8941
898.07	8849
898.19	8941
898.311	8971
898.431	8891
898.552	8933
898.672	9058
898.792	9055
898.913	8937
899.033	8807
899.153	8682
899.273	8705
899.393	8758
899.513	8815
899.633	8777
899.753	8750
899.873	8678
899.993	8743
900.113	8754
900.232	8686
900.352	8621
900.472	8678
900.591	8606
900.711	8594
900.83	8568
900.95	8735
901.069	8708
901.189	8571
901.308	8419
901.427	8469
901.546	8442
901.665	8450
901.784	8526
901.904	8427
902.023	8328
902.141	8294
902.26	8210
902.379	8286
902.498	8229
902.617	8271
902.735	8267
902.854	8309
902.973	8248
903.091	8149
903.21	8149
903.328	8119
903.446	8145
903.565	8100
903.683	8073
903.801	8001
903.919	8157
904.038	8142
904.156	8062
904.274	8100
904.392	8065
904.51	8081
904.627	8058
904.745	8157
904.863	8096
904.981	7963
905.098	7959
905.216	7887
905.334	7841
905.451	7978
905.569	7928
905.686	7936
905.803	7925
905.921	7799
906.038	7902
906.155	7833
906.272	7727
906.389	7670
906.506	7685
906.623	7658
906.74	7571
906.857	7521
906.974	7601
907.091	7647
907.208	7772
907.324	7613
907.441	7575
907.557	7518
907.674	7434
907.79	7411
907.907	7453
908.023	7510
908.139	7491
908.256	7411
908.372	7335
908.488	7324
908.604	7327
908.72	7285
908.836	7324
908.952	7289
909.068	7312
909.184	7346
909.3	7278
909.415	7354
909.531	7274
909.647	7114
909.762	7122
909.878	7122
909.993	7206
910.108	7004
910.224	7072
910.339	7069
910.454	7107
910.57	6973
910.685	6977
910.8	7168
910.915	7164
911.03	7019
911.145	6905
911.259	6821
911.374	6916
911.489	6840
911.604	6795
911.718	6688
911.833	6753
911.947	6662
912.062	6585
912.176	6719
912.291	6757
912.405	6719
912.519	6764
912.633	6856
912.748	6726
912.862	6703
912.976	6639
913.09	6513
913.204	6574
913.318	6612
913.431	6707
913.545	6658
913.659	6703
913.772	6681
913.886	6593
914	6570
914.113	6620
914.226	6662
914.34	6677
914.453	6517
914.566	6642
914.68	6566
914.793	6555
914.906	6422
915.019	6418
915.132	6315
915.245	6437
915.358	6479
915.47	6528
915.583	6479
915.696	6509
915.809	6490
915.921	6540
916.034	6445
916.146	6395
916.259	6399
916.371	6479
916.483	6498
916.595	6369
916.708	6464
916.82	6414
916.932	6410
917.044	6429
917.156	6372
917.268	6327
917.38	6323
917.491	6292
917.603	6369
917.715	6433
917.826	6426
917.938	6365
918.049	6262
918.161	6391
918.272	6418
918.384	6410
918.495	6380
918.606	6273
918.717	6220
918.828	6338
918.939	6346
919.05	6186
919.161	6285
919.272	6125
919.383	6273
919.494	6239
919.604	6414
919.715	6338
919.826	6163
919.936	6277
920.047	6388
920.157	6289
920.267	6494
920.378	6304
920.488	6308
920.598	6544
920.708	6559
920.818	6513
920.928	6544
921.038	6620
921.148	6578
921.258	6395
921.368	6304
921.477	6247
921.587	6201
921.697	6163
921.806	6239
921.916	6049
922.025	6011
922.134	5931
922.244	5904
922.353	5935
922.462	5878
922.571	5836
922.68	5691
922.789	5699
922.898	5775
923.007	5684
923.116	5733
923.224	5695
923.333	5676
923.442	5611
923.55	5581
923.659	5592
923.767	5630
923.876	5562
923.984	5596
924.092	5551
924.201	5570
924.309	5532
924.417	5543
924.525	5452
924.633	5471
924.741	6148
924.849	5387
924.956	5459
925.064	5398
925.172	5315
925.279	5349
925.387	5360
925.494	5307
925.602	5376
925.709	5360
925.816	5273
925.924	5326
926.031	5353
926.138	5357
926.245	5364
926.352	5254
926.459	5334
926.566	5349
926.673	5246
926.779	5140
926.886	5113
926.993	5052
927.099	5041
927.206	4961
927.312	4938
927.419	4991
927.525	4991
927.631	4972
927.737	4949
927.843	4854
927.95	4805
928.056	4812
928.162	4809
928.267	4877
928.373	5387
928.479	4824
928.585	4683
928.69	4793
928.796	4831
928.901	4645
929.007	4599
929.112	4649
929.218	4634
929.323	4599
929.428	4588
929.533	4679
929.638	4554
929.743	4504
929.848	4603
929.953	4531
930.058	4474
930.163	4363
930.267	4329
930.372	4474
930.477	4322
930.581	4508
930.685	4409
930.79	4272
930.894	4314
930.998	4333
931.103	4421
931.207	4090
931.311	4074
931.415	4063
931.519	3926
931.623	3903
