Data from glass_V78500241_1132.txt Node
Date: Wed Sep 01 19:22:20 CST 2021
User: usil
Spectrometer: V785-0024
Trigger mode: 0
Integration Time (sec): 4.000000E-1
Scans to average: 1
Nonlinearity correction enabled: false
Boxcar width: 0
Storing dark spectrum: false
XAxis mode: Wavelengths
Number of Pixels in Spectrum: 1024
>>>>>Begin Spectral Data<<<<<
801.071	3774
801.214	3770
801.356	3717
801.499	3747
801.641	3705
801.783	3766
801.926	3884
802.068	3804
802.211	3873
802.353	3922
802.496	3869
802.638	3903
802.78	3918
802.923	3949
803.065	3918
803.208	3873
803.35	3907
803.492	3907
803.635	3907
803.777	3846
803.919	3918
804.061	4131
804.204	3953
804.346	3972
804.488	3926
804.63	4059
804.773	4010
804.915	4078
805.057	4177
805.199	4048
805.341	4101
805.483	4128
805.626	4147
805.768	4116
805.91	4242
806.052	4204
806.194	4249
806.336	4322
806.478	4238
806.62	4158
806.762	4211
806.904	4284
807.046	4337
807.188	4215
807.33	4196
807.472	4276
807.614	4211
807.756	4253
807.898	4227
808.04	4207
808.182	4295
808.324	4390
808.465	4379
808.607	4493
808.749	4466
808.891	4500
809.033	4523
809.174	4421
809.316	4257
809.458	4276
809.6	4185
809.741	4139
809.883	4128
810.025	4223
810.166	4223
810.308	4234
810.45	4268
810.591	4215
810.733	4291
810.875	4535
811.016	4828
811.158	5143
811.299	5307
811.441	5311
811.582	5041
811.724	4736
811.865	4481
812.007	4493
812.148	4470
812.29	4470
812.431	4398
812.573	4413
812.714	4360
812.855	4432
812.997	4413
813.138	4485
813.279	4432
813.421	4405
813.562	4390
813.703	4310
813.845	4318
813.986	4272
814.127	4207
814.268	4303
814.41	4306
814.551	4268
814.692	4348
814.833	4284
814.974	4303
815.115	4341
815.256	4253
815.397	4291
815.539	4246
815.68	4185
815.821	4253
815.962	4325
816.103	4325
816.244	4223
816.385	4272
816.526	4287
816.666	4188
816.807	4109
816.948	4162
817.089	4181
817.23	4169
817.371	4090
817.512	4044
817.653	4086
817.793	4036
817.934	4059
818.075	4093
818.216	4059
818.356	4074
818.497	3979
818.638	3949
818.778	3960
818.919	3865
819.06	3911
819.2	3884
819.341	3876
819.481	3857
819.622	3972
819.762	4036
819.903	3983
820.043	3884
820.184	3857
820.324	3835
820.465	3915
820.605	3816
820.746	3896
820.886	3819
821.026	3949
821.167	3915
821.307	3960
821.447	3979
821.588	3960
821.728	3953
821.868	3953
822.008	3918
822.149	3926
822.289	3918
822.429	3778
822.569	3770
822.709	3774
822.849	3701
822.99	3701
823.13	3781
823.27	3778
823.41	3732
823.55	3762
823.69	3762
823.83	3766
823.97	3717
824.11	3629
824.25	3633
824.389	3633
824.529	3675
824.669	3622
824.809	3717
824.949	3743
825.089	3759
825.228	3728
825.368	3580
825.508	3542
825.648	3584
825.787	3595
825.927	3648
826.067	3637
826.206	3698
826.346	3762
826.485	3838
826.625	3899
826.765	3926
826.904	3846
827.044	3667
827.183	3485
827.323	3500
827.462	3488
827.601	3481
827.741	3447
827.88	3454
828.02	3359
828.159	3458
828.298	3481
828.437	3507
828.577	3473
828.716	3625
828.855	3545
828.994	3382
829.134	3363
829.273	3412
829.412	3340
829.551	3374
829.69	3397
829.829	3393
829.968	3469
830.107	3431
830.246	3439
830.385	3386
830.524	3344
830.663	3329
830.802	3253
830.941	3173
831.08	3226
831.219	3279
831.357	3268
831.496	3378
831.635	3207
831.774	3188
831.913	3211
832.051	3142
832.19	3157
832.329	3245
832.467	3161
832.606	3108
832.744	3165
832.883	3192
833.022	3157
833.16	3279
833.299	3325
833.437	3359
833.576	3359
833.714	3397
833.852	3450
833.991	3450
834.129	3443
834.267	3424
834.406	3420
834.544	3397
834.682	3450
834.821	3416
834.959	3564
835.097	3450
835.235	3553
835.373	3511
835.511	3492
835.65	3488
835.788	3492
835.926	3378
836.064	3412
836.202	3405
836.34	3599
836.478	3591
836.615	3584
836.753	3584
836.891	3633
837.029	3637
837.167	3587
837.305	3618
837.443	3557
837.58	3523
837.718	3641
837.856	3580
837.993	3530
838.131	3606
838.269	3584
838.406	3606
838.544	3599
838.681	3504
838.819	3466
838.956	3386
839.094	3389
839.231	3454
839.369	3507
839.506	3743
839.643	3648
839.781	3530
839.918	3492
840.055	3561
840.193	3507
840.33	3534
840.467	3595
840.604	3610
840.742	3819
840.879	3580
841.016	3603
841.153	3572
841.29	3766
841.427	3705
841.564	3686
841.701	3747
841.838	3728
841.975	3675
842.112	3732
842.249	3663
842.385	3648
842.522	3785
842.659	3679
842.796	3701
842.933	3675
843.069	3705
843.206	3709
843.343	3842
843.479	3831
843.616	3812
843.752	3656
843.889	3648
844.025	3903
844.162	3743
844.298	3842
844.435	3800
844.571	3823
844.708	3899
844.844	3979
844.98	4021
845.117	4025
845.253	3964
845.389	3888
845.525	3979
845.661	3953
845.798	3930
845.934	3998
846.07	3953
846.206	4040
846.342	4109
846.478	4032
846.614	3998
846.75	3964
846.886	3934
847.022	4036
847.158	3987
847.294	3998
847.429	4063
847.565	4006
847.701	4227
847.837	3884
847.972	3884
848.108	4040
848.244	4006
848.379	3838
848.515	3812
848.65	3831
848.786	3816
848.921	3884
849.057	3926
849.192	3949
849.328	3892
849.463	3926
849.598	3880
849.734	3896
849.869	3873
850.004	3755
850.14	3816
850.275	3804
850.41	3724
850.545	3770
850.68	3755
850.815	3816
850.95	3789
851.085	3949
851.22	3888
851.355	3838
851.49	3793
851.625	3774
851.76	3808
851.895	3740
852.03	3747
852.165	3823
852.299	3850
852.434	3911
852.569	3857
852.703	3884
852.838	3975
852.973	3975
853.107	3987
853.242	3922
853.376	3827
853.511	3766
853.645	3793
853.78	3998
853.914	3880
854.048	3941
854.183	3918
854.317	3960
854.451	4044
854.585	3926
854.72	3968
854.854	4067
854.988	3941
855.122	4017
855.256	3899
855.39	4071
855.524	4120
855.658	4124
855.792	4120
855.926	4188
856.06	4169
856.194	4234
856.327	4135
856.461	4120
856.595	4166
856.729	4215
856.862	4287
856.996	4265
857.13	4253
857.263	4348
857.397	4436
857.53	4314
857.664	4367
857.797	4390
857.931	4451
858.064	4413
858.197	4447
858.331	4360
858.464	4363
858.597	4367
858.731	4398
858.864	4470
858.997	4493
859.13	4493
859.263	4592
859.396	4634
859.529	4558
859.662	4481
859.795	4573
859.928	4607
860.061	4702
860.194	4736
860.327	4664
860.46	4618
860.592	4694
860.725	4778
860.858	4797
860.99	4714
861.123	4679
861.256	4679
861.388	4774
861.521	5398
861.653	4702
861.786	4714
861.918	4786
862.05	4831
862.183	4866
862.315	4866
862.447	4965
862.58	4885
862.712	4801
862.844	4801
862.976	4885
863.108	4904
863.24	5216
863.372	4835
863.504	4908
863.636	4904
863.768	4980
863.9	4957
864.032	4915
864.164	4965
864.296	5060
864.428	5048
864.559	5098
864.691	5128
864.823	5140
864.954	5105
865.086	5109
865.217	5102
865.349	5136
865.48	5185
865.612	5212
865.743	5288
865.875	5204
866.006	5185
866.137	5269
866.269	5273
866.4	5273
866.531	5216
866.662	5269
866.793	5303
866.924	5376
867.055	5341
867.186	5341
867.317	5345
867.448	5269
867.579	5383
867.71	5376
867.841	5360
867.972	5474
868.103	5463
868.233	5478
868.364	5459
868.495	5535
868.625	5688
868.756	5840
868.886	5665
869.017	5764
869.147	5855
869.278	5874
869.408	5802
869.539	5821
869.669	5958
869.799	5904
869.929	5977
870.06	5992
870.19	6205
870.32	6216
870.45	6232
870.58	6380
870.71	6422
870.84	6441
870.97	6433
871.1	6437
871.23	6654
871.36	6722
871.489	6635
871.619	6749
871.749	6791
871.879	6863
872.008	7008
872.138	6985
872.267	7034
872.397	6981
872.526	6989
872.656	7118
872.785	7179
872.915	7350
873.044	7468
873.173	7616
873.303	7655
873.432	7731
873.561	7936
873.69	7936
873.819	8046
873.948	8157
874.077	8259
874.206	8347
874.335	8473
874.464	8686
874.593	8861
874.722	8925
874.851	9116
874.979	9275
875.108	9393
875.237	9454
875.365	9466
875.494	9610
875.623	9800
875.751	9842
875.88	10025
876.008	10116
876.136	10246
876.265	10508
876.393	10675
876.521	10824
876.65	10862
876.778	10869
876.906	10968
877.034	11014
877.162	11060
877.29	11090
877.418	11318
877.546	11410
877.674	11448
877.802	11501
877.93	11524
878.058	11532
878.185	11543
878.313	11589
878.441	11813
878.568	11604
878.696	11805
878.824	11843
878.951	11942
879.079	11961
879.206	12163
879.333	12076
879.461	12022
879.588	12148
879.715	12095
879.842	12270
879.97	12053
880.097	11901
880.224	11870
880.351	11889
880.478	11866
880.605	11847
880.732	11874
880.859	11999
880.986	11870
881.112	11805
881.239	11688
881.366	11691
881.493	11619
881.619	11642
881.746	11554
881.872	11604
881.999	11532
882.125	11493
882.252	11573
882.378	11505
882.505	11573
882.631	11387
882.757	11235
882.883	11368
883.01	11269
883.136	11197
883.262	11064
883.388	11113
883.514	11128
883.64	11220
883.766	11079
883.892	11041
884.018	11010
884.143	11033
884.269	11052
884.395	10892
884.52	10828
884.646	10786
884.772	10752
884.897	10622
885.023	10721
885.148	10786
885.274	10752
885.399	10717
885.524	10588
885.65	10588
885.775	10672
885.9	10599
886.025	10622
886.15	10599
886.275	10573
886.4	10474
886.525	10443
886.65	10352
886.775	10360
886.9	10478
887.025	10554
887.149	10276
887.274	10257
887.399	10196
887.523	10173
887.648	10071
887.773	10196
887.897	10185
888.021	10166
888.146	10158
888.27	10238
888.395	10219
888.519	10150
888.643	10207
888.767	10249
888.891	10093
889.015	10101
889.139	10051
889.263	9994
889.387	10135
889.511	10169
889.635	10147
889.759	9979
889.883	9911
890.006	9991
890.13	10139
890.254	9975
890.377	9911
890.501	9903
890.624	9873
890.748	9998
890.871	9793
890.995	9720
891.118	9713
891.241	9781
891.364	9736
891.488	9846
891.611	9736
891.734	9759
891.857	9812
891.98	9709
892.103	9770
892.226	9705
892.349	9656
892.471	9606
892.594	9557
892.717	9671
892.839	9549
892.962	9622
893.085	9660
893.207	9637
893.33	9500
893.452	9507
893.575	9610
893.697	9447
893.819	9561
893.941	9606
894.064	9542
894.186	9485
894.308	9386
894.43	9572
894.552	9648
894.674	9606
894.796	9420
894.918	9310
895.04	9348
895.161	9431
895.283	9321
895.405	9294
895.526	9253
895.648	9188
895.769	9260
895.891	9344
896.012	9325
896.134	9279
896.255	9268
896.376	9154
896.498	9097
896.619	9142
896.74	9081
896.861	9077
896.982	9306
897.103	9302
897.224	9100
897.345	9074
897.466	9017
897.587	8990
897.708	9062
897.828	8963
897.949	8963
898.07	8941
898.19	8872
898.311	9070
898.431	8902
898.552	8857
898.672	8963
898.792	8967
898.913	8899
899.033	8811
899.153	8766
899.273	8720
899.393	8686
899.513	8750
899.633	8804
899.753	8708
899.873	8705
899.993	8762
900.113	8708
900.232	8632
900.352	8693
900.472	8651
900.591	8575
900.711	8590
900.83	8640
900.95	8686
901.069	8670
901.189	8556
901.308	8537
901.427	8374
901.546	8480
901.665	8446
901.784	8526
901.904	8412
902.023	8343
902.141	8240
902.26	8218
902.379	8256
902.498	8214
902.617	8259
902.735	8290
902.854	8294
902.973	8343
903.091	8145
903.21	8134
903.328	8145
903.446	8168
903.565	8103
903.683	8065
903.801	8065
903.919	8142
904.038	8145
904.156	8016
904.274	8134
904.392	8077
904.51	8020
904.627	8027
904.745	8035
904.863	8100
904.981	7974
905.098	7860
905.216	7845
905.334	7925
905.451	7913
905.569	7906
905.686	7963
905.803	7974
905.921	7852
906.038	7845
906.155	7769
906.272	7708
906.389	7780
906.506	7620
906.623	7590
906.74	7605
906.857	7582
906.974	7567
907.091	7677
907.208	7757
907.324	7636
907.441	7578
907.557	7449
907.674	7434
907.79	7472
907.907	7403
908.023	7499
908.139	7445
908.256	7358
908.372	7396
908.488	7327
908.604	7274
908.72	7263
908.836	7346
908.952	7282
909.068	7259
909.184	7278
909.3	7240
909.415	7320
909.531	7308
909.647	7129
909.762	7149
909.878	7095
909.993	7122
910.108	7061
910.224	7095
910.339	7088
910.454	7057
910.57	7019
910.685	6935
910.8	7190
910.915	7114
911.03	7019
911.145	6878
911.259	6901
911.374	6932
911.489	6829
911.604	6844
911.718	6726
911.833	6749
911.947	6646
912.062	6601
912.176	6707
912.291	6745
912.405	6707
912.519	6779
912.633	6863
912.748	6795
912.862	6722
912.976	6616
913.09	6506
913.204	6563
913.318	6642
913.431	6684
913.545	6650
913.659	6688
913.772	6597
913.886	6627
914	6547
914.113	6658
914.226	6616
914.34	6631
914.453	6475
914.566	6589
914.68	6536
914.793	6540
914.906	6391
915.019	6456
915.132	6410
915.245	6441
915.358	6426
915.47	6376
915.583	6479
915.696	6456
915.809	6540
915.921	6585
916.034	6407
916.146	6483
916.259	6369
916.371	6471
916.483	6426
916.595	6376
916.708	6391
916.82	6407
916.932	6372
917.044	6388
917.156	6414
917.268	6334
917.38	6311
917.491	6372
917.603	6327
917.715	6407
917.826	6437
917.938	6433
918.049	6247
918.161	6407
918.272	6399
918.384	6422
918.495	6388
918.606	6251
918.717	6197
918.828	6319
918.939	6254
919.05	6224
919.161	6247
919.272	6140
919.383	6155
919.494	6331
919.604	6403
919.715	6338
919.826	6220
919.936	6266
920.047	6403
920.157	6281
920.267	6418
920.378	6285
920.488	6270
920.598	6483
920.708	6582
920.818	6509
920.928	6410
921.038	6555
921.148	6589
921.258	6296
921.368	6292
921.477	6201
921.587	6140
921.697	6140
921.806	6220
921.916	6106
922.025	5901
922.134	5977
922.244	5889
922.353	5961
922.462	5870
922.571	5821
922.68	5756
922.789	5707
922.898	5745
923.007	5638
923.116	5729
923.224	5668
923.333	5676
923.442	5619
923.55	5566
923.659	5604
923.767	5653
923.876	5573
923.984	5615
924.092	5486
924.201	5570
924.309	5615
924.417	5570
924.525	5463
924.633	5406
924.741	6327
924.849	5379
924.956	5554
925.064	5395
925.172	5315
925.279	5307
925.387	5315
925.494	5330
925.602	5406
925.709	5364
925.816	5250
925.924	5315
926.031	5376
926.138	5315
926.245	5345
926.352	5296
926.459	5284
926.566	5387
926.673	5242
926.779	5124
926.886	5162
926.993	5094
927.099	5037
927.206	5003
927.312	4938
927.419	5041
927.525	4984
927.631	4999
927.737	4953
927.843	4885
927.95	4828
928.056	4816
928.162	4828
928.267	4866
928.373	5345
928.479	4809
928.585	4672
928.69	4740
928.796	4809
928.901	4668
929.007	4599
929.112	4733
929.218	4653
929.323	4618
929.428	4561
929.533	4698
929.638	4538
929.743	4519
929.848	4550
929.953	4523
930.058	4481
930.163	4371
930.267	4390
930.372	4447
930.477	4287
930.581	4489
930.685	4360
930.79	4234
930.894	4303
930.998	4280
931.103	4398
931.207	4139
931.311	4109
931.415	4029
931.519	3945
931.623	3930
