Data from glass_V78500241_2440.txt Node
Date: Wed Sep 01 19:31:24 CST 2021
User: usil
Spectrometer: V785-0024
Trigger mode: 0
Integration Time (sec): 4.000000E-1
Scans to average: 1
Nonlinearity correction enabled: false
Boxcar width: 0
Storing dark spectrum: false
XAxis mode: Wavelengths
Number of Pixels in Spectrum: 1024
>>>>>Begin Spectral Data<<<<<
801.071	3705
801.214	3751
801.356	3686
801.499	3713
801.641	3743
801.783	3781
801.926	3816
802.068	3804
802.211	3857
802.353	3850
802.496	3838
802.638	3854
802.78	3873
802.923	3896
803.065	3884
803.208	3873
803.35	3816
803.492	3911
803.635	3937
803.777	3770
803.919	3896
804.061	4162
804.204	3941
804.346	3964
804.488	3937
804.63	4032
804.773	3968
804.915	4029
805.057	4143
805.199	4036
805.341	4097
805.483	4154
805.626	4128
805.768	4097
805.91	4204
806.052	4188
806.194	4169
806.336	4352
806.478	4207
806.62	4154
806.762	4169
806.904	4268
807.046	4352
807.188	4242
807.33	4158
807.472	4230
807.614	4147
807.756	4227
807.898	4204
808.04	4173
808.182	4284
808.324	4344
808.465	4375
808.607	4421
808.749	4436
808.891	4459
809.033	4481
809.174	4405
809.316	4253
809.458	4249
809.6	4158
809.741	4143
809.883	4162
810.025	4219
810.166	4200
810.308	4188
810.45	4257
810.591	4219
810.733	4291
810.875	4508
811.016	4767
811.158	5113
811.299	5273
811.441	5288
811.582	5064
811.724	4679
811.865	4447
812.007	4478
812.148	4379
812.29	4394
812.431	4417
812.573	4390
812.714	4375
812.855	4398
812.997	4383
813.138	4478
813.279	4383
813.421	4360
813.562	4356
813.703	4325
813.845	4310
813.986	4261
814.127	4207
814.268	4230
814.41	4261
814.551	4257
814.692	4276
814.833	4257
814.974	4287
815.115	4322
815.256	4227
815.397	4261
815.539	4246
815.68	4169
815.821	4188
815.962	4341
816.103	4261
816.244	4223
816.385	4238
816.526	4257
816.666	4192
816.807	4063
816.948	4150
817.089	4173
817.23	4109
817.371	4055
817.512	4051
817.653	4051
817.793	4048
817.934	3998
818.075	4093
818.216	4109
818.356	4090
818.497	3964
818.638	3869
818.778	3896
818.919	3884
819.06	3835
819.2	3899
819.341	3808
819.481	3816
819.622	3880
819.762	3979
819.903	3903
820.043	3827
820.184	3854
820.324	3823
820.465	3911
820.605	3838
820.746	3819
820.886	3797
821.026	3896
821.167	3899
821.307	3983
821.447	3945
821.588	3949
821.728	3922
821.868	3937
822.008	3869
822.149	3903
822.289	3892
822.429	3770
822.569	3736
822.709	3774
822.849	3671
822.99	3686
823.13	3774
823.27	3793
823.41	3698
823.55	3686
823.69	3671
823.83	3743
823.97	3660
824.11	3557
824.25	3568
824.389	3648
824.529	3656
824.669	3610
824.809	3713
824.949	3751
825.089	3724
825.228	3717
825.368	3572
825.508	3515
825.648	3561
825.787	3557
825.927	3629
826.067	3610
826.206	3652
826.346	3789
826.485	3835
826.625	3854
826.765	3915
826.904	3785
827.044	3603
827.183	3534
827.323	3447
827.462	3485
827.601	3416
827.741	3443
827.88	3424
828.02	3374
828.159	3424
828.298	3485
828.437	3530
828.577	3450
828.716	3553
828.855	3462
828.994	3351
829.134	3359
829.273	3355
829.412	3367
829.551	3332
829.69	3378
829.829	3416
829.968	3538
830.107	3443
830.246	3466
830.385	3386
830.524	3355
830.663	3302
830.802	3264
830.941	3203
831.08	3188
831.219	3214
831.357	3241
831.496	3370
831.635	3268
831.774	3173
831.913	3161
832.051	3135
832.19	3116
832.329	3214
832.467	3154
832.606	3074
832.744	3146
832.883	3173
833.022	3161
833.16	3230
833.299	3283
833.437	3359
833.576	3370
833.714	3370
833.852	3412
833.991	3435
834.129	3462
834.267	3412
834.406	3405
834.544	3412
834.682	3409
834.821	3374
834.959	3526
835.097	3412
835.235	3507
835.373	3481
835.511	3466
835.65	3435
835.788	3473
835.926	3367
836.064	3393
836.202	3424
836.34	3591
836.478	3637
836.615	3526
836.753	3580
836.891	3622
837.029	3618
837.167	3599
837.305	3568
837.443	3538
837.58	3466
837.718	3591
837.856	3519
837.993	3485
838.131	3622
838.269	3549
838.406	3538
838.544	3557
838.681	3466
838.819	3409
838.956	3340
839.094	3355
839.231	3378
839.369	3504
839.506	3732
839.643	3644
839.781	3454
839.918	3485
840.055	3481
840.193	3526
840.33	3511
840.467	3538
840.604	3564
840.742	3778
840.879	3481
841.016	3561
841.153	3538
841.29	3675
841.427	3694
841.564	3740
841.701	3713
841.838	3675
841.975	3679
842.112	3740
842.249	3637
842.385	3610
842.522	3812
842.659	3652
842.796	3629
842.933	3682
843.069	3755
843.206	3686
843.343	3759
843.479	3736
843.616	3804
843.752	3648
843.889	3675
844.025	3846
844.162	3701
844.298	3793
844.435	3728
844.571	3759
844.708	3930
844.844	3994
844.98	4040
845.117	3983
845.253	3953
845.389	3888
845.525	3918
845.661	3964
845.798	3903
845.934	4032
846.07	3930
846.206	4010
846.342	4090
846.478	4048
846.614	3968
846.75	3930
846.886	3865
847.022	4048
847.158	3987
847.294	3998
847.429	3979
847.565	3941
847.701	4246
847.837	3846
847.972	3831
848.108	3972
848.244	3975
848.379	3876
848.515	3762
848.65	3819
848.786	3865
848.921	3842
849.057	3911
849.192	3956
849.328	3926
849.463	3892
849.598	3903
849.734	3880
849.869	3812
850.004	3819
850.14	3789
850.275	3770
850.41	3740
850.545	3743
850.68	3835
850.815	3793
850.95	3770
851.085	3949
851.22	3911
851.355	3785
851.49	3812
851.625	3789
851.76	3789
851.895	3698
852.03	3743
852.165	3797
852.299	3800
852.434	3861
852.569	3857
852.703	3861
852.838	3941
852.973	3994
853.107	3975
853.242	3892
853.376	3816
853.511	3785
853.645	3846
853.78	3930
853.914	3869
854.048	3926
854.183	3884
854.317	3926
854.451	4044
854.585	3941
854.72	3930
854.854	4059
854.988	3907
855.122	4006
855.256	3846
855.39	4013
855.524	4124
855.658	4055
855.792	4071
855.926	4105
856.06	4135
856.194	4192
856.327	4143
856.461	4093
856.595	4143
856.729	4162
856.862	4253
856.996	4211
857.13	4272
857.263	4253
857.397	4314
857.53	4295
857.664	4348
857.797	4352
857.931	4398
858.064	4413
858.197	4405
858.331	4379
858.464	4379
858.597	4314
858.731	4455
858.864	4432
858.997	4440
859.13	4516
859.263	4542
859.396	4615
859.529	4489
859.662	4493
859.795	4542
859.928	4561
860.061	4698
860.194	4748
860.327	4660
860.46	4588
860.592	4717
860.725	4771
860.858	4755
860.99	4694
861.123	4725
861.256	4698
861.388	4786
861.521	5577
861.653	4706
861.786	4694
861.918	4782
862.05	4835
862.183	4805
862.315	4911
862.447	4942
862.58	4877
862.712	4790
862.844	4740
862.976	4847
863.108	4828
863.24	5117
863.372	4885
863.504	4911
863.636	4870
863.768	5003
863.9	4911
864.032	4968
864.164	4908
864.296	5029
864.428	5003
864.559	5014
864.691	5143
864.823	5102
864.954	5067
865.086	5159
865.217	5136
865.349	5075
865.48	5181
865.612	5185
865.743	5284
865.875	5128
866.006	5170
866.137	5239
866.269	5201
866.4	5216
866.531	5246
866.662	5261
866.793	5242
866.924	5239
867.055	5337
867.186	5360
867.317	5315
867.448	5322
867.579	5376
867.71	5391
867.841	5345
867.972	5429
868.103	5414
868.233	5505
868.364	5501
868.495	5551
868.625	5619
868.756	5752
868.886	5649
869.017	5722
869.147	5836
869.278	5847
869.408	5855
869.539	5809
869.669	5882
869.799	5942
869.929	6015
870.06	6011
870.19	6167
870.32	6163
870.45	6224
870.58	6300
870.71	6376
870.84	6452
870.97	6429
871.1	6467
871.23	6642
871.36	6688
871.489	6642
871.619	6722
871.749	6776
871.879	6833
872.008	6970
872.138	6935
872.267	7012
872.397	6962
872.526	7019
872.656	7027
872.785	7156
872.915	7396
873.044	7518
873.173	7563
873.303	7594
873.432	7689
873.561	7913
873.69	7917
873.819	8016
873.948	8187
874.077	8210
874.206	8339
874.335	8400
874.464	8606
874.593	8849
874.722	8887
874.851	9154
874.979	9150
875.108	9313
875.237	9450
875.365	9428
875.494	9618
875.623	9835
875.751	9808
875.88	9941
876.008	10025
876.136	10303
876.265	10527
876.393	10698
876.521	10725
876.65	10934
876.778	10782
876.906	10942
877.034	11037
877.162	11090
877.29	11121
877.418	11269
877.546	11334
877.674	11410
877.802	11425
877.93	11482
878.058	11471
878.185	11581
878.313	11699
878.441	11718
878.568	11665
878.696	11745
878.824	11870
878.951	11961
879.079	11950
879.206	12072
879.333	12060
879.461	11935
879.588	12011
879.715	12125
879.842	12182
879.97	12003
880.097	11912
880.224	11866
880.351	11931
880.478	11870
880.605	11771
880.732	11783
880.859	11984
880.986	11813
881.112	11794
881.239	11688
881.366	11630
881.493	11577
881.619	11520
881.746	11539
881.872	11551
881.999	11425
882.125	11455
882.252	11551
882.378	11509
882.505	11573
882.631	11334
882.757	11296
882.883	11315
883.01	11231
883.136	11140
883.262	11121
883.388	11128
883.514	11136
883.64	11132
883.766	11071
883.892	10968
884.018	11018
884.143	11048
884.269	11052
884.395	10919
884.52	10759
884.646	10793
884.772	10641
884.897	10706
885.023	10656
885.148	10687
885.274	10736
885.399	10656
885.524	10618
885.65	10618
885.775	10546
885.9	10558
886.025	10596
886.15	10645
886.275	10436
886.4	10390
886.525	10371
886.65	10344
886.775	10341
886.9	10474
887.025	10402
887.149	10295
887.274	10223
887.399	10196
887.523	10143
887.648	10181
887.773	10101
887.897	10234
888.021	10318
888.146	10105
888.27	10188
888.395	10265
888.519	10112
888.643	10219
888.767	10116
888.891	10055
889.015	9987
889.139	10036
889.263	9880
889.387	10051
889.511	10078
889.635	10097
889.759	9987
889.883	10002
890.006	9987
890.13	10086
890.254	10006
890.377	9975
890.501	9831
890.624	9930
890.748	9873
890.871	9755
890.995	9713
891.118	9667
891.241	9789
891.364	9717
891.488	9808
891.611	9701
891.734	9724
891.857	9720
891.98	9717
892.103	9755
892.226	9751
892.349	9682
892.471	9515
892.594	9580
892.717	9580
892.839	9580
892.962	9568
893.085	9648
893.207	9561
893.33	9447
893.452	9534
893.575	9561
893.697	9557
893.819	9606
893.941	9587
894.064	9675
894.186	9469
894.308	9367
894.43	9447
894.552	9553
894.674	9519
894.796	9359
894.918	9351
895.04	9344
895.161	9363
895.283	9310
895.405	9203
895.526	9302
895.648	9230
895.769	9214
895.891	9264
896.012	9230
896.134	9154
896.255	9192
896.376	9150
896.498	9184
896.619	9119
896.74	9085
896.861	9093
896.982	9218
897.103	9275
897.224	9085
897.345	9085
897.466	8952
897.587	9039
897.708	9036
897.828	9024
897.949	8902
898.07	8830
898.19	8876
898.311	9009
898.431	8910
898.552	8910
898.672	8899
898.792	8864
898.913	8834
899.033	8842
899.153	8731
899.273	8720
899.393	8712
899.513	8762
899.633	8754
899.753	8739
899.873	8663
899.993	8724
900.113	8697
900.232	8674
900.352	8632
900.472	8610
900.591	8518
900.711	8594
900.83	8564
900.95	8655
901.069	8667
901.189	8568
901.308	8404
901.427	8324
901.546	8431
901.665	8454
901.784	8522
901.904	8393
902.023	8279
902.141	8233
902.26	8195
902.379	8271
902.498	8210
902.617	8199
902.735	8309
902.854	8244
902.973	8271
903.091	8168
903.21	8016
903.328	8149
903.446	8077
903.565	7967
903.683	8027
903.801	8065
903.919	8088
904.038	8145
904.156	7947
904.274	8096
904.392	8058
904.51	8016
904.627	8024
904.745	7993
904.863	8081
904.981	7955
905.098	7845
905.216	7811
905.334	7894
905.451	7864
905.569	7871
905.686	7917
905.803	7959
905.921	7750
906.038	7761
906.155	7833
906.272	7704
906.389	7681
906.506	7597
906.623	7643
906.74	7540
906.857	7571
906.974	7620
907.091	7674
907.208	7727
907.324	7594
907.441	7605
907.557	7506
907.674	7396
907.79	7358
907.907	7384
908.023	7426
908.139	7430
908.256	7422
908.372	7346
908.488	7316
908.604	7247
908.72	7240
908.836	7251
908.952	7187
909.068	7232
909.184	7316
909.3	7145
909.415	7244
909.531	7232
909.647	7194
909.762	7072
909.878	7072
909.993	7042
910.108	7110
910.224	7080
910.339	7103
910.454	7050
910.57	6943
910.685	6932
910.8	7175
910.915	7080
911.03	7008
911.145	6905
911.259	6806
911.374	6958
911.489	6821
911.604	6818
911.718	6650
911.833	6726
911.947	6673
912.062	6601
912.176	6707
912.291	6688
912.405	6688
912.519	6833
912.633	6787
912.748	6700
912.862	6700
912.976	6612
913.09	6475
913.204	6612
913.318	6650
913.431	6627
913.545	6696
913.659	6658
913.772	6612
913.886	6555
914	6547
914.113	6681
914.226	6608
914.34	6551
914.453	6494
914.566	6597
914.68	6578
914.793	6547
914.906	6452
915.019	6342
915.132	6361
915.245	6448
915.358	6429
915.47	6429
915.583	6483
915.696	6483
915.809	6544
915.921	6559
916.034	6414
916.146	6376
916.259	6357
916.371	6517
916.483	6456
916.595	6403
916.708	6388
916.82	6361
916.932	6372
917.044	6365
917.156	6391
917.268	6304
917.38	6319
917.491	6372
917.603	6285
917.715	6410
917.826	6350
917.938	6338
918.049	6213
918.161	6357
918.272	6350
918.384	6422
918.495	6308
918.606	6251
918.717	6182
918.828	6251
918.939	6266
919.05	6216
919.161	6228
919.272	6095
919.383	6125
919.494	6254
919.604	6426
919.715	6232
919.826	6197
919.936	6304
920.047	6277
920.157	6277
920.267	6433
920.378	6285
920.488	6319
920.598	6441
920.708	6490
920.818	6448
920.928	6426
921.038	6597
921.148	6570
921.258	6334
921.368	6220
921.477	6201
921.587	6163
921.697	6106
921.806	6201
921.916	6038
922.025	5935
922.134	5923
922.244	5783
922.353	5980
922.462	5836
922.571	5786
922.68	5703
922.789	5699
922.898	5699
923.007	5634
923.116	5703
923.224	5623
923.333	5611
923.442	5570
923.55	5589
923.659	5589
923.767	5611
923.876	5493
923.984	5577
924.092	5467
924.201	5551
924.309	5516
924.417	5535
924.525	5490
924.633	5482
924.741	6243
924.849	5334
924.956	5467
925.064	5349
925.172	5307
925.279	5284
925.387	5353
925.494	5311
925.602	5383
925.709	5357
925.816	5261
925.924	5334
926.031	5345
926.138	5250
926.245	5315
926.352	5235
926.459	5337
926.566	5296
926.673	5216
926.779	5121
926.886	5105
926.993	5052
927.099	4980
927.206	4957
927.312	4934
927.419	5006
927.525	4915
927.631	4923
927.737	4908
927.843	4877
927.95	4759
928.056	4805
928.162	4801
928.267	4828
928.373	5246
928.479	4881
928.585	4645
928.69	4748
928.796	4786
928.901	4653
929.007	4558
929.112	4672
929.218	4584
929.323	4603
929.428	4573
929.533	4668
929.638	4500
929.743	4531
929.848	4569
929.953	4508
930.058	4440
930.163	4303
930.267	4306
930.372	4428
930.477	4318
930.581	4493
930.685	4405
930.79	4200
930.894	4291
930.998	4280
931.103	4360
931.207	4090
931.311	4071
931.415	4021
931.519	3937
931.623	3934
