Data from glass_V78500241_840.txt Node
Date: Wed Sep 01 19:20:19 CST 2021
User: usil
Spectrometer: V785-0024
Trigger mode: 0
Integration Time (sec): 4.000000E-1
Scans to average: 1
Nonlinearity correction enabled: false
Boxcar width: 0
Storing dark spectrum: false
XAxis mode: Wavelengths
Number of Pixels in Spectrum: 1024
>>>>>Begin Spectral Data<<<<<
801.071	3740
801.214	3808
801.356	3724
801.499	3766
801.641	3751
801.783	3778
801.926	3892
802.068	3857
802.211	3827
802.353	3930
802.496	3838
802.638	3934
802.78	3934
802.923	3934
803.065	3907
803.208	3838
803.35	3854
803.492	3953
803.635	3945
803.777	3846
803.919	3857
804.061	4131
804.204	3975
804.346	3953
804.488	3983
804.63	4074
804.773	4025
804.915	4048
805.057	4147
805.199	4074
805.341	4078
805.483	4147
805.626	4192
805.768	4181
805.91	4204
806.052	4253
806.194	4219
806.336	4363
806.478	4261
806.62	4158
806.762	4192
806.904	4268
807.046	4337
807.188	4249
807.33	4177
807.472	4249
807.614	4215
807.756	4265
807.898	4200
808.04	4207
808.182	4299
808.324	4329
808.465	4417
808.607	4451
808.749	4436
808.891	4493
809.033	4500
809.174	4417
809.316	4253
809.458	4219
809.6	4158
809.741	4135
809.883	4166
810.025	4276
810.166	4207
810.308	4253
810.45	4230
810.591	4177
810.733	4303
810.875	4512
811.016	4854
811.158	5105
811.299	5261
811.441	5288
811.582	5105
811.724	4717
811.865	4474
812.007	4485
812.148	4474
812.29	4428
812.431	4398
812.573	4455
812.714	4398
812.855	4383
812.997	4413
813.138	4481
813.279	4451
813.421	4402
813.562	4375
813.703	4318
813.845	4291
813.986	4249
814.127	4280
814.268	4284
814.41	4276
814.551	4287
814.692	4379
814.833	4276
814.974	4314
815.115	4379
815.256	4261
815.397	4242
815.539	4303
815.68	4181
815.821	4192
815.962	4306
816.103	4295
816.244	4192
816.385	4246
816.526	4261
816.666	4211
816.807	4078
816.948	4188
817.089	4211
817.23	4131
817.371	4074
817.512	4036
817.653	4086
817.793	4051
817.934	4021
818.075	4124
818.216	4124
818.356	4105
818.497	4010
818.638	3949
818.778	3896
818.919	3888
819.06	3865
819.2	3922
819.341	3857
819.481	3854
819.622	3926
819.762	4055
819.903	3979
820.043	3861
820.184	3876
820.324	3823
820.465	3884
820.605	3918
820.746	3854
820.886	3778
821.026	3918
821.167	3915
821.307	4040
821.447	3991
821.588	3945
821.728	3979
821.868	3956
822.008	3896
822.149	3964
822.289	3953
822.429	3774
822.569	3793
822.709	3842
822.849	3709
822.99	3759
823.13	3751
823.27	3770
823.41	3751
823.55	3736
823.69	3720
823.83	3762
823.97	3667
824.11	3633
824.25	3606
824.389	3610
824.529	3679
824.669	3648
824.809	3724
824.949	3770
825.089	3709
825.228	3660
825.368	3610
825.508	3587
825.648	3622
825.787	3637
825.927	3641
826.067	3622
826.206	3698
826.346	3781
826.485	3823
826.625	3884
826.765	3964
826.904	3850
827.044	3641
827.183	3534
827.323	3450
827.462	3488
827.601	3462
827.741	3431
827.88	3420
828.02	3378
828.159	3488
828.298	3485
828.437	3557
828.577	3458
828.716	3633
828.855	3485
828.994	3393
829.134	3393
829.273	3397
829.412	3367
829.551	3378
829.69	3397
829.829	3420
829.968	3519
830.107	3462
830.246	3492
830.385	3420
830.524	3351
830.663	3329
830.802	3272
830.941	3207
831.08	3207
831.219	3249
831.357	3283
831.496	3393
831.635	3249
831.774	3169
831.913	3180
832.051	3154
832.19	3176
832.329	3211
832.467	3150
832.606	3093
832.744	3180
832.883	3180
833.022	3211
833.16	3272
833.299	3302
833.437	3321
833.576	3382
833.714	3416
833.852	3443
833.991	3443
834.129	3500
834.267	3473
834.406	3416
834.544	3435
834.682	3397
834.821	3473
834.959	3561
835.097	3466
835.235	3572
835.373	3500
835.511	3500
835.65	3454
835.788	3492
835.926	3393
836.064	3363
836.202	3405
836.34	3610
836.478	3625
836.615	3561
836.753	3572
836.891	3652
837.029	3656
837.167	3580
837.305	3584
837.443	3572
837.58	3511
837.718	3625
837.856	3557
837.993	3519
838.131	3591
838.269	3564
838.406	3564
838.544	3618
838.681	3500
838.819	3439
838.956	3382
839.094	3443
839.231	3473
839.369	3545
839.506	3751
839.643	3690
839.781	3526
839.918	3473
840.055	3538
840.193	3576
840.33	3553
840.467	3610
840.604	3603
840.742	3797
840.879	3587
841.016	3576
841.153	3595
841.29	3789
841.427	3740
841.564	3698
841.701	3755
841.838	3743
841.975	3679
842.112	3720
842.249	3663
842.385	3633
842.522	3831
842.659	3720
842.796	3682
842.933	3736
843.069	3709
843.206	3743
843.343	3793
843.479	3823
843.616	3812
843.752	3660
843.889	3724
844.025	3884
844.162	3720
844.298	3812
844.435	3804
844.571	3808
844.708	3907
844.844	4006
844.98	4036
845.117	4040
845.253	3937
845.389	3937
845.525	3983
845.661	4017
845.798	3922
845.934	4006
846.07	3972
846.206	4029
846.342	4112
846.478	4105
846.614	3994
846.75	3964
846.886	3922
847.022	4025
847.158	4002
847.294	3991
847.429	4074
847.565	4013
847.701	4253
847.837	3949
847.972	3903
848.108	3956
848.244	3983
848.379	3884
848.515	3804
848.65	3869
848.786	3861
848.921	3911
849.057	3968
849.192	3991
849.328	3892
849.463	3918
849.598	3873
849.734	3899
849.869	3838
850.004	3774
850.14	3842
850.275	3793
850.41	3713
850.545	3736
850.68	3789
850.815	3793
850.95	3812
851.085	3964
851.22	3896
851.355	3850
851.49	3797
851.625	3800
851.76	3812
851.895	3740
852.03	3732
852.165	3827
852.299	3884
852.434	3949
852.569	3918
852.703	3937
852.838	4006
852.973	3994
853.107	4002
853.242	3888
853.376	3876
853.511	3804
853.645	3869
853.78	3987
853.914	3884
854.048	3915
854.183	3899
854.317	3964
854.451	4044
854.585	3941
854.72	3945
854.854	4029
854.988	3922
855.122	3998
855.256	3937
855.39	4006
855.524	4135
855.658	4097
855.792	4120
855.926	4147
856.06	4227
856.194	4215
856.327	4143
856.461	4143
856.595	4185
856.729	4196
856.862	4253
856.996	4261
857.13	4322
857.263	4306
857.397	4379
857.53	4287
857.664	4363
857.797	4459
857.931	4443
858.064	4436
858.197	4443
858.331	4421
858.464	4405
858.597	4386
858.731	4436
858.864	4489
858.997	4478
859.13	4527
859.263	4523
859.396	4622
859.529	4523
859.662	4550
859.795	4554
859.928	4649
860.061	4702
860.194	4755
860.327	4675
860.46	4634
860.592	4698
860.725	4812
860.858	4801
860.99	4683
861.123	4702
861.256	4717
861.388	4748
861.521	5414
861.653	4763
861.786	4736
861.918	4778
862.05	4801
862.183	4850
862.315	4889
862.447	4999
862.58	4870
862.712	4812
862.844	4797
862.976	4858
863.108	4839
863.24	5185
863.372	4816
863.504	4892
863.636	4908
863.768	4987
863.9	4938
864.032	4946
864.164	4965
864.296	5075
864.428	5105
864.559	5117
864.691	5113
864.823	5079
864.954	5132
865.086	5151
865.217	5117
865.349	5105
865.48	5143
865.612	5197
865.743	5322
865.875	5227
866.006	5204
866.137	5265
866.269	5185
866.4	5235
866.531	5189
866.662	5216
866.793	5250
866.924	5299
867.055	5337
867.186	5341
867.317	5273
867.448	5292
867.579	5410
867.71	5391
867.841	5410
867.972	5497
868.103	5459
868.233	5539
868.364	5474
868.495	5512
868.625	5733
868.756	5783
868.886	5676
869.017	5802
869.147	5912
869.278	5828
869.408	5851
869.539	5836
869.669	5935
869.799	5946
869.929	6060
870.06	5980
870.19	6213
870.32	6152
870.45	6273
870.58	6433
870.71	6380
870.84	6494
870.97	6426
871.1	6452
871.23	6692
871.36	6692
871.489	6677
871.619	6783
871.749	6821
871.879	6897
872.008	7031
872.138	6958
872.267	6973
872.397	6954
872.526	7015
872.656	7160
872.785	7187
872.915	7388
873.044	7540
873.173	7628
873.303	7655
873.432	7757
873.561	7932
873.69	7947
873.819	8031
873.948	8244
874.077	8271
874.206	8381
874.335	8473
874.464	8610
874.593	8914
874.722	8921
874.851	9150
874.979	9218
875.108	9393
875.237	9504
875.365	9488
875.494	9679
875.623	9888
875.751	9781
875.88	9991
876.008	10173
876.136	10280
876.265	10558
876.393	10687
876.521	10782
876.65	10820
876.778	10877
876.906	10908
877.034	11075
877.162	11083
877.29	11258
877.418	11414
877.546	11391
877.674	11444
877.802	11493
877.93	11497
878.058	11528
878.185	11642
878.313	11699
878.441	11790
878.568	11642
878.696	11824
878.824	11870
878.951	11870
879.079	12022
879.206	12152
879.333	12011
879.461	11977
879.588	12057
879.715	12019
879.842	12258
879.97	12038
880.097	11946
880.224	11828
880.351	11950
880.478	11882
880.605	11923
880.732	11874
880.859	11999
880.986	11840
881.112	11859
881.239	11767
881.366	11707
881.493	11615
881.619	11611
881.746	11615
881.872	11505
881.999	11543
882.125	11474
882.252	11570
882.378	11535
882.505	11600
882.631	11395
882.757	11406
882.883	11334
883.01	11296
883.136	11265
883.262	11185
883.388	11140
883.514	11273
883.64	11166
883.766	11147
883.892	11102
884.018	11006
884.143	11022
884.269	11064
884.395	10885
884.52	10854
884.646	10782
884.772	10668
884.897	10698
885.023	10672
885.148	10778
885.274	10816
885.399	10782
885.524	10611
885.65	10622
885.775	10599
885.9	10546
886.025	10687
886.15	10592
886.275	10470
886.4	10375
886.525	10474
886.65	10344
886.775	10344
886.9	10443
887.025	10527
887.149	10299
887.274	10268
887.399	10131
887.523	10185
887.648	10188
887.773	10067
887.897	10223
888.021	10280
888.146	10181
888.27	10230
888.395	10196
888.519	10223
888.643	10196
888.767	10188
888.891	10082
889.015	10029
889.139	10150
889.263	10021
889.387	10078
889.511	10063
889.635	10029
889.759	9979
889.883	9953
890.006	10032
890.13	10143
890.254	9983
890.377	9922
890.501	9854
890.624	9816
890.748	9857
890.871	9812
890.995	9728
891.118	9728
891.241	9781
891.364	9724
891.488	9743
891.611	9724
891.734	9781
891.857	9793
891.98	9671
892.103	9797
892.226	9682
892.349	9682
892.471	9435
892.594	9618
892.717	9629
892.839	9618
892.962	9637
893.085	9663
893.207	9610
893.33	9576
893.452	9523
893.575	9599
893.697	9603
893.819	9637
893.941	9682
894.064	9629
894.186	9481
894.308	9424
894.43	9523
894.552	9561
894.674	9545
894.796	9393
894.918	9355
895.04	9389
895.161	9310
895.283	9397
895.405	9260
895.526	9256
895.648	9294
895.769	9272
895.891	9306
896.012	9298
896.134	9222
896.255	9176
896.376	9154
896.498	9184
896.619	9176
896.74	9119
896.861	9066
896.982	9253
897.103	9294
897.224	9203
897.345	9093
897.466	9058
897.587	9020
897.708	9081
897.828	9032
897.949	8986
898.07	8857
898.19	8925
898.311	8982
898.431	8906
898.552	8899
898.672	8994
898.792	8975
898.913	8937
899.033	8804
899.153	8788
899.273	8663
899.393	8773
899.513	8766
899.633	8746
899.753	8796
899.873	8686
899.993	8773
900.113	8781
900.232	8708
900.352	8678
900.472	8663
900.591	8659
900.711	8659
900.83	8492
900.95	8712
901.069	8648
901.189	8621
901.308	8446
901.427	8419
901.546	8442
901.665	8461
901.784	8526
901.904	8404
902.023	8332
902.141	8267
902.26	8252
902.379	8244
902.498	8221
902.617	8187
902.735	8324
902.854	8290
902.973	8221
903.091	8164
903.21	8107
903.328	8183
903.446	8130
903.565	8046
903.683	8092
903.801	8088
903.919	8149
904.038	8183
904.156	7959
904.274	8096
904.392	8012
904.51	8050
904.627	8115
904.745	8103
904.863	8062
904.981	7967
905.098	7871
905.216	7875
905.334	7902
905.451	7909
905.569	7868
905.686	7871
905.803	7898
905.921	7860
906.038	7898
906.155	7830
906.272	7723
906.389	7780
906.506	7647
906.623	7674
906.74	7575
906.857	7597
906.974	7514
907.091	7681
907.208	7776
907.324	7632
907.441	7537
907.557	7499
907.674	7434
907.79	7384
907.907	7384
908.023	7540
908.139	7415
908.256	7464
908.372	7392
908.488	7327
908.604	7324
908.72	7225
908.836	7285
908.952	7301
909.068	7285
909.184	7305
909.3	7301
909.415	7274
909.531	7266
909.647	7103
909.762	7091
909.878	7107
909.993	7107
910.108	7069
910.224	7107
910.339	7122
910.454	7091
910.57	7053
910.685	6932
910.8	7133
910.915	7107
911.03	7019
911.145	6916
911.259	6890
911.374	6924
911.489	6882
911.604	6837
911.718	6783
911.833	6703
911.947	6627
912.062	6616
912.176	6593
912.291	6707
912.405	6703
912.519	6818
912.633	6844
912.748	6722
912.862	6639
912.976	6616
913.09	6555
913.204	6608
913.318	6623
913.431	6684
913.545	6700
913.659	6726
913.772	6711
913.886	6654
914	6589
914.113	6608
914.226	6635
914.34	6589
914.453	6528
914.566	6582
914.68	6494
914.793	6555
914.906	6407
915.019	6391
915.132	6323
915.245	6445
915.358	6464
915.47	6506
915.583	6509
915.696	6528
915.809	6582
915.921	6532
916.034	6448
916.146	6372
916.259	6395
916.371	6502
916.483	6467
916.595	6410
916.708	6498
916.82	6403
916.932	6407
917.044	6414
917.156	6429
917.268	6277
917.38	6365
917.491	6319
917.603	6315
917.715	6437
917.826	6456
917.938	6365
918.049	6228
918.161	6380
918.272	6437
918.384	6464
918.495	6361
918.606	6232
918.717	6213
918.828	6296
918.939	6262
919.05	6220
919.161	6247
919.272	6144
919.383	6205
919.494	6300
919.604	6426
919.715	6331
919.826	6251
919.936	6220
920.047	6289
920.157	6277
920.267	6441
920.378	6315
920.488	6273
920.598	6467
920.708	6525
920.818	6426
920.928	6448
921.038	6608
921.148	6555
921.258	6357
921.368	6277
921.477	6254
921.587	6175
921.697	6163
921.806	6216
921.916	6102
922.025	5958
922.134	5950
922.244	5866
922.353	5980
922.462	5809
922.571	5771
922.68	5707
922.789	5627
922.898	5710
923.007	5680
923.116	5661
923.224	5691
923.333	5665
923.442	5627
923.55	5600
923.659	5600
923.767	5604
923.876	5581
923.984	5691
924.092	5512
924.201	5581
924.309	5562
924.417	5573
924.525	5478
924.633	5482
924.741	6125
924.849	5448
924.956	5493
925.064	5387
925.172	5322
925.279	5330
925.387	5341
925.494	5349
925.602	5467
925.709	5376
925.816	5296
925.924	5318
926.031	5379
926.138	5299
926.245	5341
926.352	5242
926.459	5292
926.566	5326
926.673	5220
926.779	5170
926.886	5143
926.993	5022
927.099	5022
927.206	4976
927.312	4949
927.419	5033
927.525	4987
927.631	4953
927.737	4949
927.843	4843
927.95	4790
928.056	4828
928.162	4778
928.267	4900
928.373	5379
928.479	4862
928.585	4664
928.69	4778
928.796	4801
928.901	4717
929.007	4641
929.112	4706
929.218	4694
929.323	4584
929.428	4535
929.533	4725
929.638	4512
929.743	4554
929.848	4527
929.953	4462
930.058	4497
930.163	4287
930.267	4379
930.372	4459
930.477	4299
930.581	4500
930.685	4390
930.79	4265
930.894	4337
930.998	4299
931.103	4386
931.207	4150
931.311	4112
931.415	4101
931.519	3964
931.623	3968
