Data from glass_V78500241_1027.txt Node
Date: Wed Sep 01 19:21:37 CST 2021
User: usil
Spectrometer: V785-0024
Trigger mode: 0
Integration Time (sec): 4.000000E-1
Scans to average: 1
Nonlinearity correction enabled: false
Boxcar width: 0
Storing dark spectrum: false
XAxis mode: Wavelengths
Number of Pixels in Spectrum: 1024
>>>>>Begin Spectral Data<<<<<
801.071	3740
801.214	3789
801.356	3705
801.499	3740
801.641	3705
801.783	3804
801.926	3854
802.068	3797
802.211	3850
802.353	3945
802.496	3873
802.638	3903
802.78	3880
802.923	3968
803.065	3918
803.208	3861
803.35	3869
803.492	3915
803.635	3915
803.777	3869
803.919	3930
804.061	4173
804.204	3941
804.346	3911
804.488	3937
804.63	4063
804.773	4017
804.915	4025
805.057	4166
805.199	4040
805.341	4071
805.483	4128
805.626	4158
805.768	4109
805.91	4185
806.052	4238
806.194	4246
806.336	4352
806.478	4223
806.62	4204
806.762	4185
806.904	4265
807.046	4390
807.188	4227
807.33	4192
807.472	4249
807.614	4234
807.756	4268
807.898	4238
808.04	4227
808.182	4295
808.324	4371
808.465	4363
808.607	4493
808.749	4455
808.891	4516
809.033	4519
809.174	4436
809.316	4280
809.458	4276
809.6	4131
809.741	4112
809.883	4139
810.025	4265
810.166	4185
810.308	4211
810.45	4238
810.591	4246
810.733	4341
810.875	4550
811.016	4858
811.158	5162
811.299	5231
811.441	5349
811.582	5079
811.724	4683
811.865	4478
812.007	4474
812.148	4402
812.29	4413
812.431	4413
812.573	4424
812.714	4390
812.855	4398
812.997	4417
813.138	4516
813.279	4383
813.421	4409
813.562	4371
813.703	4314
813.845	4383
813.986	4257
814.127	4200
814.268	4272
814.41	4265
814.551	4310
814.692	4337
814.833	4268
814.974	4333
815.115	4344
815.256	4261
815.397	4242
815.539	4238
815.68	4181
815.821	4234
815.962	4348
816.103	4287
816.244	4265
816.385	4230
816.526	4272
816.666	4188
816.807	4090
816.948	4192
817.089	4207
817.23	4135
817.371	4051
817.512	4048
817.653	4116
817.793	4040
817.934	4029
818.075	4116
818.216	4158
818.356	4112
818.497	4002
818.638	3960
818.778	3907
818.919	3926
819.06	3896
819.2	3907
819.341	3865
819.481	3842
819.622	3926
819.762	4032
819.903	3968
820.043	3899
820.184	3850
820.324	3823
820.465	3884
820.605	3892
820.746	3846
820.886	3800
821.026	3896
821.167	3911
821.307	3975
821.447	3991
821.588	3960
821.728	3972
821.868	3956
822.008	3892
822.149	3911
822.289	3934
822.429	3785
822.569	3785
822.709	3800
822.849	3690
822.99	3728
823.13	3743
823.27	3759
823.41	3724
823.55	3728
823.69	3759
823.83	3755
823.97	3667
824.11	3587
824.25	3625
824.389	3652
824.529	3663
824.669	3633
824.809	3759
824.949	3743
825.089	3747
825.228	3705
825.368	3599
825.508	3545
825.648	3584
825.787	3580
825.927	3610
826.067	3606
826.206	3717
826.346	3800
826.485	3808
826.625	3892
826.765	3930
826.904	3823
827.044	3644
827.183	3545
827.323	3477
827.462	3507
827.601	3428
827.741	3416
827.88	3485
828.02	3393
828.159	3454
828.298	3481
828.437	3561
828.577	3496
828.716	3549
828.855	3488
828.994	3363
829.134	3370
829.273	3367
829.412	3378
829.551	3317
829.69	3405
829.829	3443
829.968	3523
830.107	3469
830.246	3409
830.385	3359
830.524	3325
830.663	3287
830.802	3272
830.941	3180
831.08	3218
831.219	3268
831.357	3268
831.496	3420
831.635	3249
831.774	3138
831.913	3222
832.051	3108
832.19	3150
832.329	3203
832.467	3150
832.606	3112
832.744	3146
832.883	3199
833.022	3188
833.16	3253
833.299	3321
833.437	3351
833.576	3378
833.714	3447
833.852	3443
833.991	3443
834.129	3511
834.267	3466
834.406	3397
834.544	3469
834.682	3420
834.821	3439
834.959	3595
835.097	3431
835.235	3538
835.373	3523
835.511	3545
835.65	3477
835.788	3492
835.926	3409
836.064	3382
836.202	3424
836.34	3625
836.478	3599
836.615	3580
836.753	3618
836.891	3682
837.029	3648
837.167	3618
837.305	3545
837.443	3572
837.58	3526
837.718	3641
837.856	3591
837.993	3526
838.131	3603
838.269	3587
838.406	3572
838.544	3538
838.681	3473
838.819	3447
838.956	3389
839.094	3424
839.231	3485
839.369	3542
839.506	3747
839.643	3633
839.781	3534
839.918	3477
840.055	3538
840.193	3542
840.33	3564
840.467	3606
840.604	3599
840.742	3819
840.879	3549
841.016	3572
841.153	3595
841.29	3762
841.427	3732
841.564	3740
841.701	3751
841.838	3705
841.975	3679
842.112	3755
842.249	3652
842.385	3652
842.522	3831
842.659	3717
842.796	3682
842.933	3709
843.069	3701
843.206	3728
843.343	3804
843.479	3789
843.616	3842
843.752	3686
843.889	3679
844.025	3869
844.162	3751
844.298	3899
844.435	3846
844.571	3785
844.708	3922
844.844	3994
844.98	4013
845.117	4006
845.253	3934
845.389	3915
845.525	3991
845.661	3979
845.798	3903
845.934	4044
846.07	3945
846.206	4055
846.342	4105
846.478	4093
846.614	3956
846.75	3918
846.886	3896
847.022	4021
847.158	3968
847.294	3979
847.429	4040
847.565	3983
847.701	4200
847.837	3915
847.972	3857
848.108	3975
848.244	3953
848.379	3888
848.515	3838
848.65	3835
848.786	3823
848.921	3896
849.057	3937
849.192	3972
849.328	3892
849.463	3896
849.598	3869
849.734	3876
849.869	3873
850.004	3789
850.14	3827
850.275	3812
850.41	3709
850.545	3781
850.68	3774
850.815	3816
850.95	3762
851.085	3968
851.22	3892
851.355	3854
851.49	3800
851.625	3808
851.76	3797
851.895	3793
852.03	3724
852.165	3816
852.299	3865
852.434	3915
852.569	3850
852.703	3899
852.838	3918
852.973	3994
853.107	4013
853.242	3918
853.376	3869
853.511	3797
853.645	3797
853.78	4006
853.914	3888
854.048	3899
854.183	3930
854.317	3937
854.451	4055
854.585	3953
854.72	3960
854.854	4063
854.988	3937
855.122	4044
855.256	3907
855.39	3998
855.524	4116
855.658	4078
855.792	4097
855.926	4105
856.06	4181
856.194	4280
856.327	4169
856.461	4143
856.595	4192
856.729	4185
856.862	4295
856.996	4265
857.13	4325
857.263	4356
857.397	4363
857.53	4280
857.664	4398
857.797	4424
857.931	4451
858.064	4413
858.197	4451
858.331	4394
858.464	4413
858.597	4383
858.731	4421
858.864	4443
858.997	4459
859.13	4558
859.263	4504
859.396	4603
859.529	4542
859.662	4523
859.795	4584
859.928	4626
860.061	4691
860.194	4736
860.327	4641
860.46	4637
860.592	4744
860.725	4816
860.858	4778
860.99	4683
861.123	4740
861.256	4721
861.388	4763
861.521	5497
861.653	4733
861.786	4729
861.918	4778
862.05	4782
862.183	4839
862.315	4885
862.447	4984
862.58	4858
862.712	4790
862.844	4771
862.976	4885
863.108	4873
863.24	5269
863.372	4805
863.504	4889
863.636	4900
863.768	4946
863.9	4999
864.032	4911
864.164	4980
864.296	5056
864.428	5121
864.559	5102
864.691	5064
864.823	5159
864.954	5128
865.086	5166
865.217	5174
865.349	5140
865.48	5124
865.612	5181
865.743	5337
865.875	5170
866.006	5143
866.137	5235
866.269	5280
866.4	5296
866.531	5280
866.662	5261
866.793	5307
866.924	5292
867.055	5326
867.186	5318
867.317	5387
867.448	5341
867.579	5364
867.71	5379
867.841	5398
867.972	5455
868.103	5535
868.233	5505
868.364	5467
868.495	5592
868.625	5688
868.756	5809
868.886	5722
869.017	5756
869.147	5874
869.278	5859
869.408	5798
869.539	5828
869.669	5916
869.799	5950
869.929	5977
870.06	6007
870.19	6194
870.32	6224
870.45	6277
870.58	6388
870.71	6414
870.84	6452
870.97	6467
871.1	6418
871.23	6631
871.36	6726
871.489	6623
871.619	6745
871.749	6768
871.879	6852
872.008	7000
872.138	6993
872.267	7008
872.397	7042
872.526	7023
872.656	7145
872.785	7213
872.915	7396
873.044	7567
873.173	7582
873.303	7632
873.432	7799
873.561	7902
873.69	7944
873.819	8084
873.948	8237
874.077	8305
874.206	8336
874.335	8473
874.464	8648
874.593	8807
874.722	9017
874.851	9119
874.979	9313
875.108	9424
875.237	9408
875.365	9420
875.494	9633
875.623	9819
875.751	9869
875.88	10006
876.008	10166
876.136	10284
876.265	10478
876.393	10721
876.521	10767
876.65	10801
876.778	10919
876.906	10949
877.034	11045
877.162	11083
877.29	11113
877.418	11231
877.546	11288
877.674	11406
877.802	11520
877.93	11570
878.058	11611
878.185	11596
878.313	11764
878.441	11722
878.568	11703
878.696	11847
878.824	11851
878.951	11901
879.079	12041
879.206	12049
879.333	12175
879.461	11973
879.588	12057
879.715	12098
879.842	12148
879.97	12057
880.097	11954
880.224	11958
880.351	11954
880.478	11901
880.605	11882
880.732	11821
880.859	12098
880.986	11752
881.112	11821
881.239	11676
881.366	11627
881.493	11638
881.619	11570
881.746	11516
881.872	11554
881.999	11543
882.125	11535
882.252	11604
882.378	11505
882.505	11615
882.631	11345
882.757	11315
882.883	11280
883.01	11292
883.136	11147
883.262	11067
883.388	11041
883.514	11181
883.64	11159
883.766	11147
883.892	11037
884.018	11067
884.143	11102
884.269	11117
884.395	10896
884.52	10702
884.646	10816
884.772	10767
884.897	10641
885.023	10645
885.148	10748
885.274	10755
885.399	10725
885.524	10637
885.65	10622
885.775	10546
885.9	10546
886.025	10573
886.15	10573
886.275	10440
886.4	10382
886.525	10432
886.65	10386
886.775	10371
886.9	10455
887.025	10519
887.149	10436
887.274	10257
887.399	10215
887.523	10272
887.648	10154
887.773	10120
887.897	10261
888.021	10207
888.146	10029
888.27	10211
888.395	10246
888.519	10181
888.643	10139
888.767	10246
888.891	10048
889.015	10063
889.139	10036
889.263	10010
889.387	10071
889.511	10192
889.635	10048
889.759	9945
889.883	10017
890.006	9994
890.13	10131
890.254	9922
890.377	9903
890.501	9888
890.624	9907
890.748	9972
890.871	9816
890.995	9755
891.118	9736
891.241	9827
891.364	9766
891.488	9869
891.611	9751
891.734	9778
891.857	9812
891.98	9720
892.103	9797
892.226	9785
892.349	9690
892.471	9507
892.594	9564
892.717	9584
892.839	9557
892.962	9553
893.085	9682
893.207	9553
893.33	9428
893.452	9568
893.575	9538
893.697	9530
893.819	9663
893.941	9667
894.064	9667
894.186	9454
894.308	9397
894.43	9515
894.552	9530
894.674	9545
894.796	9393
894.918	9359
895.04	9389
895.161	9374
895.283	9389
895.405	9310
895.526	9233
895.648	9237
895.769	9313
895.891	9306
896.012	9275
896.134	9233
896.255	9142
896.376	9245
896.498	9180
896.619	9108
896.74	9074
896.861	9062
896.982	9272
897.103	9268
897.224	9169
897.345	9123
897.466	9047
897.587	9039
897.708	9093
897.828	9039
897.949	8967
898.07	8902
898.19	8956
898.311	9062
898.431	8948
898.552	8979
898.672	8998
898.792	8933
898.913	8925
899.033	8819
899.153	8750
899.273	8640
899.393	8754
899.513	8754
899.633	8720
899.753	8731
899.873	8739
899.993	8766
900.113	8727
900.232	8724
900.352	8568
900.472	8670
900.591	8545
900.711	8583
900.83	8552
900.95	8724
901.069	8670
901.189	8606
901.308	8469
901.427	8431
901.546	8431
901.665	8465
901.784	8488
901.904	8320
902.023	8309
902.141	8286
902.26	8271
902.379	8298
902.498	8237
902.617	8218
902.735	8286
902.854	8275
902.973	8290
903.091	8134
903.21	8168
903.328	8187
903.446	8119
903.565	8039
903.683	8134
903.801	8088
903.919	8149
904.038	8134
904.156	8035
904.274	8081
904.392	8024
904.51	8039
904.627	8073
904.745	8027
904.863	8111
904.981	7944
905.098	7837
905.216	7852
905.334	7909
905.451	7909
905.569	7909
905.686	7986
905.803	7898
905.921	7753
906.038	7894
906.155	7811
906.272	7696
906.389	7712
906.506	7616
906.623	7677
906.74	7628
906.857	7563
906.974	7563
907.091	7666
907.208	7723
907.324	7712
907.441	7544
907.557	7487
907.674	7453
907.79	7396
907.907	7426
908.023	7476
908.139	7468
908.256	7350
908.372	7350
908.488	7369
908.604	7278
908.72	7255
908.836	7274
908.952	7308
909.068	7293
909.184	7293
909.3	7305
909.415	7335
909.531	7331
909.647	7187
909.762	7046
909.878	7061
909.993	7126
910.108	7057
910.224	7042
910.339	7129
910.454	7122
910.57	7053
910.685	6939
910.8	7217
910.915	7168
911.03	7080
911.145	6890
911.259	6890
911.374	6916
911.489	6848
911.604	6787
911.718	6749
911.833	6791
911.947	6620
912.062	6597
912.176	6726
912.291	6768
912.405	6681
912.519	6772
912.633	6833
912.748	6741
912.862	6688
912.976	6635
913.09	6532
913.204	6574
913.318	6582
913.431	6639
913.545	6692
913.659	6738
913.772	6658
913.886	6585
914	6528
914.113	6623
914.226	6635
914.34	6582
914.453	6486
914.566	6589
914.68	6506
914.793	6532
914.906	6452
915.019	6418
915.132	6388
915.245	6464
915.358	6452
915.47	6471
915.583	6418
915.696	6506
915.809	6464
915.921	6578
916.034	6403
916.146	6414
916.259	6376
916.371	6532
916.483	6441
916.595	6414
916.708	6456
916.82	6429
916.932	6319
917.044	6331
917.156	6407
917.268	6323
917.38	6289
917.491	6361
917.603	6376
917.715	6452
917.826	6403
917.938	6380
918.049	6292
918.161	6292
918.272	6410
918.384	6380
918.495	6342
918.606	6300
918.717	6205
918.828	6251
918.939	6331
919.05	6232
919.161	6220
919.272	6140
919.383	6175
919.494	6300
919.604	6429
919.715	6338
919.826	6197
919.936	6224
920.047	6327
920.157	6315
920.267	6525
920.378	6384
920.488	6292
920.598	6475
920.708	6570
920.818	6460
920.928	6452
921.038	6597
921.148	6582
921.258	6403
921.368	6319
921.477	6216
921.587	6209
921.697	6152
921.806	6201
921.916	6095
922.025	5954
922.134	5923
922.244	5908
922.353	5958
922.462	5832
922.571	5802
922.68	5695
922.789	5653
922.898	5756
923.007	5649
923.116	5680
923.224	5680
923.333	5676
923.442	5611
923.55	5604
923.659	5589
923.767	5627
923.876	5509
923.984	5665
924.092	5486
924.201	5547
924.309	5509
924.417	5608
924.525	5493
924.633	5512
924.741	6277
924.849	5417
924.956	5493
925.064	5341
925.172	5357
925.279	5307
925.387	5345
925.494	5330
925.602	5429
925.709	5425
925.816	5299
925.924	5311
926.031	5353
926.138	5288
926.245	5357
926.352	5288
926.459	5345
926.566	5349
926.673	5223
926.779	5178
926.886	5090
926.993	5083
927.099	5052
927.206	4991
927.312	4976
927.419	5064
927.525	5018
927.631	4976
927.737	4919
927.843	4866
927.95	4824
928.056	4805
928.162	4839
928.267	4862
928.373	5330
928.479	4923
928.585	4782
928.69	4767
928.796	4793
928.901	4710
929.007	4611
929.112	4687
929.218	4683
929.323	4660
929.428	4588
929.533	4637
929.638	4523
929.743	4542
929.848	4569
929.953	4489
930.058	4462
930.163	4348
930.267	4310
930.372	4421
930.477	4333
930.581	4489
930.685	4386
930.79	4291
930.894	4280
930.998	4238
931.103	4417
931.207	4135
931.311	4086
931.415	4071
931.519	3918
931.623	3956
