Data from glass_V78500241_772.txt Node
Date: Wed Sep 01 19:19:51 CST 2021
User: usil
Spectrometer: V785-0024
Trigger mode: 0
Integration Time (sec): 4.000000E-1
Scans to average: 1
Nonlinearity correction enabled: false
Boxcar width: 0
Storing dark spectrum: false
XAxis mode: Wavelengths
Number of Pixels in Spectrum: 1024
>>>>>Begin Spectral Data<<<<<
801.071	3774
801.214	3781
801.356	3732
801.499	3717
801.641	3728
801.783	3755
801.926	3808
802.068	3800
802.211	3846
802.353	3915
802.496	3892
802.638	3899
802.78	3926
802.923	3918
803.065	3926
803.208	3819
803.35	3884
803.492	3918
803.635	3907
803.777	3842
803.919	3903
804.061	4143
804.204	3964
804.346	3991
804.488	3930
804.63	4044
804.773	4002
804.915	4032
805.057	4166
805.199	4067
805.341	4097
805.483	4154
805.626	4196
805.768	4090
805.91	4166
806.052	4284
806.194	4207
806.336	4299
806.478	4211
806.62	4169
806.762	4204
806.904	4261
807.046	4383
807.188	4246
807.33	4215
807.472	4242
807.614	4200
807.756	4314
807.898	4177
808.04	4207
808.182	4306
808.324	4356
808.465	4402
808.607	4485
808.749	4497
808.891	4462
809.033	4500
809.174	4413
809.316	4306
809.458	4249
809.6	4162
809.741	4135
809.883	4154
810.025	4219
810.166	4234
810.308	4219
810.45	4230
810.591	4280
810.733	4280
810.875	4481
811.016	4831
811.158	5113
811.299	5349
811.441	5318
811.582	5098
811.724	4691
811.865	4455
812.007	4497
812.148	4474
812.29	4447
812.431	4428
812.573	4424
812.714	4421
812.855	4436
812.997	4481
813.138	4516
813.279	4375
813.421	4409
813.562	4421
813.703	4325
813.845	4280
813.986	4249
814.127	4219
814.268	4257
814.41	4227
814.551	4303
814.692	4291
814.833	4268
814.974	4306
815.115	4329
815.256	4268
815.397	4257
815.539	4265
815.68	4185
815.821	4265
815.962	4295
816.103	4291
816.244	4219
816.385	4261
816.526	4322
816.666	4265
816.807	4090
816.948	4150
817.089	4230
817.23	4093
817.371	4025
817.512	4055
817.653	4109
817.793	4059
817.934	4025
818.075	4093
818.216	4074
818.356	4082
818.497	3994
818.638	3907
818.778	3896
818.919	3896
819.06	3865
819.2	3903
819.341	3876
819.481	3823
819.622	3899
819.762	4032
819.903	3937
820.043	3892
820.184	3793
820.324	3831
820.465	3930
820.605	3884
820.746	3896
820.886	3846
821.026	3953
821.167	3937
821.307	4013
821.447	4021
821.588	3926
821.728	3930
821.868	3918
822.008	3873
822.149	3960
822.289	3949
822.429	3819
822.569	3800
822.709	3835
822.849	3667
822.99	3698
823.13	3804
823.27	3781
823.41	3713
823.55	3709
823.69	3747
823.83	3789
823.97	3717
824.11	3587
824.25	3591
824.389	3629
824.529	3690
824.669	3641
824.809	3724
824.949	3770
825.089	3759
825.228	3701
825.368	3660
825.508	3542
825.648	3576
825.787	3584
825.927	3667
826.067	3656
826.206	3648
826.346	3789
826.485	3835
826.625	3857
826.765	3964
826.904	3842
827.044	3606
827.183	3576
827.323	3481
827.462	3477
827.601	3428
827.741	3412
827.88	3473
828.02	3367
828.159	3496
828.298	3469
828.437	3542
828.577	3485
828.716	3633
828.855	3492
828.994	3409
829.134	3332
829.273	3412
829.412	3378
829.551	3351
829.69	3389
829.829	3439
829.968	3534
830.107	3454
830.246	3462
830.385	3412
830.524	3382
830.663	3321
830.802	3279
830.941	3199
831.08	3222
831.219	3264
831.357	3260
831.496	3405
831.635	3222
831.774	3195
831.913	3203
832.051	3112
832.19	3138
832.329	3222
832.467	3131
832.606	3135
832.744	3192
832.883	3203
833.022	3207
833.16	3241
833.299	3332
833.437	3344
833.576	3355
833.714	3416
833.852	3454
833.991	3450
834.129	3447
834.267	3462
834.406	3405
834.544	3454
834.682	3416
834.821	3405
834.959	3584
835.097	3431
835.235	3538
835.373	3526
835.511	3519
835.65	3477
835.788	3492
835.926	3428
836.064	3420
836.202	3424
836.34	3523
836.478	3656
836.615	3557
836.753	3610
836.891	3660
837.029	3618
837.167	3564
837.305	3587
837.443	3557
837.58	3496
837.718	3648
837.856	3622
837.993	3561
838.131	3648
838.269	3568
838.406	3603
838.544	3587
838.681	3504
838.819	3473
838.956	3378
839.094	3409
839.231	3450
839.369	3530
839.506	3747
839.643	3637
839.781	3530
839.918	3466
840.055	3545
840.193	3523
840.33	3545
840.467	3576
840.604	3591
840.742	3797
840.879	3591
841.016	3595
841.153	3606
841.29	3747
841.427	3732
841.564	3759
841.701	3804
841.838	3713
841.975	3682
842.112	3717
842.249	3686
842.385	3614
842.522	3816
842.659	3705
842.796	3705
842.933	3694
843.069	3720
843.206	3705
843.343	3831
843.479	3804
843.616	3823
843.752	3698
843.889	3724
844.025	3869
844.162	3797
844.298	3854
844.435	3797
844.571	3770
844.708	3861
844.844	4029
844.98	4025
845.117	4032
845.253	3899
845.389	3915
845.525	3968
845.661	3975
845.798	3964
845.934	4017
846.07	3953
846.206	4040
846.342	4124
846.478	4120
846.614	3987
846.75	3968
846.886	3934
847.022	4112
847.158	3979
847.294	3979
847.429	4025
847.565	3983
847.701	4246
847.837	3884
847.972	3899
848.108	4006
848.244	3987
848.379	3846
848.515	3861
848.65	3804
848.786	3842
848.921	3884
849.057	3915
849.192	3968
849.328	3915
849.463	3915
849.598	3918
849.734	3861
849.869	3869
850.004	3781
850.14	3838
850.275	3800
850.41	3724
850.545	3755
850.68	3770
850.815	3819
850.95	3766
851.085	3956
851.22	3846
851.355	3918
851.49	3800
851.625	3816
851.76	3774
851.895	3713
852.03	3785
852.165	3827
852.299	3857
852.434	3934
852.569	3888
852.703	3960
852.838	3960
852.973	3979
853.107	4017
853.242	3896
853.376	3861
853.511	3762
853.645	3846
853.78	3972
853.914	3918
854.048	3911
854.183	3857
854.317	3991
854.451	4055
854.585	3987
854.72	3949
854.854	4063
854.988	3915
855.122	3983
855.256	3918
855.39	4025
855.524	4105
855.658	4074
855.792	4101
855.926	4162
856.06	4192
856.194	4261
856.327	4173
856.461	4173
856.595	4207
856.729	4139
856.862	4287
856.996	4299
857.13	4329
857.263	4314
857.397	4379
857.53	4356
857.664	4383
857.797	4402
857.931	4428
858.064	4421
858.197	4443
858.331	4413
858.464	4390
858.597	4386
858.731	4417
858.864	4436
858.997	4440
859.13	4519
859.263	4558
859.396	4637
859.529	4542
859.662	4565
859.795	4523
859.928	4599
860.061	4656
860.194	4759
860.327	4626
860.46	4668
860.592	4752
860.725	4767
860.858	4790
860.99	4725
861.123	4725
861.256	4729
861.388	4748
861.521	5376
861.653	4729
861.786	4721
861.918	4717
862.05	4759
862.183	4885
862.315	4900
862.447	4949
862.58	4904
862.712	4824
862.844	4786
862.976	4915
863.108	4820
863.24	5250
863.372	4854
863.504	4892
863.636	4904
863.768	5010
863.9	4957
864.032	4949
864.164	4991
864.296	5029
864.428	5109
864.559	5159
864.691	5121
864.823	5098
864.954	5117
865.086	5166
865.217	5098
865.349	5128
865.48	5159
865.612	5162
865.743	5307
865.875	5143
866.006	5178
866.137	5239
866.269	5284
866.4	5223
866.531	5273
866.662	5265
866.793	5284
866.924	5284
867.055	5334
867.186	5398
867.317	5311
867.448	5383
867.579	5459
867.71	5402
867.841	5417
867.972	5467
868.103	5433
868.233	5467
868.364	5554
868.495	5532
868.625	5634
868.756	5840
868.886	5646
869.017	5699
869.147	5878
869.278	5870
869.408	5828
869.539	5912
869.669	5977
869.799	5931
869.929	6034
870.06	6022
870.19	6228
870.32	6228
870.45	6251
870.58	6323
870.71	6479
870.84	6418
870.97	6445
871.1	6467
871.23	6631
871.36	6715
871.489	6669
871.619	6760
871.749	6798
871.879	6897
872.008	7004
872.138	6981
872.267	7004
872.397	7004
872.526	6989
872.656	7099
872.785	7266
872.915	7384
873.044	7502
873.173	7594
873.303	7658
873.432	7757
873.561	7871
873.69	7936
873.819	8027
873.948	8229
874.077	8282
874.206	8374
874.335	8549
874.464	8670
874.593	8944
874.722	9036
874.851	9093
874.979	9214
875.108	9386
875.237	9397
875.365	9466
875.494	9644
875.623	9812
875.751	9819
875.88	10055
876.008	10166
876.136	10196
876.265	10519
876.393	10698
876.521	10706
876.65	10782
876.778	10847
876.906	10828
877.034	10972
877.162	11102
877.29	11136
877.418	11353
877.546	11433
877.674	11505
877.802	11490
877.93	11490
878.058	11600
878.185	11532
878.313	11611
878.441	11665
878.568	11642
878.696	11783
878.824	11916
878.951	11916
879.079	12038
879.206	12102
879.333	12026
879.461	12034
879.588	12133
879.715	12091
879.842	12159
879.97	12068
880.097	11866
880.224	11863
880.351	11885
880.478	11893
880.605	11828
880.732	11824
880.859	12098
880.986	11901
881.112	11794
881.239	11729
881.366	11657
881.493	11585
881.619	11471
881.746	11482
881.872	11505
881.999	11478
882.125	11516
882.252	11524
882.378	11493
882.505	11509
882.631	11326
882.757	11311
882.883	11364
883.01	11189
883.136	11242
883.262	11113
883.388	11105
883.514	11166
883.64	11181
883.766	11143
883.892	11041
884.018	11083
884.143	11048
884.269	11090
884.395	10892
884.52	10828
884.646	10816
884.772	10706
884.897	10683
885.023	10755
885.148	10702
885.274	10672
885.399	10653
885.524	10649
885.65	10611
885.775	10569
885.9	10573
886.025	10618
886.15	10618
886.275	10428
886.4	10402
886.525	10356
886.65	10398
886.775	10382
886.9	10417
887.025	10538
887.149	10390
887.274	10249
887.399	10276
887.523	10215
887.648	10219
887.773	10086
887.897	10249
888.021	10192
888.146	10109
888.27	10181
888.395	10242
888.519	10295
888.643	10150
888.767	10238
888.891	10139
889.015	9983
889.139	10086
889.263	9983
889.387	10124
889.511	10040
889.635	10128
889.759	10067
889.883	10006
890.006	10010
890.13	10097
890.254	9945
890.377	10002
890.501	9915
890.624	9846
890.748	9880
890.871	9808
890.995	9740
891.118	9713
891.241	9861
891.364	9835
891.488	9831
891.611	9770
891.734	9755
891.857	9819
891.98	9686
892.103	9743
892.226	9759
892.349	9690
892.471	9523
892.594	9606
892.717	9641
892.839	9633
892.962	9625
893.085	9641
893.207	9652
893.33	9515
893.452	9549
893.575	9610
893.697	9534
893.819	9587
893.941	9641
894.064	9614
894.186	9469
894.308	9450
894.43	9545
894.552	9568
894.674	9561
894.796	9397
894.918	9443
895.04	9374
895.161	9374
895.283	9359
895.405	9268
895.526	9249
895.648	9226
895.769	9272
895.891	9275
896.012	9237
896.134	9264
896.255	9146
896.376	9131
896.498	9093
896.619	9203
896.74	9100
896.861	9089
896.982	9287
897.103	9275
897.224	9180
897.345	9055
897.466	8967
897.587	9009
897.708	9070
897.828	9051
897.949	8906
898.07	8849
898.19	8963
898.311	9017
898.431	8963
898.552	8960
898.672	9024
898.792	8937
898.913	8883
899.033	8758
899.153	8792
899.273	8682
899.393	8712
899.513	8792
899.633	8708
899.753	8716
899.873	8762
899.993	8739
900.113	8781
900.232	8693
900.352	8667
900.472	8617
900.591	8552
900.711	8610
900.83	8602
900.95	8682
901.069	8705
901.189	8610
901.308	8431
901.427	8389
901.546	8381
901.665	8457
901.784	8488
901.904	8423
902.023	8343
902.141	8233
902.26	8279
902.379	8275
902.498	8240
902.617	8229
902.735	8366
902.854	8328
902.973	8263
903.091	8202
903.21	8145
903.328	8214
903.446	8168
903.565	8054
903.683	8123
903.801	8096
903.919	8168
904.038	8123
904.156	8054
904.274	8065
904.392	8039
904.51	8081
904.627	8142
904.745	8062
904.863	8088
904.981	7970
905.098	7883
905.216	7898
905.334	7940
905.451	7909
905.569	7898
905.686	7963
905.803	7974
905.921	7795
906.038	7898
906.155	7833
906.272	7753
906.389	7769
906.506	7636
906.623	7632
906.74	7548
906.857	7582
906.974	7620
907.091	7750
907.208	7712
907.324	7674
907.441	7620
907.557	7472
907.674	7464
907.79	7426
907.907	7415
908.023	7472
908.139	7430
908.256	7308
908.372	7354
908.488	7346
908.604	7206
908.72	7255
908.836	7285
908.952	7255
909.068	7301
909.184	7324
909.3	7270
909.415	7270
909.531	7293
909.647	7072
909.762	7107
909.878	7050
909.993	7141
910.108	7088
910.224	7129
910.339	7099
910.454	6966
910.57	6962
910.685	6977
910.8	7168
910.915	7187
911.03	7076
911.145	6894
911.259	6871
911.374	6897
911.489	6833
911.604	6776
911.718	6753
911.833	6745
911.947	6662
912.062	6604
912.176	6722
912.291	6772
912.405	6703
912.519	6787
912.633	6856
912.748	6719
912.862	6681
912.976	6631
913.09	6532
913.204	6589
913.318	6593
913.431	6665
913.545	6757
913.659	6696
913.772	6635
913.886	6582
914	6582
914.113	6646
914.226	6616
914.34	6601
914.453	6490
914.566	6593
914.68	6570
914.793	6582
914.906	6445
915.019	6426
915.132	6418
915.245	6410
915.358	6414
915.47	6399
915.583	6498
915.696	6464
915.809	6521
915.921	6582
916.034	6380
916.146	6391
916.259	6391
916.371	6513
916.483	6471
916.595	6452
916.708	6429
916.82	6361
916.932	6395
917.044	6410
917.156	6471
917.268	6342
917.38	6372
917.491	6365
917.603	6372
917.715	6357
917.826	6448
917.938	6327
918.049	6228
918.161	6369
918.272	6502
918.384	6460
918.495	6266
918.606	6247
918.717	6235
918.828	6254
918.939	6281
919.05	6197
919.161	6296
919.272	6175
919.383	6159
919.494	6311
919.604	6441
919.715	6289
919.826	6266
919.936	6155
920.047	6323
920.157	6289
920.267	6407
920.378	6338
920.488	6319
920.598	6521
920.708	6525
920.818	6506
920.928	6483
921.038	6555
921.148	6555
921.258	6342
921.368	6292
921.477	6201
921.587	6205
921.697	6155
921.806	6216
921.916	6057
922.025	6015
922.134	5908
922.244	5920
922.353	6007
922.462	5821
922.571	5809
922.68	5680
922.789	5665
922.898	5745
923.007	5665
923.116	5665
923.224	5672
923.333	5676
923.442	5657
923.55	5604
923.659	5596
923.767	5615
923.876	5581
923.984	5642
924.092	5520
924.201	5566
924.309	5551
924.417	5497
924.525	5482
924.633	5512
924.741	6095
924.849	5433
924.956	5512
925.064	5330
925.172	5337
925.279	5288
925.387	5376
925.494	5349
925.602	5398
925.709	5391
925.816	5292
925.924	5315
926.031	5360
926.138	5322
926.245	5387
926.352	5201
926.459	5334
926.566	5277
926.673	5220
926.779	5197
926.886	5132
926.993	5025
927.099	4972
927.206	4980
927.312	4984
927.419	5064
927.525	5037
927.631	5033
927.737	4911
927.843	4889
927.95	4820
928.056	4858
928.162	4839
928.267	4820
928.373	5364
928.479	4870
928.585	4687
928.69	4744
928.796	4759
928.901	4717
929.007	4649
929.112	4672
929.218	4622
929.323	4554
929.428	4618
929.533	4672
929.638	4550
929.743	4516
929.848	4493
929.953	4546
930.058	4409
930.163	4371
930.267	4344
930.372	4451
930.477	4310
930.581	4470
930.685	4375
930.79	4284
930.894	4318
930.998	4306
931.103	4375
931.207	4116
931.311	4116
931.415	4063
931.519	3972
931.623	3987
