Data from glass_V78500241_948.txt Node
Date: Wed Sep 01 19:21:04 CST 2021
User: usil
Spectrometer: V785-0024
Trigger mode: 0
Integration Time (sec): 4.000000E-1
Scans to average: 1
Nonlinearity correction enabled: false
Boxcar width: 0
Storing dark spectrum: false
XAxis mode: Wavelengths
Number of Pixels in Spectrum: 1024
>>>>>Begin Spectral Data<<<<<
801.071	3736
801.214	3774
801.356	3747
801.499	3785
801.641	3728
801.783	3793
801.926	3888
802.068	3842
802.211	3850
802.353	3937
802.496	3835
802.638	3926
802.78	3884
802.923	3949
803.065	3876
803.208	3819
803.35	3915
803.492	3918
803.635	3911
803.777	3789
803.919	3964
804.061	4169
804.204	3911
804.346	3911
804.488	3960
804.63	4078
804.773	3972
804.915	4017
805.057	4154
805.199	4086
805.341	4105
805.483	4135
805.626	4177
805.768	4105
805.91	4249
806.052	4272
806.194	4169
806.336	4383
806.478	4192
806.62	4147
806.762	4177
806.904	4276
807.046	4341
807.188	4253
807.33	4211
807.472	4284
807.614	4253
807.756	4242
807.898	4246
808.04	4200
808.182	4306
808.324	4306
808.465	4413
808.607	4470
808.749	4485
808.891	4470
809.033	4500
809.174	4413
809.316	4276
809.458	4249
809.6	4128
809.741	4150
809.883	4131
810.025	4223
810.166	4219
810.308	4280
810.45	4295
810.591	4223
810.733	4249
810.875	4546
811.016	4797
811.158	5155
811.299	5299
811.441	5288
811.582	5056
811.724	4786
811.865	4470
812.007	4493
812.148	4440
812.29	4421
812.431	4409
812.573	4375
812.714	4371
812.855	4417
812.997	4386
813.138	4516
813.279	4424
813.421	4394
813.562	4367
813.703	4356
813.845	4329
813.986	4306
814.127	4253
814.268	4246
814.41	4261
814.551	4238
814.692	4322
814.833	4310
814.974	4341
815.115	4367
815.256	4295
815.397	4249
815.539	4227
815.68	4207
815.821	4249
815.962	4295
816.103	4314
816.244	4242
816.385	4173
816.526	4284
816.666	4272
816.807	4143
816.948	4166
817.089	4188
817.23	4086
817.371	4082
817.512	4074
817.653	4105
817.793	4040
817.934	4105
818.075	4090
818.216	4093
818.356	4093
818.497	4013
818.638	3934
818.778	3915
818.919	3903
819.06	3896
819.2	3918
819.341	3842
819.481	3892
819.622	3903
819.762	3998
819.903	3937
820.043	3903
820.184	3865
820.324	3816
820.465	3873
820.605	3850
820.746	3831
820.886	3846
821.026	3903
821.167	3945
821.307	3987
821.447	3991
821.588	3937
821.728	3964
821.868	3911
822.008	3899
822.149	3922
822.289	3918
822.429	3804
822.569	3804
822.709	3785
822.849	3686
822.99	3755
823.13	3778
823.27	3812
823.41	3705
823.55	3686
823.69	3755
823.83	3778
823.97	3724
824.11	3644
824.25	3618
824.389	3648
824.529	3686
824.669	3667
824.809	3705
824.949	3736
825.089	3736
825.228	3690
825.368	3549
825.508	3595
825.648	3561
825.787	3587
825.927	3644
826.067	3599
826.206	3717
826.346	3781
826.485	3823
826.625	3861
826.765	3949
826.904	3854
827.044	3622
827.183	3534
827.323	3450
827.462	3496
827.601	3424
827.741	3428
827.88	3462
828.02	3393
828.159	3462
828.298	3435
828.437	3538
828.577	3507
828.716	3606
828.855	3469
828.994	3420
829.134	3397
829.273	3416
829.412	3351
829.551	3370
829.69	3389
829.829	3424
829.968	3504
830.107	3473
830.246	3439
830.385	3374
830.524	3359
830.663	3279
830.802	3279
830.941	3214
831.08	3241
831.219	3245
831.357	3279
831.496	3405
831.635	3207
831.774	3214
831.913	3233
832.051	3138
832.19	3131
832.329	3192
832.467	3154
832.606	3108
832.744	3214
832.883	3199
833.022	3233
833.16	3279
833.299	3279
833.437	3348
833.576	3378
833.714	3401
833.852	3473
833.991	3450
834.129	3469
834.267	3473
834.406	3439
834.544	3439
834.682	3378
834.821	3374
834.959	3595
835.097	3458
835.235	3549
835.373	3530
835.511	3523
835.65	3454
835.788	3504
835.926	3389
836.064	3367
836.202	3420
836.34	3572
836.478	3595
836.615	3606
836.753	3595
836.891	3660
837.029	3603
837.167	3572
837.305	3595
837.443	3561
837.58	3523
837.718	3603
837.856	3549
837.993	3572
838.131	3576
838.269	3644
838.406	3633
838.544	3591
838.681	3500
838.819	3412
838.956	3382
839.094	3405
839.231	3447
839.369	3515
839.506	3694
839.643	3637
839.781	3523
839.918	3454
840.055	3545
840.193	3564
840.33	3564
840.467	3572
840.604	3603
840.742	3816
840.879	3553
841.016	3606
841.153	3625
841.29	3774
841.427	3743
841.564	3755
841.701	3728
841.838	3709
841.975	3682
842.112	3755
842.249	3637
842.385	3641
842.522	3800
842.659	3694
842.796	3682
842.933	3762
843.069	3705
843.206	3724
843.343	3869
843.479	3800
843.616	3823
843.752	3686
843.889	3690
844.025	3888
844.162	3720
844.298	3857
844.435	3778
844.571	3781
844.708	3903
844.844	4040
844.98	4006
845.117	3964
845.253	3953
845.389	3911
845.525	3945
845.661	3983
845.798	3941
845.934	3949
846.07	3949
846.206	4097
846.342	4147
846.478	4071
846.614	3987
846.75	3941
846.886	3949
847.022	4044
847.158	3937
847.294	3991
847.429	4010
847.565	4010
847.701	4268
847.837	3899
847.972	3888
848.108	3991
848.244	3956
848.379	3861
848.515	3804
848.65	3838
848.786	3888
848.921	3888
849.057	3930
849.192	3896
849.328	3865
849.463	3918
849.598	3907
849.734	3911
849.869	3827
850.004	3778
850.14	3823
850.275	3789
850.41	3740
850.545	3804
850.68	3766
850.815	3831
850.95	3797
851.085	3953
851.22	3899
851.355	3865
851.49	3804
851.625	3789
851.76	3804
851.895	3720
852.03	3728
852.165	3846
852.299	3865
852.434	3907
852.569	3880
852.703	3926
852.838	3949
852.973	4013
853.107	4029
853.242	3876
853.376	3873
853.511	3770
853.645	3804
853.78	3991
853.914	3911
854.048	3896
854.183	3892
854.317	3918
854.451	4063
854.585	3968
854.72	3972
854.854	4044
854.988	3922
855.122	3991
855.256	3991
855.39	4067
855.524	4139
855.658	4105
855.792	4154
855.926	4177
856.06	4196
856.194	4276
856.327	4147
856.461	4143
856.595	4173
856.729	4185
856.862	4287
856.996	4287
857.13	4337
857.263	4299
857.397	4333
857.53	4306
857.664	4390
857.797	4459
857.931	4363
858.064	4428
858.197	4489
858.331	4428
858.464	4413
858.597	4348
858.731	4474
858.864	4474
858.997	4462
859.13	4535
859.263	4538
859.396	4584
859.529	4611
859.662	4542
859.795	4516
859.928	4538
860.061	4725
860.194	4755
860.327	4660
860.46	4668
860.592	4641
860.725	4774
860.858	4759
860.99	4698
861.123	4694
861.256	4660
861.388	4824
861.521	5509
861.653	4698
861.786	4763
861.918	4786
862.05	4835
862.183	4858
862.315	4908
862.447	4972
862.58	4915
862.712	4835
862.844	4767
862.976	4881
863.108	4885
863.24	5178
863.372	4854
863.504	4934
863.636	4961
863.768	4965
863.9	4923
864.032	4904
864.164	5022
864.296	5037
864.428	5041
864.559	5094
864.691	5136
864.823	5136
864.954	5109
865.086	5197
865.217	5109
865.349	5166
865.48	5140
865.612	5185
865.743	5307
865.875	5185
866.006	5223
866.137	5193
866.269	5261
866.4	5315
866.531	5277
866.662	5269
866.793	5292
866.924	5258
867.055	5311
867.186	5379
867.317	5311
867.448	5345
867.579	5357
867.71	5395
867.841	5440
867.972	5482
868.103	5459
868.233	5512
868.364	5516
868.495	5516
868.625	5668
868.756	5817
868.886	5695
869.017	5748
869.147	5813
869.278	5859
869.408	5817
869.539	5828
869.669	5946
869.799	5927
869.929	6038
870.06	6019
870.19	6235
870.32	6186
870.45	6270
870.58	6369
870.71	6391
870.84	6525
870.97	6441
871.1	6448
871.23	6639
871.36	6658
871.489	6662
871.619	6745
871.749	6783
871.879	6821
872.008	7038
872.138	6943
872.267	7008
872.397	7015
872.526	7050
872.656	7114
872.785	7255
872.915	7415
873.044	7552
873.173	7571
873.303	7677
873.432	7753
873.561	7917
873.69	7955
873.819	8065
873.948	8096
874.077	8233
874.206	8336
874.335	8473
874.464	8667
874.593	8880
874.722	8921
874.851	9161
874.979	9291
875.108	9439
875.237	9469
875.365	9500
875.494	9652
875.623	9759
875.751	9793
875.88	9953
876.008	10204
876.136	10295
876.265	10497
876.393	10748
876.521	10725
876.65	10778
876.778	10850
876.906	10866
877.034	10995
877.162	11170
877.29	11181
877.418	11227
877.546	11410
877.674	11463
877.802	11539
877.93	11592
878.058	11539
878.185	11589
878.313	11676
878.441	11703
878.568	11714
878.696	11809
878.824	11908
878.951	11923
879.079	12053
879.206	12167
879.333	12087
879.461	12102
879.588	12053
879.715	12110
879.842	12232
879.97	12041
880.097	11878
880.224	11904
880.351	11843
880.478	11847
880.605	11897
880.732	11874
880.859	11969
880.986	11855
881.112	11882
881.239	11726
881.366	11726
881.493	11615
881.619	11486
881.746	11570
881.872	11520
881.999	11562
882.125	11463
882.252	11554
882.378	11478
882.505	11581
882.631	11395
882.757	11280
882.883	11368
883.01	11242
883.136	11220
883.262	11170
883.388	11151
883.514	11212
883.64	11132
883.766	11090
883.892	11102
884.018	10923
884.143	11010
884.269	11098
884.395	10824
884.52	10778
884.646	10805
884.772	10752
884.897	10755
885.023	10691
885.148	10752
885.274	10771
885.399	10710
885.524	10618
885.65	10577
885.775	10630
885.9	10561
886.025	10622
886.15	10622
886.275	10402
886.4	10428
886.525	10421
886.65	10386
886.775	10344
886.9	10500
887.025	10561
887.149	10382
887.274	10215
887.399	10143
887.523	10196
887.648	10131
887.773	10105
887.897	10215
888.021	10287
888.146	10211
888.27	10200
888.395	10227
888.519	10173
888.643	10268
888.767	10238
888.891	10059
889.015	10032
889.139	10078
889.263	10010
889.387	10116
889.511	10086
889.635	10032
889.759	10032
889.883	9945
890.006	10067
890.13	10036
890.254	10002
890.377	9945
890.501	9945
890.624	9888
890.748	9907
890.871	9797
890.995	9747
891.118	9720
891.241	9793
891.364	9736
891.488	9869
891.611	9759
891.734	9838
891.857	9869
891.98	9686
892.103	9740
892.226	9694
892.349	9690
892.471	9511
892.594	9576
892.717	9622
892.839	9648
892.962	9641
893.085	9625
893.207	9637
893.33	9545
893.452	9564
893.575	9641
893.697	9542
893.819	9625
893.941	9599
894.064	9606
894.186	9393
894.308	9420
894.43	9545
894.552	9633
894.674	9469
894.796	9420
894.918	9374
895.04	9336
895.161	9420
895.283	9370
895.405	9222
895.526	9245
895.648	9173
895.769	9237
895.891	9249
896.012	9283
896.134	9165
896.255	9138
896.376	9077
896.498	9173
896.619	9214
896.74	9036
896.861	9131
896.982	9192
897.103	9211
897.224	9211
897.345	9066
897.466	9062
897.587	8971
897.708	9135
897.828	9055
897.949	8933
898.07	8853
898.19	8914
898.311	9009
898.431	8933
898.552	9024
898.672	8952
898.792	8910
898.913	8921
899.033	8815
899.153	8750
899.273	8693
899.393	8807
899.513	8781
899.633	8769
899.753	8731
899.873	8731
899.993	8777
900.113	8674
900.232	8644
900.352	8674
900.472	8640
900.591	8537
900.711	8530
900.83	8556
900.95	8632
901.069	8705
901.189	8644
901.308	8499
901.427	8381
901.546	8381
901.665	8473
901.784	8530
901.904	8374
902.023	8370
902.141	8240
902.26	8218
902.379	8282
902.498	8294
902.617	8202
902.735	8313
902.854	8301
902.973	8282
903.091	8119
903.21	8142
903.328	8191
903.446	8161
903.565	8062
903.683	8092
903.801	8096
903.919	8168
904.038	8092
904.156	8046
904.274	8088
904.392	7989
904.51	8073
904.627	8088
904.745	8027
904.863	8107
904.981	7932
905.098	7902
905.216	7902
905.334	7906
905.451	7898
905.569	7909
905.686	7944
905.803	7902
905.921	7811
906.038	7856
906.155	7856
906.272	7712
906.389	7655
906.506	7651
906.623	7632
906.74	7594
906.857	7556
906.974	7529
907.091	7609
907.208	7712
907.324	7639
907.441	7616
907.557	7457
907.674	7487
907.79	7426
907.907	7411
908.023	7430
908.139	7472
908.256	7426
908.372	7384
908.488	7343
908.604	7293
908.72	7285
908.836	7308
908.952	7259
909.068	7263
909.184	7339
909.3	7335
909.415	7305
909.531	7327
909.647	7175
909.762	7160
909.878	7114
909.993	7206
910.108	7084
910.224	7122
910.339	7160
910.454	7069
910.57	7004
910.685	6981
910.8	7198
910.915	7069
911.03	7061
911.145	6928
911.259	6886
911.374	6848
911.489	6856
911.604	6856
911.718	6757
911.833	6696
911.947	6688
912.062	6616
912.176	6779
912.291	6722
912.405	6677
912.519	6825
912.633	6768
912.748	6703
912.862	6726
912.976	6631
913.09	6509
913.204	6604
913.318	6585
913.431	6707
913.545	6650
913.659	6726
913.772	6631
913.886	6540
914	6582
914.113	6612
914.226	6730
914.34	6635
914.453	6547
914.566	6669
914.68	6521
914.793	6547
914.906	6433
915.019	6479
915.132	6395
915.245	6437
915.358	6464
915.47	6475
915.583	6467
915.696	6471
915.809	6566
915.921	6589
916.034	6433
916.146	6437
916.259	6391
916.371	6494
916.483	6498
916.595	6399
916.708	6395
916.82	6407
916.932	6422
917.044	6441
917.156	6418
917.268	6361
917.38	6327
917.491	6331
917.603	6334
917.715	6467
917.826	6452
917.938	6372
918.049	6270
918.161	6331
918.272	6410
918.384	6464
918.495	6353
918.606	6285
918.717	6136
918.828	6266
918.939	6315
919.05	6182
919.161	6258
919.272	6114
919.383	6175
919.494	6262
919.604	6426
919.715	6285
919.826	6209
919.936	6262
920.047	6357
920.157	6292
920.267	6403
920.378	6331
920.488	6292
920.598	6433
920.708	6631
920.818	6498
920.928	6498
921.038	6635
921.148	6555
921.258	6365
921.368	6289
921.477	6228
921.587	6197
921.697	6136
921.806	6201
921.916	6091
922.025	5942
922.134	5969
922.244	5851
922.353	6015
922.462	5840
922.571	5802
922.68	5668
922.789	5752
922.898	5695
923.007	5680
923.116	5699
923.224	5653
923.333	5699
923.442	5577
923.55	5611
923.659	5619
923.767	5638
923.876	5512
923.984	5646
924.092	5474
924.201	5520
924.309	5600
924.417	5570
924.525	5516
924.633	5463
924.741	6140
924.849	5357
924.956	5455
925.064	5296
925.172	5315
925.279	5334
925.387	5353
925.494	5315
925.602	5425
925.709	5406
925.816	5292
925.924	5357
926.031	5429
926.138	5345
926.245	5349
926.352	5208
926.459	5357
926.566	5322
926.673	5231
926.779	5128
926.886	5136
926.993	5048
927.099	5060
927.206	4995
927.312	4923
927.419	5025
927.525	4965
927.631	5025
927.737	4908
927.843	4847
927.95	4824
928.056	4816
928.162	4870
928.267	4866
928.373	5357
928.479	4835
928.585	4710
928.69	4771
928.796	4790
928.901	4717
929.007	4618
929.112	4687
929.218	4672
929.323	4599
929.428	4580
929.533	4664
929.638	4565
929.743	4565
929.848	4554
929.953	4519
930.058	4474
930.163	4322
930.267	4367
930.372	4421
930.477	4253
930.581	4459
930.685	4398
930.79	4295
930.894	4284
930.998	4249
931.103	4348
931.207	4078
931.311	4097
931.415	4097
931.519	3903
931.623	3983
