Data from glass_V78500241_870.txt Node
Date: Wed Sep 01 19:20:31 CST 2021
User: usil
Spectrometer: V785-0024
Trigger mode: 0
Integration Time (sec): 4.000000E-1
Scans to average: 1
Nonlinearity correction enabled: false
Boxcar width: 0
Storing dark spectrum: false
XAxis mode: Wavelengths
Number of Pixels in Spectrum: 1024
>>>>>Begin Spectral Data<<<<<
801.071	3709
801.214	3759
801.356	3720
801.499	3751
801.641	3736
801.783	3778
801.926	3857
802.068	3819
802.211	3880
802.353	3915
802.496	3854
802.638	3835
802.78	3907
802.923	3949
803.065	3907
803.208	3812
803.35	3865
803.492	3903
803.635	3903
803.777	3808
803.919	3926
804.061	4169
804.204	3964
804.346	3899
804.488	3949
804.63	4059
804.773	4029
804.915	4063
805.057	4147
805.199	4051
805.341	4086
805.483	4120
805.626	4124
805.768	4105
805.91	4200
806.052	4234
806.194	4192
806.336	4352
806.478	4223
806.62	4192
806.762	4211
806.904	4246
807.046	4360
807.188	4219
807.33	4242
807.472	4272
807.614	4135
807.756	4268
807.898	4257
808.04	4246
808.182	4246
808.324	4291
808.465	4352
808.607	4424
808.749	4478
808.891	4474
809.033	4504
809.174	4421
809.316	4284
809.458	4257
809.6	4143
809.741	4162
809.883	4173
810.025	4257
810.166	4158
810.308	4238
810.45	4280
810.591	4196
810.733	4371
810.875	4531
811.016	4862
811.158	5086
811.299	5284
811.441	5315
811.582	5105
811.724	4744
811.865	4519
812.007	4478
812.148	4481
812.29	4432
812.431	4405
812.573	4386
812.714	4322
812.855	4390
812.997	4398
813.138	4485
813.279	4421
813.421	4432
813.562	4398
813.703	4322
813.845	4322
813.986	4276
814.127	4207
814.268	4280
814.41	4276
814.551	4291
814.692	4314
814.833	4238
814.974	4325
815.115	4341
815.256	4238
815.397	4314
815.539	4268
815.68	4169
815.821	4230
815.962	4348
816.103	4303
816.244	4306
816.385	4242
816.526	4280
816.666	4200
816.807	4143
816.948	4166
817.089	4181
817.23	4131
817.371	4051
817.512	4071
817.653	4086
817.793	4036
817.934	4067
818.075	4154
818.216	4044
818.356	4097
818.497	4025
818.638	3941
818.778	3960
818.919	3876
819.06	3873
819.2	3915
819.341	3876
819.481	3827
819.622	3873
819.762	4021
819.903	3987
820.043	3842
820.184	3842
820.324	3823
820.465	3880
820.605	3876
820.746	3930
820.886	3846
821.026	3956
821.167	3903
821.307	4025
821.447	3987
821.588	3972
821.728	3968
821.868	3979
822.008	3945
822.149	3903
822.289	3968
822.429	3804
822.569	3766
822.709	3797
822.849	3694
822.99	3698
823.13	3720
823.27	3785
823.41	3694
823.55	3762
823.69	3732
823.83	3740
823.97	3747
824.11	3614
824.25	3641
824.389	3648
824.529	3679
824.669	3686
824.809	3705
824.949	3781
825.089	3713
825.228	3694
825.368	3629
825.508	3576
825.648	3595
825.787	3568
825.927	3633
826.067	3633
826.206	3694
826.346	3755
826.485	3838
826.625	3854
826.765	3960
826.904	3797
827.044	3603
827.183	3511
827.323	3412
827.462	3492
827.601	3409
827.741	3473
827.88	3466
828.02	3382
828.159	3466
828.298	3500
828.437	3576
828.577	3462
828.716	3614
828.855	3477
828.994	3397
829.134	3412
829.273	3401
829.412	3351
829.551	3367
829.69	3317
829.829	3428
829.968	3519
830.107	3424
830.246	3431
830.385	3382
830.524	3344
830.663	3306
830.802	3256
830.941	3180
831.08	3222
831.219	3245
831.357	3256
831.496	3431
831.635	3283
831.774	3203
831.913	3214
832.051	3173
832.19	3142
832.329	3233
832.467	3123
832.606	3142
832.744	3184
832.883	3176
833.022	3207
833.16	3264
833.299	3344
833.437	3351
833.576	3405
833.714	3367
833.852	3424
833.991	3416
834.129	3500
834.267	3435
834.406	3435
834.544	3397
834.682	3424
834.821	3416
834.959	3580
835.097	3439
835.235	3515
835.373	3500
835.511	3488
835.65	3492
835.788	3515
835.926	3428
836.064	3374
836.202	3431
836.34	3576
836.478	3614
836.615	3587
836.753	3580
836.891	3622
837.029	3663
837.167	3629
837.305	3572
837.443	3568
837.58	3473
837.718	3641
837.856	3557
837.993	3530
838.131	3606
838.269	3553
838.406	3595
838.544	3545
838.681	3462
838.819	3420
838.956	3435
839.094	3424
839.231	3450
839.369	3523
839.506	3740
839.643	3591
839.781	3523
839.918	3488
840.055	3526
840.193	3507
840.33	3511
840.467	3599
840.604	3610
840.742	3804
840.879	3530
841.016	3572
841.153	3606
841.29	3762
841.427	3717
841.564	3732
841.701	3762
841.838	3724
841.975	3709
842.112	3728
842.249	3667
842.385	3641
842.522	3838
842.659	3660
842.796	3675
842.933	3759
843.069	3717
843.206	3755
843.343	3808
843.479	3823
843.616	3819
843.752	3648
843.889	3686
844.025	3861
844.162	3770
844.298	3831
844.435	3808
844.571	3762
844.708	3903
844.844	3956
844.98	4010
845.117	4036
845.253	3903
845.389	3930
845.525	3987
845.661	3972
845.798	3907
845.934	3991
846.07	3953
846.206	4093
846.342	4109
846.478	4086
846.614	3975
846.75	3918
846.886	3949
847.022	4055
847.158	4017
847.294	3960
847.429	4059
847.565	4010
847.701	4268
847.837	3846
847.972	3842
848.108	3979
848.244	3987
848.379	3816
848.515	3869
848.65	3800
848.786	3835
848.921	3884
849.057	3892
849.192	4017
849.328	3911
849.463	3911
849.598	3903
849.734	3922
849.869	3876
850.004	3778
850.14	3842
850.275	3770
850.41	3766
850.545	3781
850.68	3766
850.815	3778
850.95	3831
851.085	3941
851.22	3857
851.355	3850
851.49	3774
851.625	3842
851.76	3800
851.895	3759
852.03	3743
852.165	3789
852.299	3869
852.434	3899
852.569	3896
852.703	3869
852.838	3911
852.973	4044
853.107	4002
853.242	3918
853.376	3854
853.511	3831
853.645	3869
853.78	3979
853.914	3915
854.048	3915
854.183	3899
854.317	3979
854.451	4051
854.585	3937
854.72	3983
854.854	4071
854.988	3972
855.122	4059
855.256	3926
855.39	4013
855.524	4093
855.658	4101
855.792	4097
855.926	4120
856.06	4185
856.194	4219
856.327	4147
856.461	4131
856.595	4173
856.729	4188
856.862	4284
856.996	4257
857.13	4268
857.263	4375
857.397	4390
857.53	4287
857.664	4299
857.797	4413
857.931	4440
858.064	4386
858.197	4485
858.331	4405
858.464	4398
858.597	4348
858.731	4455
858.864	4516
858.997	4459
859.13	4504
859.263	4546
859.396	4573
859.529	4596
859.662	4542
859.795	4565
859.928	4615
860.061	4675
860.194	4771
860.327	4641
860.46	4675
860.592	4748
860.725	4786
860.858	4809
860.99	4725
861.123	4698
861.256	4664
861.388	4782
861.521	5417
861.653	4755
861.786	4691
861.918	4721
862.05	4831
862.183	4892
862.315	4972
862.447	4961
862.58	4873
862.712	4862
862.844	4805
862.976	4908
863.108	4843
863.24	5208
863.372	4805
863.504	4934
863.636	4885
863.768	4961
863.9	4984
864.032	4961
864.164	4987
864.296	4999
864.428	5117
864.559	5071
864.691	5121
864.823	5136
864.954	5136
865.086	5193
865.217	5178
865.349	5033
865.48	5189
865.612	5174
865.743	5303
865.875	5258
866.006	5220
866.137	5265
866.269	5311
866.4	5261
866.531	5250
866.662	5231
866.793	5280
866.924	5299
867.055	5391
867.186	5326
867.317	5334
867.448	5318
867.579	5345
867.71	5459
867.841	5372
867.972	5444
868.103	5493
868.233	5497
868.364	5551
868.495	5528
868.625	5699
868.756	5756
868.886	5699
869.017	5817
869.147	5878
869.278	5882
869.408	5802
869.539	5897
869.669	5961
869.799	5973
869.929	5992
870.06	6022
870.19	6186
870.32	6182
870.45	6300
870.58	6372
870.71	6410
870.84	6460
870.97	6407
871.1	6479
871.23	6642
871.36	6707
871.489	6719
871.619	6768
871.749	6821
871.879	6878
872.008	7012
872.138	6993
872.267	7042
872.397	6977
872.526	7023
872.656	7091
872.785	7209
872.915	7441
873.044	7529
873.173	7506
873.303	7704
873.432	7734
873.561	7928
873.69	7909
873.819	7997
873.948	8199
874.077	8229
874.206	8377
874.335	8465
874.464	8655
874.593	8910
874.722	8941
874.851	9142
874.979	9264
875.108	9374
875.237	9401
875.365	9439
875.494	9644
875.623	9838
875.751	9907
875.88	9979
876.008	10162
876.136	10268
876.265	10561
876.393	10668
876.521	10755
876.65	10797
876.778	10843
876.906	10961
877.034	10927
877.162	11045
877.29	11147
877.418	11265
877.546	11391
877.674	11425
877.802	11509
877.93	11471
878.058	11547
878.185	11562
878.313	11665
878.441	11737
878.568	11642
878.696	11821
878.824	11802
878.951	11923
879.079	12045
879.206	12216
879.333	12038
879.461	12098
879.588	12076
879.715	12091
879.842	12155
879.97	12060
880.097	11901
880.224	11946
880.351	11927
880.478	11866
880.605	11885
880.732	11851
880.859	12003
880.986	11863
881.112	11859
881.239	11790
881.366	11688
881.493	11630
881.619	11532
881.746	11573
881.872	11493
881.999	11482
882.125	11455
882.252	11535
882.378	11596
882.505	11573
882.631	11448
882.757	11341
882.883	11258
883.01	11265
883.136	11242
883.262	11143
883.388	11071
883.514	11235
883.64	11185
883.766	11124
883.892	11071
884.018	11045
884.143	11075
884.269	11143
884.395	10835
884.52	10790
884.646	10774
884.772	10664
884.897	10626
885.023	10664
885.148	10740
885.274	10706
885.399	10664
885.524	10626
885.65	10611
885.775	10611
885.9	10573
886.025	10622
886.15	10577
886.275	10474
886.4	10405
886.525	10421
886.65	10402
886.775	10348
886.9	10489
887.025	10573
887.149	10421
887.274	10219
887.399	10188
887.523	10211
887.648	10227
887.773	10185
887.897	10211
888.021	10295
888.146	10116
888.27	10215
888.395	10188
888.519	10219
888.643	10192
888.767	10128
888.891	10139
889.015	10059
889.139	10051
889.263	10017
889.387	10048
889.511	10158
889.635	10090
889.759	9983
889.883	9979
890.006	9979
890.13	10101
890.254	9975
890.377	9991
890.501	9861
890.624	9816
890.748	9956
890.871	9880
890.995	9698
891.118	9705
891.241	9774
891.364	9698
891.488	9869
891.611	9652
891.734	9804
891.857	9804
891.98	9724
892.103	9766
892.226	9766
892.349	9633
892.471	9576
892.594	9606
892.717	9610
892.839	9614
892.962	9561
893.085	9728
893.207	9599
893.33	9515
893.452	9557
893.575	9637
893.697	9534
893.819	9618
893.941	9625
894.064	9545
894.186	9526
894.308	9401
894.43	9549
894.552	9542
894.674	9526
894.796	9374
894.918	9382
895.04	9256
895.161	9359
895.283	9302
895.405	9256
895.526	9256
895.648	9237
895.769	9237
895.891	9272
896.012	9230
896.134	9268
896.255	9184
896.376	9097
896.498	9211
896.619	9123
896.74	9154
896.861	9123
896.982	9321
897.103	9321
897.224	9165
897.345	9123
897.466	9028
897.587	9017
897.708	9100
897.828	9058
897.949	8933
898.07	8887
898.19	8864
898.311	9051
898.431	8883
898.552	8963
898.672	8956
898.792	8891
898.913	8956
899.033	8883
899.153	8716
899.273	8705
899.393	8766
899.513	8743
899.633	8712
899.753	8750
899.873	8758
899.993	8800
900.113	8705
900.232	8781
900.352	8716
900.472	8689
900.591	8571
900.711	8636
900.83	8549
900.95	8686
901.069	8708
901.189	8689
901.308	8499
901.427	8469
901.546	8389
901.665	8507
901.784	8431
901.904	8381
902.023	8347
902.141	8240
902.26	8172
902.379	8339
902.498	8199
902.617	8275
902.735	8248
902.854	8309
902.973	8313
903.091	8111
903.21	8130
903.328	8111
903.446	8164
903.565	8062
903.683	8168
903.801	8111
903.919	8142
904.038	8081
904.156	8012
904.274	8073
904.392	8046
904.51	8012
904.627	8081
904.745	8088
904.863	8050
904.981	7875
905.098	7898
905.216	7841
905.334	7875
905.451	7917
905.569	7822
905.686	7906
905.803	7936
905.921	7761
906.038	7879
906.155	7837
906.272	7757
906.389	7769
906.506	7624
906.623	7609
906.74	7605
906.857	7540
906.974	7586
907.091	7696
907.208	7689
907.324	7708
907.441	7575
907.557	7441
907.674	7476
907.79	7396
907.907	7354
908.023	7487
908.139	7407
908.256	7384
908.372	7373
908.488	7335
908.604	7285
908.72	7244
908.836	7350
908.952	7236
909.068	7274
909.184	7324
909.3	7308
909.415	7240
909.531	7259
909.647	7091
909.762	7133
909.878	7126
909.993	7103
910.108	7114
910.224	7050
910.339	7171
910.454	7076
910.57	6981
910.685	6920
910.8	7175
910.915	7095
911.03	7061
911.145	6916
911.259	6871
911.374	6901
911.489	6814
911.604	6844
911.718	6734
911.833	6738
911.947	6654
912.062	6631
912.176	6741
912.291	6715
912.405	6741
912.519	6829
912.633	6852
912.748	6783
912.862	6696
912.976	6623
913.09	6547
913.204	6616
913.318	6604
913.431	6681
913.545	6665
913.659	6684
913.772	6631
913.886	6555
914	6555
914.113	6635
914.226	6700
914.34	6642
914.453	6471
914.566	6582
914.68	6551
914.793	6525
914.906	6429
915.019	6399
915.132	6418
915.245	6467
915.358	6418
915.47	6475
915.583	6486
915.696	6475
915.809	6517
915.921	6597
916.034	6475
916.146	6448
916.259	6414
916.371	6464
916.483	6467
916.595	6380
916.708	6441
916.82	6460
916.932	6361
917.044	6433
917.156	6441
917.268	6331
917.38	6357
917.491	6258
917.603	6395
917.715	6414
917.826	6433
917.938	6300
918.049	6251
918.161	6353
918.272	6429
918.384	6490
918.495	6296
918.606	6224
918.717	6251
918.828	6289
918.939	6308
919.05	6171
919.161	6224
919.272	6148
919.383	6155
919.494	6331
919.604	6403
919.715	6289
919.826	6205
919.936	6277
920.047	6372
920.157	6266
920.267	6467
920.378	6334
920.488	6289
920.598	6525
920.708	6544
920.818	6475
920.928	6479
921.038	6582
921.148	6623
921.258	6388
921.368	6292
921.477	6186
921.587	6140
921.697	6095
921.806	6171
921.916	6121
922.025	5942
922.134	5935
922.244	5992
922.353	5920
922.462	5828
922.571	5798
922.68	5722
922.789	5695
922.898	5722
923.007	5714
923.116	5668
923.224	5688
923.333	5691
923.442	5615
923.55	5532
923.659	5573
923.767	5619
923.876	5520
923.984	5627
924.092	5501
924.201	5562
924.309	5577
924.417	5630
924.525	5543
924.633	5547
924.741	6125
924.849	5376
924.956	5501
925.064	5387
925.172	5303
925.279	5334
925.387	5360
925.494	5372
925.602	5414
925.709	5429
925.816	5265
925.924	5387
926.031	5349
926.138	5220
926.245	5360
926.352	5212
926.459	5360
926.566	5322
926.673	5193
926.779	5201
926.886	5064
926.993	5045
927.099	4995
927.206	4968
927.312	5006
927.419	4995
927.525	4999
927.631	4999
927.737	4896
927.843	4812
927.95	4759
928.056	4862
928.162	4850
928.267	4908
928.373	5395
928.479	4854
928.585	4714
928.69	4839
928.796	4805
928.901	4668
929.007	4637
929.112	4714
929.218	4641
929.323	4592
929.428	4596
929.533	4702
929.638	4538
929.743	4531
929.848	4569
929.953	4569
930.058	4428
930.163	4329
930.267	4341
930.372	4436
930.477	4322
930.581	4478
930.685	4348
930.79	4295
930.894	4325
930.998	4310
931.103	4383
931.207	4120
931.311	4093
931.415	4036
931.519	3899
931.623	3972
