Data from glass_V78500241_2903.txt Node
Date: Wed Sep 01 19:34:37 CST 2021
User: usil
Spectrometer: V785-0024
Trigger mode: 0
Integration Time (sec): 4.000000E-1
Scans to average: 1
Nonlinearity correction enabled: false
Boxcar width: 0
Storing dark spectrum: false
XAxis mode: Wavelengths
Number of Pixels in Spectrum: 1024
>>>>>Begin Spectral Data<<<<<
801.071	3713
801.214	3705
801.356	3656
801.499	3724
801.641	3705
801.783	3705
801.926	3873
802.068	3774
802.211	3816
802.353	3869
802.496	3766
802.638	3876
802.78	3888
802.923	3876
803.065	3915
803.208	3838
803.35	3838
803.492	3892
803.635	3876
803.777	3774
803.919	3884
804.061	4093
804.204	3956
804.346	3884
804.488	3907
804.63	3972
804.773	3937
804.915	3987
805.057	4120
805.199	3983
805.341	4078
805.483	4093
805.626	4128
805.768	4116
805.91	4204
806.052	4249
806.194	4169
806.336	4337
806.478	4219
806.62	4150
806.762	4097
806.904	4253
807.046	4322
807.188	4162
807.33	4166
807.472	4219
807.614	4143
807.756	4257
807.898	4177
808.04	4143
808.182	4234
808.324	4287
808.465	4310
808.607	4417
808.749	4405
808.891	4440
809.033	4451
809.174	4402
809.316	4230
809.458	4185
809.6	4082
809.741	4101
809.883	4105
810.025	4131
810.166	4200
810.308	4177
810.45	4230
810.591	4242
810.733	4261
810.875	4485
811.016	4763
811.158	5128
811.299	5223
811.441	5235
811.582	5029
811.724	4672
811.865	4474
812.007	4493
812.148	4432
812.29	4417
812.431	4394
812.573	4386
812.714	4356
812.855	4363
812.997	4371
813.138	4519
813.279	4375
813.421	4367
813.562	4360
813.703	4291
813.845	4276
813.986	4234
814.127	4219
814.268	4246
814.41	4299
814.551	4238
814.692	4287
814.833	4261
814.974	4295
815.115	4352
815.256	4219
815.397	4154
815.539	4238
815.68	4154
815.821	4162
815.962	4272
816.103	4215
816.244	4181
816.385	4211
816.526	4268
816.666	4173
816.807	4067
816.948	4158
817.089	4131
817.23	4101
817.371	4036
817.512	4044
817.653	4040
817.793	4025
817.934	4029
818.075	4055
818.216	4067
818.356	4055
818.497	3964
818.638	3865
818.778	3892
818.919	3884
819.06	3842
819.2	3869
819.341	3842
819.481	3823
819.622	3854
819.762	3968
819.903	3937
820.043	3846
820.184	3789
820.324	3808
820.465	3850
820.605	3884
820.746	3827
820.886	3793
821.026	3930
821.167	3896
821.307	3953
821.447	3964
821.588	3953
821.728	3911
821.868	3861
822.008	3861
822.149	3888
822.289	3861
822.429	3766
822.569	3709
822.709	3740
822.849	3633
822.99	3720
823.13	3747
823.27	3743
823.41	3675
823.55	3747
823.69	3709
823.83	3728
823.97	3671
824.11	3606
824.25	3572
824.389	3641
824.529	3633
824.669	3614
824.809	3713
824.949	3709
825.089	3728
825.228	3679
825.368	3603
825.508	3523
825.648	3523
825.787	3580
825.927	3591
826.067	3591
826.206	3622
826.346	3800
826.485	3770
826.625	3827
826.765	3888
826.904	3823
827.044	3580
827.183	3511
827.323	3405
827.462	3447
827.601	3443
827.741	3397
827.88	3424
828.02	3313
828.159	3389
828.298	3492
828.437	3492
828.577	3462
828.716	3595
828.855	3450
828.994	3367
829.134	3370
829.273	3378
829.412	3332
829.551	3291
829.69	3340
829.829	3397
829.968	3492
830.107	3431
830.246	3450
830.385	3348
830.524	3336
830.663	3291
830.802	3237
830.941	3195
831.08	3184
831.219	3241
831.357	3253
831.496	3367
831.635	3203
831.774	3173
831.913	3188
832.051	3146
832.19	3146
832.329	3169
832.467	3093
832.606	3058
832.744	3169
832.883	3184
833.022	3188
833.16	3203
833.299	3313
833.437	3306
833.576	3348
833.714	3370
833.852	3428
833.991	3447
834.129	3496
834.267	3454
834.406	3401
834.544	3374
834.682	3344
834.821	3401
834.959	3568
835.097	3431
835.235	3530
835.373	3393
835.511	3488
835.65	3454
835.788	3443
835.926	3351
836.064	3348
836.202	3401
836.34	3572
836.478	3603
836.615	3553
836.753	3595
836.891	3629
837.029	3603
837.167	3530
837.305	3530
837.443	3500
837.58	3485
837.718	3553
837.856	3580
837.993	3515
838.131	3587
838.269	3542
838.406	3553
838.544	3564
838.681	3447
838.819	3405
838.956	3359
839.094	3336
839.231	3431
839.369	3492
839.506	3728
839.643	3629
839.781	3473
839.918	3439
840.055	3511
840.193	3523
840.33	3504
840.467	3538
840.604	3542
840.742	3766
840.879	3523
841.016	3530
841.153	3549
841.29	3766
841.427	3694
841.564	3694
841.701	3682
841.838	3652
841.975	3641
842.112	3675
842.249	3622
842.385	3603
842.522	3793
842.659	3667
842.796	3660
842.933	3701
843.069	3652
843.206	3675
843.343	3827
843.479	3797
843.616	3778
843.752	3679
843.889	3663
844.025	3812
844.162	3682
844.298	3800
844.435	3781
844.571	3743
844.708	3804
844.844	3960
844.98	3960
845.117	3956
845.253	4002
845.389	3873
845.525	3945
845.661	3937
845.798	3903
845.934	3983
846.07	3903
846.206	4013
846.342	4131
846.478	4006
846.614	3983
846.75	3934
846.886	3880
847.022	3998
847.158	3956
847.294	3975
847.429	3964
847.565	3991
847.701	4211
847.837	3869
847.972	3827
848.108	3949
848.244	3949
848.379	3884
848.515	3766
848.65	3804
848.786	3819
848.921	3861
849.057	3911
849.192	3922
849.328	3926
849.463	3865
849.598	3861
849.734	3854
849.869	3800
850.004	3781
850.14	3740
850.275	3778
850.41	3740
850.545	3759
850.68	3732
850.815	3732
850.95	3804
851.085	3915
851.22	3838
851.355	3800
851.49	3770
851.625	3759
851.76	3778
851.895	3743
852.03	3717
852.165	3804
852.299	3804
852.434	3880
852.569	3857
852.703	3861
852.838	3911
852.973	3975
853.107	3899
853.242	3861
853.376	3835
853.511	3724
853.645	3778
853.78	3926
853.914	3850
854.048	3903
854.183	3850
854.317	3964
854.451	3994
854.585	3926
854.72	3934
854.854	4044
854.988	3896
855.122	3972
855.256	3911
855.39	3975
855.524	4040
855.658	4051
855.792	4067
855.926	4101
856.06	4173
856.194	4196
856.327	4143
856.461	4048
856.595	4101
856.729	4154
856.862	4257
856.996	4215
857.13	4223
857.263	4227
857.397	4314
857.53	4265
857.664	4337
857.797	4371
857.931	4390
858.064	4371
858.197	4417
858.331	4329
858.464	4325
858.597	4337
858.731	4386
858.864	4417
858.997	4405
859.13	4470
859.263	4516
859.396	4584
859.529	4478
859.662	4497
859.795	4512
859.928	4527
860.061	4649
860.194	4691
860.327	4603
860.46	4592
860.592	4691
860.725	4710
860.858	4748
860.99	4714
861.123	4691
861.256	4691
861.388	4759
861.521	5334
861.653	4733
861.786	4683
861.918	4729
862.05	4736
862.183	4831
862.315	4854
862.447	4908
862.58	4824
862.712	4790
862.844	4805
862.976	4843
863.108	4774
863.24	5162
863.372	4801
863.504	4927
863.636	4885
863.768	4968
863.9	4896
864.032	4850
864.164	4896
864.296	4961
864.428	5033
864.559	5102
864.691	5083
864.823	5086
864.954	5086
865.086	5121
865.217	5124
865.349	5090
865.48	5117
865.612	5162
865.743	5204
865.875	5170
866.006	5155
866.137	5216
866.269	5193
866.4	5250
866.531	5235
866.662	5204
866.793	5220
866.924	5277
867.055	5311
867.186	5341
867.317	5299
867.448	5307
867.579	5383
867.71	5326
867.841	5376
867.972	5414
868.103	5387
868.233	5417
868.364	5493
868.495	5554
868.625	5649
868.756	5764
868.886	5668
869.017	5684
869.147	5847
869.278	5847
869.408	5798
869.539	5828
869.669	5931
869.799	5870
869.929	5923
870.06	5958
870.19	6186
870.32	6148
870.45	6251
870.58	6331
870.71	6445
870.84	6426
870.97	6410
871.1	6429
871.23	6635
871.36	6696
871.489	6669
871.619	6639
871.749	6802
871.879	6875
872.008	6928
872.138	6924
872.267	6996
872.397	7004
872.526	7008
872.656	7141
872.785	7194
872.915	7297
873.044	7548
873.173	7537
873.303	7647
873.432	7795
873.561	7818
873.69	7879
873.819	7955
873.948	8153
874.077	8183
874.206	8294
874.335	8465
874.464	8583
874.593	8796
874.722	8895
874.851	9032
874.979	9241
875.108	9382
875.237	9355
875.365	9500
875.494	9576
875.623	9793
875.751	9819
875.88	9991
876.008	10055
876.136	10280
876.265	10466
876.393	10691
876.521	10656
876.65	10778
876.778	10828
876.906	10919
877.034	10915
877.162	11105
877.29	11117
877.418	11254
877.546	11292
877.674	11417
877.802	11444
877.93	11528
878.058	11543
878.185	11585
878.313	11532
878.441	11707
878.568	11718
878.696	11840
878.824	11824
878.951	11904
879.079	12057
879.206	12095
879.333	12053
879.461	11927
879.588	11999
879.715	12095
879.842	12148
879.97	12030
880.097	11843
880.224	11733
880.351	11866
880.478	11897
880.605	11817
880.732	11809
880.859	11992
880.986	11794
881.112	11767
881.239	11707
881.366	11653
881.493	11554
881.619	11676
881.746	11570
881.872	11512
881.999	11433
882.125	11528
882.252	11372
882.378	11528
882.505	11532
882.631	11337
882.757	11242
882.883	11212
883.01	11189
883.136	11193
883.262	11067
883.388	11060
883.514	11147
883.64	11174
883.766	11067
883.892	10927
884.018	10953
884.143	11018
884.269	11037
884.395	10919
884.52	10759
884.646	10679
884.772	10675
884.897	10649
885.023	10668
885.148	10656
885.274	10675
885.399	10694
885.524	10466
885.65	10592
885.775	10577
885.9	10580
886.025	10588
886.15	10550
886.275	10428
886.4	10379
886.525	10379
886.65	10375
886.775	10322
886.9	10428
887.025	10516
887.149	10322
887.274	10143
887.399	10143
887.523	10135
887.648	10124
887.773	10109
887.897	10234
888.021	10196
888.146	10063
888.27	10177
888.395	10162
888.519	10071
888.643	10128
888.767	10090
888.891	10032
889.015	9972
889.139	10025
889.263	10017
889.387	10044
889.511	10029
889.635	10071
889.759	9907
889.883	9941
890.006	10074
890.13	10074
890.254	9861
890.377	9983
890.501	9854
890.624	9755
890.748	9865
890.871	9827
890.995	9698
891.118	9724
891.241	9793
891.364	9648
891.488	9804
891.611	9633
891.734	9660
891.857	9762
891.98	9705
892.103	9717
892.226	9736
892.349	9622
892.471	9477
892.594	9496
892.717	9606
892.839	9542
892.962	9545
893.085	9564
893.207	9580
893.33	9424
893.452	9511
893.575	9614
893.697	9428
893.819	9633
893.941	9652
894.064	9549
894.186	9466
894.308	9370
894.43	9488
894.552	9538
894.674	9454
894.796	9351
894.918	9389
895.04	9408
895.161	9317
895.283	9268
895.405	9253
895.526	9237
895.648	9161
895.769	9112
895.891	9214
896.012	9306
896.134	9211
896.255	9119
896.376	9077
896.498	9116
896.619	9085
896.74	9089
896.861	9108
896.982	9157
897.103	9268
897.224	9157
897.345	8990
897.466	8906
897.587	9051
897.708	9020
897.828	8979
897.949	8925
898.07	8891
898.19	8861
898.311	8990
898.431	8891
898.552	8929
898.672	8925
898.792	8891
898.913	8895
899.033	8769
899.153	8731
899.273	8686
899.393	8655
899.513	8727
899.633	8705
899.753	8689
899.873	8636
899.993	8708
900.113	8689
900.232	8663
900.352	8629
900.472	8583
900.591	8526
900.711	8526
900.83	8476
900.95	8651
901.069	8697
901.189	8549
901.308	8480
901.427	8408
901.546	8351
901.665	8431
901.784	8530
901.904	8332
902.023	8317
902.141	8153
902.26	8202
902.379	8256
902.498	8191
902.617	8176
902.735	8267
902.854	8290
902.973	8233
903.091	8092
903.21	8096
903.328	8130
903.446	8062
903.565	8069
903.683	8077
903.801	8031
903.919	8058
904.038	8119
904.156	7970
904.274	8058
904.392	8050
904.51	8024
904.627	8031
904.745	8005
904.863	8050
904.981	7932
905.098	7818
905.216	7909
905.334	7868
905.451	7902
905.569	7845
905.686	7849
905.803	7875
905.921	7803
906.038	7807
906.155	7822
906.272	7723
906.389	7655
906.506	7616
906.623	7609
906.74	7540
906.857	7480
906.974	7499
907.091	7636
907.208	7700
907.324	7639
907.441	7575
907.557	7430
907.674	7453
907.79	7384
907.907	7381
908.023	7384
908.139	7335
908.256	7369
908.372	7331
908.488	7373
908.604	7255
908.72	7209
908.836	7240
908.952	7187
909.068	7114
909.184	7270
909.3	7232
909.415	7278
909.531	7240
909.647	7099
909.762	7107
909.878	7152
909.993	7038
910.108	7031
910.224	7103
910.339	7099
910.454	7042
910.57	7019
910.685	6920
910.8	7126
910.915	7088
911.03	6958
911.145	6852
911.259	6840
911.374	6840
911.489	6821
911.604	6753
911.718	6768
911.833	6696
911.947	6696
912.062	6601
912.176	6566
912.291	6662
912.405	6681
912.519	6795
912.633	6818
912.748	6715
912.862	6715
912.976	6566
913.09	6464
913.204	6570
913.318	6601
913.431	6585
913.545	6692
913.659	6681
913.772	6642
913.886	6486
914	6494
914.113	6616
914.226	6635
914.34	6540
914.453	6399
914.566	6544
914.68	6544
914.793	6585
914.906	6323
915.019	6384
915.132	6372
915.245	6388
915.358	6429
915.47	6445
915.583	6422
915.696	6433
915.809	6486
915.921	6513
916.034	6372
916.146	6399
916.259	6334
916.371	6437
916.483	6426
916.595	6372
916.708	6399
916.82	6315
916.932	6346
917.044	6403
917.156	6357
917.268	6353
917.38	6270
917.491	6235
917.603	6277
917.715	6410
917.826	6380
917.938	6289
918.049	6216
918.161	6281
918.272	6315
918.384	6441
918.495	6323
918.606	6209
918.717	6136
918.828	6190
918.939	6258
919.05	6186
919.161	6197
919.272	6079
919.383	6110
919.494	6266
919.604	6399
919.715	6285
919.826	6186
919.936	6258
920.047	6311
920.157	6209
920.267	6410
920.378	6319
920.488	6319
920.598	6437
920.708	6486
920.818	6380
920.928	6460
921.038	6608
921.148	6574
921.258	6289
921.368	6292
921.477	6106
921.587	6148
921.697	6106
921.806	6228
921.916	5999
922.025	5931
922.134	5916
922.244	5874
922.353	5882
922.462	5824
922.571	5752
922.68	5646
922.789	5638
922.898	5718
923.007	5611
923.116	5688
923.224	5638
923.333	5589
923.442	5627
923.55	5596
923.659	5512
923.767	5611
923.876	5463
923.984	5539
924.092	5471
924.201	5528
924.309	5493
924.417	5493
924.525	5467
924.633	5478
924.741	6098
924.849	5330
924.956	5417
925.064	5345
925.172	5296
925.279	5284
925.387	5326
925.494	5265
925.602	5410
925.709	5391
925.816	5208
925.924	5288
926.031	5364
926.138	5296
926.245	5315
926.352	5174
926.459	5360
926.566	5235
926.673	5113
926.779	5102
926.886	5086
926.993	5041
927.099	4980
927.206	4927
927.312	4995
927.419	4946
927.525	4953
927.631	4957
927.737	4854
927.843	4866
927.95	4740
928.056	4793
928.162	4812
928.267	4812
928.373	5269
928.479	4828
928.585	4645
928.69	4763
928.796	4740
928.901	4634
929.007	4531
929.112	4706
929.218	4630
929.323	4611
929.428	4558
929.533	4630
929.638	4554
929.743	4489
929.848	4527
929.953	4504
930.058	4409
930.163	4287
930.267	4325
930.372	4424
930.477	4287
930.581	4443
930.685	4303
930.79	4238
930.894	4257
930.998	4227
931.103	4383
931.207	4124
931.311	4059
931.415	3991
931.519	3941
931.623	3892
