Data from glass_V78500241_1975.txt Node
Date: Wed Sep 01 19:28:11 CST 2021
User: usil
Spectrometer: V785-0024
Trigger mode: 0
Integration Time (sec): 4.000000E-1
Scans to average: 1
Nonlinearity correction enabled: false
Boxcar width: 0
Storing dark spectrum: false
XAxis mode: Wavelengths
Number of Pixels in Spectrum: 1024
>>>>>Begin Spectral Data<<<<<
801.071	3747
801.214	3732
801.356	3736
801.499	3759
801.641	3720
801.783	3778
801.926	3831
802.068	3831
802.211	3873
802.353	3842
802.496	3819
802.638	3884
802.78	3903
802.923	3911
803.065	3915
803.208	3873
803.35	3869
803.492	3907
803.635	3934
803.777	3800
803.919	3865
804.061	4158
804.204	3975
804.346	3934
804.488	3915
804.63	4025
804.773	3998
804.915	3983
805.057	4128
805.199	4044
805.341	4101
805.483	4150
805.626	4101
805.768	4097
805.91	4169
806.052	4219
806.194	4223
806.336	4344
806.478	4207
806.62	4154
806.762	4150
806.904	4280
807.046	4344
807.188	4173
807.33	4143
807.472	4200
807.614	4200
807.756	4261
807.898	4227
808.04	4162
808.182	4280
808.324	4322
808.465	4356
808.607	4443
808.749	4440
808.891	4478
809.033	4500
809.174	4428
809.316	4291
809.458	4268
809.6	4101
809.741	4169
809.883	4120
810.025	4181
810.166	4211
810.308	4242
810.45	4253
810.591	4227
810.733	4314
810.875	4523
811.016	4881
811.158	5098
811.299	5212
811.441	5269
811.582	5098
811.724	4714
811.865	4436
812.007	4455
812.148	4436
812.29	4398
812.431	4417
812.573	4402
812.714	4383
812.855	4402
812.997	4409
813.138	4478
813.279	4409
813.421	4402
813.562	4375
813.703	4329
813.845	4325
813.986	4261
814.127	4272
814.268	4200
814.41	4253
814.551	4253
814.692	4318
814.833	4287
814.974	4299
815.115	4322
815.256	4291
815.397	4238
815.539	4280
815.68	4150
815.821	4185
815.962	4299
816.103	4325
816.244	4284
816.385	4162
816.526	4253
816.666	4169
816.807	4086
816.948	4177
817.089	4169
817.23	4116
817.371	4078
817.512	4040
817.653	4082
817.793	4071
817.934	4044
818.075	4074
818.216	4086
818.356	4067
818.497	3968
818.638	3918
818.778	3892
818.919	3873
819.06	3861
819.2	3915
819.341	3869
819.481	3873
819.622	3930
819.762	3994
819.903	3991
820.043	3865
820.184	3873
820.324	3823
820.465	3823
820.605	3838
820.746	3884
820.886	3766
821.026	3964
821.167	3903
821.307	3994
821.447	3987
821.588	3945
821.728	3953
821.868	3926
822.008	3857
822.149	3896
822.289	3930
822.429	3762
822.569	3778
822.709	3781
822.849	3732
822.99	3751
823.13	3789
823.27	3770
823.41	3732
823.55	3724
823.69	3717
823.83	3774
823.97	3663
824.11	3603
824.25	3618
824.389	3641
824.529	3682
824.669	3584
824.809	3717
824.949	3724
825.089	3736
825.228	3682
825.368	3542
825.508	3523
825.648	3549
825.787	3614
825.927	3652
826.067	3610
826.206	3690
826.346	3819
826.485	3797
826.625	3873
826.765	3915
826.904	3812
827.044	3610
827.183	3507
827.323	3416
827.462	3488
827.601	3431
827.741	3393
827.88	3405
828.02	3359
828.159	3409
828.298	3439
828.437	3507
828.577	3469
828.716	3595
828.855	3466
828.994	3351
829.134	3336
829.273	3370
829.412	3370
829.551	3313
829.69	3348
829.829	3481
829.968	3504
830.107	3431
830.246	3420
830.385	3351
830.524	3348
830.663	3313
830.802	3230
830.941	3157
831.08	3184
831.219	3237
831.357	3249
831.496	3420
831.635	3260
831.774	3184
831.913	3214
832.051	3131
832.19	3161
832.329	3184
832.467	3127
832.606	3123
832.744	3169
832.883	3169
833.022	3195
833.16	3260
833.299	3283
833.437	3340
833.576	3329
833.714	3416
833.852	3462
833.991	3458
834.129	3485
834.267	3439
834.406	3416
834.544	3401
834.682	3439
834.821	3389
834.959	3542
835.097	3420
835.235	3530
835.373	3515
835.511	3500
835.65	3458
835.788	3447
835.926	3401
836.064	3378
836.202	3374
836.34	3576
836.478	3599
836.615	3542
836.753	3580
836.891	3648
837.029	3652
837.167	3603
837.305	3545
837.443	3530
837.58	3488
837.718	3576
837.856	3553
837.993	3526
838.131	3603
838.269	3584
838.406	3584
838.544	3580
838.681	3500
838.819	3462
838.956	3325
839.094	3401
839.231	3428
839.369	3507
839.506	3743
839.643	3618
839.781	3481
839.918	3488
840.055	3530
840.193	3488
840.33	3530
840.467	3549
840.604	3629
840.742	3812
840.879	3530
841.016	3526
841.153	3603
841.29	3781
841.427	3736
841.564	3709
841.701	3736
841.838	3705
841.975	3675
842.112	3717
842.249	3629
842.385	3648
842.522	3793
842.659	3641
842.796	3652
842.933	3717
843.069	3720
843.206	3705
843.343	3800
843.479	3781
843.616	3819
843.752	3701
843.889	3705
844.025	3827
844.162	3713
844.298	3865
844.435	3770
844.571	3774
844.708	3915
844.844	3960
844.98	4006
845.117	3956
845.253	3922
845.389	3884
845.525	3956
845.661	3964
845.798	3907
845.934	3991
846.07	3983
846.206	4044
846.342	4105
846.478	4029
846.614	3987
846.75	3926
846.886	3907
847.022	4040
847.158	3972
847.294	3987
847.429	4010
847.565	3998
847.701	4249
847.837	3892
847.972	3823
848.108	3979
848.244	3979
848.379	3888
848.515	3827
848.65	3831
848.786	3789
848.921	3854
849.057	3896
849.192	3956
849.328	3892
849.463	3949
849.598	3892
849.734	3865
849.869	3812
850.004	3800
850.14	3797
850.275	3751
850.41	3736
850.545	3747
850.68	3781
850.815	3781
850.95	3800
851.085	3926
851.22	3812
851.355	3808
851.49	3797
851.625	3781
851.76	3774
851.895	3766
852.03	3743
852.165	3812
852.299	3808
852.434	3903
852.569	3857
852.703	3842
852.838	3960
852.973	3983
853.107	3991
853.242	3850
853.376	3800
853.511	3728
853.645	3831
853.78	3949
853.914	3892
854.048	3857
854.183	3857
854.317	3934
854.451	4074
854.585	3968
854.72	3968
854.854	4010
854.988	3949
855.122	3991
855.256	3945
855.39	4021
855.524	4090
855.658	4071
855.792	4109
855.926	4109
856.06	4192
856.194	4257
856.327	4090
856.461	4124
856.595	4154
856.729	4204
856.862	4257
856.996	4310
857.13	4314
857.263	4310
857.397	4367
857.53	4257
857.664	4325
857.797	4386
857.931	4417
858.064	4371
858.197	4421
858.331	4417
858.464	4405
858.597	4348
858.731	4436
858.864	4443
858.997	4447
859.13	4500
859.263	4493
859.396	4611
859.529	4508
859.662	4508
859.795	4508
859.928	4558
860.061	4675
860.194	4714
860.327	4645
860.46	4634
860.592	4717
860.725	4782
860.858	4767
860.99	4683
861.123	4675
861.256	4649
861.388	4725
861.521	5334
861.653	4672
861.786	4691
861.918	4755
862.05	4744
862.183	4866
862.315	4873
862.447	4934
862.58	4839
862.712	4797
862.844	4755
862.976	4896
863.108	4885
863.24	5181
863.372	4839
863.504	4889
863.636	4850
863.768	4987
863.9	4961
864.032	4949
864.164	4961
864.296	5041
864.428	5113
864.559	5075
864.691	5140
864.823	5124
864.954	5041
865.086	5140
865.217	5174
865.349	5075
865.48	5147
865.612	5189
865.743	5235
865.875	5174
866.006	5193
866.137	5227
866.269	5189
866.4	5181
866.531	5227
866.662	5151
866.793	5284
866.924	5273
867.055	5280
867.186	5349
867.317	5368
867.448	5265
867.579	5303
867.71	5360
867.841	5349
867.972	5429
868.103	5463
868.233	5452
868.364	5490
868.495	5543
868.625	5615
868.756	5767
868.886	5611
869.017	5718
869.147	5844
869.278	5817
869.408	5790
869.539	5821
869.669	5897
869.799	5912
869.929	5969
870.06	6030
870.19	6144
870.32	6144
870.45	6232
870.58	6296
870.71	6399
870.84	6521
870.97	6361
871.1	6464
871.23	6631
871.36	6681
871.489	6688
871.619	6753
871.749	6878
871.879	6840
872.008	6996
872.138	7023
872.267	7027
872.397	7050
872.526	6973
872.656	7084
872.785	7247
872.915	7354
873.044	7487
873.173	7567
873.303	7681
873.432	7746
873.561	7807
873.69	7917
873.819	7967
873.948	8153
874.077	8259
874.206	8339
874.335	8488
874.464	8701
874.593	8845
874.722	8937
874.851	9127
874.979	9237
875.108	9351
875.237	9447
875.365	9462
875.494	9644
875.623	9797
875.751	9854
875.88	9960
876.008	10109
876.136	10303
876.265	10497
876.393	10752
876.521	10698
876.65	10896
876.778	10873
876.906	10927
877.034	10953
877.162	11079
877.29	11121
877.418	11280
877.546	11315
877.674	11474
877.802	11505
877.93	11543
878.058	11604
878.185	11570
878.313	11703
878.441	11767
878.568	11722
878.696	11866
878.824	11863
878.951	11920
879.079	12011
879.206	12095
879.333	12007
879.461	11984
879.588	12049
879.715	11996
879.842	12197
879.97	11965
880.097	11908
880.224	11882
880.351	11920
880.478	11863
880.605	11828
880.732	11851
880.859	11908
880.986	11733
881.112	11878
881.239	11688
881.366	11661
881.493	11676
881.619	11551
881.746	11566
881.872	11516
881.999	11543
882.125	11471
882.252	11539
882.378	11493
882.505	11512
882.631	11383
882.757	11296
882.883	11417
883.01	11356
883.136	11227
883.262	11178
883.388	11151
883.514	11151
883.64	11117
883.766	11162
883.892	10980
884.018	10991
884.143	11025
884.269	11086
884.395	10858
884.52	10736
884.646	10797
884.772	10687
884.897	10691
885.023	10649
885.148	10622
885.274	10725
885.399	10714
885.524	10618
885.65	10607
885.775	10611
885.9	10584
886.025	10603
886.15	10569
886.275	10440
886.4	10341
886.525	10367
886.65	10405
886.775	10291
886.9	10573
887.025	10485
887.149	10325
887.274	10215
887.399	10246
887.523	10249
887.648	10204
887.773	10078
887.897	10219
888.021	10196
888.146	10135
888.27	10227
888.395	10215
888.519	10166
888.643	10246
888.767	10181
888.891	10055
889.015	10055
889.139	10086
889.263	9972
889.387	10074
889.511	10078
889.635	10112
889.759	9907
889.883	10025
890.006	9964
890.13	10044
890.254	9979
890.377	10010
890.501	9880
890.624	9831
890.748	9960
890.871	9842
890.995	9747
891.118	9717
891.241	9797
891.364	9743
891.488	9762
891.611	9724
891.734	9751
891.857	9740
891.98	9736
892.103	9808
892.226	9652
892.349	9720
892.471	9526
892.594	9618
892.717	9648
892.839	9580
892.962	9648
893.085	9603
893.207	9625
893.33	9466
893.452	9545
893.575	9599
893.697	9507
893.819	9561
893.941	9576
894.064	9572
894.186	9416
894.308	9386
894.43	9488
894.552	9530
894.674	9492
894.796	9431
894.918	9386
895.04	9340
895.161	9313
895.283	9348
895.405	9195
895.526	9256
895.648	9241
895.769	9241
895.891	9245
896.012	9291
896.134	9207
896.255	9154
896.376	9123
896.498	9154
896.619	9066
896.74	9070
896.861	9077
896.982	9272
897.103	9283
897.224	9104
897.345	8986
897.466	9070
897.587	9070
897.708	9146
897.828	8998
897.949	8956
898.07	8872
898.19	8910
898.311	9036
898.431	8960
898.552	8883
898.672	8986
898.792	8944
898.913	8895
899.033	8796
899.153	8811
899.273	8640
899.393	8701
899.513	8762
899.633	8674
899.753	8724
899.873	8667
899.993	8670
900.113	8720
900.232	8727
900.352	8712
900.472	8610
900.591	8552
900.711	8568
900.83	8579
900.95	8629
901.069	8701
901.189	8545
901.308	8393
901.427	8347
901.546	8495
901.665	8484
901.784	8522
901.904	8427
902.023	8294
902.141	8202
902.26	8221
902.379	8263
902.498	8202
902.617	8244
902.735	8271
902.854	8240
902.973	8317
903.091	8073
903.21	8035
903.328	8149
903.446	8119
903.565	8058
903.683	8081
903.801	8088
903.919	8100
904.038	8123
904.156	8024
904.274	8031
904.392	8050
904.51	8035
904.627	7974
904.745	8065
904.863	8115
904.981	7898
905.098	7883
905.216	7845
905.334	7818
905.451	7890
905.569	7890
905.686	7906
905.803	7864
905.921	7753
906.038	7864
906.155	7776
906.272	7734
906.389	7708
906.506	7628
906.623	7624
906.74	7670
906.857	7533
906.974	7567
907.091	7658
907.208	7662
907.324	7643
907.441	7571
907.557	7487
907.674	7396
907.79	7384
907.907	7350
908.023	7400
908.139	7373
908.256	7445
908.372	7411
908.488	7331
908.604	7213
908.72	7202
908.836	7232
908.952	7228
909.068	7247
909.184	7251
909.3	7259
909.415	7316
909.531	7278
909.647	7080
909.762	7118
909.878	7031
909.993	7187
910.108	7069
910.224	7080
910.339	7110
910.454	7080
910.57	7015
910.685	6977
910.8	7187
910.915	7107
911.03	7023
911.145	6856
911.259	6878
911.374	6920
911.489	6859
911.604	6768
911.718	6757
911.833	6738
911.947	6677
912.062	6642
912.176	6772
912.291	6707
912.405	6715
912.519	6863
912.633	6802
912.748	6772
912.862	6734
912.976	6616
913.09	6502
913.204	6555
913.318	6570
913.431	6646
913.545	6684
913.659	6677
913.772	6688
913.886	6593
914	6517
914.113	6620
914.226	6563
914.34	6593
914.453	6483
914.566	6589
914.68	6536
914.793	6536
914.906	6475
915.019	6399
915.132	6441
915.245	6437
915.358	6407
915.47	6490
915.583	6464
915.696	6464
915.809	6513
915.921	6513
916.034	6376
916.146	6391
916.259	6403
916.371	6475
916.483	6441
916.595	6441
916.708	6403
916.82	6433
916.932	6437
917.044	6350
917.156	6365
917.268	6311
917.38	6380
917.491	6327
917.603	6384
917.715	6353
917.826	6448
917.938	6292
918.049	6300
918.161	6300
918.272	6380
918.384	6448
918.495	6300
918.606	6216
918.717	6175
918.828	6224
918.939	6285
919.05	6186
919.161	6254
919.272	6178
919.383	6121
919.494	6296
919.604	6372
919.715	6300
919.826	6247
919.936	6224
920.047	6365
920.157	6235
920.267	6460
920.378	6308
920.488	6232
920.598	6448
920.708	6528
920.818	6460
920.928	6380
921.038	6525
921.148	6597
921.258	6380
921.368	6304
921.477	6167
921.587	6121
921.697	6087
921.806	6159
921.916	6117
922.025	5961
922.134	5904
922.244	5893
922.353	5988
922.462	5828
922.571	5794
922.68	5653
922.789	5710
922.898	5691
923.007	5600
923.116	5691
923.224	5653
923.333	5665
923.442	5570
923.55	5566
923.659	5558
923.767	5539
923.876	5547
923.984	5581
924.092	5535
924.201	5539
924.309	5535
924.417	5562
924.525	5505
924.633	5551
924.741	6251
924.849	5345
924.956	5463
925.064	5326
925.172	5292
925.279	5311
925.387	5337
925.494	5357
925.602	5436
925.709	5364
925.816	5307
925.924	5303
926.031	5349
926.138	5284
926.245	5311
926.352	5261
926.459	5318
926.566	5299
926.673	5212
926.779	5121
926.886	5121
926.993	5033
927.099	4984
927.206	4965
927.312	4957
927.419	4965
927.525	4946
927.631	4972
927.737	4889
927.843	4812
927.95	4793
928.056	4790
928.162	4812
928.267	4839
928.373	5337
928.479	4809
928.585	4664
928.69	4736
928.796	4725
928.901	4668
929.007	4611
929.112	4637
929.218	4599
929.323	4618
929.428	4561
929.533	4641
929.638	4546
929.743	4531
929.848	4508
929.953	4512
930.058	4409
930.163	4291
930.267	4352
930.372	4417
930.477	4261
930.581	4481
930.685	4379
930.79	4261
930.894	4261
930.998	4219
931.103	4375
931.207	4097
931.311	4116
931.415	4040
931.519	3972
931.623	3911
