Data from glass_V78500241_1869.txt Node
Date: Wed Sep 01 19:27:27 CST 2021
User: usil
Spectrometer: V785-0024
Trigger mode: 0
Integration Time (sec): 4.000000E-1
Scans to average: 1
Nonlinearity correction enabled: false
Boxcar width: 0
Storing dark spectrum: false
XAxis mode: Wavelengths
Number of Pixels in Spectrum: 1024
>>>>>Begin Spectral Data<<<<<
801.071	3766
801.214	3709
801.356	3732
801.499	3709
801.641	3698
801.783	3770
801.926	3789
802.068	3823
802.211	3823
802.353	3915
802.496	3819
802.638	3861
802.78	3888
802.923	3949
803.065	3884
803.208	3842
803.35	3842
803.492	3876
803.635	3896
803.777	3793
803.919	3865
804.061	4150
804.204	3964
804.346	3956
804.488	3960
804.63	3991
804.773	3991
804.915	4059
805.057	4150
805.199	4051
805.341	4150
805.483	4112
805.626	4135
805.768	4105
805.91	4238
806.052	4196
806.194	4227
806.336	4375
806.478	4207
806.62	4154
806.762	4215
806.904	4181
807.046	4325
807.188	4219
807.33	4166
807.472	4238
807.614	4196
807.756	4253
807.898	4227
808.04	4219
808.182	4314
808.324	4306
808.465	4394
808.607	4447
808.749	4497
808.891	4474
809.033	4493
809.174	4440
809.316	4272
809.458	4185
809.6	4131
809.741	4154
809.883	4169
810.025	4223
810.166	4215
810.308	4257
810.45	4227
810.591	4204
810.733	4291
810.875	4478
811.016	4828
811.158	5064
811.299	5231
811.441	5280
811.582	5067
811.724	4637
811.865	4485
812.007	4462
812.148	4386
812.29	4394
812.431	4432
812.573	4386
812.714	4383
812.855	4402
812.997	4375
813.138	4504
813.279	4440
813.421	4329
813.562	4367
813.703	4329
813.845	4295
813.986	4227
814.127	4211
814.268	4238
814.41	4268
814.551	4253
814.692	4329
814.833	4253
814.974	4318
815.115	4291
815.256	4265
815.397	4246
815.539	4238
815.68	4196
815.821	4185
815.962	4318
816.103	4303
816.244	4192
816.385	4227
816.526	4284
816.666	4185
816.807	4093
816.948	4207
817.089	4227
817.23	4109
817.371	4063
817.512	4067
817.653	4032
817.793	4093
817.934	4025
818.075	4150
818.216	4086
818.356	4093
818.497	3964
818.638	3934
818.778	3926
818.919	3888
819.06	3846
819.2	3964
819.341	3869
819.481	3831
819.622	3896
819.762	4017
819.903	3979
820.043	3854
820.184	3804
820.324	3804
820.465	3869
820.605	3899
820.746	3865
820.886	3797
821.026	3888
821.167	3918
821.307	3991
821.447	3979
821.588	3953
821.728	3964
821.868	3903
822.008	3857
822.149	3880
822.289	3911
822.429	3778
822.569	3743
822.709	3766
822.849	3679
822.99	3728
823.13	3759
823.27	3755
823.41	3717
823.55	3766
823.69	3679
823.83	3732
823.97	3667
824.11	3603
824.25	3576
824.389	3637
824.529	3660
824.669	3633
824.809	3713
824.949	3713
825.089	3766
825.228	3698
825.368	3599
825.508	3564
825.648	3576
825.787	3599
825.927	3633
826.067	3633
826.206	3679
826.346	3793
826.485	3823
826.625	3846
826.765	3941
826.904	3850
827.044	3637
827.183	3542
827.323	3443
827.462	3523
827.601	3466
827.741	3409
827.88	3458
828.02	3340
828.159	3450
828.298	3488
828.437	3545
828.577	3469
828.716	3564
828.855	3477
828.994	3393
829.134	3351
829.273	3420
829.412	3351
829.551	3340
829.69	3389
829.829	3397
829.968	3523
830.107	3435
830.246	3420
830.385	3363
830.524	3412
830.663	3272
830.802	3226
830.941	3157
831.08	3154
831.219	3329
831.357	3260
831.496	3382
831.635	3233
831.774	3207
831.913	3169
832.051	3104
832.19	3173
832.329	3249
832.467	3138
832.606	3116
832.744	3150
832.883	3165
833.022	3199
833.16	3294
833.299	3287
833.437	3321
833.576	3348
833.714	3386
833.852	3401
833.991	3409
834.129	3462
834.267	3439
834.406	3378
834.544	3447
834.682	3412
834.821	3443
834.959	3564
835.097	3370
835.235	3496
835.373	3523
835.511	3473
835.65	3435
835.788	3473
835.926	3420
836.064	3378
836.202	3428
836.34	3587
836.478	3603
836.615	3557
836.753	3618
836.891	3663
837.029	3629
837.167	3599
837.305	3530
837.443	3519
837.58	3500
837.718	3576
837.856	3553
837.993	3530
838.131	3603
838.269	3553
838.406	3576
838.544	3530
838.681	3485
838.819	3477
838.956	3359
839.094	3374
839.231	3424
839.369	3542
839.506	3728
839.643	3614
839.781	3485
839.918	3473
840.055	3504
840.193	3511
840.33	3538
840.467	3530
840.604	3564
840.742	3785
840.879	3538
841.016	3561
841.153	3587
841.29	3774
841.427	3690
841.564	3705
841.701	3724
841.838	3682
841.975	3648
842.112	3717
842.249	3648
842.385	3648
842.522	3857
842.659	3682
842.796	3675
842.933	3736
843.069	3736
843.206	3705
843.343	3842
843.479	3800
843.616	3812
843.752	3686
843.889	3679
844.025	3842
844.162	3698
844.298	3838
844.435	3766
844.571	3797
844.708	3896
844.844	3953
844.98	3975
845.117	4036
845.253	3979
845.389	3880
845.525	3991
845.661	3934
845.798	3953
845.934	3987
846.07	3956
846.206	4048
846.342	4128
846.478	4078
846.614	3979
846.75	3918
846.886	3884
847.022	4044
847.158	3968
847.294	3972
847.429	4032
847.565	3987
847.701	4230
847.837	3911
847.972	3880
848.108	4006
848.244	3945
848.379	3861
848.515	3812
848.65	3747
848.786	3869
848.921	3873
849.057	3926
849.192	3956
849.328	3915
849.463	3907
849.598	3869
849.734	3854
849.869	3819
850.004	3755
850.14	3827
850.275	3800
850.41	3740
850.545	3732
850.68	3762
850.815	3759
850.95	3793
851.085	3903
851.22	3869
851.355	3850
851.49	3759
851.625	3766
851.76	3766
851.895	3728
852.03	3743
852.165	3850
852.299	3880
852.434	3884
852.569	3884
852.703	3880
852.838	3937
852.973	3979
853.107	3991
853.242	3888
853.376	3835
853.511	3831
853.645	3846
853.78	3953
853.914	3884
854.048	3968
854.183	3865
854.317	3949
854.451	4059
854.585	3941
854.72	3937
854.854	4025
854.988	3987
855.122	4025
855.256	3968
855.39	4048
855.524	4120
855.658	4112
855.792	4120
855.926	4139
856.06	4158
856.194	4185
856.327	4124
856.461	4169
856.595	4154
856.729	4177
856.862	4276
856.996	4230
857.13	4318
857.263	4306
857.397	4352
857.53	4329
857.664	4398
857.797	4409
857.931	4375
858.064	4367
858.197	4428
858.331	4394
858.464	4386
858.597	4329
858.731	4440
858.864	4436
858.997	4432
859.13	4489
859.263	4519
859.396	4618
859.529	4489
859.662	4542
859.795	4474
859.928	4607
860.061	4687
860.194	4759
860.327	4672
860.46	4656
860.592	4729
860.725	4656
860.858	4782
860.99	4706
861.123	4675
861.256	4672
861.388	4790
861.521	5391
861.653	4672
861.786	4717
861.918	4721
862.05	4797
862.183	4862
862.315	4873
862.447	4885
862.58	4904
862.712	4790
862.844	4733
862.976	4850
863.108	4850
863.24	5216
863.372	4820
863.504	4896
863.636	4927
863.768	5006
863.9	4972
864.032	4915
864.164	4942
864.296	5048
864.428	5048
864.559	5037
864.691	5105
864.823	5166
864.954	5121
865.086	5132
865.217	5155
865.349	5083
865.48	5193
865.612	5151
865.743	5269
865.875	5155
866.006	5189
866.137	5185
866.269	5239
866.4	5254
866.531	5193
866.662	5258
866.793	5246
866.924	5311
867.055	5292
867.186	5311
867.317	5345
867.448	5326
867.579	5402
867.71	5398
867.841	5387
867.972	5463
868.103	5486
868.233	5474
868.364	5490
868.495	5570
868.625	5600
868.756	5802
868.886	5657
869.017	5691
869.147	5882
869.278	5847
869.408	5836
869.539	5809
869.669	5920
869.799	6003
869.929	5912
870.06	5950
870.19	6155
870.32	6159
870.45	6228
870.58	6308
870.71	6403
870.84	6418
870.97	6467
871.1	6441
871.23	6681
871.36	6673
871.489	6673
871.619	6722
871.749	6833
871.879	6829
872.008	6962
872.138	6951
872.267	6970
872.397	6909
872.526	6977
872.656	7061
872.785	7187
872.915	7346
873.044	7464
873.173	7563
873.303	7613
873.432	7750
873.561	7875
873.69	7902
873.819	8039
873.948	8252
874.077	8237
874.206	8343
874.335	8465
874.464	8659
874.593	8864
874.722	8906
874.851	9157
874.979	9203
875.108	9363
875.237	9401
875.365	9473
875.494	9580
875.623	9876
875.751	9759
875.88	9964
876.008	10101
876.136	10280
876.265	10546
876.393	10733
876.521	10748
876.65	10824
876.778	10911
876.906	10919
877.034	10976
877.162	11064
877.29	11197
877.418	11239
877.546	11318
877.674	11474
877.802	11532
877.93	11490
878.058	11512
878.185	11589
878.313	11619
878.441	11714
878.568	11665
878.696	11794
878.824	11790
878.951	11931
879.079	11988
879.206	12106
879.333	12041
879.461	11931
879.588	12182
879.715	12038
879.842	12251
879.97	12083
880.097	11923
880.224	11916
880.351	11904
880.478	11840
880.605	11764
880.732	11817
880.859	12007
880.986	11794
881.112	11843
881.239	11779
881.366	11710
881.493	11657
881.619	11543
881.746	11581
881.872	11551
881.999	11474
882.125	11520
882.252	11615
882.378	11608
882.505	11524
882.631	11322
882.757	11360
882.883	11372
883.01	11212
883.136	11166
883.262	11143
883.388	11067
883.514	11128
883.64	11269
883.766	11201
883.892	11006
884.018	10946
884.143	11033
884.269	11071
884.395	10885
884.52	10706
884.646	10763
884.772	10820
884.897	10755
885.023	10782
885.148	10748
885.274	10782
885.399	10710
885.524	10592
885.65	10577
885.775	10569
885.9	10542
886.025	10607
886.15	10618
886.275	10459
886.4	10417
886.525	10367
886.65	10382
886.775	10306
886.9	10478
887.025	10474
887.149	10284
887.274	10177
887.399	10219
887.523	10124
887.648	10147
887.773	10063
887.897	10238
888.021	10196
888.146	10124
888.27	10238
888.395	10188
888.519	10196
888.643	10173
888.767	10253
888.891	10074
889.015	10017
889.139	10059
889.263	9998
889.387	10006
889.511	10135
889.635	9979
889.759	9987
889.883	9979
890.006	9968
890.13	10090
890.254	9934
890.377	10040
890.501	9861
890.624	9850
890.748	9930
890.871	9778
890.995	9755
891.118	9770
891.241	9751
891.364	9755
891.488	9835
891.611	9728
891.734	9660
891.857	9766
891.98	9641
892.103	9720
892.226	9686
892.349	9652
892.471	9568
892.594	9561
892.717	9644
892.839	9595
892.962	9633
893.085	9644
893.207	9603
893.33	9557
893.452	9519
893.575	9561
893.697	9519
893.819	9599
893.941	9599
894.064	9606
894.186	9431
894.308	9450
894.43	9511
894.552	9538
894.674	9511
894.796	9348
894.918	9378
895.04	9355
895.161	9386
895.283	9408
895.405	9264
895.526	9226
895.648	9287
895.769	9291
895.891	9256
896.012	9195
896.134	9211
896.255	9165
896.376	9135
896.498	9180
896.619	9127
896.74	9081
896.861	9116
896.982	9192
897.103	9256
897.224	9226
897.345	8975
897.466	8971
897.587	8967
897.708	9055
897.828	8986
897.949	8941
898.07	8864
898.19	8899
898.311	9055
898.431	8941
898.552	8941
898.672	8979
898.792	8895
898.913	8895
899.033	8834
899.153	8727
899.273	8697
899.393	8674
899.513	8792
899.633	8750
899.753	8659
899.873	8697
899.993	8739
900.113	8708
900.232	8766
900.352	8678
900.472	8568
900.591	8526
900.711	8674
900.83	8560
900.95	8693
901.069	8678
901.189	8484
901.308	8450
901.427	8328
901.546	8389
901.665	8423
901.784	8492
901.904	8339
902.023	8271
902.141	8206
902.26	8164
902.379	8240
902.498	8202
902.617	8271
902.735	8267
902.854	8267
902.973	8309
903.091	8130
903.21	8103
903.328	8088
903.446	8130
903.565	8107
903.683	8115
903.801	8008
903.919	8172
904.038	8149
904.156	8005
904.274	8054
904.392	8054
904.51	8016
904.627	8073
904.745	8024
904.863	8035
904.981	7879
905.098	7909
905.216	7906
905.334	7875
905.451	7864
905.569	7875
905.686	7936
905.803	7932
905.921	7780
906.038	7883
906.155	7795
906.272	7708
906.389	7761
906.506	7620
906.623	7651
906.74	7636
906.857	7571
906.974	7529
907.091	7639
907.208	7761
907.324	7670
907.441	7529
907.557	7464
907.674	7422
907.79	7422
907.907	7400
908.023	7419
908.139	7441
908.256	7339
908.372	7331
908.488	7312
908.604	7316
908.72	7247
908.836	7198
908.952	7209
909.068	7209
909.184	7301
909.3	7251
909.415	7293
909.531	7308
909.647	7183
909.762	7084
909.878	7080
909.993	7084
910.108	7099
910.224	7080
910.339	7110
910.454	7072
910.57	6951
910.685	6951
910.8	7126
910.915	7122
911.03	7042
911.145	6958
911.259	6875
911.374	6901
911.489	6867
911.604	6768
911.718	6719
911.833	6734
911.947	6715
912.062	6593
912.176	6726
912.291	6669
912.405	6692
912.519	6791
912.633	6787
912.748	6818
912.862	6715
912.976	6589
913.09	6509
913.204	6555
913.318	6582
913.431	6768
913.545	6722
913.659	6700
913.772	6646
913.886	6566
914	6597
914.113	6612
914.226	6639
914.34	6627
914.453	6566
914.566	6593
914.68	6498
914.793	6525
914.906	6384
915.019	6350
915.132	6395
915.245	6452
915.358	6445
915.47	6475
915.583	6448
915.696	6479
915.809	6578
915.921	6483
916.034	6391
916.146	6475
916.259	6395
916.371	6445
916.483	6410
916.595	6410
916.708	6346
916.82	6327
916.932	6357
917.044	6353
917.156	6395
917.268	6281
917.38	6285
917.491	6315
917.603	6357
917.715	6361
917.826	6422
917.938	6254
918.049	6178
918.161	6357
918.272	6452
918.384	6388
918.495	6369
918.606	6273
918.717	6254
918.828	6277
918.939	6270
919.05	6239
919.161	6266
919.272	6140
919.383	6175
919.494	6315
919.604	6422
919.715	6327
919.826	6213
919.936	6254
920.047	6270
920.157	6296
920.267	6414
920.378	6315
920.488	6239
920.598	6498
920.708	6532
920.818	6452
920.928	6460
921.038	6608
921.148	6593
921.258	6350
921.368	6327
921.477	6235
921.587	6186
921.697	6030
921.806	6155
921.916	6076
922.025	5920
922.134	5946
922.244	5923
922.353	5893
922.462	5836
922.571	5840
922.68	5688
922.789	5699
922.898	5729
923.007	5592
923.116	5653
923.224	5653
923.333	5646
923.442	5600
923.55	5619
923.659	5592
923.767	5649
923.876	5562
923.984	5592
924.092	5516
924.201	5562
924.309	5585
924.417	5524
924.525	5554
924.633	5467
924.741	6289
924.849	5410
924.956	5417
925.064	5326
925.172	5364
925.279	5307
925.387	5303
925.494	5353
925.602	5417
925.709	5349
925.816	5311
925.924	5277
926.031	5330
926.138	5296
926.245	5357
926.352	5288
926.459	5315
926.566	5280
926.673	5189
926.779	5128
926.886	5132
926.993	5037
927.099	4991
927.206	4987
927.312	4892
927.419	5014
927.525	4968
927.631	4946
927.737	4862
927.843	4816
927.95	4748
928.056	4828
928.162	4835
928.267	4866
928.373	5250
928.479	4858
928.585	4706
928.69	4774
928.796	4759
928.901	4691
929.007	4626
929.112	4653
929.218	4596
929.323	4599
929.428	4535
929.533	4664
929.638	4481
929.743	4500
929.848	4603
929.953	4550
930.058	4394
930.163	4333
930.267	4341
930.372	4417
930.477	4314
930.581	4462
930.685	4348
930.79	4253
930.894	4249
930.998	4230
931.103	4409
931.207	4135
931.311	4055
931.415	4025
931.519	3907
931.623	3945
