Data from glass_V78500241_578.txt Node
Date: Wed Sep 01 19:18:30 CST 2021
User: usil
Spectrometer: V785-0024
Trigger mode: 0
Integration Time (sec): 4.000000E-1
Scans to average: 1
Nonlinearity correction enabled: false
Boxcar width: 0
Storing dark spectrum: false
XAxis mode: Wavelengths
Number of Pixels in Spectrum: 1024
>>>>>Begin Spectral Data<<<<<
801.071	3743
801.214	3778
801.356	3747
801.499	3751
801.641	3740
801.783	3789
801.926	3884
802.068	3869
802.211	3880
802.353	3888
802.496	3854
802.638	3854
802.78	3880
802.923	3915
803.065	3934
803.208	3819
803.35	3842
803.492	3918
803.635	3953
803.777	3831
803.919	3949
804.061	4143
804.204	3937
804.346	3960
804.488	3915
804.63	4059
804.773	3964
804.915	4090
805.057	4185
805.199	4063
805.341	4135
805.483	4166
805.626	4135
805.768	4124
805.91	4249
806.052	4253
806.194	4219
806.336	4356
806.478	4223
806.62	4196
806.762	4219
806.904	4215
807.046	4379
807.188	4257
807.33	4223
807.472	4246
807.614	4223
807.756	4280
807.898	4230
808.04	4295
808.182	4295
808.324	4337
808.465	4379
808.607	4424
808.749	4497
808.891	4440
809.033	4527
809.174	4398
809.316	4299
809.458	4230
809.6	4154
809.741	4150
809.883	4147
810.025	4192
810.166	4223
810.308	4204
810.45	4284
810.591	4207
810.733	4272
810.875	4527
811.016	4904
811.158	5166
811.299	5307
811.441	5292
811.582	5083
811.724	4698
811.865	4478
812.007	4481
812.148	4402
812.29	4485
812.431	4443
812.573	4360
812.714	4428
812.855	4417
812.997	4451
813.138	4516
813.279	4398
813.421	4383
813.562	4386
813.703	4371
813.845	4356
813.986	4276
814.127	4234
814.268	4234
814.41	4318
814.551	4291
814.692	4333
814.833	4280
814.974	4291
815.115	4329
815.256	4299
815.397	4249
815.539	4238
815.68	4249
815.821	4219
815.962	4333
816.103	4265
816.244	4204
816.385	4242
816.526	4318
816.666	4219
816.807	4116
816.948	4162
817.089	4162
817.23	4124
817.371	4055
817.512	4101
817.653	4071
817.793	4078
817.934	4078
818.075	4131
818.216	4059
818.356	4135
818.497	3991
818.638	3930
818.778	3907
818.919	3911
819.06	3903
819.2	3953
819.341	3896
819.481	3880
819.622	3922
819.762	4051
819.903	3964
820.043	3842
820.184	3800
820.324	3816
820.465	3888
820.605	3892
820.746	3899
820.886	3846
821.026	3926
821.167	3953
821.307	3991
821.447	3972
821.588	3941
821.728	3949
821.868	3983
822.008	3922
822.149	3911
822.289	3915
822.429	3800
822.569	3762
822.709	3831
822.849	3701
822.99	3728
823.13	3762
823.27	3759
823.41	3724
823.55	3701
823.69	3740
823.83	3728
823.97	3690
824.11	3595
824.25	3576
824.389	3644
824.529	3644
824.669	3663
824.809	3747
824.949	3785
825.089	3770
825.228	3667
825.368	3584
825.508	3572
825.648	3606
825.787	3663
825.927	3671
826.067	3663
826.206	3717
826.346	3797
826.485	3911
826.625	3865
826.765	3979
826.904	3819
827.044	3625
827.183	3500
827.323	3492
827.462	3458
827.601	3462
827.741	3439
827.88	3469
828.02	3382
828.159	3416
828.298	3530
828.437	3530
828.577	3477
828.716	3591
828.855	3507
828.994	3378
829.134	3344
829.273	3401
829.412	3336
829.551	3344
829.69	3382
829.829	3462
829.968	3549
830.107	3454
830.246	3462
830.385	3401
830.524	3359
830.663	3325
830.802	3294
830.941	3203
831.08	3230
831.219	3268
831.357	3302
831.496	3401
831.635	3233
831.774	3195
831.913	3218
832.051	3169
832.19	3097
832.329	3214
832.467	3135
832.606	3135
832.744	3195
832.883	3165
833.022	3192
833.16	3256
833.299	3306
833.437	3351
833.576	3359
833.714	3420
833.852	3466
833.991	3447
834.129	3519
834.267	3435
834.406	3405
834.544	3431
834.682	3435
834.821	3450
834.959	3572
835.097	3397
835.235	3545
835.373	3496
835.511	3507
835.65	3511
835.788	3488
835.926	3420
836.064	3405
836.202	3401
836.34	3606
836.478	3618
836.615	3561
836.753	3637
836.891	3690
837.029	3644
837.167	3606
837.305	3591
837.443	3538
837.58	3511
837.718	3591
837.856	3561
837.993	3576
838.131	3591
838.269	3580
838.406	3580
838.544	3591
838.681	3496
838.819	3443
838.956	3370
839.094	3409
839.231	3447
839.369	3511
839.506	3728
839.643	3641
839.781	3507
839.918	3492
840.055	3576
840.193	3530
840.33	3526
840.467	3595
840.604	3641
840.742	3816
840.879	3606
841.016	3572
841.153	3587
841.29	3762
841.427	3751
841.564	3740
841.701	3759
841.838	3690
841.975	3713
842.112	3728
842.249	3637
842.385	3652
842.522	3869
842.659	3690
842.796	3717
842.933	3747
843.069	3709
843.206	3690
843.343	3812
843.479	3778
843.616	3835
843.752	3720
843.889	3682
844.025	3903
844.162	3755
844.298	3873
844.435	3838
844.571	3778
844.708	3926
844.844	4025
844.98	4055
845.117	4029
845.253	3922
845.389	3907
845.525	4040
845.661	3975
845.798	3865
845.934	4002
846.07	3949
846.206	4074
846.342	4150
846.478	4090
846.614	4013
846.75	3945
846.886	3998
847.022	4048
847.158	4013
847.294	4025
847.429	4044
847.565	3998
847.701	4242
847.837	3915
847.972	3846
848.108	4013
848.244	3991
848.379	3857
848.515	3823
848.65	3831
848.786	3816
848.921	3846
849.057	3979
849.192	3964
849.328	3934
849.463	4006
849.598	3888
849.734	3884
849.869	3838
850.004	3823
850.14	3800
850.275	3812
850.41	3759
850.545	3755
850.68	3766
850.815	3778
850.95	3835
851.085	3899
851.22	3812
851.355	3831
851.49	3785
851.625	3823
851.76	3800
851.895	3793
852.03	3743
852.165	3804
852.299	3850
852.434	3934
852.569	3907
852.703	3896
852.838	3956
852.973	4006
853.107	4006
853.242	3911
853.376	3880
853.511	3838
853.645	3846
853.78	4017
853.914	3880
854.048	3930
854.183	3873
854.317	3949
854.451	4067
854.585	4013
854.72	3960
854.854	4067
854.988	3972
855.122	4002
855.256	3934
855.39	4029
855.524	4135
855.658	4116
855.792	4116
855.926	4150
856.06	4192
856.194	4227
856.327	4169
856.461	4181
856.595	4162
856.729	4211
856.862	4280
856.996	4246
857.13	4341
857.263	4306
857.397	4371
857.53	4329
857.664	4375
857.797	4402
857.931	4375
858.064	4360
858.197	4459
858.331	4424
858.464	4409
858.597	4352
858.731	4493
858.864	4481
858.997	4447
859.13	4512
859.263	4561
859.396	4622
859.529	4512
859.662	4523
859.795	4481
859.928	4599
860.061	4744
860.194	4744
860.327	4679
860.46	4675
860.592	4778
860.725	4786
860.858	4774
860.99	4691
861.123	4664
861.256	4710
861.388	4778
861.521	5387
861.653	4717
861.786	4744
861.918	4809
862.05	4790
862.183	4854
862.315	4900
862.447	4934
862.58	4896
862.712	4824
862.844	4771
862.976	4820
863.108	4831
863.24	5193
863.372	4816
863.504	4942
863.636	4915
863.768	4984
863.9	4968
864.032	4927
864.164	4919
864.296	5018
864.428	5136
864.559	5151
864.691	5132
864.823	5143
864.954	5086
865.086	5155
865.217	5166
865.349	5128
865.48	5105
865.612	5277
865.743	5318
865.875	5193
866.006	5181
866.137	5258
866.269	5235
866.4	5303
866.531	5246
866.662	5220
866.793	5280
866.924	5292
867.055	5322
867.186	5322
867.317	5322
867.448	5349
867.579	5376
867.71	5353
867.841	5402
867.972	5471
868.103	5467
868.233	5478
868.364	5497
868.495	5577
868.625	5684
868.756	5798
868.886	5684
869.017	5783
869.147	5878
869.278	5912
869.408	5775
869.539	5870
869.669	5912
869.799	5954
869.929	5935
870.06	6019
870.19	6190
870.32	6159
870.45	6319
870.58	6388
870.71	6426
870.84	6456
870.97	6399
871.1	6475
871.23	6635
871.36	6707
871.489	6696
871.619	6757
871.749	6833
871.879	6886
872.008	6981
872.138	6901
872.267	7008
872.397	6985
872.526	6993
872.656	7145
872.785	7198
872.915	7457
873.044	7506
873.173	7594
873.303	7685
873.432	7712
873.561	7860
873.69	7989
873.819	7959
873.948	8145
874.077	8279
874.206	8313
874.335	8480
874.464	8655
874.593	8906
874.722	8906
874.851	9104
874.979	9275
875.108	9408
875.237	9443
875.365	9519
875.494	9660
875.623	9827
875.751	9869
875.88	9972
876.008	10078
876.136	10272
876.265	10478
876.393	10706
876.521	10664
876.65	10759
876.778	10862
876.906	10976
877.034	11003
877.162	11147
877.29	11109
877.418	11318
877.546	11376
877.674	11383
877.802	11478
877.93	11554
878.058	11554
878.185	11581
878.313	11558
878.441	11824
878.568	11646
878.696	11832
878.824	11908
878.951	11893
879.079	11874
879.206	12003
879.333	12152
879.461	11920
879.588	12144
879.715	12171
879.842	12273
879.97	12087
880.097	11840
880.224	11920
880.351	11840
880.478	11866
880.605	11863
880.732	11821
880.859	12053
880.986	11855
881.112	11916
881.239	11733
881.366	11691
881.493	11562
881.619	11535
881.746	11585
881.872	11532
881.999	11520
882.125	11520
882.252	11532
882.378	11539
882.505	11604
882.631	11467
882.757	11303
882.883	11372
883.01	11277
883.136	11174
883.262	11185
883.388	11174
883.514	11208
883.64	11269
883.766	11117
883.892	10995
884.018	10991
884.143	11060
884.269	11143
884.395	10820
884.52	10778
884.646	10809
884.772	10752
884.897	10679
885.023	10656
885.148	10740
885.274	10725
885.399	10717
885.524	10653
885.65	10611
885.775	10565
885.9	10630
886.025	10599
886.15	10569
886.275	10546
886.4	10394
886.525	10402
886.65	10451
886.775	10363
886.9	10489
887.025	10493
887.149	10390
887.274	10227
887.399	10230
887.523	10207
887.648	10211
887.773	10120
887.897	10169
888.021	10287
888.146	10131
888.27	10211
888.395	10253
888.519	10181
888.643	10230
888.767	10272
888.891	10082
889.015	10051
889.139	10074
889.263	10025
889.387	10067
889.511	10265
889.635	10120
889.759	10002
889.883	10013
890.006	10006
890.13	10143
890.254	10006
890.377	10067
890.501	9892
890.624	9956
890.748	9926
890.871	9835
890.995	9701
891.118	9740
891.241	9770
891.364	9762
891.488	9816
891.611	9827
891.734	9720
891.857	9766
891.98	9717
892.103	9747
892.226	9660
892.349	9705
892.471	9504
892.594	9561
892.717	9694
892.839	9587
892.962	9580
893.085	9641
893.207	9595
893.33	9496
893.452	9561
893.575	9618
893.697	9530
893.819	9637
893.941	9622
894.064	9603
894.186	9504
894.308	9412
894.43	9576
894.552	9561
894.674	9576
894.796	9367
894.918	9443
895.04	9359
895.161	9435
895.283	9370
895.405	9214
895.526	9294
895.648	9253
895.769	9230
895.891	9298
896.012	9302
896.134	9275
896.255	9249
896.376	9131
896.498	9176
896.619	9131
896.74	9055
896.861	9104
896.982	9329
897.103	9355
897.224	9173
897.345	9093
897.466	9005
897.587	9001
897.708	9070
897.828	8944
897.949	8971
898.07	8826
898.19	8944
898.311	9020
898.431	8895
898.552	8921
898.672	8986
898.792	8925
898.913	8933
899.033	8796
899.153	8693
899.273	8670
899.393	8788
899.513	8743
899.633	8712
899.753	8731
899.873	8746
899.993	8724
900.113	8621
900.232	8743
900.352	8636
900.472	8606
900.591	8571
900.711	8541
900.83	8571
900.95	8693
901.069	8682
901.189	8613
901.308	8434
901.427	8362
901.546	8404
901.665	8408
901.784	8514
901.904	8377
902.023	8320
902.141	8279
902.26	8275
902.379	8374
902.498	8225
902.617	8214
902.735	8336
902.854	8225
902.973	8309
903.091	8111
903.21	8142
903.328	8142
903.446	8062
903.565	8103
903.683	8145
903.801	8043
903.919	8149
904.038	8145
904.156	8008
904.274	8115
904.392	8062
904.51	8096
904.627	8027
904.745	8092
904.863	8077
904.981	7928
905.098	7871
905.216	7894
905.334	7913
905.451	7906
905.569	7849
905.686	7913
905.803	7833
905.921	7807
906.038	7890
906.155	7788
906.272	7708
906.389	7719
906.506	7696
906.623	7632
906.74	7655
906.857	7514
906.974	7609
907.091	7704
907.208	7765
907.324	7632
907.441	7556
907.557	7438
907.674	7438
907.79	7438
907.907	7400
908.023	7392
908.139	7419
908.256	7438
908.372	7354
908.488	7320
908.604	7305
908.72	7293
908.836	7244
908.952	7266
909.068	7217
909.184	7293
909.3	7259
909.415	7266
909.531	7293
909.647	7103
909.762	7141
909.878	7137
909.993	7152
910.108	7149
910.224	7084
910.339	7084
910.454	7038
910.57	7023
910.685	6966
910.8	7183
910.915	7118
911.03	7038
911.145	6859
911.259	6886
911.374	6878
911.489	6844
911.604	6795
911.718	6715
911.833	6745
911.947	6658
912.062	6627
912.176	6760
912.291	6768
912.405	6662
912.519	6840
912.633	6753
912.748	6779
912.862	6677
912.976	6593
913.09	6502
913.204	6593
913.318	6616
913.431	6665
913.545	6700
913.659	6715
913.772	6646
913.886	6582
914	6578
914.113	6620
914.226	6677
914.34	6574
914.453	6547
914.566	6650
914.68	6563
914.793	6536
914.906	6433
915.019	6384
915.132	6395
915.245	6475
915.358	6475
915.47	6441
915.583	6456
915.696	6426
915.809	6570
915.921	6544
916.034	6433
916.146	6418
916.259	6422
916.371	6433
916.483	6426
916.595	6410
916.708	6372
916.82	6395
916.932	6372
917.044	6410
917.156	6410
917.268	6342
917.38	6353
917.491	6365
917.603	6399
917.715	6372
917.826	6395
917.938	6357
918.049	6251
918.161	6308
918.272	6418
918.384	6429
918.495	6380
918.606	6254
918.717	6220
918.828	6342
918.939	6262
919.05	6247
919.161	6258
919.272	6110
919.383	6163
919.494	6323
919.604	6426
919.715	6266
919.826	6292
919.936	6216
920.047	6338
920.157	6270
920.267	6517
920.378	6384
920.488	6304
920.598	6445
920.708	6540
920.818	6452
920.928	6422
921.038	6570
921.148	6528
921.258	6365
921.368	6319
921.477	6254
921.587	6155
921.697	6121
921.806	6209
921.916	6087
922.025	5935
922.134	5901
922.244	5813
922.353	6019
922.462	5836
922.571	5805
922.68	5710
922.789	5657
922.898	5695
923.007	5649
923.116	5676
923.224	5676
923.333	5676
923.442	5615
923.55	5600
923.659	5592
923.767	5642
923.876	5558
923.984	5634
924.092	5551
924.201	5539
924.309	5577
924.417	5581
924.525	5509
924.633	5558
924.741	6285
924.849	5436
924.956	5535
925.064	5341
925.172	5315
925.279	5318
925.387	5376
925.494	5330
925.602	5402
925.709	5353
925.816	5269
925.924	5318
926.031	5391
926.138	5337
926.245	5288
926.352	5201
926.459	5334
926.566	5307
926.673	5250
926.779	5136
926.886	5193
926.993	5056
927.099	5014
927.206	5029
927.312	4987
927.419	5010
927.525	5048
927.631	5022
927.737	4946
927.843	4858
927.95	4782
928.056	4831
928.162	4812
928.267	4824
928.373	5322
928.479	4870
928.585	4714
928.69	4763
928.796	4805
928.901	4710
929.007	4592
929.112	4664
929.218	4630
929.323	4588
929.428	4569
929.533	4687
929.638	4508
929.743	4546
929.848	4580
929.953	4481
930.058	4531
930.163	4344
930.267	4356
930.372	4462
930.477	4310
930.581	4451
930.685	4367
930.79	4299
930.894	4337
930.998	4287
931.103	4413
931.207	4166
931.311	4078
931.415	4067
931.519	3937
931.623	3945
