Data from glass_V78500241_876.txt Node
Date: Wed Sep 01 19:20:34 CST 2021
User: usil
Spectrometer: V785-0024
Trigger mode: 0
Integration Time (sec): 4.000000E-1
Scans to average: 1
Nonlinearity correction enabled: false
Boxcar width: 0
Storing dark spectrum: false
XAxis mode: Wavelengths
Number of Pixels in Spectrum: 1024
>>>>>Begin Spectral Data<<<<<
801.071	3713
801.214	3755
801.356	3717
801.499	3747
801.641	3728
801.783	3819
801.926	3888
802.068	3823
802.211	3838
802.353	3880
802.496	3869
802.638	3838
802.78	3903
802.923	3987
803.065	3880
803.208	3869
803.35	3907
803.492	3922
803.635	3907
803.777	3755
803.919	3907
804.061	4181
804.204	3956
804.346	3934
804.488	3945
804.63	4036
804.773	3994
804.915	4082
805.057	4173
805.199	4093
805.341	4097
805.483	4166
805.626	4147
805.768	4078
805.91	4166
806.052	4249
806.194	4181
806.336	4356
806.478	4257
806.62	4188
806.762	4211
806.904	4261
807.046	4333
807.188	4227
807.33	4177
807.472	4223
807.614	4215
807.756	4272
807.898	4211
808.04	4219
808.182	4325
808.324	4329
808.465	4371
808.607	4508
808.749	4462
808.891	4440
809.033	4489
809.174	4375
809.316	4280
809.458	4242
809.6	4162
809.741	4154
809.883	4188
810.025	4249
810.166	4211
810.308	4173
810.45	4257
810.591	4265
810.733	4272
810.875	4565
811.016	4843
811.158	5162
811.299	5250
811.441	5296
811.582	5018
811.724	4744
811.865	4485
812.007	4462
812.148	4428
812.29	4470
812.431	4424
812.573	4447
812.714	4390
812.855	4386
812.997	4474
813.138	4542
813.279	4413
813.421	4375
813.562	4390
813.703	4337
813.845	4390
813.986	4230
814.127	4223
814.268	4253
814.41	4329
814.551	4299
814.692	4322
814.833	4280
814.974	4325
815.115	4363
815.256	4268
815.397	4268
815.539	4238
815.68	4200
815.821	4204
815.962	4329
816.103	4314
816.244	4196
816.385	4219
816.526	4268
816.666	4246
816.807	4105
816.948	4181
817.089	4181
817.23	4124
817.371	4063
817.512	4036
817.653	4074
817.793	4048
817.934	4067
818.075	4139
818.216	4082
818.356	4093
818.497	4032
818.638	3911
818.778	3930
818.919	3899
819.06	3888
819.2	3975
819.341	3873
819.481	3846
819.622	3915
819.762	4055
819.903	3979
820.043	3876
820.184	3854
820.324	3857
820.465	3880
820.605	3888
820.746	3949
820.886	3808
821.026	3941
821.167	3968
821.307	3998
821.447	3979
821.588	3991
821.728	3975
821.868	3930
822.008	3892
822.149	3903
822.289	3953
822.429	3770
822.569	3778
822.709	3823
822.849	3732
822.99	3747
823.13	3816
823.27	3823
823.41	3720
823.55	3724
823.69	3743
823.83	3724
823.97	3682
824.11	3610
824.25	3599
824.389	3641
824.529	3644
824.669	3633
824.809	3694
824.949	3778
825.089	3740
825.228	3705
825.368	3595
825.508	3530
825.648	3614
825.787	3641
825.927	3637
826.067	3644
826.206	3675
826.346	3797
826.485	3842
826.625	3880
826.765	3934
826.904	3842
827.044	3652
827.183	3553
827.323	3431
827.462	3485
827.601	3485
827.741	3439
827.88	3462
828.02	3370
828.159	3454
828.298	3504
828.437	3496
828.577	3481
828.716	3622
828.855	3523
828.994	3439
829.134	3363
829.273	3405
829.412	3321
829.551	3317
829.69	3386
829.829	3454
829.968	3542
830.107	3439
830.246	3435
830.385	3389
830.524	3355
830.663	3291
830.802	3256
830.941	3207
831.08	3165
831.219	3287
831.357	3272
831.496	3428
831.635	3226
831.774	3173
831.913	3230
832.051	3135
832.19	3154
832.329	3199
832.467	3150
832.606	3123
832.744	3173
832.883	3253
833.022	3207
833.16	3256
833.299	3340
833.437	3332
833.576	3386
833.714	3409
833.852	3439
833.991	3450
834.129	3473
834.267	3439
834.406	3389
834.544	3473
834.682	3447
834.821	3439
834.959	3572
835.097	3416
835.235	3576
835.373	3519
835.511	3523
835.65	3466
835.788	3526
835.926	3397
836.064	3416
836.202	3458
836.34	3610
836.478	3606
836.615	3564
836.753	3591
836.891	3641
837.029	3610
837.167	3622
837.305	3538
837.443	3595
837.58	3507
837.718	3633
837.856	3580
837.993	3542
838.131	3599
838.269	3603
838.406	3618
838.544	3576
838.681	3454
838.819	3462
838.956	3397
839.094	3389
839.231	3450
839.369	3526
839.506	3709
839.643	3667
839.781	3511
839.918	3469
840.055	3488
840.193	3515
840.33	3519
840.467	3572
840.604	3614
840.742	3789
840.879	3530
841.016	3572
841.153	3614
841.29	3751
841.427	3770
841.564	3698
841.701	3797
841.838	3705
841.975	3720
842.112	3736
842.249	3610
842.385	3633
842.522	3781
842.659	3698
842.796	3701
842.933	3694
843.069	3705
843.206	3728
843.343	3835
843.479	3774
843.616	3831
843.752	3720
843.889	3682
844.025	3884
844.162	3709
844.298	3838
844.435	3766
844.571	3778
844.708	3926
844.844	3949
844.98	4010
845.117	4055
845.253	3930
845.389	3903
845.525	3964
845.661	3968
845.798	3930
845.934	4002
846.07	3915
846.206	4067
846.342	4135
846.478	4090
846.614	3991
846.75	3975
846.886	3896
847.022	4074
847.158	3998
847.294	4029
847.429	4051
847.565	3956
847.701	4227
847.837	3892
847.972	3861
848.108	4036
848.244	3987
848.379	3884
848.515	3823
848.65	3789
848.786	3865
848.921	3850
849.057	3964
849.192	3975
849.328	3907
849.463	3975
849.598	3892
849.734	3888
849.869	3850
850.004	3838
850.14	3827
850.275	3838
850.41	3728
850.545	3781
850.68	3755
850.815	3793
850.95	3850
851.085	3941
851.22	3857
851.355	3808
851.49	3816
851.625	3816
851.76	3827
851.895	3778
852.03	3751
852.165	3804
852.299	3838
852.434	3964
852.569	3892
852.703	3873
852.838	3934
852.973	4006
853.107	3983
853.242	3896
853.376	3892
853.511	3789
853.645	3804
853.78	3968
853.914	3896
854.048	3899
854.183	3865
854.317	3953
854.451	4071
854.585	3960
854.72	3968
854.854	4044
854.988	3945
855.122	4025
855.256	3930
855.39	4036
855.524	4074
855.658	4093
855.792	4109
855.926	4124
856.06	4188
856.194	4211
856.327	4166
856.461	4078
856.595	4169
856.729	4192
856.862	4246
856.996	4261
857.13	4303
857.263	4337
857.397	4356
857.53	4291
857.664	4318
857.797	4367
857.931	4428
858.064	4390
858.197	4459
858.331	4428
858.464	4409
858.597	4344
858.731	4459
858.864	4455
858.997	4421
859.13	4569
859.263	4569
859.396	4596
859.529	4569
859.662	4481
859.795	4523
859.928	4672
860.061	4672
860.194	4771
860.327	4691
860.46	4656
860.592	4786
860.725	4740
860.858	4805
860.99	4736
861.123	4702
861.256	4725
861.388	4786
861.521	5535
861.653	4790
861.786	4744
861.918	4729
862.05	4767
862.183	4847
862.315	4930
862.447	4930
862.58	4911
862.712	4790
862.844	4744
862.976	4877
863.108	4885
863.24	5254
863.372	4862
863.504	4942
863.636	4904
863.768	4927
863.9	4949
864.032	4896
864.164	4957
864.296	5045
864.428	5071
864.559	5102
864.691	5174
864.823	5105
864.954	5166
865.086	5140
865.217	5162
865.349	5143
865.48	5124
865.612	5189
865.743	5299
865.875	5162
866.006	5201
866.137	5216
866.269	5273
866.4	5296
866.531	5261
866.662	5235
866.793	5273
866.924	5330
867.055	5337
867.186	5311
867.317	5345
867.448	5284
867.579	5315
867.71	5379
867.841	5387
867.972	5474
868.103	5471
868.233	5486
868.364	5524
868.495	5562
868.625	5623
868.756	5756
868.886	5668
869.017	5737
869.147	5866
869.278	5863
869.408	5794
869.539	5855
869.669	5931
869.799	5908
869.929	5961
870.06	6015
870.19	6224
870.32	6220
870.45	6304
870.58	6334
870.71	6513
870.84	6498
870.97	6471
871.1	6479
871.23	6654
871.36	6684
871.489	6703
871.619	6757
871.749	6825
871.879	6905
872.008	6993
872.138	7008
872.267	7046
872.397	6996
872.526	7012
872.656	7065
872.785	7217
872.915	7396
873.044	7464
873.173	7567
873.303	7746
873.432	7795
873.561	7868
873.69	7902
873.819	7978
873.948	8210
874.077	8248
874.206	8358
874.335	8495
874.464	8636
874.593	8845
874.722	8910
874.851	9097
874.979	9203
875.108	9370
875.237	9511
875.365	9488
875.494	9667
875.623	9804
875.751	9819
875.88	10097
876.008	10135
876.136	10230
876.265	10500
876.393	10714
876.521	10721
876.65	10908
876.778	10892
876.906	10934
877.034	10938
877.162	11075
877.29	11151
877.418	11235
877.546	11402
877.674	11421
877.802	11467
877.93	11520
878.058	11600
878.185	11528
878.313	11737
878.441	11817
878.568	11661
878.696	11897
878.824	11866
878.951	11897
879.079	12114
879.206	12136
879.333	12068
879.461	12026
879.588	11992
879.715	12155
879.842	12247
879.97	12102
880.097	11832
880.224	11912
880.351	11882
880.478	11878
880.605	11912
880.732	11878
880.859	12064
880.986	11672
881.112	11885
881.239	11676
881.366	11653
881.493	11680
881.619	11558
881.746	11524
881.872	11532
881.999	11554
882.125	11474
882.252	11554
882.378	11524
882.505	11600
882.631	11368
882.757	11345
882.883	11391
883.01	11341
883.136	11220
883.262	11102
883.388	11086
883.514	11189
883.64	11113
883.766	11140
883.892	11006
884.018	11041
884.143	11147
884.269	11045
884.395	10820
884.52	10717
884.646	10858
884.772	10668
884.897	10694
885.023	10660
885.148	10752
885.274	10744
885.399	10714
885.524	10687
885.65	10645
885.775	10607
885.9	10622
886.025	10611
886.15	10588
886.275	10493
886.4	10447
886.525	10375
886.65	10386
886.775	10314
886.9	10462
887.025	10558
887.149	10329
887.274	10238
887.399	10169
887.523	10253
887.648	10169
887.773	10166
887.897	10261
888.021	10246
888.146	10128
888.27	10230
888.395	10223
888.519	10177
888.643	10238
888.767	10200
888.891	10051
889.015	9975
889.139	10078
889.263	9987
889.387	10071
889.511	10074
889.635	10059
889.759	9960
889.883	9972
890.006	10021
890.13	10074
890.254	9956
890.377	9953
890.501	9835
890.624	9876
890.748	9953
890.871	9838
890.995	9747
891.118	9682
891.241	9831
891.364	9816
891.488	9873
891.611	9781
891.734	9785
891.857	9804
891.98	9694
892.103	9819
892.226	9774
892.349	9736
892.471	9580
892.594	9523
892.717	9523
892.839	9644
892.962	9576
893.085	9622
893.207	9591
893.33	9485
893.452	9580
893.575	9614
893.697	9458
893.819	9625
893.941	9671
894.064	9622
894.186	9469
894.308	9435
894.43	9534
894.552	9564
894.674	9549
894.796	9393
894.918	9424
895.04	9397
895.161	9408
895.283	9351
895.405	9249
895.526	9336
895.648	9298
895.769	9233
895.891	9195
896.012	9272
896.134	9302
896.255	9195
896.376	9142
896.498	9218
896.619	9157
896.74	9104
896.861	9093
896.982	9348
897.103	9275
897.224	9169
897.345	9119
897.466	8982
897.587	8998
897.708	9112
897.828	9062
897.949	8994
898.07	8868
898.19	8918
898.311	9028
898.431	8902
898.552	8933
898.672	9017
898.792	8952
898.913	8937
899.033	8785
899.153	8758
899.273	8731
899.393	8697
899.513	8769
899.633	8708
899.753	8766
899.873	8735
899.993	8746
900.113	8689
900.232	8701
900.352	8724
900.472	8682
900.591	8598
900.711	8564
900.83	8560
900.95	8758
901.069	8686
901.189	8533
901.308	8495
901.427	8362
901.546	8476
901.665	8419
901.784	8499
901.904	8385
902.023	8339
902.141	8202
902.26	8294
902.379	8221
902.498	8240
902.617	8225
902.735	8275
902.854	8290
902.973	8267
903.091	8081
903.21	8054
903.328	8145
903.446	8180
903.565	8039
903.683	8081
903.801	8073
903.919	8126
904.038	8126
904.156	8035
904.274	8142
904.392	7997
904.51	8084
904.627	8069
904.745	8111
904.863	8115
904.981	7898
905.098	7921
905.216	7909
905.334	7917
905.451	7940
905.569	7864
905.686	8005
905.803	7997
905.921	7761
906.038	7898
906.155	7792
906.272	7677
906.389	7753
906.506	7662
906.623	7670
906.74	7655
906.857	7578
906.974	7601
907.091	7681
907.208	7792
907.324	7632
907.441	7571
907.557	7472
907.674	7377
907.79	7441
907.907	7438
908.023	7384
908.139	7430
908.256	7339
908.372	7339
908.488	7377
908.604	7388
908.72	7305
908.836	7259
908.952	7297
909.068	7255
909.184	7289
909.3	7285
909.415	7285
909.531	7301
909.647	7133
909.762	7129
909.878	7126
909.993	7099
910.108	7137
910.224	7061
910.339	7072
910.454	7042
910.57	6993
910.685	7027
910.8	7209
910.915	7110
911.03	7061
911.145	6878
911.259	6897
911.374	6909
911.489	6852
911.604	6890
911.718	6730
911.833	6749
911.947	6673
912.062	6585
912.176	6738
912.291	6726
912.405	6684
912.519	6791
912.633	6859
912.748	6768
912.862	6707
912.976	6620
913.09	6650
913.204	6646
913.318	6635
913.431	6722
913.545	6684
913.659	6741
913.772	6642
913.886	6585
914	6559
914.113	6620
914.226	6627
914.34	6654
914.453	6498
914.566	6608
914.68	6544
914.793	6566
914.906	6391
915.019	6433
915.132	6407
915.245	6448
915.358	6437
915.47	6376
915.583	6475
915.696	6494
915.809	6525
915.921	6536
916.034	6433
916.146	6494
916.259	6391
916.371	6445
916.483	6471
916.595	6403
916.708	6410
916.82	6460
916.932	6369
917.044	6380
917.156	6433
917.268	6319
917.38	6342
917.491	6323
917.603	6395
917.715	6418
917.826	6471
917.938	6334
918.049	6232
918.161	6331
918.272	6388
918.384	6437
918.495	6334
918.606	6273
918.717	6258
918.828	6243
918.939	6334
919.05	6235
919.161	6289
919.272	6152
919.383	6220
919.494	6369
919.604	6380
919.715	6273
919.826	6258
919.936	6273
920.047	6334
920.157	6296
920.267	6388
920.378	6372
920.488	6323
920.598	6456
920.708	6555
920.818	6513
920.928	6483
921.038	6597
921.148	6574
921.258	6448
921.368	6346
921.477	6304
921.587	6186
921.697	6121
921.806	6201
921.916	6053
922.025	5969
922.134	5901
922.244	5897
922.353	5931
922.462	5847
922.571	5798
922.68	5786
922.789	5714
922.898	5722
923.007	5630
923.116	5661
923.224	5707
923.333	5680
923.442	5623
923.55	5570
923.659	5551
923.767	5665
923.876	5547
923.984	5592
924.092	5551
924.201	5516
924.309	5547
924.417	5573
924.525	5471
924.633	5577
924.741	6152
924.849	5387
924.956	5490
925.064	5379
925.172	5387
925.279	5307
925.387	5406
925.494	5307
925.602	5402
925.709	5402
925.816	5337
925.924	5269
926.031	5364
926.138	5273
926.245	5326
926.352	5254
926.459	5326
926.566	5349
926.673	5254
926.779	5136
926.886	5105
926.993	5048
927.099	5041
927.206	5003
927.312	4999
927.419	5018
927.525	4987
927.631	5006
927.737	4881
927.843	4885
927.95	4805
928.056	4793
928.162	4835
928.267	4835
928.373	5353
928.479	4885
928.585	4710
928.69	4767
928.796	4771
928.901	4752
929.007	4622
929.112	4668
929.218	4626
929.323	4622
929.428	4569
929.533	4683
929.638	4554
929.743	4527
929.848	4584
929.953	4542
930.058	4424
930.163	4318
930.267	4363
930.372	4455
930.477	4310
930.581	4504
930.685	4360
930.79	4219
930.894	4276
930.998	4268
931.103	4405
931.207	4131
931.311	4101
931.415	4055
931.519	3911
931.623	3922
