Data from glass_V78500241_862.txt Node
Date: Wed Sep 01 19:20:28 CST 2021
User: usil
Spectrometer: V785-0024
Trigger mode: 0
Integration Time (sec): 4.000000E-1
Scans to average: 1
Nonlinearity correction enabled: false
Boxcar width: 0
Storing dark spectrum: false
XAxis mode: Wavelengths
Number of Pixels in Spectrum: 1024
>>>>>Begin Spectral Data<<<<<
801.071	3778
801.214	3732
801.356	3732
801.499	3743
801.641	3717
801.783	3823
801.926	3888
802.068	3800
802.211	3896
802.353	3934
802.496	3827
802.638	3850
802.78	3930
802.923	3968
803.065	3915
803.208	3861
803.35	3880
803.492	3876
803.635	3896
803.777	3808
803.919	3953
804.061	4177
804.204	3979
804.346	3949
804.488	3899
804.63	4048
804.773	3975
804.915	4021
805.057	4162
805.199	4044
805.341	4082
805.483	4150
805.626	4135
805.768	4162
805.91	4211
806.052	4306
806.194	4219
806.336	4356
806.478	4211
806.62	4150
806.762	4158
806.904	4242
807.046	4360
807.188	4238
807.33	4207
807.472	4261
807.614	4207
807.756	4314
807.898	4246
808.04	4207
808.182	4310
808.324	4367
808.465	4367
808.607	4462
808.749	4459
808.891	4447
809.033	4535
809.174	4398
809.316	4268
809.458	4242
809.6	4135
809.741	4162
809.883	4150
810.025	4192
810.166	4272
810.308	4215
810.45	4246
810.591	4261
810.733	4257
810.875	4535
811.016	4755
811.158	5197
811.299	5341
811.441	5246
811.582	5083
811.724	4714
811.865	4466
812.007	4432
812.148	4428
812.29	4459
812.431	4390
812.573	4386
812.714	4348
812.855	4470
812.997	4421
813.138	4455
813.279	4409
813.421	4432
813.562	4405
813.703	4363
813.845	4337
813.986	4314
814.127	4238
814.268	4268
814.41	4325
814.551	4246
814.692	4337
814.833	4261
814.974	4356
815.115	4352
815.256	4246
815.397	4242
815.539	4280
815.68	4200
815.821	4200
815.962	4322
816.103	4303
816.244	4249
816.385	4246
816.526	4253
816.666	4223
816.807	4093
816.948	4181
817.089	4169
817.23	4120
817.371	4101
817.512	4063
817.653	4120
817.793	4040
817.934	4048
818.075	4078
818.216	4082
818.356	4112
818.497	3987
818.638	3896
818.778	3873
818.919	3876
819.06	3880
819.2	3956
819.341	3861
819.481	3854
819.622	3926
819.762	3998
819.903	3987
820.043	3892
820.184	3838
820.324	3819
820.465	3907
820.605	3861
820.746	3873
820.886	3842
821.026	3934
821.167	3934
821.307	3979
821.447	3998
821.588	3979
821.728	3964
821.868	3937
822.008	3869
822.149	3941
822.289	3915
822.429	3778
822.569	3755
822.709	3831
822.849	3709
822.99	3732
823.13	3740
823.27	3755
823.41	3720
823.55	3785
823.69	3724
823.83	3751
823.97	3648
824.11	3599
824.25	3606
824.389	3625
824.529	3660
824.669	3648
824.809	3740
824.949	3732
825.089	3800
825.228	3732
825.368	3595
825.508	3557
825.648	3561
825.787	3603
825.927	3644
826.067	3667
826.206	3675
826.346	3823
826.485	3846
826.625	3842
826.765	4017
826.904	3846
827.044	3648
827.183	3561
827.323	3431
827.462	3496
827.601	3409
827.741	3431
827.88	3424
828.02	3344
828.159	3409
828.298	3507
828.437	3549
828.577	3504
828.716	3637
828.855	3466
828.994	3393
829.134	3370
829.273	3389
829.412	3351
829.551	3344
829.69	3355
829.829	3458
829.968	3538
830.107	3431
830.246	3473
830.385	3386
830.524	3359
830.663	3317
830.802	3268
830.941	3188
831.08	3195
831.219	3253
831.357	3283
831.496	3409
831.635	3253
831.774	3211
831.913	3207
832.051	3169
832.19	3150
832.329	3195
832.467	3127
832.606	3127
832.744	3211
832.883	3176
833.022	3180
833.16	3287
833.299	3317
833.437	3329
833.576	3355
833.714	3397
833.852	3462
833.991	3477
834.129	3488
834.267	3412
834.406	3401
834.544	3450
834.682	3439
834.821	3397
834.959	3564
835.097	3428
835.235	3538
835.373	3496
835.511	3530
835.65	3447
835.788	3488
835.926	3397
836.064	3382
836.202	3401
836.34	3587
836.478	3652
836.615	3561
836.753	3595
836.891	3641
837.029	3629
837.167	3625
837.305	3557
837.443	3580
837.58	3553
837.718	3580
837.856	3564
837.993	3538
838.131	3629
838.269	3633
838.406	3633
838.544	3610
838.681	3466
838.819	3466
838.956	3424
839.094	3405
839.231	3424
839.369	3507
839.506	3724
839.643	3648
839.781	3515
839.918	3481
840.055	3511
840.193	3564
840.33	3534
840.467	3603
840.604	3595
840.742	3857
840.879	3557
841.016	3595
841.153	3603
841.29	3774
841.427	3724
841.564	3713
841.701	3709
841.838	3713
841.975	3682
842.112	3819
842.249	3644
842.385	3610
842.522	3831
842.659	3717
842.796	3698
842.933	3736
843.069	3736
843.206	3720
843.343	3827
843.479	3770
843.616	3838
843.752	3720
843.889	3743
844.025	3873
844.162	3720
844.298	3861
844.435	3789
844.571	3789
844.708	3892
844.844	3987
844.98	4010
845.117	3991
845.253	3922
845.389	3960
845.525	4002
845.661	3964
845.798	3956
845.934	3956
846.07	3937
846.206	4086
846.342	4097
846.478	4059
846.614	3987
846.75	3899
846.886	3892
847.022	4044
847.158	3975
847.294	4006
847.429	4067
847.565	4055
847.701	4272
847.837	3854
847.972	3835
848.108	3926
848.244	3972
848.379	3876
848.515	3846
848.65	3812
848.786	3865
848.921	3869
849.057	3945
849.192	3937
849.328	3884
849.463	3930
849.598	3903
849.734	3861
849.869	3865
850.004	3785
850.14	3835
850.275	3800
850.41	3770
850.545	3747
850.68	3800
850.815	3846
850.95	3808
851.085	3953
851.22	3857
851.355	3831
851.49	3800
851.625	3789
851.76	3846
851.895	3774
852.03	3751
852.165	3827
852.299	3888
852.434	3918
852.569	3892
852.703	3907
852.838	3964
852.973	4021
853.107	4002
853.242	3922
853.376	3884
853.511	3800
853.645	3812
853.78	3968
853.914	3915
854.048	3922
854.183	3873
854.317	3911
854.451	4059
854.585	3930
854.72	3979
854.854	4048
854.988	3896
855.122	4025
855.256	3945
855.39	4013
855.524	4116
855.658	4097
855.792	4109
855.926	4158
856.06	4166
856.194	4211
856.327	4154
856.461	4166
856.595	4150
856.729	4181
856.862	4318
856.996	4200
857.13	4352
857.263	4360
857.397	4363
857.53	4261
857.664	4348
857.797	4348
857.931	4447
858.064	4383
858.197	4424
858.331	4379
858.464	4375
858.597	4375
858.731	4474
858.864	4481
858.997	4443
859.13	4535
859.263	4535
859.396	4607
859.529	4516
859.662	4565
859.795	4512
859.928	4622
860.061	4729
860.194	4675
860.327	4675
860.46	4656
860.592	4733
860.725	4782
860.858	4831
860.99	4679
861.123	4675
861.256	4683
861.388	4805
861.521	5360
861.653	4755
861.786	4694
861.918	4733
862.05	4774
862.183	4809
862.315	4923
862.447	4946
862.58	4877
862.712	4831
862.844	4755
862.976	4904
863.108	4866
863.24	5254
863.372	4805
863.504	4915
863.636	4915
863.768	4949
863.9	4987
864.032	4934
864.164	4957
864.296	5006
864.428	5105
864.559	5124
864.691	5094
864.823	5143
864.954	5143
865.086	5147
865.217	5064
865.349	5117
865.48	5132
865.612	5197
865.743	5322
865.875	5166
866.006	5185
866.137	5265
866.269	5208
866.4	5280
866.531	5254
866.662	5220
866.793	5280
866.924	5315
867.055	5360
867.186	5311
867.317	5345
867.448	5334
867.579	5318
867.71	5398
867.841	5387
867.972	5444
868.103	5490
868.233	5493
868.364	5493
868.495	5501
868.625	5680
868.756	5798
868.886	5608
869.017	5722
869.147	5832
869.278	5878
869.408	5847
869.539	5771
869.669	5977
869.799	5950
869.929	6015
870.06	6015
870.19	6194
870.32	6205
870.45	6247
870.58	6323
870.71	6486
870.84	6486
870.97	6475
871.1	6483
871.23	6677
871.36	6692
871.489	6700
871.619	6768
871.749	6798
871.879	6932
872.008	6993
872.138	6951
872.267	6996
872.397	6970
872.526	7095
872.656	7126
872.785	7145
872.915	7407
873.044	7483
873.173	7540
873.303	7662
873.432	7792
873.561	7906
873.69	7940
873.819	8012
873.948	8138
874.077	8244
874.206	8347
874.335	8476
874.464	8663
874.593	8872
874.722	8918
874.851	9104
874.979	9214
875.108	9336
875.237	9435
875.365	9549
875.494	9568
875.623	9804
875.751	9831
875.88	9945
876.008	10154
876.136	10246
876.265	10542
876.393	10702
876.521	10752
876.65	10816
876.778	10850
876.906	10866
877.034	11048
877.162	11105
877.29	11105
877.418	11337
877.546	11429
877.674	11414
877.802	11463
877.93	11554
878.058	11528
878.185	11562
878.313	11596
878.441	11699
878.568	11680
878.696	11824
878.824	11866
878.951	12022
879.079	11977
879.206	12117
879.333	12095
879.461	11999
879.588	12053
879.715	12148
879.842	12258
879.97	12049
880.097	11832
880.224	11897
880.351	11859
880.478	11942
880.605	11874
880.732	11942
880.859	12011
880.986	11847
881.112	11916
881.239	11714
881.366	11790
881.493	11600
881.619	11535
881.746	11573
881.872	11573
881.999	11486
882.125	11452
882.252	11592
882.378	11528
882.505	11627
882.631	11402
882.757	11349
882.883	11288
883.01	11227
883.136	11178
883.262	11056
883.388	11136
883.514	11284
883.64	11155
883.766	11147
883.892	11006
884.018	11018
884.143	11105
884.269	11136
884.395	10911
884.52	10774
884.646	10763
884.772	10675
884.897	10634
885.023	10744
885.148	10767
885.274	10733
885.399	10759
885.524	10672
885.65	10584
885.775	10645
885.9	10531
886.025	10611
886.15	10558
886.275	10542
886.4	10432
886.525	10443
886.65	10421
886.775	10390
886.9	10443
887.025	10489
887.149	10360
887.274	10192
887.399	10261
887.523	10280
887.648	10200
887.773	10067
887.897	10314
888.021	10227
888.146	10162
888.27	10230
888.395	10272
888.519	10196
888.643	10131
888.767	10196
888.891	10025
889.015	9991
889.139	10101
889.263	9994
889.387	10082
889.511	10135
889.635	10048
889.759	9949
889.883	9987
890.006	10010
890.13	10150
890.254	9926
890.377	9994
890.501	9922
890.624	9915
890.748	9899
890.871	9838
890.995	9781
891.118	9690
891.241	9865
891.364	9755
891.488	9804
891.611	9698
891.734	9762
891.857	9823
891.98	9713
892.103	9759
892.226	9720
892.349	9629
892.471	9469
892.594	9667
892.717	9667
892.839	9580
892.962	9595
893.085	9690
893.207	9564
893.33	9557
893.452	9504
893.575	9629
893.697	9469
893.819	9641
893.941	9610
894.064	9625
894.186	9424
894.308	9405
894.43	9545
894.552	9538
894.674	9553
894.796	9420
894.918	9408
895.04	9260
895.161	9401
895.283	9408
895.405	9222
895.526	9272
895.648	9256
895.769	9253
895.891	9260
896.012	9237
896.134	9241
896.255	9150
896.376	9135
896.498	9047
896.619	9127
896.74	9089
896.861	9055
896.982	9275
897.103	9317
897.224	9119
897.345	9077
897.466	9036
897.587	9036
897.708	9062
897.828	9055
897.949	8941
898.07	8937
898.19	8925
898.311	8990
898.431	8948
898.552	8941
898.672	9005
898.792	8990
898.913	8967
899.033	8788
899.153	8739
899.273	8701
899.393	8769
899.513	8739
899.633	8712
899.753	8731
899.873	8735
899.993	8735
900.113	8720
900.232	8689
900.352	8617
900.472	8541
900.591	8590
900.711	8571
900.83	8571
900.95	8644
901.069	8705
901.189	8598
901.308	8488
901.427	8404
901.546	8389
901.665	8408
901.784	8606
901.904	8366
902.023	8385
902.141	8225
902.26	8157
902.379	8237
902.498	8225
902.617	8172
902.735	8313
902.854	8298
902.973	8298
903.091	8172
903.21	8138
903.328	8164
903.446	8142
903.565	8126
903.683	8180
903.801	8092
903.919	8107
904.038	8142
904.156	8058
904.274	8096
904.392	8054
904.51	7993
904.627	8039
904.745	8092
904.863	8107
904.981	7955
905.098	7913
905.216	7898
905.334	7921
905.451	7921
905.569	7879
905.686	7932
905.803	7890
905.921	7761
906.038	7849
906.155	7765
906.272	7746
906.389	7734
906.506	7643
906.623	7616
906.74	7582
906.857	7582
906.974	7556
907.091	7613
907.208	7719
907.324	7636
907.441	7586
907.557	7487
907.674	7449
907.79	7362
907.907	7384
908.023	7434
908.139	7400
908.256	7343
908.372	7331
908.488	7430
908.604	7259
908.72	7171
908.836	7305
908.952	7270
909.068	7335
909.184	7400
909.3	7274
909.415	7369
909.531	7301
909.647	7095
909.762	7179
909.878	7122
909.993	7179
910.108	7168
910.224	7149
910.339	7156
910.454	7061
910.57	7042
910.685	6935
910.8	7179
910.915	7149
911.03	7012
911.145	6935
911.259	6897
911.374	6916
911.489	6833
911.604	6783
911.718	6703
911.833	6760
911.947	6608
912.062	6616
912.176	6650
912.291	6741
912.405	6688
912.519	6806
912.633	6859
912.748	6760
912.862	6719
912.976	6631
913.09	6540
913.204	6620
913.318	6639
913.431	6646
913.545	6730
913.659	6730
913.772	6688
913.886	6612
914	6551
914.113	6612
914.226	6673
914.34	6623
914.453	6486
914.566	6627
914.68	6616
914.793	6547
914.906	6437
915.019	6410
915.132	6391
915.245	6403
915.358	6433
915.47	6452
915.583	6422
915.696	6532
915.809	6574
915.921	6547
916.034	6437
916.146	6445
916.259	6410
916.371	6464
916.483	6437
916.595	6353
916.708	6441
916.82	6448
916.932	6407
917.044	6426
917.156	6372
917.268	6361
917.38	6399
917.491	6403
917.603	6315
917.715	6445
917.826	6376
917.938	6296
918.049	6235
918.161	6338
918.272	6441
918.384	6460
918.495	6372
918.606	6251
918.717	6201
918.828	6235
918.939	6258
919.05	6239
919.161	6190
919.272	6152
919.383	6178
919.494	6323
919.604	6441
919.715	6273
919.826	6243
919.936	6315
920.047	6281
920.157	6319
920.267	6502
920.378	6353
920.488	6311
920.598	6456
920.708	6521
920.818	6490
920.928	6464
921.038	6612
921.148	6555
921.258	6410
921.368	6251
921.477	6194
921.587	6194
921.697	6114
921.806	6175
921.916	6110
922.025	5996
922.134	5961
922.244	5889
922.353	5980
922.462	5878
922.571	5775
922.68	5665
922.789	5691
922.898	5756
923.007	5653
923.116	5707
923.224	5672
923.333	5646
923.442	5619
923.55	5551
923.659	5535
923.767	5638
923.876	5493
923.984	5589
924.092	5474
924.201	5551
924.309	5562
924.417	5592
924.525	5482
924.633	5471
924.741	6114
924.849	5402
924.956	5539
925.064	5376
925.172	5353
925.279	5326
925.387	5395
925.494	5296
925.602	5436
925.709	5391
925.816	5280
925.924	5311
926.031	5334
926.138	5315
926.245	5372
926.352	5242
926.459	5322
926.566	5322
926.673	5303
926.779	5064
926.886	5098
926.993	5022
927.099	5033
927.206	5018
927.312	4991
927.419	5045
927.525	4984
927.631	5022
927.737	4889
927.843	4828
927.95	4801
928.056	4828
928.162	4847
928.267	4904
928.373	5368
928.479	4824
928.585	4717
928.69	4801
928.796	4782
928.901	4679
929.007	4599
929.112	4698
929.218	4641
929.323	4664
929.428	4580
929.533	4694
929.638	4527
929.743	4508
929.848	4569
929.953	4523
930.058	4508
930.163	4333
930.267	4367
930.372	4432
930.477	4363
930.581	4478
930.685	4413
930.79	4272
930.894	4329
930.998	4295
931.103	4417
931.207	4150
931.311	4059
931.415	4021
931.519	3937
931.623	3964
