Data from glass_V78500241_1396.txt Node
Date: Wed Sep 01 19:24:10 CST 2021
User: usil
Spectrometer: V785-0024
Trigger mode: 0
Integration Time (sec): 4.000000E-1
Scans to average: 1
Nonlinearity correction enabled: false
Boxcar width: 0
Storing dark spectrum: false
XAxis mode: Wavelengths
Number of Pixels in Spectrum: 1024
>>>>>Begin Spectral Data<<<<<
801.071	3736
801.214	3774
801.356	3732
801.499	3762
801.641	3728
801.783	3808
801.926	3827
802.068	3857
802.211	3854
802.353	3880
802.496	3861
802.638	3926
802.78	3915
802.923	3922
803.065	3907
803.208	3850
803.35	3884
803.492	3865
803.635	3907
803.777	3800
803.919	3915
804.061	4204
804.204	3983
804.346	3964
804.488	3903
804.63	4097
804.773	4036
804.915	3994
805.057	4166
805.199	4036
805.341	4105
805.483	4105
805.626	4101
805.768	4147
805.91	4185
806.052	4185
806.194	4230
806.336	4356
806.478	4227
806.62	4173
806.762	4169
806.904	4238
807.046	4360
807.188	4257
807.33	4185
807.472	4261
807.614	4188
807.756	4310
807.898	4200
808.04	4230
808.182	4310
808.324	4318
808.465	4383
808.607	4481
808.749	4447
808.891	4466
809.033	4500
809.174	4383
809.316	4280
809.458	4291
809.6	4147
809.741	4200
809.883	4135
810.025	4215
810.166	4215
810.308	4230
810.45	4257
810.591	4204
810.733	4249
810.875	4542
811.016	4828
811.158	5132
811.299	5296
811.441	5307
811.582	5090
811.724	4694
811.865	4440
812.007	4497
812.148	4421
812.29	4443
812.431	4394
812.573	4440
812.714	4405
812.855	4379
812.997	4424
813.138	4508
813.279	4409
813.421	4386
813.562	4417
813.703	4348
813.845	4360
813.986	4242
814.127	4268
814.268	4238
814.41	4291
814.551	4287
814.692	4287
814.833	4310
814.974	4284
815.115	4379
815.256	4249
815.397	4230
815.539	4234
815.68	4177
815.821	4230
815.962	4295
816.103	4295
816.244	4268
816.385	4272
816.526	4310
816.666	4215
816.807	4116
816.948	4185
817.089	4196
817.23	4128
817.371	4074
817.512	4078
817.653	4074
817.793	4063
817.934	4040
818.075	4097
818.216	4101
818.356	4109
818.497	3983
818.638	3911
818.778	3915
818.919	3892
819.06	3873
819.2	3960
819.341	3846
819.481	3854
819.622	3869
819.762	4010
819.903	3949
820.043	3835
820.184	3812
820.324	3797
820.465	3876
820.605	3892
820.746	3857
820.886	3774
821.026	3934
821.167	3911
821.307	3983
821.447	3975
821.588	3941
821.728	3964
821.868	3983
822.008	3865
822.149	3926
822.289	3968
822.429	3823
822.569	3789
822.709	3827
822.849	3671
822.99	3724
823.13	3827
823.27	3789
823.41	3762
823.55	3705
823.69	3736
823.83	3759
823.97	3694
824.11	3633
824.25	3656
824.389	3629
824.529	3682
824.669	3610
824.809	3694
824.949	3816
825.089	3732
825.228	3701
825.368	3576
825.508	3549
825.648	3576
825.787	3595
825.927	3622
826.067	3587
826.206	3644
826.346	3808
826.485	3861
826.625	3838
826.765	3953
826.904	3842
827.044	3576
827.183	3534
827.323	3435
827.462	3469
827.601	3405
827.741	3397
827.88	3420
828.02	3382
828.159	3382
828.298	3443
828.437	3500
828.577	3469
828.716	3625
828.855	3485
828.994	3405
829.134	3386
829.273	3386
829.412	3336
829.551	3363
829.69	3317
829.829	3443
829.968	3523
830.107	3443
830.246	3454
830.385	3401
830.524	3344
830.663	3306
830.802	3249
830.941	3226
831.08	3188
831.219	3268
831.357	3287
831.496	3409
831.635	3226
831.774	3199
831.913	3211
832.051	3127
832.19	3142
832.329	3241
832.467	3127
832.606	3127
832.744	3188
832.883	3169
833.022	3211
833.16	3260
833.299	3268
833.437	3359
833.576	3340
833.714	3389
833.852	3428
833.991	3416
834.129	3443
834.267	3405
834.406	3378
834.544	3401
834.682	3431
834.821	3412
834.959	3561
835.097	3443
835.235	3507
835.373	3454
835.511	3526
835.65	3443
835.788	3447
835.926	3416
836.064	3401
836.202	3424
836.34	3564
836.478	3622
836.615	3545
836.753	3595
836.891	3648
837.029	3667
837.167	3587
837.305	3553
837.443	3553
837.58	3526
837.718	3595
837.856	3553
837.993	3561
838.131	3591
838.269	3576
838.406	3599
838.544	3584
838.681	3485
838.819	3450
838.956	3409
839.094	3412
839.231	3469
839.369	3519
839.506	3755
839.643	3637
839.781	3504
839.918	3462
840.055	3542
840.193	3519
840.33	3492
840.467	3564
840.604	3637
840.742	3854
840.879	3576
841.016	3587
841.153	3606
841.29	3766
841.427	3751
841.564	3759
841.701	3728
841.838	3766
841.975	3724
842.112	3781
842.249	3629
842.385	3629
842.522	3850
842.659	3740
842.796	3682
842.933	3717
843.069	3701
843.206	3743
843.343	3827
843.479	3747
843.616	3873
843.752	3660
843.889	3682
844.025	3899
844.162	3694
844.298	3850
844.435	3812
844.571	3804
844.708	3899
844.844	3945
844.98	4010
845.117	4044
845.253	3892
845.389	3907
845.525	3960
845.661	3953
845.798	3922
845.934	3991
846.07	3934
846.206	4051
846.342	4078
846.478	4048
846.614	3972
846.75	3941
846.886	3937
847.022	4017
847.158	3968
847.294	3991
847.429	4044
847.565	4044
847.701	4246
847.837	3892
847.972	3865
848.108	3983
848.244	3979
848.379	3835
848.515	3808
848.65	3823
848.786	3865
848.921	3808
849.057	3918
849.192	3941
849.328	3911
849.463	3892
849.598	3884
849.734	3854
849.869	3857
850.004	3785
850.14	3804
850.275	3770
850.41	3717
850.545	3751
850.68	3789
850.815	3835
850.95	3827
851.085	3930
851.22	3876
851.355	3804
851.49	3819
851.625	3766
851.76	3793
851.895	3778
852.03	3740
852.165	3850
852.299	3857
852.434	3911
852.569	3831
852.703	3930
852.838	3949
852.973	4021
853.107	3972
853.242	3915
853.376	3857
853.511	3797
853.645	3827
853.78	3979
853.914	3941
854.048	3915
854.183	3865
854.317	3960
854.451	4055
854.585	3953
854.72	3972
854.854	4067
854.988	3915
855.122	4021
855.256	3899
855.39	4059
855.524	4116
855.658	4078
855.792	4078
855.926	4154
856.06	4158
856.194	4177
856.327	4181
856.461	4124
856.595	4135
856.729	4192
856.862	4272
856.996	4192
857.13	4246
857.263	4322
857.397	4367
857.53	4249
857.664	4341
857.797	4432
857.931	4443
858.064	4417
858.197	4447
858.331	4348
858.464	4386
858.597	4348
858.731	4432
858.864	4424
858.997	4451
859.13	4485
859.263	4573
859.396	4577
859.529	4527
859.662	4569
859.795	4565
859.928	4611
860.061	4668
860.194	4748
860.327	4672
860.46	4622
860.592	4721
860.725	4725
860.858	4774
860.99	4675
861.123	4679
861.256	4710
861.388	4782
861.521	5280
861.653	4702
861.786	4744
861.918	4744
862.05	4797
862.183	4858
862.315	4881
862.447	4934
862.58	4870
862.712	4824
862.844	4820
862.976	4877
863.108	4843
863.24	5151
863.372	4831
863.504	4911
863.636	4915
863.768	4991
863.9	5003
864.032	4968
864.164	4980
864.296	4965
864.428	5006
864.559	5113
864.691	5105
864.823	5166
864.954	5136
865.086	5136
865.217	5136
865.349	5147
865.48	5174
865.612	5208
865.743	5345
865.875	5220
866.006	5140
866.137	5242
866.269	5239
866.4	5254
866.531	5246
866.662	5292
866.793	5307
866.924	5265
867.055	5318
867.186	5311
867.317	5288
867.448	5303
867.579	5376
867.71	5395
867.841	5410
867.972	5505
868.103	5410
868.233	5414
868.364	5535
868.495	5570
868.625	5691
868.756	5813
868.886	5653
869.017	5775
869.147	5851
869.278	5874
869.408	5813
869.539	5779
869.669	5923
869.799	5889
869.929	5977
870.06	5984
870.19	6247
870.32	6144
870.45	6213
870.58	6346
870.71	6376
870.84	6513
870.97	6448
871.1	6471
871.23	6608
871.36	6730
871.489	6650
871.619	6722
871.749	6791
871.879	6894
872.008	6981
872.138	7023
872.267	6993
872.397	7023
872.526	7042
872.656	7050
872.785	7168
872.915	7369
873.044	7544
873.173	7597
873.303	7620
873.432	7780
873.561	7868
873.69	7890
873.819	8043
873.948	8153
874.077	8240
874.206	8366
874.335	8412
874.464	8610
874.593	8807
874.722	8918
874.851	9100
874.979	9287
875.108	9382
875.237	9420
875.365	9485
875.494	9610
875.623	9827
875.751	9827
875.88	10040
876.008	10192
876.136	10272
876.265	10516
876.393	10771
876.521	10660
876.65	10858
876.778	10904
876.906	10828
877.034	10942
877.162	11132
877.29	11090
877.418	11349
877.546	11383
877.674	11455
877.802	11455
877.93	11501
878.058	11490
878.185	11566
878.313	11649
878.441	11688
878.568	11570
878.696	11786
878.824	11756
878.951	12007
879.079	11969
879.206	12030
879.333	11977
879.461	11961
879.588	12098
879.715	12079
879.842	12148
879.97	12152
880.097	11847
880.224	11863
880.351	11863
880.478	11859
880.605	11855
880.732	11828
880.859	11901
880.986	11878
881.112	11821
881.239	11752
881.366	11665
881.493	11592
881.619	11608
881.746	11600
881.872	11493
881.999	11478
882.125	11410
882.252	11581
882.378	11497
882.505	11516
882.631	11436
882.757	11353
882.883	11315
883.01	11315
883.136	11201
883.262	11121
883.388	11109
883.514	11227
883.64	11162
883.766	11105
883.892	11025
884.018	11022
884.143	11029
884.269	11155
884.395	10782
884.52	10736
884.646	10835
884.772	10649
884.897	10641
885.023	10592
885.148	10805
885.274	10755
885.399	10774
885.524	10618
885.65	10637
885.775	10588
885.9	10599
886.025	10523
886.15	10546
886.275	10443
886.4	10424
886.525	10417
886.65	10322
886.775	10375
886.9	10481
887.025	10569
887.149	10337
887.274	10287
887.399	10291
887.523	10154
887.648	10177
887.773	10177
887.897	10188
888.021	10211
888.146	10120
888.27	10185
888.395	10211
888.519	10196
888.643	10154
888.767	10177
888.891	10200
889.015	9941
889.139	10063
889.263	10032
889.387	10143
889.511	10150
889.635	10055
889.759	9915
889.883	9968
890.006	9983
890.13	10044
890.254	9930
890.377	9873
890.501	9835
890.624	9876
890.748	9903
890.871	9785
890.995	9755
891.118	9679
891.241	9743
891.364	9759
891.488	9880
891.611	9747
891.734	9770
891.857	9743
891.98	9694
892.103	9816
892.226	9701
892.349	9606
892.471	9496
892.594	9599
892.717	9603
892.839	9576
892.962	9667
893.085	9690
893.207	9576
893.33	9500
893.452	9507
893.575	9652
893.697	9500
893.819	9561
893.941	9542
894.064	9610
894.186	9431
894.308	9454
894.43	9523
894.552	9564
894.674	9507
894.796	9401
894.918	9416
895.04	9317
895.161	9374
895.283	9332
895.405	9302
895.526	9214
895.648	9268
895.769	9241
895.891	9218
896.012	9253
896.134	9203
896.255	9222
896.376	9180
896.498	9093
896.619	9123
896.74	9123
896.861	9047
896.982	9264
897.103	9332
897.224	9173
897.345	9085
897.466	9085
897.587	9066
897.708	9062
897.828	9077
897.949	8952
898.07	8937
898.19	8918
898.311	9051
898.431	8899
898.552	8876
898.672	8998
898.792	8990
898.913	8864
899.033	8807
899.153	8781
899.273	8598
899.393	8743
899.513	8823
899.633	8769
899.753	8796
899.873	8735
899.993	8708
900.113	8697
900.232	8712
900.352	8640
900.472	8701
900.591	8552
900.711	8587
900.83	8514
900.95	8670
901.069	8724
901.189	8518
901.308	8427
901.427	8454
901.546	8457
901.665	8377
901.784	8427
901.904	8370
902.023	8309
902.141	8256
902.26	8195
902.379	8252
902.498	8244
902.617	8164
902.735	8324
902.854	8237
902.973	8214
903.091	8176
903.21	8172
903.328	8142
903.446	8123
903.565	8050
903.683	8119
903.801	7974
903.919	8073
904.038	8058
904.156	8031
904.274	8092
904.392	8062
904.51	8069
904.627	8043
904.745	8054
904.863	8081
904.981	7963
905.098	7841
905.216	7909
905.334	7879
905.451	7906
905.569	7864
905.686	7883
905.803	7913
905.921	7803
906.038	7868
906.155	7803
906.272	7727
906.389	7719
906.506	7651
906.623	7616
906.74	7662
906.857	7552
906.974	7567
907.091	7696
907.208	7765
907.324	7632
907.441	7567
907.557	7426
907.674	7415
907.79	7396
907.907	7430
908.023	7426
908.139	7487
908.256	7400
908.372	7419
908.488	7400
908.604	7247
908.72	7266
908.836	7327
908.952	7282
909.068	7278
909.184	7308
909.3	7209
909.415	7301
909.531	7308
909.647	7152
909.762	7126
909.878	7069
909.993	7194
910.108	7099
910.224	7103
910.339	7091
910.454	7027
910.57	7034
910.685	6954
910.8	7133
910.915	7107
911.03	6996
911.145	6901
911.259	6916
911.374	6878
911.489	6856
911.604	6722
911.718	6726
911.833	6760
911.947	6646
912.062	6620
912.176	6707
912.291	6776
912.405	6696
912.519	6867
912.633	6810
912.748	6677
912.862	6635
912.976	6563
913.09	6521
913.204	6597
913.318	6612
913.431	6658
913.545	6669
913.659	6700
913.772	6665
913.886	6635
914	6547
914.113	6642
914.226	6631
914.34	6669
914.453	6486
914.566	6521
914.68	6589
914.793	6563
914.906	6426
915.019	6376
915.132	6388
915.245	6418
915.358	6448
915.47	6448
915.583	6452
915.696	6475
915.809	6574
915.921	6544
916.034	6464
916.146	6441
916.259	6376
916.371	6433
916.483	6483
916.595	6380
916.708	6353
916.82	6395
916.932	6350
917.044	6384
917.156	6403
917.268	6308
917.38	6346
917.491	6311
917.603	6315
917.715	6388
917.826	6452
917.938	6380
918.049	6247
918.161	6342
918.272	6433
918.384	6414
918.495	6315
918.606	6289
918.717	6216
918.828	6281
918.939	6308
919.05	6175
919.161	6247
919.272	6133
919.383	6159
919.494	6262
919.604	6422
919.715	6308
919.826	6190
919.936	6239
920.047	6311
920.157	6251
920.267	6433
920.378	6357
920.488	6292
920.598	6441
920.708	6486
920.818	6456
920.928	6460
921.038	6589
921.148	6574
921.258	6334
921.368	6311
921.477	6186
921.587	6190
921.697	6068
921.806	6163
921.916	6087
922.025	5984
922.134	5961
922.244	5897
922.353	5901
922.462	5855
922.571	5786
922.68	5737
922.789	5726
922.898	5710
923.007	5627
923.116	5695
923.224	5611
923.333	5627
923.442	5600
923.55	5535
923.659	5573
923.767	5608
923.876	5528
923.984	5668
924.092	5520
924.201	5474
924.309	5566
924.417	5539
924.525	5505
924.633	5509
924.741	6277
924.849	5398
924.956	5478
925.064	5341
925.172	5296
925.279	5299
925.387	5330
925.494	5353
925.602	5391
925.709	5414
925.816	5242
925.924	5326
926.031	5353
926.138	5349
926.245	5353
926.352	5261
926.459	5307
926.566	5345
926.673	5193
926.779	5212
926.886	5140
926.993	5090
927.099	4987
927.206	4972
927.312	4938
927.419	4972
927.525	4976
927.631	4957
927.737	4877
927.843	4873
927.95	4793
928.056	4774
928.162	4850
928.267	4843
928.373	5284
928.479	4831
928.585	4721
928.69	4797
928.796	4771
928.901	4733
929.007	4630
929.112	4691
929.218	4656
929.323	4599
929.428	4569
929.533	4672
929.638	4546
929.743	4592
929.848	4588
929.953	4542
930.058	4455
930.163	4337
930.267	4344
930.372	4459
930.477	4318
930.581	4474
930.685	4333
930.79	4246
930.894	4303
930.998	4215
931.103	4398
931.207	4112
931.311	4086
931.415	4063
931.519	3915
931.623	3991
