Data from glass_V78500241_949.txt Node
Date: Wed Sep 01 19:21:04 CST 2021
User: usil
Spectrometer: V785-0024
Trigger mode: 0
Integration Time (sec): 4.000000E-1
Scans to average: 1
Nonlinearity correction enabled: false
Boxcar width: 0
Storing dark spectrum: false
XAxis mode: Wavelengths
Number of Pixels in Spectrum: 1024
>>>>>Begin Spectral Data<<<<<
801.071	3747
801.214	3762
801.356	3713
801.499	3728
801.641	3770
801.783	3804
801.926	3861
802.068	3827
802.211	3876
802.353	3949
802.496	3869
802.638	3941
802.78	3922
802.923	3896
803.065	3899
803.208	3850
803.35	3865
803.492	3888
803.635	3922
803.777	3770
803.919	3899
804.061	4147
804.204	3956
804.346	3956
804.488	3903
804.63	4002
804.773	3991
804.915	3994
805.057	4101
805.199	4082
805.341	4124
805.483	4150
805.626	4135
805.768	4116
805.91	4223
806.052	4268
806.194	4177
806.336	4379
806.478	4211
806.62	4223
806.762	4211
806.904	4211
807.046	4375
807.188	4219
807.33	4177
807.472	4177
807.614	4249
807.756	4204
807.898	4268
808.04	4246
808.182	4280
808.324	4367
808.465	4371
808.607	4478
808.749	4497
808.891	4497
809.033	4512
809.174	4436
809.316	4287
809.458	4265
809.6	4105
809.741	4150
809.883	4162
810.025	4246
810.166	4268
810.308	4257
810.45	4223
810.591	4207
810.733	4306
810.875	4535
811.016	4824
811.158	5162
811.299	5315
811.441	5277
811.582	5094
811.724	4725
811.865	4447
812.007	4405
812.148	4462
812.29	4421
812.431	4428
812.573	4421
812.714	4383
812.855	4398
812.997	4432
813.138	4497
813.279	4455
813.421	4417
813.562	4398
813.703	4325
813.845	4341
813.986	4276
814.127	4219
814.268	4223
814.41	4280
814.551	4280
814.692	4348
814.833	4238
814.974	4337
815.115	4371
815.256	4265
815.397	4242
815.539	4238
815.68	4223
815.821	4204
815.962	4322
816.103	4299
816.244	4276
816.385	4238
816.526	4310
816.666	4219
816.807	4139
816.948	4185
817.089	4150
817.23	4131
817.371	4086
817.512	4078
817.653	4063
817.793	4017
817.934	4021
818.075	4120
818.216	4090
818.356	4071
818.497	4017
818.638	3918
818.778	3873
818.919	3922
819.06	3880
819.2	3915
819.341	3861
819.481	3873
819.622	3918
819.762	4006
819.903	3926
820.043	3937
820.184	3816
820.324	3835
820.465	3888
820.605	3892
820.746	3903
820.886	3793
821.026	3960
821.167	3937
821.307	4044
821.447	3979
821.588	3922
821.728	3979
821.868	3926
822.008	3903
822.149	3888
822.289	3899
822.429	3831
822.569	3774
822.709	3835
822.849	3713
822.99	3713
823.13	3759
823.27	3789
823.41	3724
823.55	3755
823.69	3705
823.83	3743
823.97	3720
824.11	3618
824.25	3614
824.389	3641
824.529	3686
824.669	3675
824.809	3724
824.949	3797
825.089	3740
825.228	3679
825.368	3564
825.508	3568
825.648	3576
825.787	3644
825.927	3660
826.067	3614
826.206	3709
826.346	3846
826.485	3896
826.625	3869
826.765	3941
826.904	3865
827.044	3633
827.183	3542
827.323	3462
827.462	3469
827.601	3439
827.741	3450
827.88	3435
828.02	3405
828.159	3462
828.298	3530
828.437	3492
828.577	3481
828.716	3595
828.855	3542
828.994	3416
829.134	3370
829.273	3405
829.412	3370
829.551	3355
829.69	3359
829.829	3409
829.968	3545
830.107	3450
830.246	3492
830.385	3378
830.524	3355
830.663	3317
830.802	3245
830.941	3150
831.08	3222
831.219	3233
831.357	3230
831.496	3393
831.635	3249
831.774	3176
831.913	3211
832.051	3119
832.19	3154
832.329	3230
832.467	3169
832.606	3108
832.744	3207
832.883	3192
833.022	3222
833.16	3256
833.299	3279
833.437	3340
833.576	3355
833.714	3424
833.852	3462
833.991	3435
834.129	3462
834.267	3488
834.406	3405
834.544	3458
834.682	3420
834.821	3447
834.959	3603
835.097	3412
835.235	3545
835.373	3530
835.511	3515
835.65	3466
835.788	3507
835.926	3389
836.064	3374
836.202	3435
836.34	3591
836.478	3633
836.615	3545
836.753	3591
836.891	3701
837.029	3584
837.167	3641
837.305	3595
837.443	3515
837.58	3534
837.718	3610
837.856	3572
837.993	3530
838.131	3625
838.269	3572
838.406	3591
838.544	3576
838.681	3473
838.819	3488
838.956	3428
839.094	3382
839.231	3447
839.369	3534
839.506	3736
839.643	3675
839.781	3504
839.918	3439
840.055	3584
840.193	3549
840.33	3519
840.467	3610
840.604	3618
840.742	3869
840.879	3568
841.016	3576
841.153	3660
841.29	3781
841.427	3740
841.564	3736
841.701	3759
841.838	3740
841.975	3709
842.112	3736
842.249	3614
842.385	3633
842.522	3884
842.659	3736
842.796	3713
842.933	3728
843.069	3717
843.206	3728
843.343	3797
843.479	3766
843.616	3831
843.752	3686
843.889	3644
844.025	3838
844.162	3732
844.298	3884
844.435	3797
844.571	3827
844.708	3903
844.844	4013
844.98	4021
845.117	4002
845.253	3918
845.389	3934
845.525	3975
845.661	3975
845.798	3911
845.934	4010
846.07	3953
846.206	4093
846.342	4131
846.478	4048
846.614	3953
846.75	3945
846.886	3915
847.022	4025
847.158	3983
847.294	3998
847.429	4040
847.565	4002
847.701	4234
847.837	3884
847.972	3899
848.108	4010
848.244	3945
848.379	3884
848.515	3804
848.65	3816
848.786	3876
848.921	3884
849.057	3926
849.192	3968
849.328	3903
849.463	3899
849.598	3899
849.734	3884
849.869	3797
850.004	3804
850.14	3846
850.275	3789
850.41	3808
850.545	3789
850.68	3762
850.815	3850
850.95	3800
851.085	3983
851.22	3861
851.355	3835
851.49	3800
851.625	3835
851.76	3724
851.895	3732
852.03	3766
852.165	3812
852.299	3831
852.434	3926
852.569	3857
852.703	3857
852.838	3956
852.973	4029
853.107	3994
853.242	3930
853.376	3884
853.511	3831
853.645	3838
853.78	3953
853.914	3926
854.048	3884
854.183	3922
854.317	4017
854.451	4086
854.585	3991
854.72	3956
854.854	4051
854.988	3926
855.122	4029
855.256	3934
855.39	4025
855.524	4067
855.658	4093
855.792	4074
855.926	4105
856.06	4158
856.194	4177
856.327	4128
856.461	4116
856.595	4135
856.729	4177
856.862	4249
856.996	4276
857.13	4352
857.263	4329
857.397	4383
857.53	4272
857.664	4348
857.797	4402
857.931	4459
858.064	4413
858.197	4462
858.331	4421
858.464	4402
858.597	4383
858.731	4462
858.864	4455
858.997	4485
859.13	4508
859.263	4546
859.396	4565
859.529	4531
859.662	4550
859.795	4516
859.928	4611
860.061	4698
860.194	4740
860.327	4683
860.46	4672
860.592	4729
860.725	4767
860.858	4797
860.99	4694
861.123	4698
861.256	4717
861.388	4767
861.521	5562
861.653	4763
861.786	4748
861.918	4729
862.05	4805
862.183	4896
862.315	4919
862.447	4965
862.58	4889
862.712	4858
862.844	4778
862.976	4889
863.108	4854
863.24	5208
863.372	4801
863.504	4942
863.636	4839
863.768	4965
863.9	4972
864.032	4904
864.164	4949
864.296	5018
864.428	5105
864.559	5094
864.691	5117
864.823	5128
864.954	5151
865.086	5090
865.217	5155
865.349	5105
865.48	5166
865.612	5204
865.743	5326
865.875	5166
866.006	5185
866.137	5273
866.269	5269
866.4	5269
866.531	5223
866.662	5242
866.793	5265
866.924	5326
867.055	5364
867.186	5364
867.317	5357
867.448	5277
867.579	5387
867.71	5345
867.841	5410
867.972	5467
868.103	5467
868.233	5512
868.364	5509
868.495	5604
868.625	5630
868.756	5809
868.886	5767
869.017	5771
869.147	5821
869.278	5859
869.408	5863
869.539	5855
869.669	5946
869.799	5927
869.929	6022
870.06	5988
870.19	6209
870.32	6190
870.45	6277
870.58	6388
870.71	6467
870.84	6422
870.97	6433
871.1	6422
871.23	6627
871.36	6722
871.489	6715
871.619	6757
871.749	6848
871.879	6897
872.008	7004
872.138	7061
872.267	7004
872.397	7012
872.526	7080
872.656	7164
872.785	7198
872.915	7438
873.044	7559
873.173	7594
873.303	7643
873.432	7696
873.561	7849
873.69	7928
873.819	7997
873.948	8271
874.077	8240
874.206	8404
874.335	8484
874.464	8693
874.593	8937
874.722	8883
874.851	9157
874.979	9245
875.108	9412
875.237	9485
875.365	9515
875.494	9717
875.623	9819
875.751	9857
875.88	10021
876.008	10093
876.136	10276
876.265	10531
876.393	10721
876.521	10694
876.65	10717
876.778	10927
876.906	10839
877.034	11010
877.162	11079
877.29	11174
877.418	11265
877.546	11341
877.674	11471
877.802	11474
877.93	11509
878.058	11573
878.185	11562
878.313	11646
878.441	11710
878.568	11676
878.696	11798
878.824	11863
878.951	11965
879.079	12015
879.206	12129
879.333	12064
879.461	11961
879.588	12133
879.715	12064
879.842	12178
879.97	12064
880.097	11916
880.224	11916
880.351	11901
880.478	11904
880.605	11931
880.732	11893
880.859	12083
880.986	11764
881.112	11958
881.239	11703
881.366	11718
881.493	11604
881.619	11566
881.746	11589
881.872	11562
881.999	11566
882.125	11497
882.252	11535
882.378	11497
882.505	11551
882.631	11398
882.757	11311
882.883	11406
883.01	11379
883.136	11162
883.262	11090
883.388	11128
883.514	11204
883.64	11159
883.766	11109
883.892	11022
884.018	11041
884.143	11067
884.269	11143
884.395	10866
884.52	10820
884.646	10790
884.772	10782
884.897	10668
885.023	10782
885.148	10752
885.274	10809
885.399	10733
885.524	10645
885.65	10668
885.775	10554
885.9	10611
886.025	10607
886.15	10527
886.275	10459
886.4	10436
886.525	10386
886.65	10413
886.775	10341
886.9	10485
887.025	10577
887.149	10375
887.274	10192
887.399	10181
887.523	10181
887.648	10150
887.773	10128
887.897	10337
888.021	10192
888.146	10143
888.27	10192
888.395	10284
888.519	10242
888.643	10215
888.767	10116
888.891	10055
889.015	10048
889.139	10006
889.263	9960
889.387	10078
889.511	10128
889.635	10078
889.759	10021
889.883	9922
890.006	9972
890.13	10166
890.254	9918
890.377	10010
890.501	9816
890.624	9865
890.748	9850
890.871	9842
890.995	9743
891.118	9736
891.241	9804
891.364	9793
891.488	9827
891.611	9641
891.734	9736
891.857	9717
891.98	9732
892.103	9759
892.226	9698
892.349	9660
892.471	9507
892.594	9641
892.717	9679
892.839	9576
892.962	9591
893.085	9698
893.207	9644
893.33	9507
893.452	9561
893.575	9591
893.697	9500
893.819	9660
893.941	9580
894.064	9633
894.186	9443
894.308	9469
894.43	9584
894.552	9610
894.674	9549
894.796	9481
894.918	9302
895.04	9321
895.161	9313
895.283	9355
895.405	9214
895.526	9218
895.648	9279
895.769	9237
895.891	9317
896.012	9370
896.134	9245
896.255	9180
896.376	9165
896.498	9089
896.619	9097
896.74	9112
896.861	9161
896.982	9294
897.103	9245
897.224	9108
897.345	9081
897.466	9001
897.587	9032
897.708	9077
897.828	9043
897.949	8944
898.07	8868
898.19	8925
898.311	9051
898.431	8941
898.552	8982
898.672	8963
898.792	8941
898.913	8918
899.033	8823
899.153	8792
899.273	8667
899.393	8766
899.513	8754
899.633	8735
899.753	8750
899.873	8697
899.993	8773
900.113	8678
900.232	8727
900.352	8697
900.472	8617
900.591	8598
900.711	8655
900.83	8587
900.95	8663
901.069	8697
901.189	8587
901.308	8469
901.427	8393
901.546	8408
901.665	8465
901.784	8492
901.904	8438
902.023	8332
902.141	8279
902.26	8225
902.379	8305
902.498	8267
902.617	8294
902.735	8290
902.854	8320
902.973	8282
903.091	8157
903.21	8115
903.328	8210
903.446	8119
903.565	8062
903.683	8100
903.801	8077
903.919	8119
904.038	8206
904.156	8012
904.274	8130
904.392	8016
904.51	8035
904.627	8077
904.745	8123
904.863	8168
904.981	7967
905.098	7875
905.216	7909
905.334	7906
905.451	7917
905.569	7845
905.686	7940
905.803	7875
905.921	7757
906.038	7868
906.155	7753
906.272	7727
906.389	7704
906.506	7689
906.623	7616
906.74	7632
906.857	7601
906.974	7639
907.091	7674
907.208	7704
907.324	7658
907.441	7616
907.557	7445
907.674	7426
907.79	7388
907.907	7400
908.023	7464
908.139	7457
908.256	7369
908.372	7396
908.488	7301
908.604	7293
908.72	7240
908.836	7259
908.952	7270
909.068	7278
909.184	7354
909.3	7305
909.415	7339
909.531	7285
909.647	7198
909.762	7118
909.878	7057
909.993	7110
910.108	7141
910.224	7027
910.339	7099
910.454	7137
910.57	7004
910.685	6920
910.8	7190
910.915	7110
911.03	7008
911.145	6916
911.259	6886
911.374	6928
911.489	6856
911.604	6825
911.718	6692
911.833	6703
911.947	6654
912.062	6585
912.176	6711
912.291	6749
912.405	6677
912.519	6875
912.633	6818
912.748	6844
912.862	6719
912.976	6623
913.09	6513
913.204	6597
913.318	6623
913.431	6719
913.545	6681
913.659	6715
913.772	6722
913.886	6597
914	6608
914.113	6585
914.226	6662
914.34	6566
914.453	6521
914.566	6646
914.68	6513
914.793	6570
914.906	6471
915.019	6338
915.132	6395
915.245	6433
915.358	6418
915.47	6391
915.583	6456
915.696	6467
915.809	6532
915.921	6582
916.034	6433
916.146	6426
916.259	6391
916.371	6513
916.483	6479
916.595	6452
916.708	6418
916.82	6422
916.932	6350
917.044	6410
917.156	6388
917.268	6304
917.38	6342
917.491	6331
917.603	6289
917.715	6372
917.826	6441
917.938	6292
918.049	6304
918.161	6323
918.272	6467
918.384	6460
918.495	6331
918.606	6247
918.717	6209
918.828	6338
918.939	6300
919.05	6205
919.161	6220
919.272	6159
919.383	6201
919.494	6270
919.604	6418
919.715	6342
919.826	6224
919.936	6308
920.047	6346
920.157	6239
920.267	6452
920.378	6350
920.488	6304
920.598	6521
920.708	6574
920.818	6467
920.928	6429
921.038	6700
921.148	6597
921.258	6407
921.368	6308
921.477	6209
921.587	6205
921.697	6106
921.806	6205
921.916	6117
922.025	5901
922.134	5939
922.244	5916
922.353	5977
922.462	5870
922.571	5809
922.68	5737
922.789	5714
922.898	5707
923.007	5657
923.116	5688
923.224	5657
923.333	5657
923.442	5547
923.55	5592
923.659	5596
923.767	5627
923.876	5505
923.984	5661
924.092	5497
924.201	5566
924.309	5608
924.417	5551
924.525	5474
924.633	5493
924.741	6072
924.849	5364
924.956	5516
925.064	5357
925.172	5322
925.279	5349
925.387	5334
925.494	5341
925.602	5459
925.709	5345
925.816	5280
925.924	5360
926.031	5376
926.138	5307
926.245	5357
926.352	5193
926.459	5292
926.566	5299
926.673	5185
926.779	5109
926.886	5155
926.993	5083
927.099	5045
927.206	4961
927.312	5010
927.419	5029
927.525	5003
927.631	4984
927.737	4873
927.843	4923
927.95	4793
928.056	4850
928.162	4881
928.267	4900
928.373	5334
928.479	4854
928.585	4721
928.69	4828
928.796	4774
928.901	4710
929.007	4592
929.112	4702
929.218	4618
929.323	4596
929.428	4561
929.533	4683
929.638	4565
929.743	4584
929.848	4550
929.953	4523
930.058	4428
930.163	4341
930.267	4398
930.372	4428
930.477	4314
930.581	4470
930.685	4341
930.79	4303
930.894	4287
930.998	4215
931.103	4405
931.207	4124
931.311	4093
931.415	4055
931.519	3945
931.623	3956
