Data from glass_V78500241_1321.txt Node
Date: Wed Sep 01 19:23:39 CST 2021
User: usil
Spectrometer: V785-0024
Trigger mode: 0
Integration Time (sec): 4.000000E-1
Scans to average: 1
Nonlinearity correction enabled: false
Boxcar width: 0
Storing dark spectrum: false
XAxis mode: Wavelengths
Number of Pixels in Spectrum: 1024
>>>>>Begin Spectral Data<<<<<
801.071	3720
801.214	3759
801.356	3709
801.499	3740
801.641	3701
801.783	3781
801.926	3854
802.068	3850
802.211	3854
802.353	3918
802.496	3838
802.638	3857
802.78	3888
802.923	3964
803.065	3888
803.208	3861
803.35	3869
803.492	3934
803.635	3884
803.777	3816
803.919	3915
804.061	4154
804.204	3991
804.346	3968
804.488	3930
804.63	4086
804.773	3960
804.915	4048
805.057	4128
805.199	4071
805.341	4059
805.483	4150
805.626	4124
805.768	4086
805.91	4227
806.052	4227
806.194	4230
806.336	4329
806.478	4188
806.62	4207
806.762	4200
806.904	4246
807.046	4344
807.188	4219
807.33	4169
807.472	4181
807.614	4219
807.756	4261
807.898	4200
808.04	4215
808.182	4272
808.324	4360
808.465	4386
808.607	4447
808.749	4489
808.891	4500
809.033	4523
809.174	4462
809.316	4265
809.458	4223
809.6	4162
809.741	4169
809.883	4112
810.025	4196
810.166	4227
810.308	4200
810.45	4223
810.591	4227
810.733	4303
810.875	4565
811.016	4839
811.158	5113
811.299	5322
811.441	5315
811.582	5083
811.724	4694
811.865	4489
812.007	4443
812.148	4466
812.29	4417
812.431	4386
812.573	4428
812.714	4344
812.855	4432
812.997	4413
813.138	4424
813.279	4417
813.421	4405
813.562	4352
813.703	4356
813.845	4379
813.986	4268
814.127	4242
814.268	4276
814.41	4306
814.551	4268
814.692	4322
814.833	4272
814.974	4295
815.115	4363
815.256	4272
815.397	4257
815.539	4223
815.68	4147
815.821	4265
815.962	4295
816.103	4261
816.244	4234
816.385	4230
816.526	4341
816.666	4242
816.807	4112
816.948	4185
817.089	4128
817.23	4150
817.371	4040
817.512	4059
817.653	4097
817.793	4025
817.934	4078
818.075	4086
818.216	4105
818.356	4063
818.497	4025
818.638	3865
818.778	3937
818.919	3903
819.06	3896
819.2	3915
819.341	3857
819.481	3789
819.622	3934
819.762	4002
819.903	3956
820.043	3850
820.184	3857
820.324	3846
820.465	3915
820.605	3869
820.746	3911
820.886	3804
821.026	3945
821.167	3888
821.307	3953
821.447	4021
821.588	3975
821.728	3964
821.868	3903
822.008	3915
822.149	3934
822.289	3922
822.429	3816
822.569	3759
822.709	3800
822.849	3736
822.99	3720
823.13	3747
823.27	3819
823.41	3724
823.55	3728
823.69	3701
823.83	3770
823.97	3717
824.11	3637
824.25	3599
824.389	3629
824.529	3667
824.669	3648
824.809	3732
824.949	3789
825.089	3724
825.228	3713
825.368	3591
825.508	3610
825.648	3576
825.787	3614
825.927	3622
826.067	3644
826.206	3663
826.346	3774
826.485	3831
826.625	3888
826.765	3934
826.904	3831
827.044	3587
827.183	3557
827.323	3405
827.462	3523
827.601	3435
827.741	3409
827.88	3439
828.02	3382
828.159	3424
828.298	3477
828.437	3557
828.577	3485
828.716	3603
828.855	3485
828.994	3397
829.134	3317
829.273	3409
829.412	3340
829.551	3348
829.69	3348
829.829	3401
829.968	3526
830.107	3466
830.246	3447
830.385	3397
830.524	3370
830.663	3291
830.802	3260
830.941	3233
831.08	3222
831.219	3275
831.357	3253
831.496	3416
831.635	3207
831.774	3195
831.913	3199
832.051	3127
832.19	3127
832.329	3249
832.467	3161
832.606	3104
832.744	3180
832.883	3188
833.022	3211
833.16	3218
833.299	3283
833.437	3370
833.576	3363
833.714	3393
833.852	3450
833.991	3443
834.129	3469
834.267	3409
834.406	3386
834.544	3420
834.682	3431
834.821	3405
834.959	3561
835.097	3416
835.235	3538
835.373	3447
835.511	3515
835.65	3439
835.788	3507
835.926	3401
836.064	3393
836.202	3439
836.34	3545
836.478	3584
836.615	3530
836.753	3564
836.891	3648
837.029	3591
837.167	3568
837.305	3568
837.443	3523
837.58	3515
837.718	3599
837.856	3576
837.993	3553
838.131	3580
838.269	3610
838.406	3595
838.544	3561
838.681	3447
838.819	3504
838.956	3386
839.094	3393
839.231	3469
839.369	3511
839.506	3717
839.643	3591
839.781	3515
839.918	3481
840.055	3561
840.193	3530
840.33	3542
840.467	3549
840.604	3576
840.742	3831
840.879	3538
841.016	3534
841.153	3599
841.29	3789
841.427	3740
841.564	3717
841.701	3770
841.838	3713
841.975	3675
842.112	3747
842.249	3618
842.385	3629
842.522	3812
842.659	3660
842.796	3690
842.933	3732
843.069	3698
843.206	3713
843.343	3819
843.479	3781
843.616	3800
843.752	3717
843.889	3686
844.025	3880
844.162	3759
844.298	3835
844.435	3743
844.571	3778
844.708	3926
844.844	3960
844.98	4040
845.117	4040
845.253	3930
845.389	3857
845.525	3975
845.661	3930
845.798	3915
845.934	3987
846.07	3956
846.206	4055
846.342	4112
846.478	4093
846.614	3941
846.75	3949
846.886	3869
847.022	4040
847.158	3953
847.294	3975
847.429	4025
847.565	4048
847.701	4204
847.837	3899
847.972	3865
848.108	4040
848.244	3991
848.379	3835
848.515	3789
848.65	3804
848.786	3831
848.921	3911
849.057	3949
849.192	3956
849.328	3896
849.463	3922
849.598	3892
849.734	3857
849.869	3854
850.004	3797
850.14	3781
850.275	3751
850.41	3728
850.545	3755
850.68	3766
850.815	3831
850.95	3812
851.085	3899
851.22	3869
851.355	3816
851.49	3774
851.625	3808
851.76	3831
851.895	3743
852.03	3698
852.165	3861
852.299	3838
852.434	3892
852.569	3873
852.703	3903
852.838	3964
852.973	3998
853.107	4002
853.242	3892
853.376	3857
853.511	3774
853.645	3838
853.78	3941
853.914	3846
854.048	3903
854.183	3956
854.317	3972
854.451	4086
854.585	3945
854.72	3945
854.854	4086
854.988	3949
855.122	4002
855.256	3922
855.39	4029
855.524	4109
855.658	4093
855.792	4154
855.926	4124
856.06	4200
856.194	4196
856.327	4139
856.461	4131
856.595	4177
856.729	4219
856.862	4287
856.996	4246
857.13	4284
857.263	4310
857.397	4363
857.53	4291
857.664	4363
857.797	4405
857.931	4409
858.064	4390
858.197	4455
858.331	4413
858.464	4405
858.597	4371
858.731	4424
858.864	4478
858.997	4451
859.13	4485
859.263	4523
859.396	4573
859.529	4519
859.662	4519
859.795	4565
859.928	4580
860.061	4675
860.194	4774
860.327	4668
860.46	4698
860.592	4782
860.725	4767
860.858	4771
860.99	4702
861.123	4702
861.256	4706
861.388	4774
861.521	5433
861.653	4702
861.786	4740
861.918	4752
862.05	4797
862.183	4831
862.315	4892
862.447	4927
862.58	4900
862.712	4816
862.844	4725
862.976	4870
863.108	4850
863.24	5185
863.372	4889
863.504	4870
863.636	4953
863.768	4995
863.9	4957
864.032	4919
864.164	4938
864.296	5003
864.428	5045
864.559	5098
864.691	5113
864.823	5189
864.954	5098
865.086	5178
865.217	5132
865.349	5132
865.48	5204
865.612	5201
865.743	5311
865.875	5178
866.006	5155
866.137	5258
866.269	5242
866.4	5288
866.531	5269
866.662	5242
866.793	5258
866.924	5242
867.055	5345
867.186	5311
867.317	5357
867.448	5288
867.579	5395
867.71	5429
867.841	5402
867.972	5509
868.103	5452
868.233	5497
868.364	5471
868.495	5554
868.625	5653
868.756	5748
868.886	5699
869.017	5733
869.147	5813
869.278	5882
869.408	5840
869.539	5836
869.669	6022
869.799	5920
869.929	6057
870.06	6060
870.19	6163
870.32	6114
870.45	6251
870.58	6315
870.71	6448
870.84	6498
870.97	6464
871.1	6464
871.23	6677
871.36	6662
871.489	6658
871.619	6726
871.749	6871
871.879	6886
872.008	6905
872.138	6970
872.267	7004
872.397	7000
872.526	7046
872.656	7076
872.785	7164
872.915	7365
873.044	7533
873.173	7571
873.303	7689
873.432	7769
873.561	7830
873.69	7955
873.819	8008
873.948	8195
874.077	8263
874.206	8313
874.335	8503
874.464	8629
874.593	8880
874.722	8982
874.851	9173
874.979	9291
875.108	9359
875.237	9458
875.365	9545
875.494	9686
875.623	9800
875.751	9819
875.88	10040
876.008	10154
876.136	10280
876.265	10531
876.393	10664
876.521	10733
876.65	10858
876.778	10843
876.906	10900
877.034	11060
877.162	11109
877.29	11162
877.418	11372
877.546	11372
877.674	11402
877.802	11554
877.93	11452
878.058	11573
878.185	11585
878.313	11756
878.441	11714
878.568	11630
878.696	11866
878.824	11920
878.951	11999
879.079	12041
879.206	12087
879.333	12106
879.461	12022
879.588	12152
879.715	12011
879.842	12224
879.97	12003
880.097	11817
880.224	11866
880.351	11935
880.478	11950
880.605	11832
880.732	11748
880.859	12019
880.986	11874
881.112	11851
881.239	11824
881.366	11653
881.493	11600
881.619	11497
881.746	11535
881.872	11463
881.999	11501
882.125	11448
882.252	11486
882.378	11493
882.505	11589
882.631	11330
882.757	11387
882.883	11292
883.01	11277
883.136	11258
883.262	11117
883.388	11079
883.514	11216
883.64	11185
883.766	11143
883.892	11014
884.018	10991
884.143	11022
884.269	11067
884.395	10843
884.52	10786
884.646	10805
884.772	10710
884.897	10729
885.023	10729
885.148	10748
885.274	10790
885.399	10714
885.524	10634
885.65	10641
885.775	10584
885.9	10611
886.025	10702
886.15	10580
886.275	10478
886.4	10481
886.525	10325
886.65	10405
886.775	10341
886.9	10466
887.025	10542
887.149	10382
887.274	10287
887.399	10257
887.523	10227
887.648	10139
887.773	10063
887.897	10303
888.021	10265
888.146	10120
888.27	10249
888.395	10207
888.519	10215
888.643	10230
888.767	10219
888.891	10097
889.015	10086
889.139	10071
889.263	9934
889.387	10177
889.511	10150
889.635	10112
889.759	9953
889.883	9937
890.006	9975
890.13	10071
890.254	9994
890.377	9987
890.501	9907
890.624	9907
890.748	9941
890.871	9751
890.995	9751
891.118	9778
891.241	9781
891.364	9838
891.488	9808
891.611	9759
891.734	9720
891.857	9770
891.98	9759
892.103	9747
892.226	9667
892.349	9717
892.471	9549
892.594	9595
892.717	9652
892.839	9507
892.962	9599
893.085	9614
893.207	9603
893.33	9515
893.452	9477
893.575	9576
893.697	9420
893.819	9564
893.941	9625
894.064	9652
894.186	9507
894.308	9431
894.43	9587
894.552	9507
894.674	9507
894.796	9378
894.918	9485
895.04	9439
895.161	9325
895.283	9378
895.405	9214
895.526	9264
895.648	9253
895.769	9294
895.891	9218
896.012	9283
896.134	9195
896.255	9173
896.376	9173
896.498	9119
896.619	9119
896.74	9062
896.861	9112
896.982	9272
897.103	9264
897.224	9138
897.345	9036
897.466	8990
897.587	9032
897.708	9127
897.828	9017
897.949	8994
898.07	8872
898.19	8948
898.311	9036
898.431	8899
898.552	8876
898.672	8933
898.792	8902
898.913	8891
899.033	8861
899.153	8750
899.273	8682
899.393	8735
899.513	8807
899.633	8724
899.753	8686
899.873	8655
899.993	8739
900.113	8712
900.232	8739
900.352	8667
900.472	8674
900.591	8552
900.711	8648
900.83	8503
900.95	8632
901.069	8705
901.189	8564
901.308	8431
901.427	8358
901.546	8454
901.665	8484
901.784	8488
901.904	8431
902.023	8351
902.141	8248
902.26	8221
902.379	8256
902.498	8263
902.617	8191
902.735	8332
902.854	8332
902.973	8267
903.091	8096
903.21	8206
903.328	8130
903.446	8202
903.565	8119
903.683	8100
903.801	8111
903.919	8161
904.038	8172
904.156	8046
904.274	8119
904.392	8039
904.51	8058
904.627	8054
904.745	8126
904.863	8065
904.981	7909
905.098	7871
905.216	7811
905.334	7852
905.451	7841
905.569	7849
905.686	7913
905.803	7940
905.921	7772
906.038	7860
906.155	7750
906.272	7681
906.389	7719
906.506	7552
906.623	7613
906.74	7658
906.857	7567
906.974	7586
907.091	7742
907.208	7727
907.324	7586
907.441	7510
907.557	7476
907.674	7457
907.79	7403
907.907	7422
908.023	7445
908.139	7430
908.256	7411
908.372	7365
908.488	7335
908.604	7225
908.72	7251
908.836	7278
908.952	7228
909.068	7289
909.184	7320
909.3	7217
909.415	7289
909.531	7270
909.647	7099
909.762	7133
909.878	7057
909.993	7088
910.108	7118
910.224	7019
910.339	7175
910.454	7004
910.57	7034
910.685	6905
910.8	7164
910.915	7080
911.03	6996
911.145	6977
911.259	6890
911.374	6909
911.489	6791
911.604	6837
911.718	6700
911.833	6745
911.947	6684
912.062	6665
912.176	6722
912.291	6764
912.405	6688
912.519	6818
912.633	6882
912.748	6711
912.862	6722
912.976	6616
913.09	6612
913.204	6608
913.318	6646
913.431	6620
913.545	6673
913.659	6760
913.772	6627
913.886	6521
914	6578
914.113	6601
914.226	6696
914.34	6620
914.453	6525
914.566	6578
914.68	6521
914.793	6540
914.906	6498
915.019	6376
915.132	6353
915.245	6448
915.358	6456
915.47	6433
915.583	6464
915.696	6506
915.809	6570
915.921	6585
916.034	6456
916.146	6437
916.259	6445
916.371	6506
916.483	6456
916.595	6395
916.708	6372
916.82	6384
916.932	6384
917.044	6376
917.156	6357
917.268	6346
917.38	6296
917.491	6327
917.603	6323
917.715	6380
917.826	6418
917.938	6388
918.049	6304
918.161	6353
918.272	6388
918.384	6445
918.495	6331
918.606	6281
918.717	6220
918.828	6315
918.939	6289
919.05	6159
919.161	6247
919.272	6125
919.383	6190
919.494	6300
919.604	6429
919.715	6296
919.826	6201
919.936	6285
920.047	6357
920.157	6254
920.267	6414
920.378	6350
920.488	6311
920.598	6448
920.708	6578
920.818	6502
920.928	6475
921.038	6612
921.148	6627
921.258	6346
921.368	6311
921.477	6292
921.587	6194
921.697	6079
921.806	6186
921.916	6034
922.025	5999
922.134	5965
922.244	5874
922.353	5946
922.462	5851
922.571	5813
922.68	5726
922.789	5653
922.898	5703
923.007	5604
923.116	5695
923.224	5726
923.333	5623
923.442	5638
923.55	5596
923.659	5581
923.767	5699
923.876	5554
923.984	5570
924.092	5497
924.201	5497
924.309	5551
924.417	5592
924.525	5497
924.633	5455
924.741	6285
924.849	5322
924.956	5474
925.064	5322
925.172	5303
925.279	5398
925.387	5364
925.494	5326
925.602	5421
925.709	5417
925.816	5246
925.924	5372
926.031	5288
926.138	5330
926.245	5299
926.352	5204
926.459	5269
926.566	5307
926.673	5181
926.779	5151
926.886	5113
926.993	5056
927.099	5010
927.206	4980
927.312	4938
927.419	5006
927.525	4980
927.631	4980
927.737	4934
927.843	4831
927.95	4767
928.056	4873
928.162	4866
928.267	4828
928.373	5376
928.479	4839
928.585	4706
928.69	4729
928.796	4835
928.901	4683
929.007	4622
929.112	4656
929.218	4626
929.323	4630
929.428	4554
929.533	4706
929.638	4554
929.743	4550
929.848	4584
929.953	4584
930.058	4459
930.163	4341
930.267	4344
930.372	4455
930.477	4314
930.581	4493
930.685	4383
930.79	4261
930.894	4314
930.998	4265
931.103	4371
931.207	4109
931.311	4101
931.415	4063
931.519	3907
931.623	3918
