Data from glass_V78500241_953.txt Node
Date: Wed Sep 01 19:21:06 CST 2021
User: usil
Spectrometer: V785-0024
Trigger mode: 0
Integration Time (sec): 4.000000E-1
Scans to average: 1
Nonlinearity correction enabled: false
Boxcar width: 0
Storing dark spectrum: false
XAxis mode: Wavelengths
Number of Pixels in Spectrum: 1024
>>>>>Begin Spectral Data<<<<<
801.071	3728
801.214	3797
801.356	3701
801.499	3759
801.641	3713
801.783	3774
801.926	3857
802.068	3865
802.211	3850
802.353	3861
802.496	3854
802.638	3888
802.78	3949
802.923	3960
803.065	3888
803.208	3812
803.35	3876
803.492	3869
803.635	3926
803.777	3819
803.919	3926
804.061	4109
804.204	3998
804.346	3964
804.488	3937
804.63	3987
804.773	4040
804.915	4032
805.057	4150
805.199	4082
805.341	4166
805.483	4120
805.626	4135
805.768	4139
805.91	4185
806.052	4261
806.194	4166
806.336	4360
806.478	4265
806.62	4219
806.762	4215
806.904	4253
807.046	4325
807.188	4238
807.33	4223
807.472	4265
807.614	4215
807.756	4280
807.898	4253
808.04	4227
808.182	4276
808.324	4337
808.465	4405
808.607	4508
808.749	4474
808.891	4447
809.033	4462
809.174	4443
809.316	4303
809.458	4329
809.6	4169
809.741	4173
809.883	4139
810.025	4177
810.166	4192
810.308	4227
810.45	4234
810.591	4246
810.733	4318
810.875	4470
811.016	4835
811.158	5185
811.299	5261
811.441	5330
811.582	5045
811.724	4679
811.865	4459
812.007	4474
812.148	4398
812.29	4447
812.431	4478
812.573	4398
812.714	4402
812.855	4451
812.997	4424
813.138	4493
813.279	4417
813.421	4371
813.562	4360
813.703	4360
813.845	4363
813.986	4280
814.127	4223
814.268	4310
814.41	4322
814.551	4295
814.692	4344
814.833	4268
814.974	4333
815.115	4409
815.256	4265
815.397	4219
815.539	4276
815.68	4196
815.821	4200
815.962	4329
816.103	4314
816.244	4265
816.385	4246
816.526	4268
816.666	4234
816.807	4090
816.948	4196
817.089	4154
817.23	4097
817.371	4063
817.512	4051
817.653	4071
817.793	4040
817.934	4040
818.075	4097
818.216	4071
818.356	4101
818.497	3972
818.638	3930
818.778	3907
818.919	3888
819.06	3880
819.2	3930
819.341	3854
819.481	3888
819.622	3907
819.762	4078
819.903	3911
820.043	3873
820.184	3850
820.324	3793
820.465	3892
820.605	3869
820.746	3922
820.886	3785
821.026	3960
821.167	3926
821.307	3983
821.447	4025
821.588	3926
821.728	3964
821.868	3930
822.008	3922
822.149	3945
822.289	3949
822.429	3789
822.569	3789
822.709	3800
822.849	3701
822.99	3717
823.13	3785
823.27	3861
823.41	3736
823.55	3743
823.69	3728
823.83	3732
823.97	3701
824.11	3618
824.25	3629
824.389	3637
824.529	3671
824.669	3641
824.809	3728
824.949	3759
825.089	3797
825.228	3709
825.368	3580
825.508	3557
825.648	3599
825.787	3603
825.927	3644
826.067	3591
826.206	3682
826.346	3800
826.485	3797
826.625	3899
826.765	3991
826.904	3842
827.044	3633
827.183	3538
827.323	3477
827.462	3504
827.601	3424
827.741	3443
827.88	3469
828.02	3374
828.159	3428
828.298	3466
828.437	3549
828.577	3492
828.716	3625
828.855	3507
828.994	3397
829.134	3386
829.273	3363
829.412	3325
829.551	3332
829.69	3386
829.829	3435
829.968	3504
830.107	3435
830.246	3466
830.385	3359
830.524	3344
830.663	3310
830.802	3264
830.941	3211
831.08	3241
831.219	3291
831.357	3294
831.496	3393
831.635	3241
831.774	3180
831.913	3211
832.051	3123
832.19	3142
832.329	3222
832.467	3123
832.606	3104
832.744	3135
832.883	3192
833.022	3211
833.16	3249
833.299	3310
833.437	3332
833.576	3351
833.714	3428
833.852	3435
833.991	3473
834.129	3443
834.267	3462
834.406	3428
834.544	3469
834.682	3393
834.821	3469
834.959	3587
835.097	3389
835.235	3507
835.373	3504
835.511	3519
835.65	3477
835.788	3492
835.926	3401
836.064	3393
836.202	3435
836.34	3576
836.478	3606
836.615	3553
836.753	3595
836.891	3625
837.029	3644
837.167	3603
837.305	3557
837.443	3534
837.58	3492
837.718	3610
837.856	3568
837.993	3530
838.131	3587
838.269	3545
838.406	3561
838.544	3576
838.681	3428
838.819	3443
838.956	3393
839.094	3378
839.231	3431
839.369	3557
839.506	3766
839.643	3637
839.781	3511
839.918	3416
840.055	3534
840.193	3587
840.33	3553
840.467	3614
840.604	3580
840.742	3823
840.879	3553
841.016	3568
841.153	3580
841.29	3781
841.427	3762
841.564	3717
841.701	3759
841.838	3690
841.975	3747
842.112	3709
842.249	3698
842.385	3656
842.522	3896
842.659	3759
842.796	3652
842.933	3705
843.069	3675
843.206	3728
843.343	3812
843.479	3770
843.616	3827
843.752	3701
843.889	3686
844.025	3865
844.162	3759
844.298	3835
844.435	3831
844.571	3770
844.708	3899
844.844	3994
844.98	4025
845.117	4025
845.253	3975
845.389	3899
845.525	4002
845.661	3941
845.798	3937
845.934	4040
846.07	3960
846.206	4101
846.342	4147
846.478	4055
846.614	4013
846.75	3915
846.886	3945
847.022	4025
847.158	3972
847.294	4036
847.429	4021
847.565	4029
847.701	4265
847.837	3899
847.972	3880
848.108	3972
848.244	3930
848.379	3861
848.515	3857
848.65	3770
848.786	3819
848.921	3884
849.057	3945
849.192	3934
849.328	3888
849.463	3964
849.598	3857
849.734	3869
849.869	3854
850.004	3774
850.14	3774
850.275	3762
850.41	3736
850.545	3698
850.68	3770
850.815	3869
850.95	3785
851.085	3941
851.22	3876
851.355	3831
851.49	3816
851.625	3827
851.76	3846
851.895	3732
852.03	3698
852.165	3812
852.299	3827
852.434	3945
852.569	3850
852.703	3907
852.838	3960
852.973	4006
853.107	3998
853.242	3899
853.376	3903
853.511	3774
853.645	3873
853.78	3983
853.914	3964
854.048	3926
854.183	3880
854.317	3991
854.451	4101
854.585	3934
854.72	3896
854.854	4067
854.988	3926
855.122	3998
855.256	3918
855.39	4051
855.524	4135
855.658	4097
855.792	4101
855.926	4135
856.06	4173
856.194	4211
856.327	4131
856.461	4158
856.595	4181
856.729	4169
856.862	4318
856.996	4211
857.13	4291
857.263	4371
857.397	4428
857.53	4272
857.664	4363
857.797	4428
857.931	4436
858.064	4436
858.197	4440
858.331	4405
858.464	4386
858.597	4348
858.731	4447
858.864	4447
858.997	4428
859.13	4546
859.263	4535
859.396	4634
859.529	4497
859.662	4573
859.795	4558
859.928	4637
860.061	4698
860.194	4710
860.327	4634
860.46	4653
860.592	4717
860.725	4782
860.858	4782
860.99	4706
861.123	4675
861.256	4725
861.388	4767
861.521	5490
861.653	4736
861.786	4694
861.918	4744
862.05	4786
862.183	4870
862.315	4915
862.447	4957
862.58	4881
862.712	4835
862.844	4782
862.976	4816
863.108	4877
863.24	5193
863.372	4820
863.504	4938
863.636	4919
863.768	4972
863.9	4972
864.032	4949
864.164	4995
864.296	4999
864.428	5048
864.559	5128
864.691	5071
864.823	5151
864.954	5132
865.086	5170
865.217	5098
865.349	5155
865.48	5204
865.612	5181
865.743	5280
865.875	5204
866.006	5174
866.137	5250
866.269	5189
866.4	5258
866.531	5273
866.662	5250
866.793	5231
866.924	5280
867.055	5265
867.186	5334
867.317	5337
867.448	5318
867.579	5414
867.71	5410
867.841	5387
867.972	5433
868.103	5463
868.233	5509
868.364	5512
868.495	5509
868.625	5653
868.756	5786
868.886	5649
869.017	5707
869.147	5821
869.278	5855
869.408	5866
869.539	5885
869.669	5927
869.799	5916
869.929	6007
870.06	6049
870.19	6258
870.32	6239
870.45	6228
870.58	6327
870.71	6448
870.84	6502
870.97	6467
871.1	6410
871.23	6650
871.36	6749
871.489	6692
871.619	6741
871.749	6844
871.879	6909
872.008	7038
872.138	6962
872.267	7076
872.397	6996
872.526	7072
872.656	7061
872.785	7213
872.915	7396
873.044	7563
873.173	7578
873.303	7647
873.432	7738
873.561	7826
873.69	7978
873.819	7982
873.948	8199
874.077	8282
874.206	8317
874.335	8427
874.464	8610
874.593	8868
874.722	8921
874.851	9116
874.979	9256
875.108	9492
875.237	9424
875.365	9523
875.494	9675
875.623	9835
875.751	9846
875.88	10010
876.008	10086
876.136	10333
876.265	10569
876.393	10687
876.521	10748
876.65	10809
876.778	10915
876.906	10889
877.034	11056
877.162	11086
877.29	11151
877.418	11288
877.546	11414
877.674	11444
877.802	11429
877.93	11490
878.058	11497
878.185	11585
878.313	11604
878.441	11813
878.568	11661
878.696	11851
878.824	11836
878.951	11893
879.079	12007
879.206	12171
879.333	12049
879.461	12011
879.588	12003
879.715	12045
879.842	12243
879.97	12064
880.097	11790
880.224	11893
880.351	11805
880.478	11912
880.605	11855
880.732	11847
880.859	12045
880.986	11893
881.112	11859
881.239	11764
881.366	11649
881.493	11596
881.619	11444
881.746	11596
881.872	11520
881.999	11482
882.125	11490
882.252	11615
882.378	11566
882.505	11528
882.631	11425
882.757	11258
882.883	11356
883.01	11246
883.136	11265
883.262	11128
883.388	11033
883.514	11212
883.64	11216
883.766	11105
883.892	11022
884.018	10972
884.143	11025
884.269	11064
884.395	10881
884.52	10721
884.646	10816
884.772	10672
884.897	10660
885.023	10687
885.148	10706
885.274	10759
885.399	10702
885.524	10645
885.65	10630
885.775	10592
885.9	10561
886.025	10561
886.15	10630
886.275	10519
886.4	10462
886.525	10481
886.65	10356
886.775	10280
886.9	10485
887.025	10497
887.149	10371
887.274	10318
887.399	10238
887.523	10234
887.648	10128
887.773	10101
887.897	10299
888.021	10158
888.146	10143
888.27	10303
888.395	10272
888.519	10253
888.643	10272
888.767	10215
888.891	10128
889.015	10006
889.139	10082
889.263	9975
889.387	10166
889.511	10105
889.635	10169
889.759	10051
889.883	10074
890.006	10029
890.13	10093
890.254	9934
890.377	10017
890.501	9823
890.624	9892
890.748	9907
890.871	9800
890.995	9667
891.118	9747
891.241	9827
891.364	9755
891.488	9797
891.611	9766
891.734	9717
891.857	9819
891.98	9751
892.103	9812
892.226	9774
892.349	9656
892.471	9534
892.594	9561
892.717	9614
892.839	9656
892.962	9633
893.085	9667
893.207	9656
893.33	9515
893.452	9538
893.575	9606
893.697	9458
893.819	9633
893.941	9610
894.064	9622
894.186	9500
894.308	9443
894.43	9549
894.552	9618
894.674	9557
894.796	9336
894.918	9447
895.04	9340
895.161	9401
895.283	9386
895.405	9256
895.526	9268
895.648	9253
895.769	9245
895.891	9256
896.012	9268
896.134	9180
896.255	9199
896.376	9131
896.498	9176
896.619	9100
896.74	9028
896.861	9081
896.982	9264
897.103	9294
897.224	9260
897.345	9077
897.466	8982
897.587	9005
897.708	9142
897.828	8975
897.949	8998
898.07	8910
898.19	8868
898.311	8937
898.431	8929
898.552	8986
898.672	8960
898.792	8906
898.913	8918
899.033	8735
899.153	8781
899.273	8697
899.393	8632
899.513	8754
899.633	8727
899.753	8769
899.873	8678
899.993	8727
900.113	8743
900.232	8724
900.352	8678
900.472	8640
900.591	8583
900.711	8640
900.83	8571
900.95	8678
901.069	8701
901.189	8613
901.308	8476
901.427	8495
901.546	8434
901.665	8518
901.784	8530
901.904	8355
902.023	8336
902.141	8240
902.26	8290
902.379	8233
902.498	8164
902.617	8176
902.735	8267
902.854	8320
902.973	8263
903.091	8100
903.21	8183
903.328	8221
903.446	8077
903.565	8073
903.683	8126
903.801	8058
903.919	8145
904.038	8164
904.156	8016
904.274	8088
904.392	8027
904.51	8039
904.627	8096
904.745	8142
904.863	8126
904.981	7932
905.098	7845
905.216	7898
905.334	7993
905.451	7906
905.569	7833
905.686	7974
905.803	7932
905.921	7792
906.038	7944
906.155	7852
906.272	7685
906.389	7700
906.506	7677
906.623	7647
906.74	7540
906.857	7575
906.974	7537
907.091	7655
907.208	7776
907.324	7700
907.441	7620
907.557	7480
907.674	7407
907.79	7487
907.907	7453
908.023	7468
908.139	7434
908.256	7422
908.372	7411
908.488	7354
908.604	7305
908.72	7225
908.836	7285
908.952	7251
909.068	7285
909.184	7312
909.3	7282
909.415	7312
909.531	7293
909.647	7107
909.762	7122
909.878	7076
909.993	7133
910.108	7122
910.224	7072
910.339	7080
910.454	7080
910.57	7088
910.685	7015
910.8	7209
910.915	7149
911.03	7031
911.145	6916
911.259	6913
911.374	6916
911.489	6878
911.604	6859
911.718	6719
911.833	6646
911.947	6669
912.062	6604
912.176	6715
912.291	6806
912.405	6692
912.519	6795
912.633	6882
912.748	6779
912.862	6669
912.976	6627
913.09	6540
913.204	6627
913.318	6589
913.431	6757
913.545	6681
913.659	6783
913.772	6635
913.886	6620
914	6547
914.113	6620
914.226	6631
914.34	6585
914.453	6563
914.566	6642
914.68	6570
914.793	6525
914.906	6433
915.019	6414
915.132	6353
915.245	6441
915.358	6486
915.47	6414
915.583	6441
915.696	6479
915.809	6517
915.921	6536
916.034	6410
916.146	6433
916.259	6380
916.371	6490
916.483	6467
916.595	6369
916.708	6403
916.82	6448
916.932	6448
917.044	6395
917.156	6391
917.268	6319
917.38	6391
917.491	6327
917.603	6334
917.715	6369
917.826	6479
917.938	6338
918.049	6266
918.161	6384
918.272	6464
918.384	6467
918.495	6369
918.606	6235
918.717	6228
918.828	6239
918.939	6277
919.05	6228
919.161	6232
919.272	6114
919.383	6175
919.494	6346
919.604	6407
919.715	6334
919.826	6258
919.936	6258
920.047	6407
920.157	6331
920.267	6494
920.378	6311
920.488	6285
920.598	6475
920.708	6566
920.818	6460
920.928	6471
921.038	6547
921.148	6555
921.258	6304
921.368	6281
921.477	6254
921.587	6167
921.697	6125
921.806	6213
921.916	6095
922.025	5980
922.134	5912
922.244	5931
922.353	5965
922.462	5882
922.571	5809
922.68	5764
922.789	5695
922.898	5714
923.007	5676
923.116	5653
923.224	5699
923.333	5649
923.442	5619
923.55	5573
923.659	5627
923.767	5638
923.876	5585
923.984	5600
924.092	5520
924.201	5573
924.309	5600
924.417	5528
924.525	5482
924.633	5535
924.741	6171
924.849	5395
924.956	5509
925.064	5372
925.172	5326
925.279	5303
925.387	5406
925.494	5349
925.602	5509
925.709	5349
925.816	5330
925.924	5353
926.031	5296
926.138	5288
926.245	5311
926.352	5250
926.459	5330
926.566	5299
926.673	5261
926.779	5151
926.886	5128
926.993	5037
927.099	4987
927.206	5025
927.312	4957
927.419	5010
927.525	4968
927.631	5033
927.737	4915
927.843	4866
927.95	4843
928.056	4816
928.162	4831
928.267	4896
928.373	5379
928.479	4862
928.585	4668
928.69	4820
928.796	4790
928.901	4694
929.007	4596
929.112	4702
929.218	4653
929.323	4607
929.428	4618
929.533	4683
929.638	4462
929.743	4531
929.848	4577
929.953	4523
930.058	4409
930.163	4299
930.267	4360
930.372	4451
930.477	4325
930.581	4455
930.685	4371
930.79	4261
930.894	4310
930.998	4253
931.103	4421
931.207	4154
931.311	4112
931.415	4071
931.519	3960
931.623	3956
