Data from glass_V78500241_814.txt Node
Date: Wed Sep 01 19:20:08 CST 2021
User: usil
Spectrometer: V785-0024
Trigger mode: 0
Integration Time (sec): 4.000000E-1
Scans to average: 1
Nonlinearity correction enabled: false
Boxcar width: 0
Storing dark spectrum: false
XAxis mode: Wavelengths
Number of Pixels in Spectrum: 1024
>>>>>Begin Spectral Data<<<<<
801.071	3759
801.214	3785
801.356	3751
801.499	3717
801.641	3740
801.783	3781
801.926	3884
802.068	3819
802.211	3861
802.353	3926
802.496	3850
802.638	3888
802.78	3884
802.923	3934
803.065	3888
803.208	3888
803.35	3869
803.492	3899
803.635	3892
803.777	3789
803.919	3915
804.061	4169
804.204	3987
804.346	3964
804.488	3945
804.63	4002
804.773	3975
804.915	4010
805.057	4139
805.199	4071
805.341	4071
805.483	4128
805.626	4158
805.768	4105
805.91	4181
806.052	4219
806.194	4215
806.336	4344
806.478	4227
806.62	4196
806.762	4185
806.904	4284
807.046	4344
807.188	4192
807.33	4211
807.472	4211
807.614	4200
807.756	4268
807.898	4207
808.04	4192
808.182	4261
808.324	4379
808.465	4405
808.607	4497
808.749	4481
808.891	4421
809.033	4519
809.174	4428
809.316	4238
809.458	4234
809.6	4173
809.741	4150
809.883	4177
810.025	4223
810.166	4230
810.308	4204
810.45	4234
810.591	4249
810.733	4348
810.875	4523
811.016	4839
811.158	5155
811.299	5280
811.441	5197
811.582	5071
811.724	4698
811.865	4500
812.007	4538
812.148	4436
812.29	4440
812.431	4462
812.573	4398
812.714	4394
812.855	4417
812.997	4443
813.138	4512
813.279	4428
813.421	4390
813.562	4409
813.703	4314
813.845	4333
813.986	4249
814.127	4219
814.268	4265
814.41	4303
814.551	4280
814.692	4314
814.833	4287
814.974	4333
815.115	4344
815.256	4291
815.397	4261
815.539	4249
815.68	4162
815.821	4185
815.962	4314
816.103	4291
816.244	4272
816.385	4227
816.526	4291
816.666	4227
816.807	4124
816.948	4169
817.089	4204
817.23	4128
817.371	4071
817.512	4025
817.653	4082
817.793	4029
817.934	4017
818.075	4131
818.216	4116
818.356	4025
818.497	4048
818.638	3972
818.778	3903
818.919	3911
819.06	3884
819.2	3937
819.341	3888
819.481	3850
819.622	3911
819.762	4040
819.903	3994
820.043	3854
820.184	3819
820.324	3838
820.465	3884
820.605	3907
820.746	3869
820.886	3835
821.026	3945
821.167	3918
821.307	4010
821.447	3964
821.588	3979
821.728	3968
821.868	4013
822.008	3846
822.149	3911
822.289	3979
822.429	3736
822.569	3736
822.709	3816
822.849	3705
822.99	3762
823.13	3743
823.27	3774
823.41	3751
823.55	3762
823.69	3728
823.83	3759
823.97	3717
824.11	3599
824.25	3614
824.389	3625
824.529	3690
824.669	3629
824.809	3717
824.949	3774
825.089	3743
825.228	3759
825.368	3629
825.508	3595
825.648	3599
825.787	3599
825.927	3629
826.067	3606
826.206	3694
826.346	3793
826.485	3835
826.625	3846
826.765	3949
826.904	3816
827.044	3618
827.183	3553
827.323	3488
827.462	3507
827.601	3443
827.741	3496
827.88	3454
828.02	3370
828.159	3466
828.298	3488
828.437	3538
828.577	3466
828.716	3641
828.855	3526
828.994	3416
829.134	3393
829.273	3424
829.412	3386
829.551	3378
829.69	3382
829.829	3439
829.968	3519
830.107	3450
830.246	3401
830.385	3367
830.524	3355
830.663	3344
830.802	3272
830.941	3188
831.08	3214
831.219	3253
831.357	3283
831.496	3424
831.635	3245
831.774	3188
831.913	3199
832.051	3142
832.19	3138
832.329	3260
832.467	3142
832.606	3116
832.744	3188
832.883	3211
833.022	3214
833.16	3268
833.299	3283
833.437	3329
833.576	3374
833.714	3397
833.852	3450
833.991	3462
834.129	3473
834.267	3481
834.406	3431
834.544	3431
834.682	3450
834.821	3435
834.959	3564
835.097	3435
835.235	3519
835.373	3523
835.511	3549
835.65	3454
835.788	3469
835.926	3374
836.064	3409
836.202	3431
836.34	3629
836.478	3622
836.615	3485
836.753	3591
836.891	3675
837.029	3625
837.167	3629
837.305	3610
837.443	3576
837.58	3530
837.718	3622
837.856	3599
837.993	3507
838.131	3606
838.269	3614
838.406	3595
838.544	3584
838.681	3454
838.819	3523
838.956	3382
839.094	3389
839.231	3439
839.369	3545
839.506	3804
839.643	3591
839.781	3534
839.918	3473
840.055	3549
840.193	3496
840.33	3534
840.467	3572
840.604	3610
840.742	3831
840.879	3561
841.016	3606
841.153	3576
841.29	3778
841.427	3740
841.564	3671
841.701	3800
841.838	3740
841.975	3709
842.112	3679
842.249	3637
842.385	3652
842.522	3846
842.659	3682
842.796	3686
842.933	3717
843.069	3732
843.206	3743
843.343	3854
843.479	3762
843.616	3846
843.752	3682
843.889	3686
844.025	3876
844.162	3705
844.298	3835
844.435	3793
844.571	3762
844.708	3876
844.844	3991
844.98	4010
845.117	4032
845.253	3911
845.389	3934
845.525	3979
845.661	3945
845.798	3918
845.934	4002
846.07	3964
846.206	4086
846.342	4116
846.478	4063
846.614	3937
846.75	3945
846.886	3960
847.022	4071
847.158	3983
847.294	4029
847.429	4002
847.565	4036
847.701	4253
847.837	3888
847.972	3876
848.108	3987
848.244	3941
848.379	3869
848.515	3865
848.65	3838
848.786	3861
848.921	3892
849.057	3937
849.192	3972
849.328	3918
849.463	3926
849.598	3876
849.734	3846
849.869	3819
850.004	3846
850.14	3842
850.275	3778
850.41	3793
850.545	3740
850.68	3819
850.815	3781
850.95	3793
851.085	3975
851.22	3888
851.355	3896
851.49	3804
851.625	3835
851.76	3808
851.895	3778
852.03	3759
852.165	3861
852.299	3861
852.434	3918
852.569	3838
852.703	3896
852.838	3953
852.973	4017
853.107	4013
853.242	3896
853.376	3854
853.511	3804
853.645	3873
853.78	4032
853.914	3926
854.048	3945
854.183	3880
854.317	3998
854.451	4093
854.585	4029
854.72	3945
854.854	4051
854.988	3945
855.122	4040
855.256	3934
855.39	4051
855.524	4074
855.658	4097
855.792	4097
855.926	4162
856.06	4215
856.194	4230
856.327	4135
856.461	4169
856.595	4105
856.729	4169
856.862	4268
856.996	4257
857.13	4291
857.263	4360
857.397	4360
857.53	4303
857.664	4367
857.797	4428
857.931	4424
858.064	4413
858.197	4455
858.331	4417
858.464	4360
858.597	4356
858.731	4470
858.864	4497
858.997	4405
859.13	4573
859.263	4516
859.396	4607
859.529	4519
859.662	4538
859.795	4531
859.928	4561
860.061	4656
860.194	4752
860.327	4649
860.46	4634
860.592	4733
860.725	4744
860.858	4816
860.99	4683
861.123	4660
861.256	4733
861.388	4805
861.521	5433
861.653	4710
861.786	4672
861.918	4767
862.05	4828
862.183	4824
862.315	4927
862.447	4908
862.58	4915
862.712	4786
862.844	4809
862.976	4854
863.108	4885
863.24	5269
863.372	4809
863.504	4927
863.636	4904
863.768	4965
863.9	5010
864.032	4904
864.164	4980
864.296	4965
864.428	5098
864.559	5117
864.691	5094
864.823	5128
864.954	5124
865.086	5159
865.217	5193
865.349	5121
865.48	5170
865.612	5231
865.743	5258
865.875	5227
866.006	5159
866.137	5254
866.269	5303
866.4	5307
866.531	5223
866.662	5277
866.793	5299
866.924	5299
867.055	5284
867.186	5315
867.317	5364
867.448	5261
867.579	5395
867.71	5341
867.841	5452
867.972	5463
868.103	5490
868.233	5478
868.364	5520
868.495	5509
868.625	5718
868.756	5824
868.886	5684
869.017	5714
869.147	5889
869.278	5855
869.408	5847
869.539	5813
869.669	5927
869.799	5897
869.929	5988
870.06	6034
870.19	6220
870.32	6190
870.45	6308
870.58	6323
870.71	6483
870.84	6471
870.97	6407
871.1	6429
871.23	6665
871.36	6662
871.489	6684
871.619	6791
871.749	6829
871.879	6894
872.008	7004
872.138	6966
872.267	7031
872.397	6954
872.526	7015
872.656	7042
872.785	7217
872.915	7422
873.044	7510
873.173	7552
873.303	7658
873.432	7765
873.561	7852
873.69	7974
873.819	8058
873.948	8157
874.077	8218
874.206	8377
874.335	8442
874.464	8693
874.593	8834
874.722	8986
874.851	9081
874.979	9222
875.108	9389
875.237	9443
875.365	9515
875.494	9675
875.623	9842
875.751	9816
875.88	9972
876.008	10192
876.136	10303
876.265	10462
876.393	10645
876.521	10797
876.65	10843
876.778	10908
876.906	10900
877.034	10934
877.162	11147
877.29	11143
877.418	11334
877.546	11364
877.674	11414
877.802	11512
877.93	11490
878.058	11554
878.185	11585
878.313	11665
878.441	11817
878.568	11623
878.696	11802
878.824	11969
878.951	11965
879.079	12030
879.206	12110
879.333	11980
879.461	11984
879.588	12091
879.715	12083
879.842	12251
879.97	12117
880.097	11889
880.224	11775
880.351	11901
880.478	11893
880.605	11847
880.732	11798
880.859	11984
880.986	11893
881.112	11786
881.239	11718
881.366	11741
881.493	11573
881.619	11615
881.746	11615
881.872	11608
881.999	11474
882.125	11455
882.252	11509
882.378	11532
882.505	11608
882.631	11330
882.757	11280
882.883	11429
883.01	11242
883.136	11220
883.262	11155
883.388	11117
883.514	11212
883.64	11235
883.766	11075
883.892	10953
884.018	10999
884.143	11052
884.269	11067
884.395	10828
884.52	10744
884.646	10835
884.772	10668
884.897	10710
885.023	10702
885.148	10786
885.274	10748
885.399	10759
885.524	10664
885.65	10554
885.775	10603
885.9	10588
886.025	10596
886.15	10535
886.275	10504
886.4	10356
886.525	10424
886.65	10390
886.775	10329
886.9	10569
887.025	10558
887.149	10386
887.274	10272
887.399	10204
887.523	10116
887.648	10181
887.773	10093
887.897	10227
888.021	10230
888.146	10204
888.27	10177
888.395	10211
888.519	10196
888.643	10196
888.767	10227
888.891	10090
889.015	10048
889.139	10010
889.263	9937
889.387	10112
889.511	10147
889.635	10120
889.759	9930
889.883	10063
890.006	10055
890.13	10074
890.254	9949
890.377	9998
890.501	9835
890.624	9941
890.748	9945
890.871	9778
890.995	9751
891.118	9728
891.241	9778
891.364	9781
891.488	9873
891.611	9831
891.734	9732
891.857	9740
891.98	9755
892.103	9808
892.226	9755
892.349	9686
892.471	9553
892.594	9523
892.717	9595
892.839	9538
892.962	9671
893.085	9705
893.207	9553
893.33	9469
893.452	9511
893.575	9682
893.697	9435
893.819	9606
893.941	9663
894.064	9595
894.186	9397
894.308	9382
894.43	9519
894.552	9603
894.674	9534
894.796	9359
894.918	9435
895.04	9370
895.161	9431
895.283	9382
895.405	9306
895.526	9325
895.648	9245
895.769	9268
895.891	9249
896.012	9237
896.134	9192
896.255	9214
896.376	9116
896.498	9188
896.619	9142
896.74	9150
896.861	9093
896.982	9226
897.103	9218
897.224	9154
897.345	9020
897.466	9089
897.587	9043
897.708	9070
897.828	9020
897.949	8944
898.07	8887
898.19	8861
898.311	9017
898.431	8960
898.552	8956
898.672	9028
898.792	8933
898.913	8925
899.033	8792
899.153	8792
899.273	8678
899.393	8739
899.513	8785
899.633	8686
899.753	8682
899.873	8705
899.993	8724
900.113	8758
900.232	8644
900.352	8629
900.472	8648
900.591	8571
900.711	8530
900.83	8602
900.95	8655
901.069	8689
901.189	8686
901.308	8476
901.427	8370
901.546	8412
901.665	8503
901.784	8507
901.904	8377
902.023	8370
902.141	8233
902.26	8199
902.379	8294
902.498	8240
902.617	8229
902.735	8362
902.854	8229
902.973	8282
903.091	8153
903.21	8130
903.328	8157
903.446	8115
903.565	8149
903.683	8115
903.801	8126
903.919	8195
904.038	8134
904.156	8103
904.274	8065
904.392	8088
904.51	8058
904.627	8035
904.745	8062
904.863	8111
904.981	7951
905.098	7947
905.216	7913
905.334	7906
905.451	7902
905.569	7841
905.686	7982
905.803	7936
905.921	7772
906.038	7917
906.155	7841
906.272	7681
906.389	7742
906.506	7651
906.623	7658
906.74	7666
906.857	7537
906.974	7655
907.091	7616
907.208	7753
907.324	7685
907.441	7567
907.557	7487
907.674	7472
907.79	7388
907.907	7373
908.023	7403
908.139	7415
908.256	7369
908.372	7396
908.488	7346
908.604	7282
908.72	7285
908.836	7324
908.952	7278
909.068	7255
909.184	7354
909.3	7270
909.415	7247
909.531	7305
909.647	7137
909.762	7095
909.878	7076
909.993	7149
910.108	7122
910.224	7088
910.339	7149
910.454	7088
910.57	6996
910.685	6966
910.8	7137
910.915	7137
911.03	7072
911.145	6871
911.259	6882
911.374	6947
911.489	6821
911.604	6814
911.718	6760
911.833	6719
911.947	6646
912.062	6627
912.176	6715
912.291	6707
912.405	6798
912.519	6833
912.633	6840
912.748	6772
912.862	6688
912.976	6662
913.09	6513
913.204	6566
913.318	6635
913.431	6741
913.545	6711
913.659	6677
913.772	6646
913.886	6559
914	6551
914.113	6616
914.226	6623
914.34	6665
914.453	6517
914.566	6608
914.68	6509
914.793	6582
914.906	6391
915.019	6467
915.132	6483
915.245	6479
915.358	6422
915.47	6479
915.583	6498
915.696	6456
915.809	6578
915.921	6566
916.034	6479
916.146	6410
916.259	6433
916.371	6471
916.483	6452
916.595	6376
916.708	6441
916.82	6414
916.932	6410
917.044	6388
917.156	6437
917.268	6308
917.38	6323
917.491	6372
917.603	6376
917.715	6384
917.826	6441
917.938	6361
918.049	6243
918.161	6346
918.272	6445
918.384	6445
918.495	6376
918.606	6243
918.717	6228
918.828	6243
918.939	6251
919.05	6243
919.161	6247
919.272	6064
919.383	6182
919.494	6331
919.604	6407
919.715	6277
919.826	6197
919.936	6258
920.047	6357
920.157	6277
920.267	6448
920.378	6296
920.488	6338
920.598	6471
920.708	6521
920.818	6448
920.928	6464
921.038	6597
921.148	6631
921.258	6353
921.368	6243
921.477	6178
921.587	6194
921.697	6102
921.806	6144
921.916	6117
922.025	5935
922.134	5901
922.244	5889
922.353	5961
922.462	5836
922.571	5836
922.68	5718
922.789	5695
922.898	5733
923.007	5672
923.116	5684
923.224	5745
923.333	5680
923.442	5577
923.55	5570
923.659	5600
923.767	5646
923.876	5566
923.984	5615
924.092	5482
924.201	5615
924.309	5596
924.417	5551
924.525	5547
924.633	5532
924.741	6121
924.849	5315
924.956	5478
925.064	5360
925.172	5254
925.279	5326
925.387	5360
925.494	5349
925.602	5395
925.709	5383
925.816	5311
925.924	5334
926.031	5353
926.138	5315
926.245	5387
926.352	5239
926.459	5292
926.566	5334
926.673	5265
926.779	5185
926.886	5159
926.993	5025
927.099	4987
927.206	4942
927.312	5037
927.419	5060
927.525	4972
927.631	5018
927.737	4904
927.843	4835
927.95	4786
928.056	4820
928.162	4835
928.267	4831
928.373	5364
928.479	4934
928.585	4740
928.69	4771
928.796	4748
928.901	4710
929.007	4535
929.112	4679
929.218	4675
929.323	4637
929.428	4588
929.533	4687
929.638	4459
929.743	4596
929.848	4538
929.953	4512
930.058	4459
930.163	4367
930.267	4367
930.372	4440
930.477	4341
930.581	4493
930.685	4402
930.79	4234
930.894	4230
930.998	4329
931.103	4394
931.207	4128
931.311	4067
931.415	4074
931.519	3934
931.623	3941
