Data from glass_V78500241_1570.txt Node
Date: Wed Sep 01 19:25:23 CST 2021
User: usil
Spectrometer: V785-0024
Trigger mode: 0
Integration Time (sec): 4.000000E-1
Scans to average: 1
Nonlinearity correction enabled: false
Boxcar width: 0
Storing dark spectrum: false
XAxis mode: Wavelengths
Number of Pixels in Spectrum: 1024
>>>>>Begin Spectral Data<<<<<
801.071	3755
801.214	3762
801.356	3675
801.499	3751
801.641	3743
801.783	3797
801.926	3835
802.068	3846
802.211	3876
802.353	3918
802.496	3835
802.638	3937
802.78	3892
802.923	3930
803.065	3854
803.208	3831
803.35	3869
803.492	3915
803.635	3926
803.777	3823
803.919	3892
804.061	4150
804.204	3949
804.346	3922
804.488	3911
804.63	4059
804.773	3949
804.915	3998
805.057	4128
805.199	4021
805.341	4101
805.483	4143
805.626	4124
805.768	4112
805.91	4192
806.052	4196
806.194	4196
806.336	4322
806.478	4204
806.62	4158
806.762	4143
806.904	4287
807.046	4341
807.188	4215
807.33	4188
807.472	4234
807.614	4192
807.756	4276
807.898	4261
808.04	4188
808.182	4291
808.324	4318
808.465	4363
808.607	4459
808.749	4451
808.891	4440
809.033	4535
809.174	4383
809.316	4234
809.458	4234
809.6	4207
809.741	4143
809.883	4071
810.025	4204
810.166	4177
810.308	4188
810.45	4268
810.591	4196
810.733	4280
810.875	4516
811.016	4820
811.158	5143
811.299	5269
811.441	5299
811.582	5083
811.724	4710
811.865	4459
812.007	4504
812.148	4436
812.29	4421
812.431	4398
812.573	4405
812.714	4348
812.855	4443
812.997	4409
813.138	4485
813.279	4428
813.421	4375
813.562	4375
813.703	4337
813.845	4303
813.986	4257
814.127	4227
814.268	4318
814.41	4268
814.551	4287
814.692	4329
814.833	4268
814.974	4268
815.115	4405
815.256	4276
815.397	4261
815.539	4223
815.68	4150
815.821	4215
815.962	4314
816.103	4287
816.244	4261
816.385	4234
816.526	4249
816.666	4211
816.807	4105
816.948	4162
817.089	4185
817.23	4150
817.371	4063
817.512	4078
817.653	4067
817.793	4051
817.934	4048
818.075	4093
818.216	4143
818.356	4059
818.497	4006
818.638	3926
818.778	3873
818.919	3869
819.06	3857
819.2	3937
819.341	3899
819.481	3861
819.622	3892
819.762	4051
819.903	3983
820.043	3846
820.184	3804
820.324	3816
820.465	3892
820.605	3922
820.746	3854
820.886	3789
821.026	3880
821.167	3915
821.307	3975
821.447	3934
821.588	3975
821.728	3975
821.868	3972
822.008	3857
822.149	3899
822.289	3869
822.429	3797
822.569	3766
822.709	3838
822.849	3747
822.99	3690
823.13	3766
823.27	3789
823.41	3740
823.55	3747
823.69	3728
823.83	3774
823.97	3663
824.11	3595
824.25	3625
824.389	3644
824.529	3705
824.669	3603
824.809	3728
824.949	3793
825.089	3717
825.228	3743
825.368	3591
825.508	3564
825.648	3584
825.787	3595
825.927	3641
826.067	3595
826.206	3660
826.346	3774
826.485	3854
826.625	3838
826.765	3922
826.904	3831
827.044	3622
827.183	3580
827.323	3412
827.462	3492
827.601	3393
827.741	3450
827.88	3431
828.02	3370
828.159	3416
828.298	3481
828.437	3538
828.577	3469
828.716	3618
828.855	3500
828.994	3386
829.134	3389
829.273	3443
829.412	3359
829.551	3336
829.69	3378
829.829	3424
829.968	3504
830.107	3428
830.246	3454
830.385	3355
830.524	3340
830.663	3283
830.802	3275
830.941	3154
831.08	3207
831.219	3268
831.357	3245
831.496	3420
831.635	3253
831.774	3214
831.913	3195
832.051	3116
832.19	3142
832.329	3176
832.467	3127
832.606	3081
832.744	3192
832.883	3188
833.022	3214
833.16	3214
833.299	3275
833.437	3363
833.576	3370
833.714	3389
833.852	3363
833.991	3462
834.129	3458
834.267	3447
834.406	3389
834.544	3439
834.682	3374
834.821	3386
834.959	3576
835.097	3428
835.235	3557
835.373	3485
835.511	3507
835.65	3462
835.788	3530
835.926	3416
836.064	3355
836.202	3450
836.34	3584
836.478	3622
836.615	3511
836.753	3591
836.891	3637
837.029	3599
837.167	3587
837.305	3534
837.443	3496
837.58	3523
837.718	3580
837.856	3553
837.993	3530
838.131	3599
838.269	3587
838.406	3599
838.544	3580
838.681	3469
838.819	3424
838.956	3374
839.094	3367
839.231	3500
839.369	3549
839.506	3690
839.643	3591
839.781	3519
839.918	3545
840.055	3492
840.193	3523
840.33	3553
840.467	3584
840.604	3641
840.742	3781
840.879	3557
841.016	3534
841.153	3625
841.29	3762
841.427	3736
841.564	3705
841.701	3736
841.838	3728
841.975	3660
842.112	3740
842.249	3629
842.385	3648
842.522	3827
842.659	3679
842.796	3682
842.933	3728
843.069	3720
843.206	3717
843.343	3816
843.479	3770
843.616	3804
843.752	3663
843.889	3709
844.025	3812
844.162	3720
844.298	3823
844.435	3747
844.571	3823
844.708	3915
844.844	3945
844.98	4059
845.117	3994
845.253	3991
845.389	3911
845.525	3987
845.661	3930
845.798	3941
845.934	3979
846.07	3922
846.206	4082
846.342	4109
846.478	4040
846.614	3987
846.75	3899
846.886	3899
847.022	4048
847.158	3907
847.294	4006
847.429	3983
847.565	3968
847.701	4249
847.837	3880
847.972	3842
848.108	3991
848.244	4036
848.379	3850
848.515	3755
848.65	3835
848.786	3800
848.921	3857
849.057	3960
849.192	3968
849.328	3922
849.463	3896
849.598	3831
849.734	3884
849.869	3816
850.004	3800
850.14	3797
850.275	3770
850.41	3743
850.545	3781
850.68	3759
850.815	3804
850.95	3766
851.085	3964
851.22	3907
851.355	3819
851.49	3778
851.625	3804
851.76	3797
851.895	3755
852.03	3724
852.165	3778
852.299	3842
852.434	3884
852.569	3892
852.703	3945
852.838	3907
852.973	3994
853.107	3998
853.242	3888
853.376	3861
853.511	3797
853.645	3823
853.78	3983
853.914	3869
854.048	3896
854.183	3903
854.317	3915
854.451	4055
854.585	3941
854.72	3953
854.854	4044
854.988	3896
855.122	4006
855.256	3922
855.39	4017
855.524	4048
855.658	4101
855.792	4055
855.926	4135
856.06	4173
856.194	4207
856.327	4135
856.461	4074
856.595	4147
856.729	4173
856.862	4261
856.996	4246
857.13	4268
857.263	4306
857.397	4367
857.53	4249
857.664	4360
857.797	4390
857.931	4428
858.064	4398
858.197	4436
858.331	4390
858.464	4398
858.597	4322
858.731	4409
858.864	4436
858.997	4500
859.13	4542
859.263	4523
859.396	4599
859.529	4500
859.662	4603
859.795	4508
859.928	4607
860.061	4679
860.194	4717
860.327	4645
860.46	4706
860.592	4733
860.725	4736
860.858	4744
860.99	4694
861.123	4687
861.256	4668
861.388	4786
861.521	5535
861.653	4748
861.786	4733
861.918	4733
862.05	4839
862.183	4850
862.315	4904
862.447	4927
862.58	4911
862.712	4782
862.844	4816
862.976	4881
863.108	4839
863.24	5235
863.372	4820
863.504	4904
863.636	4873
863.768	4968
863.9	5029
864.032	4923
864.164	4949
864.296	5014
864.428	5124
864.559	5060
864.691	5140
864.823	5102
864.954	5113
865.086	5136
865.217	5170
865.349	5143
865.48	5147
865.612	5189
865.743	5284
865.875	5204
866.006	5223
866.137	5231
866.269	5254
866.4	5231
866.531	5254
866.662	5193
866.793	5299
866.924	5296
867.055	5322
867.186	5364
867.317	5364
867.448	5284
867.579	5387
867.71	5425
867.841	5414
867.972	5417
868.103	5440
868.233	5490
868.364	5505
868.495	5547
868.625	5688
868.756	5775
868.886	5630
869.017	5752
869.147	5859
869.278	5859
869.408	5824
869.539	5889
869.669	5889
869.799	5923
869.929	6007
870.06	6072
870.19	6186
870.32	6194
870.45	6262
870.58	6361
870.71	6441
870.84	6490
870.97	6456
871.1	6448
871.23	6642
871.36	6715
871.489	6715
871.619	6764
871.749	6753
871.879	6894
872.008	6996
872.138	6966
872.267	6996
872.397	6954
872.526	6993
872.656	7110
872.785	7156
872.915	7331
873.044	7491
873.173	7552
873.303	7658
873.432	7750
873.561	7875
873.69	7959
873.819	8046
873.948	8210
874.077	8252
874.206	8286
874.335	8530
874.464	8602
874.593	8845
874.722	8925
874.851	9104
874.979	9157
875.108	9363
875.237	9466
875.365	9515
875.494	9682
875.623	9785
875.751	9869
875.88	9926
876.008	10166
876.136	10276
876.265	10523
876.393	10736
876.521	10672
876.65	10881
876.778	10790
876.906	10869
877.034	11014
877.162	11124
877.29	11181
877.418	11273
877.546	11318
877.674	11455
877.802	11471
877.93	11448
878.058	11577
878.185	11512
878.313	11684
878.441	11703
878.568	11596
878.696	11794
878.824	11771
878.951	11927
879.079	12057
879.206	12045
879.333	12049
879.461	11958
879.588	12068
879.715	12095
879.842	12155
879.97	12167
880.097	11847
880.224	11851
880.351	11794
880.478	11923
880.605	11779
880.732	11847
880.859	11999
880.986	11783
881.112	11889
881.239	11726
881.366	11630
881.493	11608
881.619	11520
881.746	11562
881.872	11497
881.999	11501
882.125	11528
882.252	11558
882.378	11448
882.505	11524
882.631	11330
882.757	11197
882.883	11330
883.01	11353
883.136	11143
883.262	11090
883.388	10984
883.514	11231
883.64	11185
883.766	11098
883.892	10991
884.018	11041
884.143	11086
884.269	11109
884.395	10900
884.52	10755
884.646	10778
884.772	10740
884.897	10634
885.023	10672
885.148	10729
885.274	10755
885.399	10584
885.524	10634
885.65	10634
885.775	10554
885.9	10542
886.025	10588
886.15	10641
886.275	10497
886.4	10402
886.525	10440
886.65	10421
886.775	10413
886.9	10413
887.025	10535
887.149	10348
887.274	10268
887.399	10207
887.523	10192
887.648	10162
887.773	10188
887.897	10227
888.021	10219
888.146	10105
888.27	10177
888.395	10223
888.519	10124
888.643	10173
888.767	10238
888.891	10101
889.015	10029
889.139	10097
889.263	10029
889.387	10067
889.511	10158
889.635	10071
889.759	10029
889.883	9960
890.006	10036
890.13	10078
890.254	9968
890.377	9983
890.501	9861
890.624	9850
890.748	9880
890.871	9747
890.995	9762
891.118	9728
891.241	9812
891.364	9690
891.488	9880
891.611	9751
891.734	9755
891.857	9713
891.98	9747
892.103	9819
892.226	9720
892.349	9690
892.471	9572
892.594	9549
892.717	9603
892.839	9507
892.962	9610
893.085	9595
893.207	9599
893.33	9511
893.452	9545
893.575	9633
893.697	9492
893.819	9610
893.941	9625
894.064	9587
894.186	9469
894.308	9378
894.43	9458
894.552	9492
894.674	9614
894.796	9401
894.918	9397
895.04	9355
895.161	9401
895.283	9298
895.405	9317
895.526	9275
895.648	9264
895.769	9226
895.891	9317
896.012	9279
896.134	9161
896.255	9199
896.376	9093
896.498	9188
896.619	9093
896.74	9047
896.861	9100
896.982	9302
897.103	9268
897.224	9192
897.345	8990
897.466	9013
897.587	9009
897.708	9066
897.828	9062
897.949	8937
898.07	8819
898.19	8960
898.311	9009
898.431	8963
898.552	8933
898.672	8960
898.792	8914
898.913	8921
899.033	8811
899.153	8739
899.273	8663
899.393	8712
899.513	8754
899.633	8716
899.753	8644
899.873	8701
899.993	8758
900.113	8648
900.232	8731
900.352	8636
900.472	8617
900.591	8469
900.711	8598
900.83	8571
900.95	8629
901.069	8697
901.189	8575
901.308	8461
901.427	8408
901.546	8473
901.665	8450
901.784	8492
901.904	8381
902.023	8385
902.141	8294
902.26	8271
902.379	8298
902.498	8290
902.617	8206
902.735	8282
902.854	8279
902.973	8244
903.091	8161
903.21	8202
903.328	8145
903.446	8123
903.565	8058
903.683	8073
903.801	8050
903.919	8084
904.038	8161
904.156	8073
904.274	8111
904.392	8084
904.51	8081
904.627	8058
904.745	8092
904.863	8103
904.981	7898
905.098	7837
905.216	7845
905.334	7921
905.451	7875
905.569	7917
905.686	7967
905.803	7894
905.921	7776
906.038	7852
906.155	7818
906.272	7761
906.389	7723
906.506	7639
906.623	7651
906.74	7613
906.857	7544
906.974	7487
907.091	7647
907.208	7700
907.324	7639
907.441	7594
907.557	7400
907.674	7502
907.79	7396
907.907	7384
908.023	7422
908.139	7362
908.256	7434
908.372	7392
908.488	7381
908.604	7289
908.72	7221
908.836	7228
908.952	7289
909.068	7259
909.184	7392
909.3	7312
909.415	7312
909.531	7263
909.647	7133
909.762	7103
909.878	7122
909.993	7118
910.108	7038
910.224	7137
910.339	7168
910.454	7023
910.57	6916
910.685	6970
910.8	7217
910.915	7023
911.03	6993
911.145	6886
911.259	6901
911.374	6905
911.489	6779
911.604	6810
911.718	6711
911.833	6760
911.947	6677
912.062	6589
912.176	6726
912.291	6681
912.405	6703
912.519	6863
912.633	6844
912.748	6722
912.862	6658
912.976	6612
913.09	6559
913.204	6585
913.318	6627
913.431	6669
913.545	6688
913.659	6692
913.772	6696
913.886	6506
914	6563
914.113	6597
914.226	6692
914.34	6620
914.453	6486
914.566	6631
914.68	6490
914.793	6486
914.906	6475
915.019	6384
915.132	6399
915.245	6475
915.358	6502
915.47	6452
915.583	6502
915.696	6456
915.809	6532
915.921	6536
916.034	6407
916.146	6376
916.259	6433
916.371	6464
916.483	6426
916.595	6399
916.708	6342
916.82	6334
916.932	6376
917.044	6429
917.156	6486
917.268	6346
917.38	6331
917.491	6319
917.603	6311
917.715	6350
917.826	6422
917.938	6369
918.049	6178
918.161	6331
918.272	6475
918.384	6399
918.495	6300
918.606	6331
918.717	6171
918.828	6319
918.939	6292
919.05	6258
919.161	6232
919.272	6163
919.383	6155
919.494	6357
919.604	6471
919.715	6239
919.826	6247
919.936	6270
920.047	6319
920.157	6273
920.267	6475
920.378	6323
920.488	6289
920.598	6475
920.708	6547
920.818	6471
920.928	6464
921.038	6585
921.148	6547
921.258	6331
921.368	6285
921.477	6235
921.587	6239
921.697	6102
921.806	6136
921.916	6102
922.025	5946
922.134	5901
922.244	5851
922.353	5912
922.462	5840
922.571	5836
922.68	5653
922.789	5684
922.898	5699
923.007	5627
923.116	5642
923.224	5691
923.333	5634
923.442	5573
923.55	5649
923.659	5520
923.767	5646
923.876	5566
923.984	5558
924.092	5551
924.201	5589
924.309	5611
924.417	5490
924.525	5448
924.633	5516
924.741	6102
924.849	5334
924.956	5440
925.064	5368
925.172	5239
925.279	5307
925.387	5398
925.494	5292
925.602	5421
925.709	5330
925.816	5269
925.924	5311
926.031	5383
926.138	5315
926.245	5292
926.352	5261
926.459	5315
926.566	5372
926.673	5235
926.779	5166
926.886	5124
926.993	5010
927.099	4991
927.206	4972
927.312	4961
927.419	4984
927.525	4953
927.631	4949
927.737	4934
927.843	4816
927.95	4790
928.056	4866
928.162	4820
928.267	4904
928.373	5406
928.479	4805
928.585	4740
928.69	4816
928.796	4809
928.901	4691
929.007	4611
929.112	4660
929.218	4645
929.323	4596
929.428	4588
929.533	4683
929.638	4500
929.743	4550
929.848	4584
929.953	4489
930.058	4436
930.163	4398
930.267	4352
930.372	4417
930.477	4299
930.581	4394
930.685	4348
930.79	4246
930.894	4306
930.998	4242
931.103	4367
931.207	4112
931.311	4101
931.415	4010
931.519	3907
931.623	3953
