Data from glass_V78500241_1683.txt Node
Date: Wed Sep 01 19:26:10 CST 2021
User: usil
Spectrometer: V785-0024
Trigger mode: 0
Integration Time (sec): 4.000000E-1
Scans to average: 1
Nonlinearity correction enabled: false
Boxcar width: 0
Storing dark spectrum: false
XAxis mode: Wavelengths
Number of Pixels in Spectrum: 1024
>>>>>Begin Spectral Data<<<<<
801.071	3766
801.214	3778
801.356	3709
801.499	3709
801.641	3705
801.783	3797
801.926	3831
802.068	3842
802.211	3854
802.353	3896
802.496	3850
802.638	3930
802.78	3907
802.923	3953
803.065	3918
803.208	3865
803.35	3850
803.492	3888
803.635	3911
803.777	3850
803.919	3930
804.061	4154
804.204	3937
804.346	3972
804.488	3972
804.63	4025
804.773	3937
804.915	3979
805.057	4135
805.199	4051
805.341	4067
805.483	4128
805.626	4131
805.768	4128
805.91	4207
806.052	4215
806.194	4158
806.336	4379
806.478	4196
806.62	4192
806.762	4162
806.904	4284
807.046	4333
807.188	4253
807.33	4158
807.472	4223
807.614	4158
807.756	4310
807.898	4162
808.04	4207
808.182	4272
808.324	4325
808.465	4363
808.607	4440
808.749	4470
808.891	4466
809.033	4504
809.174	4405
809.316	4230
809.458	4238
809.6	4143
809.741	4200
809.883	4105
810.025	4181
810.166	4238
810.308	4200
810.45	4310
810.591	4211
810.733	4276
810.875	4497
811.016	4809
811.158	5136
811.299	5269
811.441	5235
811.582	5083
811.724	4683
811.865	4478
812.007	4478
812.148	4455
812.29	4413
812.431	4402
812.573	4443
812.714	4390
812.855	4405
812.997	4459
813.138	4436
813.279	4440
813.421	4383
813.562	4386
813.703	4344
813.845	4291
813.986	4276
814.127	4234
814.268	4249
814.41	4295
814.551	4249
814.692	4333
814.833	4276
814.974	4299
815.115	4329
815.256	4242
815.397	4234
815.539	4246
815.68	4188
815.821	4215
815.962	4291
816.103	4280
816.244	4215
816.385	4230
816.526	4303
816.666	4158
816.807	4116
816.948	4185
817.089	4188
817.23	4139
817.371	4067
817.512	4055
817.653	4048
817.793	4036
817.934	4029
818.075	4150
818.216	4090
818.356	4109
818.497	3941
818.638	3949
818.778	3865
818.919	3899
819.06	3865
819.2	3861
819.341	3899
819.481	3831
819.622	3922
819.762	3994
819.903	3953
820.043	3869
820.184	3816
820.324	3804
820.465	3880
820.605	3876
820.746	3865
820.886	3823
821.026	3915
821.167	3937
821.307	3956
821.447	3956
821.588	3979
821.728	3945
821.868	3953
822.008	3876
822.149	3930
822.289	3918
822.429	3812
822.569	3766
822.709	3804
822.849	3713
822.99	3698
823.13	3759
823.27	3823
823.41	3724
823.55	3740
823.69	3713
823.83	3740
823.97	3652
824.11	3584
824.25	3587
824.389	3648
824.529	3671
824.669	3625
824.809	3705
824.949	3751
825.089	3808
825.228	3679
825.368	3610
825.508	3545
825.648	3557
825.787	3587
825.927	3629
826.067	3625
826.206	3648
826.346	3762
826.485	3857
826.625	3835
826.765	3953
826.904	3861
827.044	3587
827.183	3507
827.323	3409
827.462	3504
827.601	3431
827.741	3424
827.88	3428
828.02	3389
828.159	3447
828.298	3511
828.437	3519
828.577	3454
828.716	3625
828.855	3469
828.994	3355
829.134	3389
829.273	3401
829.412	3332
829.551	3325
829.69	3359
829.829	3409
829.968	3542
830.107	3443
830.246	3443
830.385	3409
830.524	3386
830.663	3260
830.802	3214
830.941	3199
831.08	3146
831.219	3264
831.357	3272
831.496	3439
831.635	3192
831.774	3169
831.913	3214
832.051	3097
832.19	3146
832.329	3226
832.467	3150
832.606	3119
832.744	3173
832.883	3184
833.022	3222
833.16	3245
833.299	3275
833.437	3367
833.576	3363
833.714	3386
833.852	3477
833.991	3397
834.129	3469
834.267	3439
834.406	3382
834.544	3435
834.682	3420
834.821	3431
834.959	3542
835.097	3428
835.235	3534
835.373	3488
835.511	3466
835.65	3435
835.788	3511
835.926	3397
836.064	3424
836.202	3458
836.34	3553
836.478	3587
836.615	3538
836.753	3606
836.891	3633
837.029	3622
837.167	3557
837.305	3538
837.443	3488
837.58	3519
837.718	3587
837.856	3553
837.993	3542
838.131	3610
838.269	3572
838.406	3599
838.544	3568
838.681	3462
838.819	3473
838.956	3370
839.094	3382
839.231	3443
839.369	3523
839.506	3755
839.643	3644
839.781	3500
839.918	3435
840.055	3500
840.193	3530
840.33	3519
840.467	3534
840.604	3599
840.742	3789
840.879	3572
841.016	3538
841.153	3610
841.29	3789
841.427	3732
841.564	3701
841.701	3747
841.838	3720
841.975	3682
842.112	3717
842.249	3625
842.385	3587
842.522	3823
842.659	3675
842.796	3675
842.933	3690
843.069	3713
843.206	3705
843.343	3827
843.479	3759
843.616	3842
843.752	3682
843.889	3656
844.025	3865
844.162	3694
844.298	3800
844.435	3770
844.571	3869
844.708	3865
844.844	3918
844.98	4017
845.117	4006
845.253	3930
845.389	3911
845.525	3972
845.661	3979
845.798	3880
845.934	4025
846.07	3934
846.206	4067
846.342	4112
846.478	4059
846.614	3953
846.75	3945
846.886	3918
847.022	4044
847.158	3922
847.294	4013
847.429	4029
847.565	3998
847.701	4234
847.837	3876
847.972	3873
848.108	3964
848.244	3968
848.379	3865
848.515	3816
848.65	3823
848.786	3797
848.921	3861
849.057	3918
849.192	3941
849.328	3884
849.463	3915
849.598	3926
849.734	3865
849.869	3854
850.004	3781
850.14	3831
850.275	3823
850.41	3717
850.545	3793
850.68	3819
850.815	3823
850.95	3759
851.085	3941
851.22	3850
851.355	3842
851.49	3797
851.625	3804
851.76	3785
851.895	3766
852.03	3740
852.165	3774
852.299	3854
852.434	3892
852.569	3850
852.703	3896
852.838	3987
852.973	3926
853.107	4017
853.242	3888
853.376	3869
853.511	3793
853.645	3854
853.78	3972
853.914	3937
854.048	3937
854.183	3876
854.317	3960
854.451	4082
854.585	3968
854.72	3915
854.854	4063
854.988	3953
855.122	4002
855.256	3899
855.39	4002
855.524	4105
855.658	4055
855.792	4101
855.926	4135
856.06	4185
856.194	4192
856.327	4143
856.461	4051
856.595	4112
856.729	4169
856.862	4284
856.996	4196
857.13	4272
857.263	4306
857.397	4363
857.53	4261
857.664	4379
857.797	4402
857.931	4421
858.064	4390
858.197	4424
858.331	4413
858.464	4405
858.597	4325
858.731	4451
858.864	4462
858.997	4455
859.13	4565
859.263	4596
859.396	4588
859.529	4550
859.662	4512
859.795	4516
859.928	4618
860.061	4649
860.194	4725
860.327	4672
860.46	4622
860.592	4763
860.725	4698
860.858	4755
860.99	4691
861.123	4710
861.256	4649
861.388	4740
861.521	5444
861.653	4736
861.786	4729
861.918	4748
862.05	4782
862.183	4820
862.315	4877
862.447	4915
862.58	4915
862.712	4786
862.844	4767
862.976	4866
863.108	4847
863.24	5235
863.372	4797
863.504	4877
863.636	4889
863.768	4892
863.9	4984
864.032	4965
864.164	4911
864.296	5075
864.428	5075
864.559	5098
864.691	5098
864.823	5140
864.954	5105
865.086	5121
865.217	5132
865.349	5045
865.48	5155
865.612	5212
865.743	5307
865.875	5181
866.006	5193
866.137	5212
866.269	5181
866.4	5239
866.531	5254
866.662	5235
866.793	5246
866.924	5345
867.055	5334
867.186	5345
867.317	5334
867.448	5299
867.579	5406
867.71	5364
867.841	5330
867.972	5509
868.103	5436
868.233	5539
868.364	5501
868.495	5551
868.625	5703
868.756	5844
868.886	5615
869.017	5745
869.147	5764
869.278	5859
869.408	5859
869.539	5760
869.669	5901
869.799	5935
869.929	6007
870.06	6026
870.19	6171
870.32	6133
870.45	6277
870.58	6292
870.71	6437
870.84	6525
870.97	6429
871.1	6445
871.23	6650
871.36	6650
871.489	6642
871.619	6749
871.749	6760
871.879	6840
872.008	7046
872.138	6928
872.267	6981
872.397	7057
872.526	7000
872.656	7122
872.785	7198
872.915	7392
873.044	7548
873.173	7533
873.303	7639
873.432	7753
873.561	7822
873.69	7925
873.819	8012
873.948	8153
874.077	8199
874.206	8332
874.335	8514
874.464	8632
874.593	8826
874.722	8929
874.851	9138
874.979	9226
875.108	9397
875.237	9447
875.365	9492
875.494	9660
875.623	9835
875.751	9861
875.88	10048
876.008	10173
876.136	10257
876.265	10508
876.393	10687
876.521	10801
876.65	10847
876.778	10839
876.906	10877
877.034	11010
877.162	11090
877.29	11174
877.418	11273
877.546	11356
877.674	11414
877.802	11528
877.93	11566
878.058	11570
878.185	11554
878.313	11718
878.441	11707
878.568	11737
878.696	11832
878.824	11885
878.951	11927
879.079	12041
879.206	12095
879.333	12083
879.461	11984
879.588	12034
879.715	12038
879.842	12300
879.97	11904
880.097	11916
880.224	11809
880.351	11977
880.478	11923
880.605	11786
880.732	11779
880.859	11996
880.986	11794
881.112	11756
881.239	11779
881.366	11638
881.493	11661
881.619	11467
881.746	11589
881.872	11592
881.999	11520
882.125	11471
882.252	11516
882.378	11516
882.505	11543
882.631	11395
882.757	11284
882.883	11227
883.01	11246
883.136	11178
883.262	11166
883.388	11037
883.514	11277
883.64	11181
883.766	11143
883.892	11025
884.018	10999
884.143	11045
884.269	11124
884.395	10858
884.52	10782
884.646	10714
884.772	10812
884.897	10679
885.023	10691
885.148	10736
885.274	10721
885.399	10691
885.524	10660
885.65	10630
885.775	10580
885.9	10561
886.025	10611
886.15	10588
886.275	10436
886.4	10363
886.525	10402
886.65	10356
886.775	10413
886.9	10413
887.025	10592
887.149	10390
887.274	10249
887.399	10196
887.523	10131
887.648	10112
887.773	10074
887.897	10337
888.021	10227
888.146	10093
888.27	10207
888.395	10204
888.519	10196
888.643	10147
888.767	10234
888.891	10135
889.015	9994
889.139	10040
889.263	10036
889.387	10044
889.511	10063
889.635	9994
889.759	9991
889.883	9983
890.006	9987
890.13	10109
890.254	9926
890.377	9911
890.501	9857
890.624	9880
890.748	9861
890.871	9789
890.995	9759
891.118	9766
891.241	9732
891.364	9751
891.488	9823
891.611	9751
891.734	9759
891.857	9812
891.98	9740
892.103	9732
892.226	9698
892.349	9603
892.471	9542
892.594	9622
892.717	9648
892.839	9591
892.962	9568
893.085	9717
893.207	9599
893.33	9530
893.452	9481
893.575	9595
893.697	9469
893.819	9625
893.941	9584
894.064	9568
894.186	9374
894.308	9405
894.43	9523
894.552	9515
894.674	9500
894.796	9374
894.918	9416
895.04	9256
895.161	9408
895.283	9294
895.405	9226
895.526	9283
895.648	9233
895.769	9256
895.891	9329
896.012	9264
896.134	9218
896.255	9211
896.376	9157
896.498	9093
896.619	9131
896.74	8994
896.861	9116
896.982	9203
897.103	9321
897.224	9180
897.345	9039
897.466	8986
897.587	9013
897.708	9093
897.828	9043
897.949	9013
898.07	8895
898.19	8872
898.311	8998
898.431	8937
898.552	8944
898.672	8929
898.792	8967
898.913	8948
899.033	8830
899.153	8739
899.273	8678
899.393	8724
899.513	8807
899.633	8720
899.753	8670
899.873	8720
899.993	8716
900.113	8758
900.232	8766
900.352	8686
900.472	8640
900.591	8571
900.711	8590
900.83	8488
900.95	8678
901.069	8712
901.189	8575
901.308	8469
901.427	8366
901.546	8469
901.665	8412
901.784	8473
901.904	8434
902.023	8362
902.141	8252
902.26	8248
902.379	8301
902.498	8183
902.617	8237
902.735	8282
902.854	8286
902.973	8229
903.091	8062
903.21	8164
903.328	8149
903.446	8153
903.565	8069
903.683	8088
903.801	8081
903.919	8134
904.038	8138
904.156	8001
904.274	8065
904.392	8088
904.51	8058
904.627	8001
904.745	8142
904.863	8084
904.981	7883
905.098	7852
905.216	7906
905.334	7902
905.451	7925
905.569	7955
905.686	7921
905.803	7894
905.921	7795
906.038	7856
906.155	7719
906.272	7693
906.389	7719
906.506	7662
906.623	7605
906.74	7556
906.857	7609
906.974	7552
907.091	7753
907.208	7731
907.324	7571
907.441	7521
907.557	7457
907.674	7384
907.79	7407
907.907	7460
908.023	7388
908.139	7476
908.256	7392
908.372	7381
908.488	7377
908.604	7259
908.72	7206
908.836	7259
908.952	7274
909.068	7217
909.184	7343
909.3	7247
909.415	7362
909.531	7274
909.647	7149
909.762	7118
909.878	7103
909.993	7137
910.108	7091
910.224	7107
910.339	7072
910.454	7046
910.57	7072
910.685	6935
910.8	7175
910.915	7088
911.03	7019
911.145	6875
911.259	6852
911.374	6852
911.489	6852
911.604	6798
911.718	6779
911.833	6738
911.947	6677
912.062	6608
912.176	6688
912.291	6711
912.405	6631
912.519	6821
912.633	6814
912.748	6726
912.862	6726
912.976	6582
913.09	6502
913.204	6631
913.318	6620
913.431	6741
913.545	6681
913.659	6700
913.772	6654
913.886	6566
914	6555
914.113	6593
914.226	6631
914.34	6582
914.453	6521
914.566	6639
914.68	6513
914.793	6502
914.906	6399
915.019	6369
915.132	6331
915.245	6399
915.358	6380
915.47	6414
915.583	6471
915.696	6437
915.809	6593
915.921	6509
916.034	6448
916.146	6369
916.259	6350
916.371	6498
916.483	6471
916.595	6441
916.708	6384
916.82	6418
916.932	6399
917.044	6418
917.156	6414
917.268	6346
917.38	6285
917.491	6289
917.603	6365
917.715	6376
917.826	6365
917.938	6380
918.049	6232
918.161	6277
918.272	6426
918.384	6407
918.495	6289
918.606	6281
918.717	6262
918.828	6315
918.939	6247
919.05	6239
919.161	6247
919.272	6136
919.383	6178
919.494	6292
919.604	6429
919.715	6228
919.826	6197
919.936	6315
920.047	6273
920.157	6338
920.267	6426
920.378	6342
920.488	6315
920.598	6475
920.708	6574
920.818	6525
920.928	6475
921.038	6563
921.148	6536
921.258	6395
921.368	6327
921.477	6232
921.587	6140
921.697	6102
921.806	6194
921.916	6045
922.025	5965
922.134	5920
922.244	5851
922.353	5977
922.462	5855
922.571	5802
922.68	5710
922.789	5646
922.898	5695
923.007	5657
923.116	5726
923.224	5688
923.333	5680
923.442	5589
923.55	5611
923.659	5573
923.767	5638
923.876	5543
923.984	5608
924.092	5493
924.201	5493
924.309	5573
924.417	5581
924.525	5459
924.633	5562
924.741	6258
924.849	5379
924.956	5478
925.064	5349
925.172	5292
925.279	5299
925.387	5299
925.494	5330
925.602	5429
925.709	5387
925.816	5201
925.924	5280
926.031	5334
926.138	5292
926.245	5334
926.352	5235
926.459	5292
926.566	5345
926.673	5189
926.779	5121
926.886	5178
926.993	4995
927.099	5045
927.206	4953
927.312	4957
927.419	4991
927.525	4968
927.631	4976
927.737	4885
927.843	4866
927.95	4763
928.056	4782
928.162	4839
928.267	4835
928.373	5379
928.479	4839
928.585	4714
928.69	4740
928.796	4755
928.901	4679
929.007	4546
929.112	4683
929.218	4645
929.323	4592
929.428	4584
929.533	4687
929.638	4535
929.743	4561
929.848	4577
929.953	4516
930.058	4459
930.163	4291
930.267	4344
930.372	4417
930.477	4360
930.581	4500
930.685	4348
930.79	4261
930.894	4276
930.998	4272
931.103	4356
931.207	4131
931.311	4090
931.415	4067
931.519	3968
931.623	3972
