Data from glass_V78500241_505.txt Node
Date: Wed Sep 01 19:18:00 CST 2021
User: usil
Spectrometer: V785-0024
Trigger mode: 0
Integration Time (sec): 4.000000E-1
Scans to average: 1
Nonlinearity correction enabled: false
Boxcar width: 0
Storing dark spectrum: false
XAxis mode: Wavelengths
Number of Pixels in Spectrum: 1024
>>>>>Begin Spectral Data<<<<<
801.071	3713
801.214	3770
801.356	3720
801.499	3774
801.641	3762
801.783	3789
801.926	3876
802.068	3865
802.211	3842
802.353	3869
802.496	3823
802.638	3930
802.78	3873
802.923	3937
803.065	3907
803.208	3899
803.35	3888
803.492	3941
803.635	3907
803.777	3797
803.919	3899
804.061	4143
804.204	3994
804.346	3983
804.488	3937
804.63	4002
804.773	3949
804.915	4082
805.057	4143
805.199	4078
805.341	4109
805.483	4116
805.626	4120
805.768	4128
805.91	4185
806.052	4268
806.194	4223
806.336	4352
806.478	4234
806.62	4242
806.762	4234
806.904	4249
807.046	4390
807.188	4242
807.33	4211
807.472	4234
807.614	4227
807.756	4291
807.898	4230
808.04	4196
808.182	4322
808.324	4314
808.465	4398
808.607	4451
808.749	4440
808.891	4504
809.033	4512
809.174	4386
809.316	4291
809.458	4276
809.6	4185
809.741	4166
809.883	4234
810.025	4265
810.166	4246
810.308	4211
810.45	4265
810.591	4249
810.733	4310
810.875	4550
811.016	4805
811.158	5086
811.299	5288
811.441	5322
811.582	5067
811.724	4706
811.865	4474
812.007	4481
812.148	4455
812.29	4447
812.431	4462
812.573	4428
812.714	4386
812.855	4402
812.997	4447
813.138	4485
813.279	4413
813.421	4421
813.562	4367
813.703	4356
813.845	4333
813.986	4268
814.127	4242
814.268	4265
814.41	4295
814.551	4284
814.692	4341
814.833	4257
814.974	4284
815.115	4318
815.256	4272
815.397	4249
815.539	4299
815.68	4215
815.821	4234
815.962	4341
816.103	4310
816.244	4230
816.385	4238
816.526	4276
816.666	4211
816.807	4105
816.948	4166
817.089	4181
817.23	4158
817.371	4074
817.512	4071
817.653	4086
817.793	4055
817.934	4086
818.075	4147
818.216	4105
818.356	4086
818.497	4017
818.638	3892
818.778	3953
818.919	3880
819.06	3884
819.2	3907
819.341	3876
819.481	3831
819.622	3945
819.762	4071
819.903	3998
820.043	3869
820.184	3850
820.324	3850
820.465	3861
820.605	3850
820.746	3861
820.886	3797
821.026	3964
821.167	3918
821.307	4021
821.447	3972
821.588	3972
821.728	3930
821.868	3964
822.008	3915
822.149	3960
822.289	3918
822.429	3812
822.569	3797
822.709	3800
822.849	3717
822.99	3762
823.13	3740
823.27	3778
823.41	3736
823.55	3709
823.69	3736
823.83	3766
823.97	3705
824.11	3656
824.25	3599
824.389	3690
824.529	3724
824.669	3637
824.809	3713
824.949	3804
825.089	3740
825.228	3705
825.368	3580
825.508	3564
825.648	3599
825.787	3648
825.927	3641
826.067	3576
826.206	3705
826.346	3789
826.485	3842
826.625	3842
826.765	3953
826.904	3850
827.044	3572
827.183	3545
827.323	3492
827.462	3469
827.601	3454
827.741	3443
827.88	3481
828.02	3382
828.159	3428
828.298	3496
828.437	3561
828.577	3492
828.716	3622
828.855	3507
828.994	3386
829.134	3351
829.273	3409
829.412	3370
829.551	3336
829.69	3370
829.829	3458
829.968	3485
830.107	3412
830.246	3443
830.385	3378
830.524	3367
830.663	3336
830.802	3253
830.941	3195
831.08	3226
831.219	3264
831.357	3264
831.496	3405
831.635	3230
831.774	3207
831.913	3165
832.051	3180
832.19	3165
832.329	3214
832.467	3131
832.606	3127
832.744	3214
832.883	3199
833.022	3195
833.16	3226
833.299	3332
833.437	3302
833.576	3363
833.714	3412
833.852	3435
833.991	3439
834.129	3504
834.267	3431
834.406	3428
834.544	3466
834.682	3462
834.821	3412
834.959	3549
835.097	3458
835.235	3549
835.373	3500
835.511	3473
835.65	3458
835.788	3515
835.926	3409
836.064	3363
836.202	3416
836.34	3599
836.478	3629
836.615	3534
836.753	3606
836.891	3656
837.029	3599
837.167	3622
837.305	3599
837.443	3523
837.58	3519
837.718	3633
837.856	3519
837.993	3523
838.131	3622
838.269	3576
838.406	3656
838.544	3549
838.681	3458
838.819	3462
838.956	3401
839.094	3424
839.231	3439
839.369	3515
839.506	3728
839.643	3648
839.781	3534
839.918	3481
840.055	3561
840.193	3530
840.33	3553
840.467	3530
840.604	3644
840.742	3789
840.879	3580
841.016	3591
841.153	3603
841.29	3743
841.427	3717
841.564	3778
841.701	3713
841.838	3751
841.975	3701
842.112	3736
842.249	3644
842.385	3622
842.522	3823
842.659	3690
842.796	3709
842.933	3720
843.069	3743
843.206	3732
843.343	3778
843.479	3789
843.616	3816
843.752	3675
843.889	3694
844.025	3880
844.162	3694
844.298	3876
844.435	3789
844.571	3751
844.708	3911
844.844	3972
844.98	4063
845.117	4025
845.253	3968
845.389	3934
845.525	3979
845.661	3953
845.798	3934
845.934	4010
846.07	3941
846.206	4093
846.342	4109
846.478	4063
846.614	3994
846.75	3945
846.886	3915
847.022	4048
847.158	3975
847.294	3975
847.429	4063
847.565	4055
847.701	4227
847.837	3888
847.972	3846
848.108	4040
848.244	3991
848.379	3861
848.515	3808
848.65	3842
848.786	3861
848.921	3869
849.057	3949
849.192	3968
849.328	3899
849.463	3918
849.598	3896
849.734	3861
849.869	3827
850.004	3819
850.14	3812
850.275	3838
850.41	3755
850.545	3762
850.68	3759
850.815	3816
850.95	3793
851.085	4010
851.22	3880
851.355	3850
851.49	3823
851.625	3793
851.76	3781
851.895	3740
852.03	3762
852.165	3804
852.299	3888
852.434	3918
852.569	3896
852.703	3915
852.838	3926
852.973	3975
853.107	4010
853.242	3842
853.376	3918
853.511	3785
853.645	3804
853.78	3975
853.914	3896
854.048	3888
854.183	3884
854.317	3979
854.451	4082
854.585	3983
854.72	3945
854.854	4067
854.988	3915
855.122	4010
855.256	3972
855.39	4063
855.524	4093
855.658	4116
855.792	4120
855.926	4128
856.06	4173
856.194	4257
856.327	4166
856.461	4120
856.595	4185
856.729	4158
856.862	4295
856.996	4310
857.13	4318
857.263	4386
857.397	4394
857.53	4318
857.664	4375
857.797	4424
857.931	4447
858.064	4436
858.197	4424
858.331	4379
858.464	4398
858.597	4360
858.731	4432
858.864	4508
858.997	4493
859.13	4489
859.263	4561
859.396	4611
859.529	4519
859.662	4497
859.795	4504
859.928	4615
860.061	4717
860.194	4759
860.327	4668
860.46	4656
860.592	4721
860.725	4812
860.858	4763
860.99	4710
861.123	4664
861.256	4691
861.388	4786
861.521	5543
861.653	4733
861.786	4675
861.918	4778
862.05	4801
862.183	4843
862.315	4934
862.447	4953
862.58	4904
862.712	4843
862.844	4782
862.976	4858
863.108	4919
863.24	5193
863.372	4858
863.504	4923
863.636	4908
863.768	4965
863.9	4968
864.032	4946
864.164	4972
864.296	5029
864.428	5102
864.559	5094
864.691	5128
864.823	5159
864.954	5067
865.086	5159
865.217	5128
865.349	5109
865.48	5208
865.612	5208
865.743	5277
865.875	5193
866.006	5216
866.137	5280
866.269	5239
866.4	5216
866.531	5303
866.662	5208
866.793	5269
866.924	5315
867.055	5337
867.186	5296
867.317	5376
867.448	5296
867.579	5417
867.71	5402
867.841	5391
867.972	5482
868.103	5493
868.233	5509
868.364	5516
868.495	5543
868.625	5691
868.756	5798
868.886	5661
869.017	5786
869.147	5901
869.278	5866
869.408	5764
869.539	5832
869.669	5893
869.799	5958
869.929	5958
870.06	6030
870.19	6171
870.32	6228
870.45	6258
870.58	6292
870.71	6426
870.84	6513
870.97	6433
871.1	6448
871.23	6726
871.36	6711
871.489	6681
871.619	6688
871.749	6787
871.879	6894
872.008	6939
872.138	6951
872.267	6989
872.397	6996
872.526	7069
872.656	7107
872.785	7221
872.915	7400
873.044	7518
873.173	7540
873.303	7624
873.432	7738
873.561	7887
873.69	7921
873.819	8027
873.948	8176
874.077	8282
874.206	8412
874.335	8454
874.464	8648
874.593	8849
874.722	8979
874.851	9097
874.979	9256
875.108	9405
875.237	9393
875.365	9504
875.494	9648
875.623	9850
875.751	9895
875.88	10010
876.008	10158
876.136	10223
876.265	10580
876.393	10694
876.521	10729
876.65	10801
876.778	10858
876.906	10987
877.034	10980
877.162	11056
877.29	11155
877.418	11303
877.546	11303
877.674	11505
877.802	11516
877.93	11570
878.058	11520
878.185	11520
878.313	11615
878.441	11733
878.568	11634
878.696	11843
878.824	11897
878.951	11912
879.079	12030
879.206	12167
879.333	12026
879.461	12015
879.588	12015
879.715	12155
879.842	12091
879.97	12049
880.097	11859
880.224	11874
880.351	11946
880.478	11931
880.605	11847
880.732	11847
880.859	11969
880.986	11889
881.112	11889
881.239	11748
881.366	11649
881.493	11630
881.619	11608
881.746	11554
881.872	11615
881.999	11520
882.125	11455
882.252	11528
882.378	11520
882.505	11600
882.631	11395
882.757	11315
882.883	11307
883.01	11227
883.136	11174
883.262	11094
883.388	11151
883.514	11174
883.64	11258
883.766	11064
883.892	10991
884.018	10999
884.143	11075
884.269	11113
884.395	10843
884.52	10805
884.646	10790
884.772	10626
884.897	10626
885.023	10694
885.148	10736
885.274	10694
885.399	10694
885.524	10641
885.65	10550
885.775	10554
885.9	10531
886.025	10599
886.15	10573
886.275	10405
886.4	10398
886.525	10447
886.65	10421
886.775	10379
886.9	10497
887.025	10596
887.149	10303
887.274	10204
887.399	10124
887.523	10185
887.648	10265
887.773	10078
887.897	10215
888.021	10211
888.146	10169
888.27	10177
888.395	10238
888.519	10227
888.643	10196
888.767	10211
888.891	10105
889.015	10051
889.139	10055
889.263	10006
889.387	10097
889.511	10150
889.635	10090
889.759	10006
889.883	9949
890.006	9987
890.13	10021
890.254	9972
890.377	9953
890.501	9854
890.624	9800
890.748	9850
890.871	9800
890.995	9804
891.118	9720
891.241	9736
891.364	9671
891.488	9831
891.611	9785
891.734	9838
891.857	9762
891.98	9774
892.103	9800
892.226	9747
892.349	9747
892.471	9561
892.594	9606
892.717	9553
892.839	9599
892.962	9595
893.085	9637
893.207	9663
893.33	9496
893.452	9496
893.575	9686
893.697	9466
893.819	9656
893.941	9660
894.064	9587
894.186	9454
894.308	9408
894.43	9504
894.552	9603
894.674	9500
894.796	9420
894.918	9416
895.04	9321
895.161	9348
895.283	9416
895.405	9241
895.526	9325
895.648	9264
895.769	9199
895.891	9214
896.012	9302
896.134	9275
896.255	9169
896.376	9108
896.498	9119
896.619	9123
896.74	9138
896.861	9104
896.982	9264
897.103	9313
897.224	9188
897.345	9085
897.466	9009
897.587	9066
897.708	9047
897.828	9058
897.949	9005
898.07	8864
898.19	9017
898.311	9024
898.431	8891
898.552	8963
898.672	9009
898.792	8986
898.913	8853
899.033	8864
899.153	8724
899.273	8705
899.393	8754
899.513	8811
899.633	8689
899.753	8781
899.873	8670
899.993	8720
900.113	8697
900.232	8754
900.352	8621
900.472	8663
900.591	8514
900.711	8667
900.83	8594
900.95	8674
901.069	8682
901.189	8579
901.308	8488
901.427	8408
901.546	8385
901.665	8484
901.784	8488
901.904	8473
902.023	8336
902.141	8225
902.26	8252
902.379	8282
902.498	8225
902.617	8240
902.735	8282
902.854	8294
902.973	8271
903.091	8126
903.21	8103
903.328	8164
903.446	8119
903.565	8073
903.683	8134
903.801	8050
903.919	8161
904.038	8210
904.156	7959
904.274	8084
904.392	7970
904.51	8035
904.627	8088
904.745	8123
904.863	8130
904.981	7932
905.098	7852
905.216	7830
905.334	7940
905.451	7986
905.569	7822
905.686	7959
905.803	7944
905.921	7769
906.038	7841
906.155	7807
906.272	7772
906.389	7746
906.506	7723
906.623	7605
906.74	7609
906.857	7552
906.974	7575
907.091	7685
907.208	7753
907.324	7674
907.441	7586
907.557	7460
907.674	7422
907.79	7419
907.907	7445
908.023	7453
908.139	7354
908.256	7426
908.372	7381
908.488	7407
908.604	7289
908.72	7289
908.836	7228
908.952	7225
909.068	7213
909.184	7274
909.3	7232
909.415	7266
909.531	7297
909.647	7129
909.762	7099
909.878	7091
909.993	7137
910.108	7099
910.224	7088
910.339	7095
910.454	7076
910.57	7019
910.685	6977
910.8	7221
910.915	7076
911.03	7046
911.145	6928
911.259	6928
911.374	6916
911.489	6859
911.604	6833
911.718	6749
911.833	6719
911.947	6665
912.062	6631
912.176	6707
912.291	6662
912.405	6741
912.519	6871
912.633	6833
912.748	6779
912.862	6760
912.976	6597
913.09	6566
913.204	6593
913.318	6593
913.431	6677
913.545	6696
913.659	6703
913.772	6669
913.886	6570
914	6608
914.113	6684
914.226	6654
914.34	6612
914.453	6532
914.566	6665
914.68	6502
914.793	6551
914.906	6395
915.019	6407
915.132	6365
915.245	6403
915.358	6528
915.47	6475
915.583	6433
915.696	6540
915.809	6551
915.921	6517
916.034	6452
916.146	6399
916.259	6380
916.371	6486
916.483	6433
916.595	6361
916.708	6464
916.82	6433
916.932	6372
917.044	6357
917.156	6422
917.268	6376
917.38	6376
917.491	6350
917.603	6277
917.715	6414
917.826	6418
917.938	6346
918.049	6209
918.161	6369
918.272	6437
918.384	6414
918.495	6311
918.606	6220
918.717	6220
918.828	6338
918.939	6292
919.05	6220
919.161	6289
919.272	6136
919.383	6140
919.494	6338
919.604	6448
919.715	6277
919.826	6239
919.936	6262
920.047	6361
920.157	6270
920.267	6471
920.378	6327
920.488	6228
920.598	6486
920.708	6563
920.818	6490
920.928	6509
921.038	6589
921.148	6631
921.258	6338
921.368	6235
921.477	6186
921.587	6201
921.697	6121
921.806	6194
921.916	6114
922.025	5935
922.134	5942
922.244	5901
922.353	5980
922.462	5832
922.571	5786
922.68	5752
922.789	5691
922.898	5722
923.007	5649
923.116	5672
923.224	5661
923.333	5665
923.442	5608
923.55	5554
923.659	5570
923.767	5570
923.876	5630
923.984	5623
924.092	5512
924.201	5539
924.309	5596
924.417	5592
924.525	5604
924.633	5471
924.741	6281
924.849	5417
924.956	5417
925.064	5345
925.172	5277
925.279	5353
925.387	5345
925.494	5353
925.602	5425
925.709	5417
925.816	5261
925.924	5288
926.031	5353
926.138	5292
926.245	5303
926.352	5181
926.459	5284
926.566	5372
926.673	5147
926.779	5147
926.886	5117
926.993	5048
927.099	5037
927.206	4984
927.312	4980
927.419	5060
927.525	5014
927.631	5003
927.737	4919
927.843	4889
927.95	4801
928.056	4812
928.162	4824
928.267	4904
928.373	5292
928.479	4843
928.585	4717
928.69	4767
928.796	4763
928.901	4736
929.007	4588
929.112	4721
929.218	4626
929.323	4599
929.428	4542
929.533	4706
929.638	4504
929.743	4573
929.848	4607
929.953	4481
930.058	4432
930.163	4344
930.267	4379
930.372	4459
930.477	4261
930.581	4519
930.685	4375
930.79	4265
930.894	4306
930.998	4291
931.103	4386
931.207	4120
931.311	4131
931.415	4090
931.519	3941
931.623	3964
