Data from glass_V78500241_1467.txt Node
Date: Wed Sep 01 19:24:40 CST 2021
User: usil
Spectrometer: V785-0024
Trigger mode: 0
Integration Time (sec): 4.000000E-1
Scans to average: 1
Nonlinearity correction enabled: false
Boxcar width: 0
Storing dark spectrum: false
XAxis mode: Wavelengths
Number of Pixels in Spectrum: 1024
>>>>>Begin Spectral Data<<<<<
801.071	3732
801.214	3755
801.356	3724
801.499	3728
801.641	3701
801.783	3762
801.926	3842
802.068	3838
802.211	3869
802.353	3903
802.496	3835
802.638	3899
802.78	3880
802.923	3926
803.065	3876
803.208	3865
803.35	3888
803.492	3934
803.635	3934
803.777	3808
803.919	3911
804.061	4215
804.204	3937
804.346	3983
804.488	3899
804.63	4082
804.773	3964
804.915	4032
805.057	4086
805.199	4010
805.341	4097
805.483	4143
805.626	4131
805.768	4112
805.91	4173
806.052	4234
806.194	4158
806.336	4310
806.478	4215
806.62	4169
806.762	4204
806.904	4249
807.046	4375
807.188	4207
807.33	4173
807.472	4223
807.614	4200
807.756	4287
807.898	4169
808.04	4196
808.182	4295
808.324	4280
808.465	4394
808.607	4440
808.749	4500
808.891	4443
809.033	4527
809.174	4436
809.316	4242
809.458	4204
809.6	4150
809.741	4177
809.883	4158
810.025	4227
810.166	4223
810.308	4215
810.45	4280
810.591	4253
810.733	4291
810.875	4504
811.016	4843
811.158	5121
811.299	5277
811.441	5307
811.582	5075
811.724	4717
811.865	4474
812.007	4485
812.148	4455
812.29	4398
812.431	4424
812.573	4367
812.714	4375
812.855	4413
812.997	4398
813.138	4466
813.279	4493
813.421	4413
813.562	4383
813.703	4367
813.845	4325
813.986	4249
814.127	4230
814.268	4219
814.41	4284
814.551	4253
814.692	4272
814.833	4265
814.974	4314
815.115	4318
815.256	4238
815.397	4265
815.539	4230
815.68	4196
815.821	4227
815.962	4394
816.103	4287
816.244	4261
816.385	4246
816.526	4295
816.666	4211
816.807	4135
816.948	4200
817.089	4169
817.23	4101
817.371	4032
817.512	4059
817.653	4055
817.793	4059
817.934	4067
818.075	4090
818.216	4093
818.356	4101
818.497	4010
818.638	3899
818.778	3903
818.919	3876
819.06	3880
819.2	3915
819.341	3888
819.481	3816
819.622	3907
819.762	4006
819.903	3937
820.043	3873
820.184	3797
820.324	3816
820.465	3876
820.605	3861
820.746	3846
820.886	3781
821.026	3911
821.167	3949
821.307	3949
821.447	3998
821.588	3926
821.728	3949
821.868	3930
822.008	3865
822.149	3918
822.289	3903
822.429	3781
822.569	3781
822.709	3823
822.849	3724
822.99	3762
823.13	3736
823.27	3747
823.41	3717
823.55	3713
823.69	3755
823.83	3781
823.97	3648
824.11	3625
824.25	3614
824.389	3690
824.529	3667
824.669	3599
824.809	3701
824.949	3743
825.089	3705
825.228	3717
825.368	3599
825.508	3568
825.648	3584
825.787	3580
825.927	3637
826.067	3614
826.206	3675
826.346	3804
826.485	3823
826.625	3842
826.765	3934
826.904	3819
827.044	3637
827.183	3519
827.323	3439
827.462	3477
827.601	3420
827.741	3439
827.88	3439
828.02	3340
828.159	3424
828.298	3469
828.437	3538
828.577	3458
828.716	3606
828.855	3488
828.994	3370
829.134	3367
829.273	3409
829.412	3317
829.551	3340
829.69	3386
829.829	3386
829.968	3473
830.107	3458
830.246	3454
830.385	3435
830.524	3367
830.663	3317
830.802	3283
830.941	3222
831.08	3203
831.219	3298
831.357	3294
831.496	3405
831.635	3233
831.774	3199
831.913	3203
832.051	3123
832.19	3157
832.329	3195
832.467	3138
832.606	3100
832.744	3173
832.883	3184
833.022	3226
833.16	3275
833.299	3291
833.437	3348
833.576	3378
833.714	3420
833.852	3435
833.991	3466
834.129	3458
834.267	3428
834.406	3431
834.544	3450
834.682	3431
834.821	3386
834.959	3542
835.097	3439
835.235	3519
835.373	3526
835.511	3511
835.65	3447
835.788	3496
835.926	3386
836.064	3370
836.202	3439
836.34	3591
836.478	3599
836.615	3591
836.753	3576
836.891	3591
837.029	3614
837.167	3576
837.305	3561
837.443	3557
837.58	3511
837.718	3599
837.856	3568
837.993	3496
838.131	3568
838.269	3580
838.406	3622
838.544	3561
838.681	3481
838.819	3420
838.956	3359
839.094	3401
839.231	3443
839.369	3542
839.506	3740
839.643	3618
839.781	3462
839.918	3469
840.055	3523
840.193	3534
840.33	3504
840.467	3545
840.604	3618
840.742	3835
840.879	3564
841.016	3568
841.153	3603
841.29	3755
841.427	3732
841.564	3713
841.701	3709
841.838	3736
841.975	3682
842.112	3713
842.249	3667
842.385	3637
842.522	3808
842.659	3713
842.796	3686
842.933	3743
843.069	3709
843.206	3766
843.343	3854
843.479	3759
843.616	3850
843.752	3671
843.889	3671
844.025	3831
844.162	3709
844.298	3835
844.435	3831
844.571	3797
844.708	3930
844.844	3953
844.98	4002
845.117	4029
845.253	3915
845.389	3892
845.525	3991
845.661	3994
845.798	3953
845.934	4002
846.07	3972
846.206	4051
846.342	4097
846.478	4059
846.614	3998
846.75	3930
846.886	3937
847.022	4036
847.158	3979
847.294	4006
847.429	4017
847.565	4021
847.701	4272
847.837	3876
847.972	3876
848.108	3972
848.244	3953
848.379	3865
848.515	3823
848.65	3789
848.786	3827
848.921	3869
849.057	3934
849.192	3915
849.328	3876
849.463	3888
849.598	3869
849.734	3869
849.869	3831
850.004	3800
850.14	3831
850.275	3793
850.41	3762
850.545	3740
850.68	3759
850.815	3774
850.95	3781
851.085	3972
851.22	3876
851.355	3850
851.49	3774
851.625	3781
851.76	3785
851.895	3701
852.03	3770
852.165	3781
852.299	3861
852.434	3903
852.569	3861
852.703	3873
852.838	3915
852.973	4006
853.107	4040
853.242	3915
853.376	3876
853.511	3789
853.645	3827
853.78	3987
853.914	3869
854.048	3888
854.183	3861
854.317	3926
854.451	4097
854.585	3941
854.72	3926
854.854	4010
854.988	3918
855.122	3983
855.256	3926
855.39	4051
855.524	4124
855.658	4071
855.792	4112
855.926	4162
856.06	4211
856.194	4223
856.327	4154
856.461	4166
856.595	4173
856.729	4181
856.862	4295
856.996	4227
857.13	4303
857.263	4341
857.397	4352
857.53	4318
857.664	4379
857.797	4379
857.931	4447
858.064	4386
858.197	4470
858.331	4455
858.464	4371
858.597	4367
858.731	4443
858.864	4485
858.997	4504
859.13	4497
859.263	4535
859.396	4596
859.529	4500
859.662	4565
859.795	4504
859.928	4599
860.061	4706
860.194	4702
860.327	4645
860.46	4664
860.592	4717
860.725	4717
860.858	4755
860.99	4687
861.123	4740
861.256	4729
861.388	4797
861.521	5330
861.653	4740
861.786	4668
861.918	4782
862.05	4854
862.183	4820
862.315	4919
862.447	4972
862.58	4896
862.712	4809
862.844	4774
862.976	4873
863.108	4896
863.24	5242
863.372	4828
863.504	4854
863.636	4900
863.768	4987
863.9	4942
864.032	4942
864.164	4946
864.296	5105
864.428	5075
864.559	5105
864.691	5113
864.823	5113
864.954	5121
865.086	5121
865.217	5109
865.349	5117
865.48	5155
865.612	5143
865.743	5299
865.875	5204
866.006	5201
866.137	5231
866.269	5227
866.4	5223
866.531	5246
866.662	5269
866.793	5254
866.924	5273
867.055	5318
867.186	5326
867.317	5337
867.448	5360
867.579	5398
867.71	5395
867.841	5379
867.972	5482
868.103	5478
868.233	5463
868.364	5486
868.495	5589
868.625	5707
868.756	5775
868.886	5699
869.017	5729
869.147	5836
869.278	5897
869.408	5771
869.539	5851
869.669	5946
869.799	5878
869.929	6007
870.06	5977
870.19	6209
870.32	6220
870.45	6266
870.58	6323
870.71	6414
870.84	6490
870.97	6445
871.1	6464
871.23	6677
871.36	6738
871.489	6681
871.619	6753
871.749	6806
871.879	6890
872.008	6958
872.138	6981
872.267	7023
872.397	6981
872.526	7065
872.656	7126
872.785	7244
872.915	7354
873.044	7559
873.173	7567
873.303	7696
873.432	7803
873.561	7875
873.69	7932
873.819	8073
873.948	8183
874.077	8233
874.206	8351
874.335	8434
874.464	8655
874.593	8925
874.722	8910
874.851	9123
874.979	9222
875.108	9363
875.237	9439
875.365	9485
875.494	9663
875.623	9838
875.751	9842
875.88	9956
876.008	10177
876.136	10287
876.265	10451
876.393	10717
876.521	10736
876.65	10748
876.778	10782
876.906	10934
877.034	10957
877.162	11048
877.29	11193
877.418	11322
877.546	11307
877.674	11467
877.802	11387
877.93	11440
878.058	11611
878.185	11551
878.313	11653
878.441	11798
878.568	11585
878.696	11805
878.824	11855
878.951	11855
879.079	12053
879.206	12034
879.333	12076
879.461	11916
879.588	12121
879.715	12102
879.842	12292
879.97	12083
880.097	11904
880.224	11771
880.351	11969
880.478	11927
880.605	11809
880.732	11855
880.859	12041
880.986	11783
881.112	11851
881.239	11695
881.366	11676
881.493	11672
881.619	11539
881.746	11539
881.872	11558
881.999	11455
882.125	11474
882.252	11547
882.378	11490
882.505	11558
882.631	11307
882.757	11315
882.883	11334
883.01	11223
883.136	11151
883.262	11067
883.388	11022
883.514	11208
883.64	11212
883.766	11075
883.892	11014
884.018	11113
884.143	11056
884.269	11105
884.395	10748
884.52	10782
884.646	10733
884.772	10763
884.897	10664
885.023	10778
885.148	10710
885.274	10748
885.399	10653
885.524	10573
885.65	10565
885.775	10637
885.9	10603
886.025	10561
886.15	10599
886.275	10470
886.4	10375
886.525	10356
886.65	10424
886.775	10394
886.9	10489
887.025	10546
887.149	10329
887.274	10230
887.399	10246
887.523	10169
887.648	10147
887.773	10059
887.897	10185
888.021	10200
888.146	10219
888.27	10185
888.395	10223
888.519	10204
888.643	10253
888.767	10188
888.891	10124
889.015	10048
889.139	10036
889.263	9983
889.387	10067
889.511	10120
889.635	9968
889.759	9960
889.883	9953
890.006	9949
890.13	10055
890.254	9945
890.377	9956
890.501	9873
890.624	9846
890.748	9949
890.871	9857
890.995	9789
891.118	9667
891.241	9736
891.364	9747
891.488	9899
891.611	9724
891.734	9720
891.857	9808
891.98	9709
892.103	9759
892.226	9766
892.349	9656
892.471	9553
892.594	9618
892.717	9637
892.839	9553
892.962	9576
893.085	9675
893.207	9568
893.33	9477
893.452	9523
893.575	9599
893.697	9511
893.819	9576
893.941	9561
894.064	9698
894.186	9424
894.308	9412
894.43	9606
894.552	9587
894.674	9523
894.796	9424
894.918	9378
895.04	9397
895.161	9378
895.283	9340
895.405	9176
895.526	9157
895.648	9272
895.769	9237
895.891	9245
896.012	9291
896.134	9237
896.255	9161
896.376	9081
896.498	9089
896.619	9207
896.74	9157
896.861	9112
896.982	9306
897.103	9233
897.224	9176
897.345	9173
897.466	8967
897.587	9009
897.708	9062
897.828	9062
897.949	8914
898.07	8857
898.19	8891
898.311	8998
898.431	8971
898.552	8899
898.672	8952
898.792	8956
898.913	8845
899.033	8842
899.153	8762
899.273	8655
899.393	8716
899.513	8686
899.633	8754
899.753	8724
899.873	8697
899.993	8705
900.113	8651
900.232	8708
900.352	8629
900.472	8594
900.591	8564
900.711	8579
900.83	8514
900.95	8678
901.069	8674
901.189	8564
901.308	8415
901.427	8362
901.546	8419
901.665	8480
901.784	8514
901.904	8362
902.023	8317
902.141	8237
902.26	8199
902.379	8256
902.498	8256
902.617	8172
902.735	8317
902.854	8298
902.973	8225
903.091	8088
903.21	8134
903.328	8138
903.446	8111
903.565	8073
903.683	8111
903.801	8065
903.919	8138
904.038	8157
904.156	7997
904.274	8016
904.392	8046
904.51	8031
904.627	8103
904.745	8096
904.863	8084
904.981	7875
905.098	7811
905.216	7894
905.334	7856
905.451	7894
905.569	7814
905.686	7871
905.803	8035
905.921	7769
906.038	7826
906.155	7830
906.272	7590
906.389	7712
906.506	7597
906.623	7624
906.74	7662
906.857	7552
906.974	7658
907.091	7632
907.208	7738
907.324	7674
907.441	7605
907.557	7460
907.674	7438
907.79	7480
907.907	7419
908.023	7434
908.139	7422
908.256	7388
908.372	7388
908.488	7343
908.604	7308
908.72	7266
908.836	7247
908.952	7255
909.068	7255
909.184	7308
909.3	7274
909.415	7308
909.531	7301
909.647	7187
909.762	7152
909.878	7088
909.993	7107
910.108	7145
910.224	7069
910.339	7076
910.454	7034
910.57	6996
910.685	6913
910.8	7160
910.915	7110
911.03	6996
911.145	6932
911.259	6844
911.374	6890
911.489	6844
911.604	6760
911.718	6730
911.833	6734
911.947	6650
912.062	6639
912.176	6681
912.291	6760
912.405	6616
912.519	6840
912.633	6825
912.748	6734
912.862	6696
912.976	6604
913.09	6532
913.204	6593
913.318	6616
913.431	6741
913.545	6692
913.659	6730
913.772	6658
913.886	6555
914	6547
914.113	6604
914.226	6639
914.34	6608
914.453	6460
914.566	6646
914.68	6498
914.793	6452
914.906	6475
915.019	6418
915.132	6380
915.245	6441
915.358	6433
915.47	6426
915.583	6391
915.696	6426
915.809	6597
915.921	6547
916.034	6407
916.146	6422
916.259	6395
916.371	6483
916.483	6414
916.595	6391
916.708	6391
916.82	6289
916.932	6395
917.044	6391
917.156	6346
917.268	6308
917.38	6315
917.491	6323
917.603	6338
917.715	6361
917.826	6399
917.938	6311
918.049	6201
918.161	6327
918.272	6422
918.384	6532
918.495	6372
918.606	6289
918.717	6220
918.828	6273
918.939	6254
919.05	6235
919.161	6235
919.272	6072
919.383	6144
919.494	6266
919.604	6494
919.715	6285
919.826	6194
919.936	6281
920.047	6270
920.157	6334
920.267	6479
920.378	6296
920.488	6254
920.598	6498
920.708	6559
920.818	6429
920.928	6540
921.038	6627
921.148	6616
921.258	6315
921.368	6289
921.477	6178
921.587	6167
921.697	6110
921.806	6167
921.916	6030
922.025	5939
922.134	5939
922.244	5904
922.353	5992
922.462	5794
922.571	5847
922.68	5748
922.789	5653
922.898	5688
923.007	5688
923.116	5676
923.224	5627
923.333	5684
923.442	5619
923.55	5592
923.659	5604
923.767	5615
923.876	5600
923.984	5649
924.092	5512
924.201	5581
924.309	5516
924.417	5570
924.525	5501
924.633	5532
924.741	6110
924.849	5360
924.956	5501
925.064	5360
925.172	5299
925.279	5311
925.387	5379
925.494	5299
925.602	5398
925.709	5391
925.816	5250
925.924	5284
926.031	5280
926.138	5261
926.245	5322
926.352	5235
926.459	5299
926.566	5296
926.673	5204
926.779	5151
926.886	5113
926.993	5060
927.099	5025
927.206	5010
927.312	4961
927.419	5029
927.525	4991
927.631	4965
927.737	4885
927.843	4892
927.95	4763
928.056	4763
928.162	4835
928.267	4858
928.373	5246
928.479	4854
928.585	4706
928.69	4755
928.796	4740
928.901	4668
929.007	4565
929.112	4691
929.218	4637
929.323	4573
929.428	4588
929.533	4672
929.638	4523
929.743	4519
929.848	4554
929.953	4512
930.058	4470
930.163	4310
930.267	4329
930.372	4443
930.477	4261
930.581	4516
930.685	4348
930.79	4234
930.894	4295
930.998	4238
931.103	4413
931.207	4093
931.311	4143
931.415	4051
931.519	3926
931.623	3926
