Data from glass_V78500241_2441.txt Node
Date: Wed Sep 01 19:31:25 CST 2021
User: usil
Spectrometer: V785-0024
Trigger mode: 0
Integration Time (sec): 4.000000E-1
Scans to average: 1
Nonlinearity correction enabled: false
Boxcar width: 0
Storing dark spectrum: false
XAxis mode: Wavelengths
Number of Pixels in Spectrum: 1024
>>>>>Begin Spectral Data<<<<<
801.071	3747
801.214	3724
801.356	3686
801.499	3713
801.641	3736
801.783	3728
801.926	3850
802.068	3778
802.211	3816
802.353	3838
802.496	3873
802.638	3857
802.78	3876
802.923	3922
803.065	3876
803.208	3804
803.35	3838
803.492	3896
803.635	3876
803.777	3778
803.919	3869
804.061	4173
804.204	3953
804.346	3953
804.488	3888
804.63	4036
804.773	4010
804.915	4029
805.057	4128
805.199	3975
805.341	4097
805.483	4139
805.626	4097
805.768	4078
805.91	4200
806.052	4265
806.194	4173
806.336	4363
806.478	4196
806.62	4177
806.762	4188
806.904	4249
807.046	4287
807.188	4204
807.33	4147
807.472	4230
807.614	4169
807.756	4204
807.898	4185
808.04	4181
808.182	4261
808.324	4272
808.465	4344
808.607	4466
808.749	4413
808.891	4447
809.033	4535
809.174	4383
809.316	4230
809.458	4242
809.6	4150
809.741	4090
809.883	4112
810.025	4147
810.166	4227
810.308	4192
810.45	4230
810.591	4238
810.733	4230
810.875	4462
811.016	4771
811.158	5121
811.299	5277
811.441	5303
811.582	5083
811.724	4687
811.865	4451
812.007	4478
812.148	4466
812.29	4421
812.431	4440
812.573	4405
812.714	4394
812.855	4375
812.997	4417
813.138	4459
813.279	4386
813.421	4325
813.562	4356
813.703	4314
813.845	4306
813.986	4223
814.127	4211
814.268	4257
814.41	4299
814.551	4204
814.692	4329
814.833	4284
814.974	4325
815.115	4325
815.256	4211
815.397	4188
815.539	4253
815.68	4223
815.821	4227
815.962	4314
816.103	4261
816.244	4211
816.385	4200
816.526	4261
816.666	4230
816.807	4105
816.948	4177
817.089	4139
817.23	4124
817.371	3987
817.512	4055
817.653	4105
817.793	4025
817.934	4036
818.075	4048
818.216	4044
818.356	4059
818.497	3956
818.638	3930
818.778	3926
818.919	3861
819.06	3873
819.2	3884
819.341	3888
819.481	3812
819.622	3888
819.762	4002
819.903	3918
820.043	3850
820.184	3800
820.324	3789
820.465	3865
820.605	3827
820.746	3850
820.886	3781
821.026	3934
821.167	3934
821.307	3983
821.447	3983
821.588	3945
821.728	3930
821.868	3960
822.008	3797
822.149	3892
822.289	3934
822.429	3774
822.569	3736
822.709	3800
822.849	3728
822.99	3720
823.13	3743
823.27	3740
823.41	3709
823.55	3743
823.69	3751
823.83	3671
823.97	3641
824.11	3591
824.25	3603
824.389	3625
824.529	3682
824.669	3637
824.809	3701
824.949	3701
825.089	3717
825.228	3717
825.368	3538
825.508	3530
825.648	3557
825.787	3584
825.927	3614
826.067	3648
826.206	3660
826.346	3762
826.485	3846
826.625	3861
826.765	3949
826.904	3854
827.044	3584
827.183	3488
827.323	3428
827.462	3466
827.601	3405
827.741	3389
827.88	3401
828.02	3355
828.159	3401
828.298	3439
828.437	3542
828.577	3519
828.716	3587
828.855	3485
828.994	3367
829.134	3363
829.273	3348
829.412	3329
829.551	3306
829.69	3336
829.829	3462
829.968	3488
830.107	3439
830.246	3378
830.385	3382
830.524	3348
830.663	3302
830.802	3203
830.941	3199
831.08	3222
831.219	3226
831.357	3283
831.496	3370
831.635	3237
831.774	3237
831.913	3150
832.051	3112
832.19	3119
832.329	3237
832.467	3085
832.606	3104
832.744	3192
832.883	3192
833.022	3176
833.16	3237
833.299	3272
833.437	3302
833.576	3382
833.714	3389
833.852	3439
833.991	3420
834.129	3473
834.267	3420
834.406	3428
834.544	3424
834.682	3409
834.821	3393
834.959	3561
835.097	3382
835.235	3572
835.373	3443
835.511	3523
835.65	3439
835.788	3469
835.926	3386
836.064	3363
836.202	3386
836.34	3564
836.478	3606
836.615	3526
836.753	3584
836.891	3625
837.029	3599
837.167	3568
837.305	3511
837.443	3500
837.58	3462
837.718	3610
837.856	3534
837.993	3534
838.131	3610
838.269	3557
838.406	3641
838.544	3553
838.681	3477
838.819	3454
838.956	3321
839.094	3397
839.231	3431
839.369	3515
839.506	3766
839.643	3603
839.781	3473
839.918	3416
840.055	3507
840.193	3507
840.33	3507
840.467	3534
840.604	3576
840.742	3781
840.879	3553
841.016	3572
841.153	3568
841.29	3736
841.427	3675
841.564	3736
841.701	3701
841.838	3713
841.975	3694
842.112	3732
842.249	3591
842.385	3629
842.522	3797
842.659	3675
842.796	3663
842.933	3686
843.069	3709
843.206	3671
843.343	3804
843.479	3751
843.616	3835
843.752	3690
843.889	3671
844.025	3865
844.162	3713
844.298	3808
844.435	3781
844.571	3819
844.708	3899
844.844	3975
844.98	4013
845.117	4021
845.253	3880
845.389	3884
845.525	3911
845.661	3934
845.798	3915
845.934	3945
846.07	3937
846.206	4010
846.342	4139
846.478	4086
846.614	3964
846.75	3949
846.886	3903
847.022	4025
847.158	3926
847.294	4032
847.429	4013
847.565	3994
847.701	4204
847.837	3869
847.972	3838
848.108	3964
848.244	3941
848.379	3808
848.515	3778
848.65	3778
848.786	3838
848.921	3869
849.057	3907
849.192	3926
849.328	3899
849.463	3907
849.598	3903
849.734	3835
849.869	3808
850.004	3781
850.14	3819
850.275	3755
850.41	3755
850.545	3770
850.68	3789
850.815	3831
850.95	3781
851.085	3899
851.22	3819
851.355	3789
851.49	3747
851.625	3762
851.76	3797
851.895	3732
852.03	3705
852.165	3800
852.299	3857
852.434	3907
852.569	3884
852.703	3869
852.838	3968
852.973	4021
853.107	3937
853.242	3899
853.376	3823
853.511	3747
853.645	3823
853.78	3956
853.914	3892
854.048	3835
854.183	3835
854.317	3918
854.451	4032
854.585	3945
854.72	3956
854.854	4021
854.988	3918
855.122	3994
855.256	3892
855.39	4059
855.524	4086
855.658	4093
855.792	4063
855.926	4112
856.06	4128
856.194	4162
856.327	4090
856.461	4124
856.595	4162
856.729	4181
856.862	4261
856.996	4223
857.13	4284
857.263	4333
857.397	4306
857.53	4322
857.664	4356
857.797	4398
857.931	4440
858.064	4348
858.197	4462
858.331	4394
858.464	4367
858.597	4314
858.731	4413
858.864	4398
858.997	4405
859.13	4497
859.263	4554
859.396	4561
859.529	4519
859.662	4527
859.795	4493
859.928	4588
860.061	4706
860.194	4744
860.327	4641
860.46	4656
860.592	4740
860.725	4759
860.858	4759
860.99	4717
861.123	4672
861.256	4668
861.388	4767
861.521	5505
861.653	4710
861.786	4706
861.918	4710
862.05	4786
862.183	4797
862.315	4850
862.447	4957
862.58	4896
862.712	4831
862.844	4816
862.976	4881
863.108	4873
863.24	5178
863.372	4828
863.504	4870
863.636	4911
863.768	4908
863.9	4968
864.032	4896
864.164	4980
864.296	5064
864.428	5086
864.559	5048
864.691	5094
864.823	5143
864.954	5140
865.086	5090
865.217	5151
865.349	5143
865.48	5136
865.612	5178
865.743	5284
865.875	5132
866.006	5143
866.137	5273
866.269	5204
866.4	5235
866.531	5258
866.662	5242
866.793	5242
866.924	5242
867.055	5330
867.186	5387
867.317	5303
867.448	5273
867.579	5368
867.71	5391
867.841	5357
867.972	5429
868.103	5474
868.233	5486
868.364	5566
868.495	5509
868.625	5695
868.756	5764
868.886	5680
869.017	5798
869.147	5882
869.278	5863
869.408	5783
869.539	5824
869.669	5961
869.799	5889
869.929	5942
870.06	6003
870.19	6159
870.32	6178
870.45	6228
870.58	6380
870.71	6407
870.84	6460
870.97	6365
871.1	6460
871.23	6658
871.36	6707
871.489	6677
871.619	6745
871.749	6837
871.879	6859
872.008	6939
872.138	6943
872.267	7027
872.397	7004
872.526	7023
872.656	7099
872.785	7156
872.915	7327
873.044	7491
873.173	7502
873.303	7624
873.432	7708
873.561	7845
873.69	7871
873.819	8001
873.948	8145
874.077	8172
874.206	8259
874.335	8389
874.464	8629
874.593	8830
874.722	8876
874.851	9154
874.979	9195
875.108	9317
875.237	9363
875.365	9488
875.494	9603
875.623	9793
875.751	9854
875.88	9994
876.008	10082
876.136	10238
876.265	10531
876.393	10664
876.521	10714
876.65	10816
876.778	10797
876.906	10873
877.034	11094
877.162	11045
877.29	11140
877.418	11307
877.546	11429
877.674	11459
877.802	11402
877.93	11551
878.058	11478
878.185	11619
878.313	11638
878.441	11767
878.568	11703
878.696	11805
878.824	11824
878.951	11950
879.079	12003
879.206	12182
879.333	12072
879.461	12026
879.588	11999
879.715	12076
879.842	12163
879.97	12030
880.097	11878
880.224	11882
880.351	11870
880.478	11824
880.605	11821
880.732	11760
880.859	12007
880.986	11847
881.112	11821
881.239	11767
881.366	11627
881.493	11688
881.619	11554
881.746	11520
881.872	11490
881.999	11551
882.125	11562
882.252	11585
882.378	11478
882.505	11615
882.631	11299
882.757	11284
882.883	11315
883.01	11212
883.136	11227
883.262	11132
883.388	11025
883.514	11136
883.64	11140
883.766	11124
883.892	11033
884.018	10980
884.143	11022
884.269	11102
884.395	10816
884.52	10786
884.646	10729
884.772	10656
884.897	10656
885.023	10706
885.148	10778
885.274	10683
885.399	10641
885.524	10615
885.65	10580
885.775	10531
885.9	10630
886.025	10622
886.15	10615
886.275	10413
886.4	10363
886.525	10447
886.65	10363
886.775	10402
886.9	10413
887.025	10489
887.149	10341
887.274	10253
887.399	10204
887.523	10131
887.648	10097
887.773	10204
887.897	10105
888.021	10204
888.146	10139
888.27	10234
888.395	10253
888.519	10200
888.643	10169
888.767	10196
888.891	10051
889.015	9972
889.139	10055
889.263	10021
889.387	10090
889.511	10112
889.635	10097
889.759	9972
889.883	9949
890.006	10067
890.13	10059
890.254	9937
890.377	9953
890.501	9888
890.624	9895
890.748	9816
890.871	9831
890.995	9713
891.118	9705
891.241	9759
891.364	9679
891.488	9842
891.611	9740
891.734	9797
891.857	9804
891.98	9717
892.103	9781
892.226	9698
892.349	9629
892.471	9481
892.594	9614
892.717	9694
892.839	9648
892.962	9618
893.085	9568
893.207	9610
893.33	9435
893.452	9488
893.575	9557
893.697	9450
893.819	9663
893.941	9595
894.064	9534
894.186	9488
894.308	9378
894.43	9572
894.552	9580
894.674	9454
894.796	9378
894.918	9412
895.04	9313
895.161	9428
895.283	9355
895.405	9245
895.526	9256
895.648	9310
895.769	9188
895.891	9245
896.012	9264
896.134	9195
896.255	9226
896.376	9112
896.498	9097
896.619	9070
896.74	9055
896.861	9127
896.982	9131
897.103	9317
897.224	9116
897.345	9070
897.466	9005
897.587	9024
897.708	9028
897.828	9047
897.949	8929
898.07	8811
898.19	8876
898.311	9039
898.431	8796
898.552	8883
898.672	8960
898.792	8853
898.913	8944
899.033	8777
899.153	8754
899.273	8636
899.393	8708
899.513	8663
899.633	8724
899.753	8682
899.873	8644
899.993	8712
900.113	8712
900.232	8712
900.352	8663
900.472	8564
900.591	8499
900.711	8625
900.83	8568
900.95	8625
901.069	8674
901.189	8621
901.308	8358
901.427	8446
901.546	8423
901.665	8450
901.784	8530
901.904	8355
902.023	8294
902.141	8237
902.26	8225
902.379	8389
902.498	8275
902.617	8332
902.735	8290
902.854	8290
902.973	8225
903.091	8103
903.21	8130
903.328	8103
903.446	8168
903.565	8073
903.683	8065
903.801	8103
903.919	8043
904.038	8107
904.156	7982
904.274	8054
904.392	8020
904.51	8005
904.627	8012
904.745	8100
904.863	8107
904.981	7928
905.098	7879
905.216	7902
905.334	7841
905.451	7868
905.569	7849
905.686	7947
905.803	7811
905.921	7807
906.038	7951
906.155	7780
906.272	7742
906.389	7628
906.506	7677
906.623	7594
906.74	7639
906.857	7499
906.974	7609
907.091	7628
907.208	7719
907.324	7643
907.441	7506
907.557	7502
907.674	7438
907.79	7381
907.907	7362
908.023	7460
908.139	7411
908.256	7411
908.372	7301
908.488	7320
908.604	7324
908.72	7232
908.836	7270
908.952	7206
909.068	7232
909.184	7289
909.3	7240
909.415	7320
909.531	7305
909.647	7095
909.762	7145
909.878	7046
909.993	7099
910.108	7084
910.224	7072
910.339	7072
910.454	7069
910.57	6996
910.685	6981
910.8	7175
910.915	7091
911.03	7012
911.145	6897
911.259	6859
911.374	6875
911.489	6810
911.604	6787
911.718	6639
911.833	6772
911.947	6635
912.062	6612
912.176	6696
912.291	6776
912.405	6677
912.519	6825
912.633	6844
912.748	6726
912.862	6734
912.976	6612
913.09	6517
913.204	6574
913.318	6627
913.431	6669
913.545	6642
913.659	6688
913.772	6574
913.886	6517
914	6566
914.113	6566
914.226	6662
914.34	6585
914.453	6486
914.566	6582
914.68	6486
914.793	6506
914.906	6460
915.019	6376
915.132	6422
915.245	6429
915.358	6479
915.47	6410
915.583	6448
915.696	6437
915.809	6506
915.921	6498
916.034	6441
916.146	6369
916.259	6357
916.371	6456
916.483	6418
916.595	6308
916.708	6414
916.82	6365
916.932	6380
917.044	6388
917.156	6338
917.268	6292
917.38	6338
917.491	6285
917.603	6331
917.715	6285
917.826	6346
917.938	6327
918.049	6243
918.161	6361
918.272	6426
918.384	6441
918.495	6266
918.606	6281
918.717	6213
918.828	6243
918.939	6262
919.05	6167
919.161	6239
919.272	6125
919.383	6125
919.494	6266
919.604	6376
919.715	6296
919.826	6224
919.936	6247
920.047	6342
920.157	6315
920.267	6445
920.378	6350
920.488	6296
920.598	6426
920.708	6521
920.818	6429
920.928	6433
921.038	6551
921.148	6513
921.258	6380
921.368	6254
921.477	6209
921.587	6186
921.697	6155
921.806	6152
921.916	6072
922.025	5920
922.134	5923
922.244	5836
922.353	5863
922.462	5832
922.571	5798
922.68	5718
922.789	5680
922.898	5703
923.007	5596
923.116	5699
923.224	5710
923.333	5615
923.442	5554
923.55	5585
923.659	5570
923.767	5585
923.876	5547
923.984	5577
924.092	5512
924.201	5528
924.309	5528
924.417	5581
924.525	5448
924.633	5497
924.741	6254
924.849	5357
924.956	5490
925.064	5341
925.172	5326
925.279	5341
925.387	5357
925.494	5326
925.602	5436
925.709	5372
925.816	5258
925.924	5273
926.031	5387
926.138	5292
926.245	5318
926.352	5216
926.459	5296
926.566	5318
926.673	5227
926.779	5090
926.886	5132
926.993	5033
927.099	5037
927.206	4934
927.312	4953
927.419	5045
927.525	4968
927.631	5022
927.737	4858
927.843	4835
927.95	4755
928.056	4835
928.162	4824
928.267	4828
928.373	5204
928.479	4824
928.585	4649
928.69	4790
928.796	4733
928.901	4668
929.007	4634
929.112	4691
929.218	4611
929.323	4626
929.428	4554
929.533	4645
929.638	4531
929.743	4554
929.848	4573
929.953	4535
930.058	4470
930.163	4371
930.267	4314
930.372	4405
930.477	4249
930.581	4447
930.685	4341
930.79	4261
930.894	4234
930.998	4272
931.103	4363
931.207	4162
931.311	4078
931.415	4017
931.519	3922
931.623	3915
