Data from glass_V78500241_1181.txt Node
Date: Wed Sep 01 19:22:41 CST 2021
User: usil
Spectrometer: V785-0024
Trigger mode: 0
Integration Time (sec): 4.000000E-1
Scans to average: 1
Nonlinearity correction enabled: false
Boxcar width: 0
Storing dark spectrum: false
XAxis mode: Wavelengths
Number of Pixels in Spectrum: 1024
>>>>>Begin Spectral Data<<<<<
801.071	3774
801.214	3736
801.356	3732
801.499	3701
801.641	3770
801.783	3785
801.926	3880
802.068	3846
802.211	3842
802.353	3915
802.496	3827
802.638	3846
802.78	3903
802.923	3960
803.065	3896
803.208	3865
803.35	3869
803.492	3918
803.635	3903
803.777	3816
803.919	3903
804.061	4162
804.204	3956
804.346	3930
804.488	3918
804.63	4021
804.773	3975
804.915	4036
805.057	4162
805.199	4021
805.341	4078
805.483	4131
805.626	4120
805.768	4143
805.91	4185
806.052	4257
806.194	4227
806.336	4363
806.478	4253
806.62	4192
806.762	4230
806.904	4280
807.046	4318
807.188	4223
807.33	4223
807.472	4272
807.614	4166
807.756	4268
807.898	4200
808.04	4238
808.182	4299
808.324	4325
808.465	4363
808.607	4447
808.749	4478
808.891	4459
809.033	4500
809.174	4379
809.316	4249
809.458	4238
809.6	4139
809.741	4185
809.883	4150
810.025	4200
810.166	4238
810.308	4287
810.45	4253
810.591	4268
810.733	4291
810.875	4550
811.016	4797
811.158	5151
811.299	5261
811.441	5280
811.582	5037
811.724	4733
811.865	4512
812.007	4504
812.148	4447
812.29	4413
812.431	4451
812.573	4375
812.714	4398
812.855	4413
812.997	4424
813.138	4485
813.279	4443
813.421	4386
813.562	4341
813.703	4306
813.845	4352
813.986	4261
814.127	4261
814.268	4295
814.41	4295
814.551	4249
814.692	4356
814.833	4261
814.974	4295
815.115	4314
815.256	4261
815.397	4211
815.539	4287
815.68	4215
815.821	4238
815.962	4333
816.103	4276
816.244	4261
816.385	4272
816.526	4325
816.666	4188
816.807	4128
816.948	4188
817.089	4215
817.23	4105
817.371	4063
817.512	4051
817.653	4093
817.793	4032
817.934	4063
818.075	4093
818.216	4059
818.356	4139
818.497	3994
818.638	3865
818.778	3937
818.919	3949
819.06	3892
819.2	3956
819.341	3888
819.481	3888
819.622	3896
819.762	3998
819.903	3949
820.043	3907
820.184	3800
820.324	3835
820.465	3896
820.605	3892
820.746	3869
820.886	3819
821.026	3911
821.167	3934
821.307	4006
821.447	3937
821.588	3964
821.728	3987
821.868	3926
822.008	3816
822.149	3918
822.289	3918
822.429	3751
822.569	3789
822.709	3804
822.849	3728
822.99	3747
823.13	3774
823.27	3808
823.41	3701
823.55	3747
823.69	3751
823.83	3724
823.97	3694
824.11	3572
824.25	3625
824.389	3641
824.529	3717
824.669	3652
824.809	3705
824.949	3743
825.089	3720
825.228	3743
825.368	3599
825.508	3591
825.648	3622
825.787	3625
825.927	3610
826.067	3648
826.206	3690
826.346	3759
826.485	3808
826.625	3854
826.765	3960
826.904	3819
827.044	3595
827.183	3515
827.323	3393
827.462	3511
827.601	3447
827.741	3416
827.88	3481
828.02	3340
828.159	3405
828.298	3496
828.437	3530
828.577	3473
828.716	3572
828.855	3485
828.994	3386
829.134	3370
829.273	3393
829.412	3355
829.551	3344
829.69	3370
829.829	3424
829.968	3538
830.107	3462
830.246	3450
830.385	3409
830.524	3386
830.663	3306
830.802	3279
830.941	3207
831.08	3173
831.219	3241
831.357	3268
831.496	3420
831.635	3260
831.774	3192
831.913	3135
832.051	3157
832.19	3184
832.329	3184
832.467	3085
832.606	3123
832.744	3184
832.883	3161
833.022	3237
833.16	3211
833.299	3313
833.437	3348
833.576	3374
833.714	3397
833.852	3454
833.991	3462
834.129	3466
834.267	3412
834.406	3378
834.544	3447
834.682	3412
834.821	3447
834.959	3606
835.097	3435
835.235	3538
835.373	3466
835.511	3515
835.65	3462
835.788	3481
835.926	3431
836.064	3374
836.202	3397
836.34	3599
836.478	3625
836.615	3545
836.753	3603
836.891	3675
837.029	3591
837.167	3610
837.305	3561
837.443	3603
837.58	3485
837.718	3625
837.856	3564
837.993	3538
838.131	3606
838.269	3576
838.406	3629
838.544	3564
838.681	3462
838.819	3431
838.956	3378
839.094	3401
839.231	3428
839.369	3481
839.506	3732
839.643	3660
839.781	3549
839.918	3435
840.055	3545
840.193	3526
840.33	3523
840.467	3557
840.604	3603
840.742	3835
840.879	3557
841.016	3568
841.153	3614
841.29	3774
841.427	3720
841.564	3736
841.701	3736
841.838	3747
841.975	3663
842.112	3743
842.249	3660
842.385	3591
842.522	3873
842.659	3705
842.796	3682
842.933	3709
843.069	3755
843.206	3740
843.343	3812
843.479	3800
843.616	3850
843.752	3698
843.889	3675
844.025	3869
844.162	3728
844.298	3861
844.435	3819
844.571	3778
844.708	3899
844.844	3975
844.98	4029
845.117	4010
845.253	3964
845.389	3926
845.525	4006
845.661	3979
845.798	3937
845.934	4013
846.07	3956
846.206	4010
846.342	4120
846.478	4135
846.614	3960
846.75	3953
846.886	3903
847.022	4051
847.158	3991
847.294	3994
847.429	4021
847.565	4021
847.701	4261
847.837	3888
847.972	3896
848.108	4002
848.244	3930
848.379	3808
848.515	3808
848.65	3812
848.786	3850
848.921	3854
849.057	3964
849.192	3964
849.328	3926
849.463	3968
849.598	3880
849.734	3857
849.869	3812
850.004	3797
850.14	3781
850.275	3766
850.41	3755
850.545	3751
850.68	3812
850.815	3808
850.95	3812
851.085	3918
851.22	3873
851.355	3808
851.49	3793
851.625	3804
851.76	3797
851.895	3770
852.03	3709
852.165	3804
852.299	3819
852.434	3956
852.569	3861
852.703	3930
852.838	3934
852.973	4010
853.107	4002
853.242	3884
853.376	3884
853.511	3724
853.645	3800
853.78	4010
853.914	3907
854.048	3930
854.183	3918
854.317	3926
854.451	4128
854.585	3949
854.72	3960
854.854	4044
854.988	3915
855.122	3991
855.256	3899
855.39	4051
855.524	4154
855.658	4071
855.792	4074
855.926	4112
856.06	4166
856.194	4219
856.327	4112
856.461	4150
856.595	4173
856.729	4158
856.862	4287
856.996	4227
857.13	4295
857.263	4322
857.397	4367
857.53	4322
857.664	4367
857.797	4405
857.931	4390
858.064	4390
858.197	4474
858.331	4405
858.464	4409
858.597	4310
858.731	4462
858.864	4470
858.997	4481
859.13	4523
859.263	4592
859.396	4565
859.529	4512
859.662	4508
859.795	4538
859.928	4588
860.061	4694
860.194	4725
860.327	4698
860.46	4630
860.592	4759
860.725	4763
860.858	4755
860.99	4767
861.123	4706
861.256	4752
861.388	4752
861.521	5258
861.653	4679
861.786	4683
861.918	4729
862.05	4801
862.183	4816
862.315	4866
862.447	4904
862.58	4881
862.712	4782
862.844	4767
862.976	4896
863.108	4854
863.24	5208
863.372	4889
863.504	4919
863.636	4908
863.768	4946
863.9	4953
864.032	4904
864.164	4957
864.296	5045
864.428	5136
864.559	5075
864.691	5113
864.823	5121
864.954	5052
865.086	5121
865.217	5140
865.349	5060
865.48	5155
865.612	5204
865.743	5292
865.875	5220
866.006	5174
866.137	5189
866.269	5273
866.4	5269
866.531	5258
866.662	5235
866.793	5261
866.924	5315
867.055	5353
867.186	5376
867.317	5330
867.448	5345
867.579	5360
867.71	5395
867.841	5402
867.972	5501
868.103	5467
868.233	5512
868.364	5539
868.495	5566
868.625	5672
868.756	5786
868.886	5680
869.017	5695
869.147	5866
869.278	5851
869.408	5840
869.539	5798
869.669	5927
869.799	5923
869.929	6038
870.06	6015
870.19	6220
870.32	6171
870.45	6285
870.58	6311
870.71	6437
870.84	6479
870.97	6410
871.1	6506
871.23	6627
871.36	6711
871.489	6715
871.619	6749
871.749	6802
871.879	6875
872.008	7015
872.138	6951
872.267	7034
872.397	7004
872.526	7019
872.656	7141
872.785	7164
872.915	7377
873.044	7480
873.173	7567
873.303	7677
873.432	7693
873.561	7883
873.69	7917
873.819	7955
873.948	8130
874.077	8240
874.206	8336
874.335	8465
874.464	8659
874.593	8899
874.722	8979
874.851	9161
874.979	9294
875.108	9363
875.237	9336
875.365	9507
875.494	9633
875.623	9865
875.751	9785
875.88	9956
876.008	10109
876.136	10284
876.265	10554
876.393	10702
876.521	10736
876.65	10877
876.778	10862
876.906	10923
877.034	10927
877.162	11075
877.29	11159
877.418	11322
877.546	11444
877.674	11368
877.802	11493
877.93	11535
878.058	11532
878.185	11665
878.313	11642
878.441	11710
878.568	11661
878.696	11836
878.824	11889
878.951	11988
879.079	12026
879.206	12117
879.333	12114
879.461	12007
879.588	12091
879.715	12110
879.842	12277
879.97	12064
880.097	11889
880.224	11802
880.351	11916
880.478	11863
880.605	11836
880.732	11859
880.859	11996
880.986	11878
881.112	11840
881.239	11760
881.366	11737
881.493	11600
881.619	11520
881.746	11608
881.872	11562
881.999	11608
882.125	11474
882.252	11501
882.378	11570
882.505	11543
882.631	11376
882.757	11288
882.883	11372
883.01	11239
883.136	11216
883.262	11140
883.388	11121
883.514	11197
883.64	11239
883.766	11174
883.892	10972
884.018	10995
884.143	11067
884.269	11105
884.395	10889
884.52	10793
884.646	10885
884.772	10714
884.897	10645
885.023	10714
885.148	10721
885.274	10759
885.399	10736
885.524	10653
885.65	10626
885.775	10519
885.9	10641
886.025	10611
886.15	10558
886.275	10466
886.4	10394
886.525	10421
886.65	10356
886.775	10310
886.9	10451
887.025	10504
887.149	10390
887.274	10185
887.399	10204
887.523	10211
887.648	10253
887.773	10082
887.897	10265
888.021	10249
888.146	10059
888.27	10223
888.395	10272
888.519	10143
888.643	10124
888.767	10227
888.891	10147
889.015	9991
889.139	10135
889.263	10029
889.387	10135
889.511	10093
889.635	10090
889.759	9876
889.883	9964
890.006	10051
890.13	10048
890.254	9983
890.377	9956
890.501	9861
890.624	9880
890.748	9945
890.871	9808
890.995	9774
891.118	9656
891.241	9819
891.364	9800
891.488	9838
891.611	9762
891.734	9747
891.857	9766
891.98	9705
892.103	9732
892.226	9694
892.349	9686
892.471	9549
892.594	9580
892.717	9561
892.839	9553
892.962	9633
893.085	9686
893.207	9614
893.33	9485
893.452	9568
893.575	9625
893.697	9439
893.819	9625
893.941	9663
894.064	9568
894.186	9443
894.308	9450
894.43	9595
894.552	9584
894.674	9542
894.796	9279
894.918	9416
895.04	9370
895.161	9397
895.283	9386
895.405	9249
895.526	9287
895.648	9294
895.769	9249
895.891	9336
896.012	9313
896.134	9226
896.255	9165
896.376	9066
896.498	9195
896.619	9173
896.74	9081
896.861	9093
896.982	9283
897.103	9313
897.224	9104
897.345	9150
897.466	9017
897.587	9028
897.708	9077
897.828	9142
897.949	8982
898.07	8842
898.19	8880
898.311	9009
898.431	8830
898.552	8910
898.672	8971
898.792	8937
898.913	9017
899.033	8792
899.153	8777
899.273	8575
899.393	8731
899.513	8716
899.633	8746
899.753	8739
899.873	8674
899.993	8735
900.113	8758
900.232	8727
900.352	8640
900.472	8640
900.591	8564
900.711	8598
900.83	8621
900.95	8629
901.069	8739
901.189	8636
901.308	8465
901.427	8396
901.546	8442
901.665	8469
901.784	8488
901.904	8393
902.023	8328
902.141	8294
902.26	8191
902.379	8263
902.498	8183
902.617	8214
902.735	8336
902.854	8324
902.973	8195
903.091	8142
903.21	8130
903.328	8164
903.446	8100
903.565	8126
903.683	8084
903.801	8069
903.919	8123
904.038	8142
904.156	8046
904.274	8111
904.392	7982
904.51	8062
904.627	8027
904.745	8100
904.863	8096
904.981	7955
905.098	7841
905.216	7906
905.334	7902
905.451	7906
905.569	7921
905.686	7989
905.803	7947
905.921	7792
906.038	7913
906.155	7753
906.272	7727
906.389	7753
906.506	7639
906.623	7708
906.74	7639
906.857	7552
906.974	7662
907.091	7632
907.208	7681
907.324	7639
907.441	7609
907.557	7457
907.674	7419
907.79	7457
907.907	7396
908.023	7472
908.139	7514
908.256	7339
908.372	7392
908.488	7324
908.604	7270
908.72	7206
908.836	7270
908.952	7259
909.068	7289
909.184	7263
909.3	7251
909.415	7381
909.531	7324
909.647	7141
909.762	7149
909.878	7107
909.993	7164
910.108	7107
910.224	7114
910.339	7072
910.454	7095
910.57	6947
910.685	7015
910.8	7187
910.915	7179
911.03	7046
911.145	6833
911.259	6935
911.374	6897
911.489	6894
911.604	6825
911.718	6707
911.833	6711
911.947	6650
912.062	6665
912.176	6692
912.291	6726
912.405	6703
912.519	6837
912.633	6916
912.748	6779
912.862	6673
912.976	6631
913.09	6509
913.204	6559
913.318	6646
913.431	6654
913.545	6692
913.659	6745
913.772	6738
913.886	6582
914	6623
914.113	6646
914.226	6673
914.34	6623
914.453	6479
914.566	6658
914.68	6566
914.793	6536
914.906	6452
915.019	6429
915.132	6365
915.245	6445
915.358	6467
915.47	6445
915.583	6464
915.696	6479
915.809	6582
915.921	6506
916.034	6445
916.146	6410
916.259	6391
916.371	6479
916.483	6414
916.595	6384
916.708	6391
916.82	6445
916.932	6391
917.044	6414
917.156	6395
917.268	6270
917.38	6338
917.491	6407
917.603	6338
917.715	6399
917.826	6384
917.938	6300
918.049	6190
918.161	6357
918.272	6441
918.384	6410
918.495	6357
918.606	6304
918.717	6243
918.828	6254
918.939	6258
919.05	6247
919.161	6281
919.272	6125
919.383	6144
919.494	6296
919.604	6452
919.715	6289
919.826	6235
919.936	6285
920.047	6342
920.157	6266
920.267	6494
920.378	6342
920.488	6300
920.598	6486
920.708	6574
920.818	6494
920.928	6486
921.038	6563
921.148	6623
921.258	6353
921.368	6353
921.477	6232
921.587	6201
921.697	6114
921.806	6148
921.916	6091
922.025	5939
922.134	5935
922.244	5927
922.353	6007
922.462	5855
922.571	5824
922.68	5722
922.789	5688
922.898	5707
923.007	5684
923.116	5703
923.224	5691
923.333	5630
923.442	5585
923.55	5592
923.659	5608
923.767	5665
923.876	5589
923.984	5611
924.092	5501
924.201	5589
924.309	5543
924.417	5619
924.525	5421
924.633	5509
924.741	6334
924.849	5353
924.956	5471
925.064	5376
925.172	5311
925.279	5337
925.387	5364
925.494	5357
925.602	5395
925.709	5379
925.816	5311
925.924	5307
926.031	5349
926.138	5357
926.245	5364
926.352	5235
926.459	5372
926.566	5326
926.673	5208
926.779	5128
926.886	5178
926.993	5052
927.099	4972
927.206	5037
927.312	4949
927.419	5010
927.525	4984
927.631	5003
927.737	4938
927.843	4904
927.95	4801
928.056	4831
928.162	4805
928.267	4850
928.373	5395
928.479	4809
928.585	4714
928.69	4816
928.796	4767
928.901	4683
929.007	4588
929.112	4721
929.218	4645
929.323	4588
929.428	4588
929.533	4687
929.638	4523
929.743	4516
929.848	4580
929.953	4538
930.058	4462
930.163	4337
930.267	4348
930.372	4443
930.477	4265
930.581	4516
930.685	4352
930.79	4257
930.894	4257
930.998	4265
931.103	4379
931.207	4147
931.311	4078
931.415	4078
931.519	3892
931.623	3983
