Data from glass_V78500241_2713.txt Node
Date: Wed Sep 01 19:33:18 CST 2021
User: usil
Spectrometer: V785-0024
Trigger mode: 0
Integration Time (sec): 4.000000E-1
Scans to average: 1
Nonlinearity correction enabled: false
Boxcar width: 0
Storing dark spectrum: false
XAxis mode: Wavelengths
Number of Pixels in Spectrum: 1024
>>>>>Begin Spectral Data<<<<<
801.071	3732
801.214	3720
801.356	3705
801.499	3717
801.641	3732
801.783	3732
801.926	3888
802.068	3812
802.211	3838
802.353	3937
802.496	3823
802.638	3945
802.78	3899
802.923	3903
803.065	3873
803.208	3861
803.35	3861
803.492	3880
803.635	3888
803.777	3785
803.919	3857
804.061	4139
804.204	3945
804.346	3964
804.488	3926
804.63	4051
804.773	3953
804.915	3987
805.057	4158
805.199	4021
805.341	4131
805.483	4116
805.626	4101
805.768	4131
805.91	4154
806.052	4196
806.194	4200
806.336	4295
806.478	4166
806.62	4185
806.762	4188
806.904	4215
807.046	4356
807.188	4158
807.33	4173
807.472	4204
807.614	4181
807.756	4249
807.898	4169
808.04	4211
808.182	4284
808.324	4261
808.465	4322
808.607	4459
808.749	4405
808.891	4451
809.033	4504
809.174	4386
809.316	4204
809.458	4181
809.6	4154
809.741	4071
809.883	4112
810.025	4192
810.166	4234
810.308	4192
810.45	4211
810.591	4219
810.733	4268
810.875	4417
811.016	4847
811.158	5094
811.299	5223
811.441	5250
811.582	5056
811.724	4683
811.865	4432
812.007	4440
812.148	4432
812.29	4375
812.431	4417
812.573	4409
812.714	4360
812.855	4383
812.997	4417
813.138	4462
813.279	4390
813.421	4413
813.562	4363
813.703	4291
813.845	4295
813.986	4280
814.127	4215
814.268	4268
814.41	4268
814.551	4268
814.692	4306
814.833	4272
814.974	4303
815.115	4318
815.256	4257
815.397	4207
815.539	4265
815.68	4192
815.821	4200
815.962	4337
816.103	4276
816.244	4257
816.385	4215
816.526	4268
816.666	4166
816.807	4051
816.948	4147
817.089	4162
817.23	4131
817.371	4063
817.512	4021
817.653	4029
817.793	4017
817.934	3994
818.075	4120
818.216	4055
818.356	4071
818.497	3975
818.638	3926
818.778	3899
818.919	3861
819.06	3850
819.2	3911
819.341	3861
819.481	3812
819.622	3857
819.762	4032
819.903	3949
820.043	3880
820.184	3804
820.324	3797
820.465	3876
820.605	3869
820.746	3831
820.886	3762
821.026	3911
821.167	3964
821.307	3934
821.447	3972
821.588	3922
821.728	3934
821.868	3937
822.008	3823
822.149	3911
822.289	3911
822.429	3774
822.569	3781
822.709	3800
822.849	3641
822.99	3732
823.13	3713
823.27	3751
823.41	3709
823.55	3740
823.69	3728
823.83	3724
823.97	3648
824.11	3606
824.25	3572
824.389	3622
824.529	3629
824.669	3572
824.809	3675
824.949	3720
825.089	3724
825.228	3682
825.368	3587
825.508	3591
825.648	3557
825.787	3584
825.927	3641
826.067	3644
826.206	3637
826.346	3793
826.485	3846
826.625	3835
826.765	3918
826.904	3819
827.044	3629
827.183	3507
827.323	3450
827.462	3481
827.601	3382
827.741	3386
827.88	3420
828.02	3355
828.159	3431
828.298	3488
828.437	3507
828.577	3496
828.716	3580
828.855	3485
828.994	3355
829.134	3389
829.273	3397
829.412	3294
829.551	3329
829.69	3363
829.829	3435
829.968	3496
830.107	3439
830.246	3431
830.385	3393
830.524	3359
830.663	3268
830.802	3230
830.941	3169
831.08	3203
831.219	3256
831.357	3260
831.496	3401
831.635	3207
831.774	3176
831.913	3237
832.051	3100
832.19	3116
832.329	3176
832.467	3165
832.606	3108
832.744	3173
832.883	3180
833.022	3176
833.16	3279
833.299	3260
833.437	3298
833.576	3367
833.714	3389
833.852	3409
833.991	3397
834.129	3466
834.267	3412
834.406	3405
834.544	3416
834.682	3416
834.821	3405
834.959	3534
835.097	3389
835.235	3462
835.373	3485
835.511	3477
835.65	3431
835.788	3447
835.926	3382
836.064	3382
836.202	3409
836.34	3534
836.478	3561
836.615	3519
836.753	3572
836.891	3618
837.029	3591
837.167	3591
837.305	3599
837.443	3530
837.58	3534
837.718	3545
837.856	3580
837.993	3507
838.131	3599
838.269	3564
838.406	3561
838.544	3526
838.681	3488
838.819	3424
838.956	3348
839.094	3393
839.231	3458
839.369	3462
839.506	3698
839.643	3599
839.781	3481
839.918	3431
840.055	3511
840.193	3492
840.33	3526
840.467	3530
840.604	3595
840.742	3785
840.879	3542
841.016	3557
841.153	3591
841.29	3717
841.427	3686
841.564	3717
841.701	3751
841.838	3686
841.975	3675
842.112	3671
842.249	3690
842.385	3644
842.522	3838
842.659	3671
842.796	3652
842.933	3675
843.069	3717
843.206	3679
843.343	3789
843.479	3740
843.616	3831
843.752	3671
843.889	3675
844.025	3846
844.162	3743
844.298	3835
844.435	3770
844.571	3759
844.708	3846
844.844	3922
844.98	3998
845.117	4013
845.253	3915
845.389	3873
845.525	3934
845.661	3956
845.798	3899
845.934	3991
846.07	3922
846.206	4036
846.342	4078
846.478	4025
846.614	3972
846.75	3861
846.886	3911
847.022	4036
847.158	3945
847.294	4002
847.429	4036
847.565	3987
847.701	4265
847.837	3884
847.972	3846
848.108	3960
848.244	4006
848.379	3819
848.515	3789
848.65	3785
848.786	3804
848.921	3797
849.057	3911
849.192	3926
849.328	3842
849.463	3915
849.598	3896
849.734	3873
849.869	3804
850.004	3789
850.14	3846
850.275	3736
850.41	3720
850.545	3728
850.68	3755
850.815	3793
850.95	3743
851.085	3922
851.22	3884
851.355	3831
851.49	3774
851.625	3812
851.76	3797
851.895	3720
852.03	3701
852.165	3789
852.299	3831
852.434	3899
852.569	3835
852.703	3846
852.838	3941
852.973	4025
853.107	4006
853.242	3842
853.376	3823
853.511	3724
853.645	3812
853.78	3949
853.914	3899
854.048	3876
854.183	3892
854.317	3953
854.451	4063
854.585	3972
854.72	3953
854.854	4032
854.988	3899
855.122	4002
855.256	3941
855.39	4013
855.524	4139
855.658	4090
855.792	4055
855.926	4135
856.06	4109
856.194	4211
856.327	4150
856.461	4112
856.595	4128
856.729	4147
856.862	4230
856.996	4265
857.13	4287
857.263	4268
857.397	4306
857.53	4268
857.664	4360
857.797	4398
857.931	4402
858.064	4398
858.197	4466
858.331	4341
858.464	4337
858.597	4371
858.731	4424
858.864	4470
858.997	4478
859.13	4489
859.263	4523
859.396	4580
859.529	4485
859.662	4512
859.795	4470
859.928	4561
860.061	4698
860.194	4771
860.327	4653
860.46	4634
860.592	4748
860.725	4736
860.858	4740
860.99	4698
861.123	4656
861.256	4675
861.388	4733
861.521	5315
861.653	4748
861.786	4691
861.918	4691
862.05	4736
862.183	4839
862.315	4854
862.447	4873
862.58	4854
862.712	4763
862.844	4774
862.976	4873
863.108	4873
863.24	5227
863.372	4771
863.504	4927
863.636	4881
863.768	4968
863.9	4949
864.032	4934
864.164	4976
864.296	4991
864.428	5052
864.559	5064
864.691	5113
864.823	5174
864.954	5117
865.086	5117
865.217	5105
865.349	5075
865.48	5147
865.612	5178
865.743	5204
865.875	5197
866.006	5193
866.137	5220
866.269	5254
866.4	5223
866.531	5227
866.662	5170
866.793	5197
866.924	5284
867.055	5311
867.186	5360
867.317	5322
867.448	5265
867.579	5311
867.71	5334
867.841	5383
867.972	5436
868.103	5463
868.233	5452
868.364	5528
868.495	5528
868.625	5699
868.756	5775
868.886	5653
869.017	5729
869.147	5786
869.278	5847
869.408	5824
869.539	5794
869.669	5885
869.799	5885
869.929	5996
870.06	5988
870.19	6201
870.32	6171
870.45	6292
870.58	6281
870.71	6410
870.84	6490
870.97	6384
871.1	6407
871.23	6597
871.36	6673
871.489	6620
871.619	6703
871.749	6856
871.879	6852
872.008	7000
872.138	6947
872.267	7061
872.397	6958
872.526	7084
872.656	7141
872.785	7168
872.915	7365
873.044	7464
873.173	7540
873.303	7636
873.432	7753
873.561	7868
873.69	7928
873.819	8039
873.948	8157
874.077	8267
874.206	8252
874.335	8434
874.464	8598
874.593	8823
874.722	8895
874.851	9055
874.979	9192
875.108	9386
875.237	9439
875.365	9492
875.494	9606
875.623	9785
875.751	9808
875.88	9972
876.008	10131
876.136	10242
876.265	10500
876.393	10721
876.521	10733
876.65	10839
876.778	10850
876.906	10919
877.034	10972
877.162	11052
877.29	11216
877.418	11307
877.546	11444
877.674	11417
877.802	11474
877.93	11596
878.058	11570
878.185	11589
878.313	11615
878.441	11642
878.568	11691
878.696	11840
878.824	11866
878.951	11843
879.079	12038
879.206	12140
879.333	12041
879.461	12011
879.588	12053
879.715	12129
879.842	12178
879.97	12114
880.097	11878
880.224	11855
880.351	11916
880.478	11920
880.605	11851
880.732	11745
880.859	11977
880.986	11783
881.112	11767
881.239	11714
881.366	11688
881.493	11653
881.619	11543
881.746	11611
881.872	11551
881.999	11490
882.125	11459
882.252	11592
882.378	11528
882.505	11570
882.631	11341
882.757	11322
882.883	11303
883.01	11265
883.136	11143
883.262	11109
883.388	11079
883.514	11136
883.64	11128
883.766	11098
883.892	10946
884.018	11014
884.143	11105
884.269	11064
884.395	10805
884.52	10801
884.646	10664
884.772	10679
884.897	10645
885.023	10664
885.148	10797
885.274	10790
885.399	10729
885.524	10626
885.65	10611
885.775	10561
885.9	10531
886.025	10569
886.15	10493
886.275	10470
886.4	10367
886.525	10382
886.65	10432
886.775	10322
886.9	10462
887.025	10481
887.149	10306
887.274	10242
887.399	10177
887.523	10227
887.648	10150
887.773	10090
887.897	10280
888.021	10227
888.146	10185
888.27	10196
888.395	10181
888.519	10185
888.643	10207
888.767	10120
888.891	10139
889.015	9968
889.139	10021
889.263	9953
889.387	10067
889.511	10067
889.635	10025
889.759	9972
889.883	9964
890.006	10032
890.13	10036
890.254	9949
890.377	9937
890.501	9857
890.624	9880
890.748	9869
890.871	9755
890.995	9663
891.118	9804
891.241	9770
891.364	9709
891.488	9747
891.611	9705
891.734	9793
891.857	9736
891.98	9751
892.103	9728
892.226	9709
892.349	9675
892.471	9568
892.594	9622
892.717	9633
892.839	9545
892.962	9572
893.085	9686
893.207	9564
893.33	9492
893.452	9534
893.575	9557
893.697	9500
893.819	9614
893.941	9614
894.064	9576
894.186	9382
894.308	9348
894.43	9507
894.552	9603
894.674	9511
894.796	9340
894.918	9397
895.04	9351
895.161	9336
895.283	9363
895.405	9192
895.526	9230
895.648	9253
895.769	9249
895.891	9226
896.012	9279
896.134	9253
896.255	9207
896.376	9146
896.498	9135
896.619	9108
896.74	9104
896.861	9070
896.982	9249
897.103	9199
897.224	9138
897.345	9077
897.466	9055
897.587	9009
897.708	9093
897.828	9036
897.949	8933
898.07	8842
898.19	8910
898.311	8948
898.431	8891
898.552	8941
898.672	8918
898.792	8838
898.913	8838
899.033	8750
899.153	8708
899.273	8724
899.393	8705
899.513	8727
899.633	8716
899.753	8701
899.873	8644
899.993	8777
900.113	8644
900.232	8705
900.352	8697
900.472	8594
900.591	8533
900.711	8526
900.83	8587
900.95	8651
901.069	8674
901.189	8511
901.308	8461
901.427	8408
901.546	8366
901.665	8457
901.784	8484
901.904	8355
902.023	8294
902.141	8237
902.26	8153
902.379	8221
902.498	8202
902.617	8229
902.735	8320
902.854	8240
902.973	8263
903.091	8081
903.21	8149
903.328	8214
903.446	8126
903.565	8065
903.683	8020
903.801	8069
903.919	8130
904.038	8077
904.156	8081
904.274	8081
904.392	8035
904.51	7970
904.627	8050
904.745	8134
904.863	8077
904.981	7947
905.098	7868
905.216	7917
905.334	7913
905.451	7947
905.569	7894
905.686	7955
905.803	7906
905.921	7757
906.038	7833
906.155	7734
906.272	7704
906.389	7685
906.506	7632
906.623	7693
906.74	7613
906.857	7556
906.974	7556
907.091	7712
907.208	7594
907.324	7632
907.441	7540
907.557	7468
907.674	7381
907.79	7358
907.907	7377
908.023	7441
908.139	7362
908.256	7388
908.372	7373
908.488	7381
908.604	7263
908.72	7251
908.836	7213
908.952	7225
909.068	7217
909.184	7324
909.3	7244
909.415	7274
909.531	7278
909.647	7069
909.762	7118
909.878	7076
909.993	7099
910.108	7027
910.224	7084
910.339	7088
910.454	7053
910.57	6958
910.685	6977
910.8	7194
910.915	7069
911.03	6993
911.145	6954
911.259	6844
911.374	6894
911.489	6795
911.604	6821
911.718	6707
911.833	6806
911.947	6601
912.062	6639
912.176	6635
912.291	6707
912.405	6719
912.519	6802
912.633	6833
912.748	6715
912.862	6696
912.976	6604
913.09	6540
913.204	6589
913.318	6574
913.431	6597
913.545	6642
913.659	6696
913.772	6673
913.886	6555
914	6566
914.113	6650
914.226	6578
914.34	6635
914.453	6471
914.566	6639
914.68	6490
914.793	6475
914.906	6422
915.019	6376
915.132	6342
915.245	6429
915.358	6410
915.47	6448
915.583	6433
915.696	6490
915.809	6509
915.921	6536
916.034	6426
916.146	6433
916.259	6369
916.371	6445
916.483	6422
916.595	6342
916.708	6384
916.82	6353
916.932	6361
917.044	6376
917.156	6388
917.268	6346
917.38	6308
917.491	6315
917.603	6327
917.715	6357
917.826	6380
917.938	6323
918.049	6190
918.161	6304
918.272	6403
918.384	6410
918.495	6308
918.606	6209
918.717	6178
918.828	6277
918.939	6232
919.05	6220
919.161	6239
919.272	6083
919.383	6155
919.494	6331
919.604	6410
919.715	6167
919.826	6251
919.936	6266
920.047	6338
920.157	6300
920.267	6506
920.378	6346
920.488	6273
920.598	6475
920.708	6521
920.818	6445
920.928	6464
921.038	6620
921.148	6555
921.258	6308
921.368	6296
921.477	6228
921.587	6178
921.697	6015
921.806	6155
921.916	6053
922.025	5885
922.134	5874
922.244	5882
922.353	5942
922.462	5805
922.571	5748
922.68	5649
922.789	5676
922.898	5665
923.007	5646
923.116	5695
923.224	5668
923.333	5638
923.442	5600
923.55	5570
923.659	5573
923.767	5623
923.876	5512
923.984	5604
924.092	5528
924.201	5516
924.309	5505
924.417	5505
924.525	5532
924.633	5493
924.741	6247
924.849	5360
924.956	5463
925.064	5372
925.172	5303
925.279	5315
925.387	5341
925.494	5296
925.602	5391
925.709	5395
925.816	5277
925.924	5227
926.031	5292
926.138	5288
926.245	5311
926.352	5181
926.459	5280
926.566	5318
926.673	5227
926.779	5140
926.886	5045
926.993	4984
927.099	4984
927.206	4995
927.312	4946
927.419	5006
927.525	4980
927.631	4976
927.737	4908
927.843	4858
927.95	4786
928.056	4797
928.162	4778
928.267	4824
928.373	5315
928.479	4858
928.585	4641
928.69	4767
928.796	4763
928.901	4660
929.007	4565
929.112	4698
929.218	4664
929.323	4607
929.428	4527
929.533	4679
929.638	4531
929.743	4535
929.848	4546
929.953	4466
930.058	4421
930.163	4356
930.267	4341
930.372	4424
930.477	4325
930.581	4428
930.685	4375
930.79	4257
930.894	4268
930.998	4257
931.103	4337
931.207	4074
931.311	4063
931.415	4010
931.519	3915
931.623	3945
