Data from glass_V78500241_2087.txt Node
Date: Wed Sep 01 19:28:58 CST 2021
User: usil
Spectrometer: V785-0024
Trigger mode: 0
Integration Time (sec): 4.000000E-1
Scans to average: 1
Nonlinearity correction enabled: false
Boxcar width: 0
Storing dark spectrum: false
XAxis mode: Wavelengths
Number of Pixels in Spectrum: 1024
>>>>>Begin Spectral Data<<<<<
801.071	3747
801.214	3759
801.356	3690
801.499	3709
801.641	3740
801.783	3778
801.926	3861
802.068	3800
802.211	3861
802.353	3884
802.496	3827
802.638	3846
802.78	3876
802.923	3896
803.065	3876
803.208	3838
803.35	3869
803.492	3884
803.635	3918
803.777	3804
803.919	3899
804.061	4143
804.204	3941
804.346	3949
804.488	3949
804.63	4036
804.773	3960
804.915	4021
805.057	4173
805.199	4017
805.341	4071
805.483	4055
805.626	4105
805.768	4101
805.91	4219
806.052	4230
806.194	4196
806.336	4356
806.478	4192
806.62	4169
806.762	4207
806.904	4287
807.046	4371
807.188	4192
807.33	4219
807.472	4207
807.614	4154
807.756	4265
807.898	4192
808.04	4162
808.182	4276
808.324	4299
808.465	4375
808.607	4455
808.749	4405
808.891	4417
809.033	4481
809.174	4417
809.316	4234
809.458	4219
809.6	4131
809.741	4147
809.883	4139
810.025	4223
810.166	4207
810.308	4207
810.45	4276
810.591	4207
810.733	4257
810.875	4519
811.016	4835
811.158	5136
811.299	5288
811.441	5318
811.582	5075
811.724	4672
811.865	4459
812.007	4443
812.148	4485
812.29	4421
812.431	4386
812.573	4367
812.714	4383
812.855	4402
812.997	4432
813.138	4421
813.279	4405
813.421	4379
813.562	4333
813.703	4299
813.845	4341
813.986	4234
814.127	4188
814.268	4223
814.41	4265
814.551	4249
814.692	4310
814.833	4253
814.974	4314
815.115	4303
815.256	4230
815.397	4192
815.539	4223
815.68	4188
815.821	4230
815.962	4325
816.103	4261
816.244	4265
816.385	4246
816.526	4249
816.666	4131
816.807	4093
816.948	4192
817.089	4181
817.23	4078
817.371	4025
817.512	4051
817.653	4067
817.793	4040
817.934	4010
818.075	4093
818.216	4124
818.356	4067
818.497	3972
818.638	3930
818.778	3915
818.919	3918
819.06	3907
819.2	3892
819.341	3831
819.481	3846
819.622	3892
819.762	4025
819.903	3960
820.043	3819
820.184	3819
820.324	3865
820.465	3896
820.605	3850
820.746	3800
820.886	3797
821.026	3922
821.167	3926
821.307	3975
821.447	4002
821.588	3918
821.728	3953
821.868	3968
822.008	3831
822.149	3934
822.289	3903
822.429	3812
822.569	3743
822.709	3793
822.849	3694
822.99	3720
823.13	3751
823.27	3755
823.41	3682
823.55	3698
823.69	3701
823.83	3686
823.97	3667
824.11	3606
824.25	3599
824.389	3629
824.529	3652
824.669	3644
824.809	3709
824.949	3740
825.089	3740
825.228	3709
825.368	3549
825.508	3545
825.648	3561
825.787	3603
825.927	3652
826.067	3584
826.206	3580
826.346	3800
826.485	3797
826.625	3838
826.765	3972
826.904	3797
827.044	3614
827.183	3530
827.323	3424
827.462	3454
827.601	3435
827.741	3450
827.88	3424
828.02	3359
828.159	3439
828.298	3435
828.437	3477
828.577	3431
828.716	3614
828.855	3530
828.994	3317
829.134	3351
829.273	3359
829.412	3351
829.551	3313
829.69	3370
829.829	3409
829.968	3538
830.107	3389
830.246	3386
830.385	3389
830.524	3317
830.663	3336
830.802	3245
830.941	3207
831.08	3199
831.219	3245
831.357	3298
831.496	3378
831.635	3253
831.774	3203
831.913	3192
832.051	3108
832.19	3135
832.329	3195
832.467	3131
832.606	3100
832.744	3169
832.883	3169
833.022	3173
833.16	3230
833.299	3294
833.437	3363
833.576	3382
833.714	3382
833.852	3485
833.991	3428
834.129	3454
834.267	3431
834.406	3359
834.544	3412
834.682	3424
834.821	3416
834.959	3534
835.097	3405
835.235	3466
835.373	3523
835.511	3450
835.65	3477
835.788	3523
835.926	3420
836.064	3359
836.202	3401
836.34	3549
836.478	3622
836.615	3561
836.753	3580
836.891	3622
837.029	3633
837.167	3549
837.305	3530
837.443	3538
837.58	3477
837.718	3572
837.856	3542
837.993	3542
838.131	3576
838.269	3576
838.406	3580
838.544	3557
838.681	3462
838.819	3435
838.956	3382
839.094	3397
839.231	3439
839.369	3530
839.506	3709
839.643	3618
839.781	3511
839.918	3492
840.055	3507
840.193	3500
840.33	3515
840.467	3507
840.604	3606
840.742	3816
840.879	3538
841.016	3576
841.153	3549
841.29	3751
841.427	3698
841.564	3701
841.701	3770
841.838	3686
841.975	3686
842.112	3762
842.249	3641
842.385	3614
842.522	3842
842.659	3682
842.796	3686
842.933	3652
843.069	3694
843.206	3694
843.343	3846
843.479	3808
843.616	3797
843.752	3679
843.889	3686
844.025	3816
844.162	3682
844.298	3827
844.435	3759
844.571	3759
844.708	3926
844.844	3979
844.98	3975
845.117	4010
845.253	3926
845.389	3918
845.525	4002
845.661	3983
845.798	3896
845.934	3964
846.07	3964
846.206	4040
846.342	4124
846.478	4063
846.614	3941
846.75	3941
846.886	3857
847.022	4051
847.158	3960
847.294	3991
847.429	4006
847.565	3979
847.701	4181
847.837	3869
847.972	3873
848.108	3975
848.244	3926
848.379	3831
848.515	3793
848.65	3781
848.786	3842
848.921	3827
849.057	3922
849.192	3918
849.328	3907
849.463	3911
849.598	3884
849.734	3854
849.869	3861
850.004	3762
850.14	3819
850.275	3774
850.41	3755
850.545	3755
850.68	3751
850.815	3770
850.95	3819
851.085	3956
851.22	3869
851.355	3835
851.49	3755
851.625	3778
851.76	3774
851.895	3732
852.03	3698
852.165	3781
852.299	3838
852.434	3915
852.569	3865
852.703	3903
852.838	3884
852.973	4021
853.107	3964
853.242	3876
853.376	3846
853.511	3713
853.645	3838
853.78	3949
853.914	3922
854.048	3880
854.183	3888
854.317	3975
854.451	4063
854.585	3934
854.72	3926
854.854	4013
854.988	3937
855.122	3979
855.256	3918
855.39	4021
855.524	4082
855.658	4093
855.792	4082
855.926	4154
856.06	4150
856.194	4181
856.327	4086
856.461	4131
856.595	4162
856.729	4154
856.862	4310
856.996	4261
857.13	4291
857.263	4291
857.397	4352
857.53	4268
857.664	4367
857.797	4417
857.931	4390
858.064	4421
858.197	4440
858.331	4402
858.464	4379
858.597	4390
858.731	4413
858.864	4504
858.997	4440
859.13	4504
859.263	4527
859.396	4592
859.529	4489
859.662	4599
859.795	4500
859.928	4596
860.061	4649
860.194	4740
860.327	4637
860.46	4645
860.592	4729
860.725	4729
860.858	4736
860.99	4698
861.123	4714
861.256	4656
861.388	4801
861.521	5539
861.653	4683
861.786	4683
861.918	4694
862.05	4847
862.183	4843
862.315	4930
862.447	4919
862.58	4850
862.712	4782
862.844	4752
862.976	4908
863.108	4847
863.24	5159
863.372	4812
863.504	4911
863.636	4896
863.768	5006
863.9	4930
864.032	4923
864.164	4923
864.296	4991
864.428	5052
864.559	5098
864.691	5060
864.823	5075
864.954	5102
865.086	5147
865.217	5124
865.349	5117
865.48	5117
865.612	5143
865.743	5307
865.875	5159
866.006	5204
866.137	5193
866.269	5265
866.4	5261
866.531	5212
866.662	5220
866.793	5227
866.924	5269
867.055	5299
867.186	5296
867.317	5345
867.448	5337
867.579	5330
867.71	5341
867.841	5372
867.972	5425
868.103	5505
868.233	5482
868.364	5539
868.495	5570
868.625	5604
868.756	5733
868.886	5707
869.017	5722
869.147	5832
869.278	5878
869.408	5832
869.539	5832
869.669	5935
869.799	5904
869.929	5973
870.06	6034
870.19	6201
870.32	6155
870.45	6289
870.58	6315
870.71	6410
870.84	6445
870.97	6376
871.1	6456
871.23	6631
871.36	6741
871.489	6601
871.619	6726
871.749	6814
871.879	6852
872.008	6962
872.138	6993
872.267	6981
872.397	7008
872.526	7000
872.656	7065
872.785	7156
872.915	7384
873.044	7548
873.173	7552
873.303	7609
873.432	7742
873.561	7883
873.69	7909
873.819	7974
873.948	8145
874.077	8279
874.206	8317
874.335	8400
874.464	8678
874.593	8815
874.722	8994
874.851	9161
874.979	9249
875.108	9329
875.237	9424
875.365	9458
875.494	9679
875.623	9823
875.751	9850
875.88	9983
876.008	10051
876.136	10265
876.265	10428
876.393	10698
876.521	10653
876.65	10790
876.778	10930
876.906	10942
877.034	11025
877.162	11048
877.29	11178
877.418	11299
877.546	11376
877.674	11471
877.802	11573
877.93	11463
878.058	11509
878.185	11562
878.313	11619
878.441	11665
878.568	11680
878.696	11794
878.824	11912
878.951	11920
879.079	12049
879.206	12163
879.333	12106
879.461	11954
879.588	12129
879.715	11999
879.842	12228
879.97	12041
880.097	11855
880.224	11874
880.351	11855
880.478	11992
880.605	11863
880.732	11859
880.859	11977
880.986	11794
881.112	11805
881.239	11779
881.366	11596
881.493	11592
881.619	11596
881.746	11665
881.872	11471
881.999	11493
882.125	11436
882.252	11486
882.378	11497
882.505	11566
882.631	11429
882.757	11288
882.883	11315
883.01	11288
883.136	11185
883.262	11143
883.388	11041
883.514	11235
883.64	11109
883.766	11067
883.892	11022
884.018	10991
884.143	11056
884.269	11071
884.395	10831
884.52	10706
884.646	10736
884.772	10714
884.897	10668
885.023	10653
885.148	10759
885.274	10725
885.399	10599
885.524	10622
885.65	10558
885.775	10577
885.9	10596
886.025	10577
886.15	10546
886.275	10542
886.4	10329
886.525	10348
886.65	10352
886.775	10287
886.9	10455
887.025	10535
887.149	10303
887.274	10230
887.399	10185
887.523	10105
887.648	10135
887.773	10097
887.897	10303
888.021	10284
888.146	10078
888.27	10131
888.395	10207
888.519	10131
888.643	10177
888.767	10120
888.891	10082
889.015	9964
889.139	10082
889.263	9972
889.387	10071
889.511	10131
889.635	9994
889.759	9975
889.883	9968
890.006	10017
890.13	10101
890.254	9941
890.377	9960
890.501	9888
890.624	9846
890.748	9926
890.871	9774
890.995	9679
891.118	9679
891.241	9732
891.364	9793
891.488	9740
891.611	9732
891.734	9778
891.857	9690
891.98	9709
892.103	9717
892.226	9720
892.349	9618
892.471	9564
892.594	9561
892.717	9606
892.839	9545
892.962	9561
893.085	9618
893.207	9534
893.33	9538
893.452	9450
893.575	9606
893.697	9477
893.819	9557
893.941	9656
894.064	9507
894.186	9416
894.308	9367
894.43	9504
894.552	9584
894.674	9466
894.796	9420
894.918	9439
895.04	9367
895.161	9401
895.283	9306
895.405	9192
895.526	9199
895.648	9264
895.769	9211
895.891	9192
896.012	9260
896.134	9195
896.255	9100
896.376	9089
896.498	9074
896.619	9112
896.74	9047
896.861	9154
896.982	9211
897.103	9298
897.224	9142
897.345	9127
897.466	8941
897.587	9077
897.708	9077
897.828	9055
897.949	8956
898.07	8883
898.19	8849
898.311	9028
898.431	8861
898.552	8971
898.672	9009
898.792	8921
898.913	8864
899.033	8838
899.153	8811
899.273	8606
899.393	8670
899.513	8762
899.633	8720
899.753	8773
899.873	8724
899.993	8769
900.113	8712
900.232	8701
900.352	8632
900.472	8602
900.591	8617
900.711	8598
900.83	8549
900.95	8731
901.069	8651
901.189	8579
901.308	8412
901.427	8446
901.546	8484
901.665	8446
901.784	8473
901.904	8427
902.023	8336
902.141	8157
902.26	8229
902.379	8225
902.498	8164
902.617	8161
902.735	8393
902.854	8263
902.973	8233
903.091	8100
903.21	8123
903.328	8138
903.446	8115
903.565	8073
903.683	8126
903.801	7997
903.919	8084
904.038	8062
904.156	8016
904.274	8046
904.392	7982
904.51	8027
904.627	8065
904.745	8073
904.863	8092
904.981	7986
905.098	7860
905.216	7906
905.334	7902
905.451	7917
905.569	7852
905.686	7902
905.803	7898
905.921	7814
906.038	7833
906.155	7765
906.272	7723
906.389	7750
906.506	7556
906.623	7632
906.74	7544
906.857	7525
906.974	7559
907.091	7704
907.208	7753
907.324	7681
907.441	7529
907.557	7388
907.674	7457
907.79	7438
907.907	7365
908.023	7407
908.139	7377
908.256	7358
908.372	7350
908.488	7270
908.604	7266
908.72	7251
908.836	7247
908.952	7206
909.068	7209
909.184	7274
909.3	7247
909.415	7263
909.531	7274
909.647	7152
909.762	7080
909.878	7072
909.993	7122
910.108	7156
910.224	7042
910.339	7091
910.454	7034
910.57	6989
910.685	6867
910.8	7190
910.915	7072
911.03	6996
911.145	6894
911.259	6859
911.374	6882
911.489	6859
911.604	6806
911.718	6753
911.833	6749
911.947	6650
912.062	6623
912.176	6646
912.291	6719
912.405	6726
912.519	6821
912.633	6829
912.748	6741
912.862	6665
912.976	6597
913.09	6536
913.204	6597
913.318	6578
913.431	6627
913.545	6673
913.659	6707
913.772	6612
913.886	6566
914	6582
914.113	6631
914.226	6593
914.34	6620
914.453	6429
914.566	6616
914.68	6551
914.793	6509
914.906	6346
915.019	6464
915.132	6372
915.245	6391
915.358	6441
915.47	6399
915.583	6471
915.696	6448
915.809	6437
915.921	6559
916.034	6418
916.146	6403
916.259	6407
916.371	6513
916.483	6445
916.595	6433
916.708	6414
916.82	6350
916.932	6350
917.044	6429
917.156	6391
917.268	6342
917.38	6357
917.491	6346
917.603	6304
917.715	6388
917.826	6365
917.938	6342
918.049	6243
918.161	6334
918.272	6429
918.384	6433
918.495	6372
918.606	6194
918.717	6216
918.828	6251
918.939	6247
919.05	6213
919.161	6220
919.272	6148
919.383	6136
919.494	6323
919.604	6384
919.715	6353
919.826	6220
919.936	6319
920.047	6308
920.157	6258
920.267	6464
920.378	6308
920.488	6266
920.598	6502
920.708	6540
920.818	6460
920.928	6407
921.038	6578
921.148	6513
921.258	6380
921.368	6300
921.477	6178
921.587	6182
921.697	6045
921.806	6182
921.916	6117
922.025	5950
922.134	5939
922.244	5904
922.353	5942
922.462	5851
922.571	5764
922.68	5722
922.789	5695
922.898	5672
923.007	5649
923.116	5703
923.224	5646
923.333	5619
923.442	5558
923.55	5600
923.659	5509
923.767	5623
923.876	5566
923.984	5585
924.092	5471
924.201	5535
924.309	5547
924.417	5570
924.525	5509
924.633	5478
924.741	6292
924.849	5391
924.956	5482
925.064	5311
925.172	5265
925.279	5284
925.387	5372
925.494	5280
925.602	5406
925.709	5414
925.816	5292
925.924	5307
926.031	5315
926.138	5326
926.245	5315
926.352	5250
926.459	5254
926.566	5292
926.673	5189
926.779	5117
926.886	5086
926.993	5025
927.099	5006
927.206	5006
927.312	4942
927.419	5041
927.525	4942
927.631	4976
927.737	4885
927.843	4858
927.95	4801
928.056	4790
928.162	4835
928.267	4858
928.373	5258
928.479	4843
928.585	4698
928.69	4790
928.796	4744
928.901	4660
929.007	4599
929.112	4672
929.218	4611
929.323	4622
929.428	4588
929.533	4679
929.638	4527
929.743	4489
929.848	4550
929.953	4466
930.058	4455
930.163	4344
930.267	4341
930.372	4432
930.477	4299
930.581	4462
930.685	4280
930.79	4257
930.894	4295
930.998	4204
931.103	4375
931.207	4124
931.311	4071
931.415	4071
931.519	3892
931.623	3926
