Data from glass_V78500241_1878.txt Node
Date: Wed Sep 01 19:27:31 CST 2021
User: usil
Spectrometer: V785-0024
Trigger mode: 0
Integration Time (sec): 4.000000E-1
Scans to average: 1
Nonlinearity correction enabled: false
Boxcar width: 0
Storing dark spectrum: false
XAxis mode: Wavelengths
Number of Pixels in Spectrum: 1024
>>>>>Begin Spectral Data<<<<<
801.071	3720
801.214	3774
801.356	3736
801.499	3747
801.641	3732
801.783	3804
801.926	3880
802.068	3816
802.211	3873
802.353	3880
802.496	3838
802.638	3899
802.78	3918
802.923	3918
803.065	3899
803.208	3842
803.35	3850
803.492	3922
803.635	3907
803.777	3850
803.919	3884
804.061	4181
804.204	3934
804.346	3941
804.488	3907
804.63	3998
804.773	3956
804.915	4017
805.057	4147
805.199	4029
805.341	4093
805.483	4169
805.626	4173
805.768	4071
805.91	4150
806.052	4276
806.194	4185
806.336	4363
806.478	4215
806.62	4154
806.762	4223
806.904	4253
807.046	4329
807.188	4211
807.33	4154
807.472	4227
807.614	4200
807.756	4261
807.898	4227
808.04	4211
808.182	4295
808.324	4318
808.465	4390
808.607	4436
808.749	4443
808.891	4451
809.033	4489
809.174	4405
809.316	4299
809.458	4234
809.6	4185
809.741	4147
809.883	4128
810.025	4196
810.166	4200
810.308	4230
810.45	4211
810.591	4207
810.733	4287
810.875	4523
811.016	4805
811.158	5109
811.299	5235
811.441	5246
811.582	5052
811.724	4714
811.865	4459
812.007	4462
812.148	4413
812.29	4428
812.431	4371
812.573	4409
812.714	4337
812.855	4447
812.997	4356
813.138	4485
813.279	4367
813.421	4360
813.562	4379
813.703	4310
813.845	4333
813.986	4242
814.127	4173
814.268	4249
814.41	4295
814.551	4219
814.692	4329
814.833	4242
814.974	4310
815.115	4363
815.256	4230
815.397	4234
815.539	4249
815.68	4158
815.821	4154
815.962	4314
816.103	4318
816.244	4219
816.385	4253
816.526	4314
816.666	4204
816.807	4105
816.948	4169
817.089	4173
817.23	4124
817.371	4078
817.512	4006
817.653	4109
817.793	4071
817.934	4093
818.075	4051
818.216	4071
818.356	4128
818.497	4002
818.638	3911
818.778	3945
818.919	3907
819.06	3850
819.2	3930
819.341	3838
819.481	3846
819.622	3945
819.762	3991
819.903	3918
820.043	3854
820.184	3823
820.324	3831
820.465	3857
820.605	3896
820.746	3789
820.886	3812
821.026	3907
821.167	3888
821.307	3960
821.447	3960
821.588	3941
821.728	3979
821.868	3937
822.008	3876
822.149	3876
822.289	3937
822.429	3819
822.569	3766
822.709	3800
822.849	3660
822.99	3732
823.13	3759
823.27	3831
823.41	3698
823.55	3762
823.69	3720
823.83	3762
823.97	3663
824.11	3610
824.25	3587
824.389	3625
824.529	3682
824.669	3629
824.809	3698
824.949	3755
825.089	3736
825.228	3694
825.368	3587
825.508	3553
825.648	3591
825.787	3618
825.927	3656
826.067	3618
826.206	3660
826.346	3816
826.485	3827
826.625	3850
826.765	3941
826.904	3861
827.044	3618
827.183	3530
827.323	3439
827.462	3462
827.601	3443
827.741	3424
827.88	3439
828.02	3386
828.159	3439
828.298	3469
828.437	3572
828.577	3462
828.716	3618
828.855	3496
828.994	3374
829.134	3359
829.273	3393
829.412	3367
829.551	3332
829.69	3344
829.829	3412
829.968	3515
830.107	3439
830.246	3431
830.385	3412
830.524	3336
830.663	3287
830.802	3283
830.941	3199
831.08	3207
831.219	3272
831.357	3211
831.496	3420
831.635	3211
831.774	3207
831.913	3146
832.051	3135
832.19	3184
832.329	3214
832.467	3165
832.606	3100
832.744	3157
832.883	3176
833.022	3188
833.16	3237
833.299	3268
833.437	3359
833.576	3374
833.714	3389
833.852	3447
833.991	3466
834.129	3481
834.267	3420
834.406	3378
834.544	3439
834.682	3412
834.821	3405
834.959	3568
835.097	3431
835.235	3511
835.373	3485
835.511	3496
835.65	3473
835.788	3477
835.926	3355
836.064	3363
836.202	3378
836.34	3603
836.478	3614
836.615	3542
836.753	3595
836.891	3660
837.029	3584
837.167	3564
837.305	3572
837.443	3519
837.58	3564
837.718	3618
837.856	3549
837.993	3553
838.131	3584
838.269	3587
838.406	3576
838.544	3534
838.681	3469
838.819	3450
838.956	3386
839.094	3378
839.231	3424
839.369	3450
839.506	3698
839.643	3637
839.781	3507
839.918	3454
840.055	3507
840.193	3542
840.33	3538
840.467	3549
840.604	3576
840.742	3823
840.879	3545
841.016	3538
841.153	3587
841.29	3736
841.427	3701
841.564	3728
841.701	3747
841.838	3690
841.975	3713
842.112	3778
842.249	3618
842.385	3622
842.522	3827
842.659	3682
842.796	3652
842.933	3671
843.069	3663
843.206	3663
843.343	3842
843.479	3774
843.616	3827
843.752	3682
843.889	3648
844.025	3857
844.162	3671
844.298	3835
844.435	3755
844.571	3827
844.708	3888
844.844	3987
844.98	3983
845.117	3975
845.253	3926
845.389	3865
845.525	3930
845.661	3972
845.798	3926
845.934	3991
846.07	3937
846.206	4048
846.342	4124
846.478	4067
846.614	3956
846.75	3896
846.886	3930
847.022	4032
847.158	3975
847.294	3972
847.429	3987
847.565	3991
847.701	4230
847.837	3896
847.972	3873
848.108	3956
848.244	3911
848.379	3838
848.515	3827
848.65	3823
848.786	3869
848.921	3857
849.057	3892
849.192	3964
849.328	3899
849.463	3922
849.598	3915
849.734	3838
849.869	3835
850.004	3800
850.14	3793
850.275	3819
850.41	3762
850.545	3751
850.68	3762
850.815	3778
850.95	3812
851.085	3903
851.22	3888
851.355	3816
851.49	3789
851.625	3778
851.76	3823
851.895	3740
852.03	3762
852.165	3774
852.299	3823
852.434	3911
852.569	3876
852.703	3869
852.838	3930
852.973	3953
853.107	3964
853.242	3854
853.376	3812
853.511	3751
853.645	3812
853.78	4017
853.914	3880
854.048	3930
854.183	3884
854.317	3964
854.451	4063
854.585	3945
854.72	3934
854.854	4021
854.988	3949
855.122	3972
855.256	3945
855.39	4006
855.524	4078
855.658	4082
855.792	4120
855.926	4154
856.06	4154
856.194	4249
856.327	4124
856.461	4086
856.595	4147
856.729	4162
856.862	4265
856.996	4207
857.13	4265
857.263	4375
857.397	4386
857.53	4348
857.664	4375
857.797	4367
857.931	4405
858.064	4348
858.197	4417
858.331	4383
858.464	4375
858.597	4333
858.731	4402
858.864	4424
858.997	4440
859.13	4485
859.263	4512
859.396	4565
859.529	4523
859.662	4531
859.795	4523
859.928	4577
860.061	4748
860.194	4717
860.327	4622
860.46	4592
860.592	4725
860.725	4790
860.858	4774
860.99	4725
861.123	4721
861.256	4687
861.388	4736
861.521	5364
861.653	4725
861.786	4729
861.918	4691
862.05	4782
862.183	4816
862.315	4892
862.447	4949
862.58	4862
862.712	4793
862.844	4782
862.976	4854
863.108	4873
863.24	5166
863.372	4828
863.504	4904
863.636	4873
863.768	4927
863.9	4949
864.032	4927
864.164	4987
864.296	5056
864.428	5037
864.559	5098
864.691	5128
864.823	5109
864.954	5117
865.086	5136
865.217	5117
865.349	5151
865.48	5204
865.612	5193
865.743	5269
865.875	5181
866.006	5193
866.137	5220
866.269	5246
866.4	5242
866.531	5277
866.662	5250
866.793	5246
866.924	5273
867.055	5372
867.186	5349
867.317	5337
867.448	5360
867.579	5379
867.71	5357
867.841	5376
867.972	5417
868.103	5474
868.233	5406
868.364	5474
868.495	5592
868.625	5638
868.756	5779
868.886	5680
869.017	5767
869.147	5836
869.278	5805
869.408	5828
869.539	5844
869.669	5889
869.799	5942
869.929	6011
870.06	5973
870.19	6178
870.32	6216
870.45	6254
870.58	6372
870.71	6399
870.84	6486
870.97	6395
871.1	6429
871.23	6616
871.36	6650
871.489	6616
871.619	6677
871.749	6764
871.879	6901
872.008	6962
872.138	6989
872.267	6954
872.397	6989
872.526	7053
872.656	7103
872.785	7179
872.915	7419
873.044	7483
873.173	7571
873.303	7632
873.432	7738
873.561	7944
873.69	7856
873.819	7978
873.948	8138
874.077	8225
874.206	8347
874.335	8400
874.464	8617
874.593	8819
874.722	8941
874.851	9127
874.979	9291
875.108	9405
875.237	9477
875.365	9511
875.494	9656
875.623	9789
875.751	9785
875.88	9956
876.008	10135
876.136	10261
876.265	10546
876.393	10725
876.521	10698
876.65	10641
876.778	10915
876.906	10889
877.034	11033
877.162	11174
877.29	11185
877.418	11330
877.546	11379
877.674	11421
877.802	11493
877.93	11497
878.058	11623
878.185	11562
878.313	11566
878.441	11691
878.568	11760
878.696	11809
878.824	11866
878.951	11977
879.079	11961
879.206	12152
879.333	12041
879.461	12019
879.588	12049
879.715	11980
879.842	12239
879.97	12068
880.097	11866
880.224	11870
880.351	11920
880.478	11870
880.605	11901
880.732	11802
880.859	11980
880.986	11859
881.112	11885
881.239	11718
881.366	11710
881.493	11577
881.619	11482
881.746	11623
881.872	11524
881.999	11493
882.125	11486
882.252	11558
882.378	11535
882.505	11516
882.631	11345
882.757	11269
882.883	11376
883.01	11258
883.136	11140
883.262	11132
883.388	11083
883.514	11132
883.64	11140
883.766	11166
883.892	11010
884.018	10987
884.143	11071
884.269	11102
884.395	10778
884.52	10759
884.646	10771
884.772	10702
884.897	10706
885.023	10683
885.148	10733
885.274	10725
885.399	10778
885.524	10668
885.65	10637
885.775	10546
885.9	10546
886.025	10542
886.15	10531
886.275	10409
886.4	10402
886.525	10382
886.65	10322
886.775	10344
886.9	10413
887.025	10504
887.149	10375
887.274	10287
887.399	10242
887.523	10166
887.648	10105
887.773	10230
887.897	10185
888.021	10253
888.146	10109
888.27	10261
888.395	10196
888.519	10181
888.643	10181
888.767	10219
888.891	10158
889.015	10002
889.139	10048
889.263	10055
889.387	10021
889.511	10029
889.635	9979
889.759	9953
889.883	9998
890.006	10021
890.13	10071
890.254	10021
890.377	9945
890.501	9873
890.624	9888
890.748	9869
890.871	9785
890.995	9709
891.118	9667
891.241	9732
891.364	9728
891.488	9690
891.611	9740
891.734	9743
891.857	9759
891.98	9740
892.103	9804
892.226	9717
892.349	9652
892.471	9549
892.594	9625
892.717	9690
892.839	9610
892.962	9644
893.085	9629
893.207	9530
893.33	9519
893.452	9534
893.575	9629
893.697	9462
893.819	9542
893.941	9660
894.064	9542
894.186	9454
894.308	9344
894.43	9564
894.552	9603
894.674	9519
894.796	9332
894.918	9336
895.04	9306
895.161	9363
895.283	9329
895.405	9253
895.526	9306
895.648	9279
895.769	9241
895.891	9245
896.012	9241
896.134	9214
896.255	9127
896.376	9093
896.498	9176
896.619	9093
896.74	9055
896.861	9085
896.982	9237
897.103	9325
897.224	9188
897.345	9089
897.466	8921
897.587	9020
897.708	9100
897.828	9013
897.949	8933
898.07	8796
898.19	8925
898.311	9001
898.431	8864
898.552	8891
898.672	8925
898.792	8933
898.913	8910
899.033	8887
899.153	8777
899.273	8712
899.393	8648
899.513	8678
899.633	8731
899.753	8777
899.873	8636
899.993	8739
900.113	8697
900.232	8739
900.352	8693
900.472	8594
900.591	8556
900.711	8651
900.83	8560
900.95	8693
901.069	8705
901.189	8571
901.308	8511
901.427	8370
901.546	8423
901.665	8454
901.784	8545
901.904	8313
902.023	8355
902.141	8221
902.26	8233
902.379	8324
902.498	8161
902.617	8202
902.735	8362
902.854	8267
902.973	8328
903.091	8172
903.21	8134
903.328	8145
903.446	8119
903.565	8107
903.683	8130
903.801	8058
903.919	8115
904.038	8157
904.156	8024
904.274	8077
904.392	8043
904.51	8054
904.627	8027
904.745	8027
904.863	8016
904.981	7947
905.098	7879
905.216	7864
905.334	7940
905.451	7932
905.569	7868
905.686	7909
905.803	7928
905.921	7807
906.038	7784
906.155	7875
906.272	7696
906.389	7704
906.506	7632
906.623	7616
906.74	7601
906.857	7548
906.974	7487
907.091	7658
907.208	7761
907.324	7658
907.441	7559
907.557	7468
907.674	7388
907.79	7354
907.907	7358
908.023	7422
908.139	7426
908.256	7403
908.372	7384
908.488	7365
908.604	7270
908.72	7236
908.836	7316
908.952	7232
909.068	7255
909.184	7308
909.3	7232
909.415	7270
909.531	7232
909.647	7080
909.762	7107
909.878	7076
909.993	7122
910.108	7046
910.224	7103
910.339	7126
910.454	7069
910.57	7012
910.685	6970
910.8	7206
910.915	7088
911.03	7019
911.145	6920
911.259	6856
911.374	6913
911.489	6825
911.604	6738
911.718	6764
911.833	6772
911.947	6642
912.062	6601
912.176	6688
912.291	6696
912.405	6650
912.519	6783
912.633	6905
912.748	6665
912.862	6673
912.976	6616
913.09	6525
913.204	6574
913.318	6631
913.431	6684
913.545	6650
913.659	6688
913.772	6700
913.886	6547
914	6540
914.113	6601
914.226	6665
914.34	6650
914.453	6486
914.566	6559
914.68	6517
914.793	6563
914.906	6490
915.019	6426
915.132	6395
915.245	6380
915.358	6460
915.47	6433
915.583	6445
915.696	6464
915.809	6456
915.921	6509
916.034	6410
916.146	6346
916.259	6388
916.371	6471
916.483	6460
916.595	6395
916.708	6361
916.82	6365
916.932	6407
917.044	6350
917.156	6376
917.268	6315
917.38	6388
917.491	6369
917.603	6289
917.715	6407
917.826	6422
917.938	6331
918.049	6304
918.161	6414
918.272	6456
918.384	6460
918.495	6331
918.606	6194
918.717	6178
918.828	6247
918.939	6334
919.05	6178
919.161	6247
919.272	6098
919.383	6155
919.494	6319
919.604	6388
919.715	6277
919.826	6186
919.936	6251
920.047	6331
920.157	6285
920.267	6414
920.378	6388
920.488	6258
920.598	6452
920.708	6509
920.818	6460
920.928	6422
921.038	6639
921.148	6551
921.258	6353
921.368	6296
921.477	6209
921.587	6102
921.697	6121
921.806	6190
921.916	6060
922.025	5950
922.134	5916
922.244	5942
922.353	5969
922.462	5832
922.571	5828
922.68	5729
922.789	5657
922.898	5710
923.007	5672
923.116	5684
923.224	5649
923.333	5672
923.442	5554
923.55	5608
923.659	5577
923.767	5627
923.876	5528
923.984	5585
924.092	5493
924.201	5589
924.309	5512
924.417	5528
924.525	5440
924.633	5482
924.741	6258
924.849	5383
924.956	5467
925.064	5357
925.172	5273
925.279	5337
925.387	5330
925.494	5330
925.602	5368
925.709	5322
925.816	5311
925.924	5357
926.031	5402
926.138	5303
926.245	5318
926.352	5261
926.459	5303
926.566	5345
926.673	5261
926.779	5178
926.886	5117
926.993	5006
927.099	5041
927.206	4995
927.312	4919
927.419	5056
927.525	4987
927.631	5018
927.737	4873
927.843	4854
927.95	4782
928.056	4797
928.162	4854
928.267	4896
928.373	5254
928.479	4797
928.585	4702
928.69	4748
928.796	4778
928.901	4656
929.007	4607
929.112	4649
929.218	4641
929.323	4561
929.428	4596
929.533	4653
929.638	4531
929.743	4508
929.848	4535
929.953	4535
930.058	4447
930.163	4356
930.267	4329
930.372	4462
930.477	4306
930.581	4447
930.685	4348
930.79	4249
930.894	4314
930.998	4276
931.103	4409
931.207	4093
931.311	4093
931.415	4051
931.519	3873
931.623	3945
