Data from glass_V78500241_115.txt Node
Date: Wed Sep 01 19:15:17 CST 2021
User: usil
Spectrometer: V785-0024
Trigger mode: 0
Integration Time (sec): 4.000000E-1
Scans to average: 1
Nonlinearity correction enabled: false
Boxcar width: 0
Storing dark spectrum: false
XAxis mode: Wavelengths
Number of Pixels in Spectrum: 1024
>>>>>Begin Spectral Data<<<<<
801.071	3747
801.214	3808
801.356	3717
801.499	3766
801.641	3736
801.783	3804
801.926	3865
802.068	3842
802.211	3865
802.353	3876
802.496	3842
802.638	3911
802.78	3918
802.923	3960
803.065	3953
803.208	3873
803.35	3896
803.492	3907
803.635	3934
803.777	3835
803.919	3949
804.061	4112
804.204	3972
804.346	3937
804.488	3918
804.63	4032
804.773	4017
804.915	4021
805.057	4181
805.199	4055
805.341	4169
805.483	4124
805.626	4158
805.768	4116
805.91	4238
806.052	4246
806.194	4253
806.336	4360
806.478	4227
806.62	4215
806.762	4207
806.904	4287
807.046	4375
807.188	4246
807.33	4150
807.472	4211
807.614	4215
807.756	4287
807.898	4200
808.04	4158
808.182	4284
808.324	4337
808.465	4402
808.607	4447
808.749	4481
808.891	4516
809.033	4493
809.174	4440
809.316	4291
809.458	4272
809.6	4181
809.741	4192
809.883	4139
810.025	4207
810.166	4249
810.308	4211
810.45	4257
810.591	4261
810.733	4363
810.875	4542
811.016	4843
811.158	5143
811.299	5299
811.441	5208
811.582	5105
811.724	4733
811.865	4462
812.007	4455
812.148	4440
812.29	4421
812.431	4398
812.573	4413
812.714	4375
812.855	4405
812.997	4402
813.138	4497
813.279	4413
813.421	4398
813.562	4413
813.703	4402
813.845	4318
813.986	4303
814.127	4265
814.268	4265
814.41	4280
814.551	4284
814.692	4325
814.833	4303
814.974	4284
815.115	4371
815.256	4249
815.397	4253
815.539	4272
815.68	4139
815.821	4227
815.962	4295
816.103	4303
816.244	4219
816.385	4261
816.526	4299
816.666	4230
816.807	4120
816.948	4253
817.089	4177
817.23	4131
817.371	4063
817.512	4055
817.653	4086
817.793	4032
817.934	4063
818.075	4112
818.216	4055
818.356	4067
818.497	3975
818.638	3945
818.778	3915
818.919	3896
819.06	3884
819.2	3899
819.341	3850
819.481	3842
819.622	3903
819.762	4025
819.903	3975
820.043	3899
820.184	3823
820.324	3842
820.465	3896
820.605	3865
820.746	3861
820.886	3854
821.026	3956
821.167	3934
821.307	4017
821.447	3998
821.588	3945
821.728	3960
821.868	3956
822.008	3884
822.149	3907
822.289	3953
822.429	3797
822.569	3751
822.709	3793
822.849	3713
822.99	3694
823.13	3819
823.27	3789
823.41	3751
823.55	3743
823.69	3717
823.83	3770
823.97	3690
824.11	3679
824.25	3591
824.389	3679
824.529	3652
824.669	3641
824.809	3740
824.949	3732
825.089	3717
825.228	3755
825.368	3572
825.508	3584
825.648	3618
825.787	3648
825.927	3633
826.067	3587
826.206	3675
826.346	3781
826.485	3869
826.625	3873
826.765	3968
826.904	3850
827.044	3576
827.183	3561
827.323	3447
827.462	3500
827.601	3458
827.741	3405
827.88	3511
828.02	3386
828.159	3447
828.298	3485
828.437	3534
828.577	3481
828.716	3603
828.855	3576
828.994	3397
829.134	3363
829.273	3416
829.412	3370
829.551	3321
829.69	3370
829.829	3450
829.968	3523
830.107	3466
830.246	3492
830.385	3424
830.524	3359
830.663	3313
830.802	3294
830.941	3226
831.08	3192
831.219	3256
831.357	3264
831.496	3454
831.635	3264
831.774	3195
831.913	3195
832.051	3142
832.19	3138
832.329	3222
832.467	3157
832.606	3116
832.744	3214
832.883	3203
833.022	3184
833.16	3272
833.299	3291
833.437	3359
833.576	3359
833.714	3435
833.852	3428
833.991	3435
834.129	3466
834.267	3454
834.406	3412
834.544	3397
834.682	3431
834.821	3409
834.959	3557
835.097	3443
835.235	3561
835.373	3507
835.511	3492
835.65	3511
835.788	3485
835.926	3420
836.064	3386
836.202	3428
836.34	3614
836.478	3618
836.615	3511
836.753	3599
836.891	3652
837.029	3633
837.167	3622
837.305	3561
837.443	3553
837.58	3549
837.718	3648
837.856	3557
837.993	3580
838.131	3614
838.269	3599
838.406	3610
838.544	3580
838.681	3488
838.819	3481
838.956	3397
839.094	3409
839.231	3424
839.369	3523
839.506	3747
839.643	3675
839.781	3515
839.918	3431
840.055	3542
840.193	3515
840.33	3595
840.467	3618
840.604	3625
840.742	3857
840.879	3549
841.016	3584
841.153	3557
841.29	3766
841.427	3736
841.564	3728
841.701	3728
841.838	3732
841.975	3682
842.112	3724
842.249	3633
842.385	3663
842.522	3869
842.659	3682
842.796	3679
842.933	3736
843.069	3709
843.206	3717
843.343	3804
843.479	3781
843.616	3835
843.752	3671
843.889	3705
844.025	3903
844.162	3717
844.298	3915
844.435	3842
844.571	3789
844.708	3884
844.844	3994
844.98	4048
845.117	4055
845.253	3930
845.389	3911
845.525	3979
845.661	3975
845.798	3907
845.934	4010
846.07	3983
846.206	4048
846.342	4173
846.478	4093
846.614	3960
846.75	3949
846.886	3911
847.022	4063
847.158	3968
847.294	3956
847.429	4074
847.565	4013
847.701	4276
847.837	3930
847.972	3888
848.108	4013
848.244	4036
848.379	3838
848.515	3831
848.65	3827
848.786	3838
848.921	3892
849.057	3949
849.192	3941
849.328	3911
849.463	3926
849.598	3846
849.734	3865
849.869	3873
850.004	3781
850.14	3823
850.275	3793
850.41	3800
850.545	3755
850.68	3774
850.815	3827
850.95	3842
851.085	3926
851.22	3850
851.355	3876
851.49	3812
851.625	3793
851.76	3816
851.895	3755
852.03	3774
852.165	3854
852.299	3854
852.434	3964
852.569	3835
852.703	3903
852.838	3983
852.973	4025
853.107	3994
853.242	3949
853.376	3888
853.511	3789
853.645	3835
853.78	3975
853.914	3918
854.048	3873
854.183	3869
854.317	3979
854.451	4082
854.585	3983
854.72	3953
854.854	4082
854.988	3956
855.122	4051
855.256	3930
855.39	4074
855.524	4147
855.658	4109
855.792	4116
855.926	4181
856.06	4227
856.194	4234
856.327	4196
856.461	4150
856.595	4192
856.729	4223
856.862	4272
856.996	4261
857.13	4329
857.263	4329
857.397	4367
857.53	4314
857.664	4371
857.797	4379
857.931	4405
858.064	4371
858.197	4451
858.331	4398
858.464	4360
858.597	4337
858.731	4447
858.864	4462
858.997	4447
859.13	4519
859.263	4573
859.396	4603
859.529	4538
859.662	4550
859.795	4546
859.928	4599
860.061	4702
860.194	4771
860.327	4691
860.46	4672
860.592	4786
860.725	4812
860.858	4748
860.99	4714
861.123	4714
861.256	4679
861.388	4778
861.521	5490
861.653	4771
861.786	4721
861.918	4771
862.05	4870
862.183	4870
862.315	4953
862.447	4919
862.58	4843
862.712	4824
862.844	4740
862.976	4889
863.108	4828
863.24	5288
863.372	4889
863.504	4946
863.636	4915
863.768	5003
863.9	4995
864.032	5018
864.164	4991
864.296	5056
864.428	5094
864.559	5113
864.691	5140
864.823	5121
864.954	5117
865.086	5181
865.217	5132
865.349	5117
865.48	5239
865.612	5208
865.743	5292
865.875	5277
866.006	5220
866.137	5269
866.269	5212
866.4	5269
866.531	5330
866.662	5201
866.793	5299
866.924	5337
867.055	5353
867.186	5345
867.317	5360
867.448	5345
867.579	5379
867.71	5360
867.841	5353
867.972	5482
868.103	5448
868.233	5493
868.364	5482
868.495	5554
868.625	5786
868.756	5786
868.886	5695
869.017	5786
869.147	5840
869.278	5824
869.408	5882
869.539	5859
869.669	5901
869.799	5866
869.929	5961
870.06	6011
870.19	6194
870.32	6197
870.45	6300
870.58	6350
870.71	6441
870.84	6544
870.97	6395
871.1	6513
871.23	6631
871.36	6764
871.489	6604
871.619	6757
871.749	6821
871.879	6844
872.008	6958
872.138	7053
872.267	7046
872.397	6958
872.526	7038
872.656	7095
872.785	7145
872.915	7339
873.044	7609
873.173	7578
873.303	7651
873.432	7742
873.561	7890
873.69	7864
873.819	8115
873.948	8221
874.077	8252
874.206	8374
874.335	8473
874.464	8670
874.593	8872
874.722	8937
874.851	9100
874.979	9253
875.108	9382
875.237	9378
875.365	9504
875.494	9641
875.623	9857
875.751	9819
875.88	10025
876.008	10143
876.136	10268
876.265	10508
876.393	10679
876.521	10835
876.65	10850
876.778	10843
876.906	10908
877.034	10957
877.162	11166
877.29	11143
877.418	11242
877.546	11368
877.674	11482
877.802	11509
877.93	11478
878.058	11547
878.185	11551
878.313	11684
878.441	11760
878.568	11661
878.696	11760
878.824	11821
878.951	11969
879.079	11942
879.206	12159
879.333	12216
879.461	11973
879.588	12026
879.715	12049
879.842	12277
879.97	12095
880.097	11859
880.224	11866
880.351	11901
880.478	11958
880.605	11882
880.732	11817
880.859	12034
880.986	11836
881.112	11866
881.239	11752
881.366	11722
881.493	11623
881.619	11547
881.746	11562
881.872	11440
881.999	11581
882.125	11429
882.252	11573
882.378	11566
882.505	11615
882.631	11421
882.757	11250
882.883	11318
883.01	11330
883.136	11204
883.262	11132
883.388	11147
883.514	11189
883.64	11086
883.766	11105
883.892	10919
884.018	10984
884.143	11094
884.269	11136
884.395	10839
884.52	10767
884.646	10824
884.772	10656
884.897	10626
885.023	10626
885.148	10793
885.274	10694
885.399	10771
885.524	10698
885.65	10611
885.775	10531
885.9	10573
886.025	10653
886.15	10615
886.275	10462
886.4	10421
886.525	10417
886.65	10352
886.775	10280
886.9	10428
887.025	10550
887.149	10405
887.274	10257
887.399	10185
887.523	10219
887.648	10131
887.773	10090
887.897	10204
888.021	10299
888.146	10139
888.27	10276
888.395	10211
888.519	10173
888.643	10162
888.767	10181
888.891	10101
889.015	10048
889.139	10040
889.263	10090
889.387	10192
889.511	10185
889.635	10082
889.759	9998
889.883	9979
890.006	10029
890.13	10105
890.254	10010
890.377	9926
890.501	9899
890.624	9892
890.748	9956
890.871	9770
890.995	9705
891.118	9713
891.241	9819
891.364	9759
891.488	9778
891.611	9705
891.734	9720
891.857	9641
891.98	9694
892.103	9804
892.226	9846
892.349	9652
892.471	9526
892.594	9637
892.717	9591
892.839	9637
892.962	9660
893.085	9618
893.207	9663
893.33	9530
893.452	9477
893.575	9648
893.697	9515
893.819	9663
893.941	9618
894.064	9633
894.186	9431
894.308	9454
894.43	9561
894.552	9584
894.674	9599
894.796	9306
894.918	9393
895.04	9340
895.161	9428
895.283	9317
895.405	9241
895.526	9241
895.648	9283
895.769	9313
895.891	9291
896.012	9256
896.134	9214
896.255	9207
896.376	9157
896.498	9142
896.619	9157
896.74	9135
896.861	9119
896.982	9329
897.103	9321
897.224	9097
897.345	9089
897.466	8971
897.587	9028
897.708	9093
897.828	9081
897.949	9009
898.07	8876
898.19	8929
898.311	9001
898.431	8937
898.552	9005
898.672	8982
898.792	8868
898.913	8941
899.033	8861
899.153	8735
899.273	8697
899.393	8678
899.513	8724
899.633	8731
899.753	8739
899.873	8766
899.993	8697
900.113	8693
900.232	8689
900.352	8640
900.472	8568
900.591	8568
900.711	8594
900.83	8545
900.95	8598
901.069	8701
901.189	8579
901.308	8454
901.427	8324
901.546	8488
901.665	8454
901.784	8457
901.904	8385
902.023	8366
902.141	8282
902.26	8195
902.379	8313
902.498	8267
902.617	8259
902.735	8332
902.854	8324
902.973	8298
903.091	8161
903.21	8065
903.328	8077
903.446	8157
903.565	8077
903.683	8096
903.801	8107
903.919	8157
904.038	8161
904.156	8031
904.274	8107
904.392	8012
904.51	8020
904.627	7982
904.745	8096
904.863	8138
904.981	8039
905.098	7947
905.216	7830
905.334	7944
905.451	7917
905.569	7818
905.686	7947
905.803	7932
905.921	7852
906.038	7902
906.155	7772
906.272	7769
906.389	7761
906.506	7632
906.623	7674
906.74	7628
906.857	7571
906.974	7540
907.091	7734
907.208	7734
907.324	7708
907.441	7556
907.557	7457
907.674	7453
907.79	7499
907.907	7426
908.023	7441
908.139	7457
908.256	7403
908.372	7392
908.488	7362
908.604	7301
908.72	7259
908.836	7209
908.952	7320
909.068	7274
909.184	7270
909.3	7270
909.415	7316
909.531	7297
909.647	7160
909.762	7095
909.878	7080
909.993	7141
910.108	7042
910.224	7091
910.339	7114
910.454	7050
910.57	7019
910.685	6996
910.8	7251
910.915	7179
911.03	7038
911.145	6966
911.259	6859
911.374	6882
911.489	6840
911.604	6844
911.718	6783
911.833	6753
911.947	6650
912.062	6582
912.176	6715
912.291	6734
912.405	6703
912.519	6821
912.633	6882
912.748	6730
912.862	6726
912.976	6608
913.09	6521
913.204	6627
913.318	6593
913.431	6639
913.545	6749
913.659	6700
913.772	6703
913.886	6563
914	6612
914.113	6631
914.226	6650
914.34	6563
914.453	6456
914.566	6555
914.68	6544
914.793	6578
914.906	6475
915.019	6395
915.132	6350
915.245	6395
915.358	6448
915.47	6479
915.583	6456
915.696	6498
915.809	6559
915.921	6498
916.034	6464
916.146	6361
916.259	6395
916.371	6494
916.483	6418
916.595	6407
916.708	6429
916.82	6372
916.932	6338
917.044	6452
917.156	6452
917.268	6346
917.38	6391
917.491	6388
917.603	6315
917.715	6399
917.826	6422
917.938	6285
918.049	6262
918.161	6327
918.272	6395
918.384	6422
918.495	6346
918.606	6327
918.717	6235
918.828	6232
918.939	6262
919.05	6167
919.161	6304
919.272	6091
919.383	6129
919.494	6342
919.604	6460
919.715	6353
919.826	6213
919.936	6232
920.047	6369
920.157	6285
920.267	6498
920.378	6331
920.488	6300
920.598	6426
920.708	6597
920.818	6471
920.928	6460
921.038	6578
921.148	6544
921.258	6350
921.368	6289
921.477	6220
921.587	6186
921.697	6129
921.806	6152
921.916	6072
922.025	5992
922.134	5874
922.244	5866
922.353	5946
922.462	5920
922.571	5790
922.68	5722
922.789	5695
922.898	5699
923.007	5657
923.116	5718
923.224	5741
923.333	5672
923.442	5558
923.55	5615
923.659	5554
923.767	5688
923.876	5577
923.984	5596
924.092	5528
924.201	5600
924.309	5554
924.417	5520
924.525	5497
924.633	5512
924.741	6125
924.849	5379
924.956	5520
925.064	5357
925.172	5296
925.279	5311
925.387	5383
925.494	5315
925.602	5425
925.709	5387
925.816	5292
925.924	5368
926.031	5402
926.138	5318
926.245	5364
926.352	5212
926.459	5315
926.566	5353
926.673	5246
926.779	5147
926.886	5178
926.993	5083
927.099	5083
927.206	4972
927.312	4942
927.419	5041
927.525	4999
927.631	5022
927.737	4934
927.843	4889
927.95	4771
928.056	4850
928.162	4847
928.267	4866
928.373	5337
928.479	4847
928.585	4725
928.69	4797
928.796	4786
928.901	4702
929.007	4645
929.112	4694
929.218	4641
929.323	4603
929.428	4512
929.533	4649
929.638	4516
929.743	4527
929.848	4527
929.953	4516
930.058	4432
930.163	4383
930.267	4367
930.372	4428
930.477	4325
930.581	4478
930.685	4398
930.79	4234
930.894	4306
930.998	4219
931.103	4421
931.207	4147
931.311	4131
931.415	4051
931.519	3979
931.623	3949
