Data from glass_V78500241_254.txt Node
Date: Wed Sep 01 19:16:15 CST 2021
User: usil
Spectrometer: V785-0024
Trigger mode: 0
Integration Time (sec): 4.000000E-1
Scans to average: 1
Nonlinearity correction enabled: false
Boxcar width: 0
Storing dark spectrum: false
XAxis mode: Wavelengths
Number of Pixels in Spectrum: 1024
>>>>>Begin Spectral Data<<<<<
801.071	3747
801.214	3766
801.356	3740
801.499	3785
801.641	3751
801.783	3789
801.926	3884
802.068	3816
802.211	3842
802.353	3922
802.496	3823
802.638	3869
802.78	3934
802.923	3907
803.065	3922
803.208	3880
803.35	3880
803.492	3911
803.635	3911
803.777	3781
803.919	3930
804.061	4192
804.204	4025
804.346	3945
804.488	3953
804.63	4040
804.773	3975
804.915	4051
805.057	4112
805.199	4067
805.341	4143
805.483	4093
805.626	4131
805.768	4154
805.91	4242
806.052	4287
806.194	4227
806.336	4344
806.478	4242
806.62	4177
806.762	4211
806.904	4227
807.046	4310
807.188	4200
807.33	4173
807.472	4280
807.614	4173
807.756	4261
807.898	4238
808.04	4261
808.182	4303
808.324	4356
808.465	4424
808.607	4489
808.749	4455
808.891	4470
809.033	4554
809.174	4386
809.316	4268
809.458	4249
809.6	4204
809.741	4188
809.883	4181
810.025	4272
810.166	4234
810.308	4238
810.45	4253
810.591	4249
810.733	4261
810.875	4527
811.016	4873
811.158	5155
811.299	5273
811.441	5265
811.582	5056
811.724	4687
811.865	4474
812.007	4478
812.148	4443
812.29	4424
812.431	4424
812.573	4424
812.714	4428
812.855	4390
812.997	4424
813.138	4478
813.279	4455
813.421	4379
813.562	4383
813.703	4341
813.845	4379
813.986	4246
814.127	4253
814.268	4242
814.41	4280
814.551	4299
814.692	4325
814.833	4249
814.974	4291
815.115	4310
815.256	4299
815.397	4265
815.539	4303
815.68	4227
815.821	4230
815.962	4318
816.103	4249
816.244	4291
816.385	4246
816.526	4306
816.666	4188
816.807	4116
816.948	4143
817.089	4188
817.23	4101
817.371	4078
817.512	4044
817.653	4109
817.793	4048
817.934	4059
818.075	4150
818.216	4090
818.356	4086
818.497	4002
818.638	3907
818.778	3953
818.919	3922
819.06	3838
819.2	3941
819.341	3896
819.481	3816
819.622	3899
819.762	4055
819.903	3998
820.043	3880
820.184	3857
820.324	3873
820.465	3892
820.605	3899
820.746	3857
820.886	3808
821.026	3960
821.167	3903
821.307	4010
821.447	3994
821.588	3994
821.728	3945
821.868	3953
822.008	3854
822.149	3937
822.289	3945
822.429	3812
822.569	3781
822.709	3770
822.849	3686
822.99	3720
823.13	3785
823.27	3800
823.41	3732
823.55	3797
823.69	3698
823.83	3717
823.97	3652
824.11	3599
824.25	3644
824.389	3652
824.529	3671
824.669	3637
824.809	3701
824.949	3789
825.089	3774
825.228	3713
825.368	3591
825.508	3561
825.648	3603
825.787	3637
825.927	3633
826.067	3622
826.206	3713
826.346	3800
826.485	3850
826.625	3896
826.765	3964
826.904	3838
827.044	3614
827.183	3549
827.323	3458
827.462	3511
827.601	3477
827.741	3450
827.88	3443
828.02	3405
828.159	3477
828.298	3526
828.437	3534
828.577	3519
828.716	3637
828.855	3492
828.994	3431
829.134	3378
829.273	3428
829.412	3367
829.551	3382
829.69	3363
829.829	3458
829.968	3507
830.107	3447
830.246	3473
830.385	3355
830.524	3374
830.663	3298
830.802	3272
830.941	3226
831.08	3207
831.219	3321
831.357	3245
831.496	3450
831.635	3306
831.774	3199
831.913	3218
832.051	3112
832.19	3146
832.329	3245
832.467	3157
832.606	3142
832.744	3173
832.883	3195
833.022	3211
833.16	3268
833.299	3291
833.437	3370
833.576	3389
833.714	3454
833.852	3435
833.991	3477
834.129	3485
834.267	3462
834.406	3412
834.544	3462
834.682	3401
834.821	3435
834.959	3595
835.097	3458
835.235	3534
835.373	3515
835.511	3549
835.65	3500
835.788	3530
835.926	3401
836.064	3412
836.202	3428
836.34	3561
836.478	3595
836.615	3557
836.753	3622
836.891	3682
837.029	3618
837.167	3591
837.305	3542
837.443	3534
837.58	3488
837.718	3595
837.856	3584
837.993	3561
838.131	3618
838.269	3584
838.406	3599
838.544	3595
838.681	3488
838.819	3469
838.956	3378
839.094	3374
839.231	3454
839.369	3500
839.506	3747
839.643	3618
839.781	3568
839.918	3469
840.055	3511
840.193	3557
840.33	3523
840.467	3511
840.604	3591
840.742	3736
840.879	3553
841.016	3553
841.153	3614
841.29	3766
841.427	3717
841.564	3720
841.701	3774
841.838	3694
841.975	3736
842.112	3793
842.249	3671
842.385	3641
842.522	3854
842.659	3728
842.796	3698
842.933	3709
843.069	3675
843.206	3694
843.343	3812
843.479	3793
843.616	3816
843.752	3663
843.889	3663
844.025	3911
844.162	3713
844.298	3896
844.435	3785
844.571	3816
844.708	3937
844.844	4013
844.98	4010
845.117	4059
845.253	3903
845.389	3857
845.525	3987
845.661	3968
845.798	4025
845.934	3998
846.07	3956
846.206	4093
846.342	4139
846.478	4055
846.614	4010
846.75	3945
846.886	3892
847.022	4044
847.158	4006
847.294	4010
847.429	4021
847.565	4036
847.701	4230
847.837	3922
847.972	3857
848.108	3987
848.244	3953
848.379	3854
848.515	3838
848.65	3869
848.786	3816
848.921	3896
849.057	3941
849.192	3972
849.328	3918
849.463	3960
849.598	3926
849.734	3937
849.869	3846
850.004	3800
850.14	3827
850.275	3808
850.41	3709
850.545	3785
850.68	3785
850.815	3812
850.95	3816
851.085	3941
851.22	3899
851.355	3876
851.49	3781
851.625	3800
851.76	3804
851.895	3766
852.03	3717
852.165	3823
852.299	3869
852.434	3922
852.569	3937
852.703	3880
852.838	3892
852.973	4017
853.107	4036
853.242	3934
853.376	3869
853.511	3789
853.645	3876
853.78	3987
853.914	3915
854.048	3941
854.183	3899
854.317	3972
854.451	4063
854.585	3972
854.72	3960
854.854	3994
854.988	3915
855.122	4013
855.256	3987
855.39	4051
855.524	4105
855.658	4128
855.792	4116
855.926	4135
856.06	4181
856.194	4215
856.327	4196
856.461	4112
856.595	4162
856.729	4192
856.862	4268
856.996	4257
857.13	4280
857.263	4379
857.397	4421
857.53	4299
857.664	4329
857.797	4386
857.931	4409
858.064	4383
858.197	4424
858.331	4424
858.464	4417
858.597	4360
858.731	4443
858.864	4451
858.997	4443
859.13	4546
859.263	4538
859.396	4622
859.529	4523
859.662	4531
859.795	4550
859.928	4607
860.061	4733
860.194	4755
860.327	4660
860.46	4679
860.592	4755
860.725	4782
860.858	4763
860.99	4683
861.123	4736
861.256	4721
861.388	4755
861.521	5265
861.653	4774
861.786	4714
861.918	4729
862.05	4820
862.183	4866
862.315	4873
862.447	4934
862.58	4953
862.712	4786
862.844	4793
862.976	4919
863.108	4904
863.24	5250
863.372	4824
863.504	4873
863.636	4934
863.768	4984
863.9	5014
864.032	4934
864.164	4976
864.296	5052
864.428	5071
864.559	5155
864.691	5185
864.823	5136
864.954	5136
865.086	5162
865.217	5155
865.349	5090
865.48	5124
865.612	5197
865.743	5288
865.875	5220
866.006	5174
866.137	5265
866.269	5296
866.4	5265
866.531	5239
866.662	5242
866.793	5322
866.924	5318
867.055	5322
867.186	5357
867.317	5307
867.448	5334
867.579	5425
867.71	5322
867.841	5398
867.972	5501
868.103	5486
868.233	5482
868.364	5509
868.495	5493
868.625	5653
868.756	5767
868.886	5703
869.017	5729
869.147	5855
869.278	5863
869.408	5802
869.539	5817
869.669	5961
869.799	5942
869.929	5996
870.06	6041
870.19	6232
870.32	6235
870.45	6296
870.58	6331
870.71	6456
870.84	6490
870.97	6486
871.1	6433
871.23	6665
871.36	6730
871.489	6738
871.619	6772
871.749	6776
871.879	6867
872.008	7019
872.138	6989
872.267	6985
872.397	6977
872.526	6989
872.656	7149
872.785	7209
872.915	7453
873.044	7537
873.173	7487
873.303	7723
873.432	7712
873.561	7909
873.69	7921
873.819	7986
873.948	8161
874.077	8286
874.206	8408
874.335	8473
874.464	8667
874.593	8845
874.722	8902
874.851	9142
874.979	9230
875.108	9382
875.237	9443
875.365	9481
875.494	9641
875.623	9842
875.751	9819
875.88	9956
876.008	10162
876.136	10329
876.265	10531
876.393	10679
876.521	10740
876.65	10828
876.778	10904
876.906	10869
877.034	10949
877.162	11124
877.29	11204
877.418	11364
877.546	11330
877.674	11478
877.802	11467
877.93	11486
878.058	11535
878.185	11611
878.313	11653
878.441	11779
878.568	11665
878.696	11828
878.824	11912
878.951	11939
879.079	11988
879.206	12216
879.333	12087
879.461	12038
879.588	12102
879.715	12041
879.842	12182
879.97	12064
880.097	11893
880.224	11901
880.351	11866
880.478	11870
880.605	11859
880.732	11889
880.859	11988
880.986	11813
881.112	11920
881.239	11783
881.366	11608
881.493	11596
881.619	11585
881.746	11623
881.872	11623
881.999	11589
882.125	11547
882.252	11623
882.378	11482
882.505	11554
882.631	11391
882.757	11349
882.883	11326
883.01	11227
883.136	11265
883.262	10999
883.388	11170
883.514	11265
883.64	11178
883.766	11105
883.892	10980
884.018	11033
884.143	11098
884.269	11151
884.395	10869
884.52	10797
884.646	10816
884.772	10725
884.897	10656
885.023	10721
885.148	10778
885.274	10831
885.399	10717
885.524	10561
885.65	10698
885.775	10611
885.9	10630
886.025	10481
886.15	10580
886.275	10504
886.4	10424
886.525	10371
886.65	10386
886.775	10268
886.9	10504
887.025	10462
887.149	10360
887.274	10242
887.399	10188
887.523	10173
887.648	10109
887.773	10162
887.897	10238
888.021	10284
888.146	10101
888.27	10268
888.395	10131
888.519	10196
888.643	10219
888.767	10234
888.891	10109
889.015	10021
889.139	10059
889.263	9979
889.387	10044
889.511	10124
889.635	10055
889.759	10002
889.883	10021
890.006	10036
890.13	10215
890.254	9918
890.377	10025
890.501	9797
890.624	9892
890.748	9956
890.871	9812
890.995	9804
891.118	9698
891.241	9762
891.364	9724
891.488	9869
891.611	9762
891.734	9808
891.857	9759
891.98	9698
892.103	9747
892.226	9686
892.349	9606
892.471	9568
892.594	9538
892.717	9629
892.839	9690
892.962	9572
893.085	9724
893.207	9557
893.33	9466
893.452	9553
893.575	9587
893.697	9523
893.819	9637
893.941	9641
894.064	9652
894.186	9386
894.308	9401
894.43	9515
894.552	9644
894.674	9428
894.796	9439
894.918	9412
895.04	9348
895.161	9291
895.283	9397
895.405	9222
895.526	9332
895.648	9260
895.769	9249
895.891	9336
896.012	9268
896.134	9260
896.255	9157
896.376	9176
896.498	9199
896.619	9093
896.74	9024
896.861	9161
896.982	9226
897.103	9329
897.224	9268
897.345	9039
897.466	8979
897.587	9013
897.708	9184
897.828	9047
897.949	8872
898.07	8876
898.19	8963
898.311	9043
898.431	8979
898.552	9028
898.672	9005
898.792	8994
898.913	8918
899.033	8868
899.153	8667
899.273	8640
899.393	8689
899.513	8731
899.633	8773
899.753	8697
899.873	8648
899.993	8781
900.113	8693
900.232	8701
900.352	8629
900.472	8575
900.591	8617
900.711	8587
900.83	8499
900.95	8632
901.069	8686
901.189	8594
901.308	8454
901.427	8362
901.546	8412
901.665	8442
901.784	8511
901.904	8408
902.023	8400
902.141	8240
902.26	8248
902.379	8298
902.498	8252
902.617	8267
902.735	8339
902.854	8286
902.973	8252
903.091	8202
903.21	8168
903.328	8157
903.446	8164
903.565	8084
903.683	8119
903.801	8012
903.919	8195
904.038	8100
904.156	8020
904.274	8088
904.392	8043
904.51	8073
904.627	8046
904.745	8069
904.863	8084
904.981	7963
905.098	7852
905.216	7940
905.334	7913
905.451	7925
905.569	7871
905.686	7959
905.803	7925
905.921	7738
906.038	7890
906.155	7738
906.272	7742
906.389	7708
906.506	7628
906.623	7639
906.74	7639
906.857	7578
906.974	7563
907.091	7689
907.208	7708
907.324	7636
907.441	7616
907.557	7499
907.674	7445
907.79	7377
907.907	7430
908.023	7407
908.139	7384
908.256	7384
908.372	7495
908.488	7362
908.604	7324
908.72	7213
908.836	7274
908.952	7194
909.068	7244
909.184	7293
909.3	7225
909.415	7285
909.531	7308
909.647	7114
909.762	7122
909.878	7164
909.993	7137
910.108	7137
910.224	7095
910.339	7149
910.454	7072
910.57	7027
910.685	6935
910.8	7137
910.915	7118
911.03	7095
911.145	6954
911.259	6882
911.374	6947
911.489	6920
911.604	6924
911.718	6795
911.833	6711
911.947	6700
912.062	6627
912.176	6722
912.291	6688
912.405	6719
912.519	6829
912.633	6810
912.748	6700
912.862	6711
912.976	6585
913.09	6540
913.204	6616
913.318	6654
913.431	6719
913.545	6677
913.659	6734
913.772	6673
913.886	6563
914	6566
914.113	6635
914.226	6654
914.34	6681
914.453	6483
914.566	6570
914.68	6551
914.793	6547
914.906	6456
915.019	6422
915.132	6365
915.245	6441
915.358	6426
915.47	6483
915.583	6490
915.696	6471
915.809	6498
915.921	6597
916.034	6365
916.146	6471
916.259	6361
916.371	6464
916.483	6513
916.595	6380
916.708	6388
916.82	6407
916.932	6331
917.044	6410
917.156	6388
917.268	6365
917.38	6369
917.491	6308
917.603	6372
917.715	6410
917.826	6410
917.938	6353
918.049	6292
918.161	6369
918.272	6452
918.384	6418
918.495	6334
918.606	6262
918.717	6243
918.828	6285
918.939	6277
919.05	6251
919.161	6258
919.272	6186
919.383	6178
919.494	6357
919.604	6407
919.715	6258
919.826	6205
919.936	6292
920.047	6338
920.157	6296
920.267	6418
920.378	6350
920.488	6296
920.598	6456
920.708	6547
920.818	6498
920.928	6551
921.038	6654
921.148	6570
921.258	6376
921.368	6353
921.477	6285
921.587	6239
921.697	6064
921.806	6144
921.916	6098
922.025	5977
922.134	5893
922.244	5866
922.353	5950
922.462	5809
922.571	5786
922.68	5733
922.789	5718
922.898	5741
923.007	5638
923.116	5779
923.224	5699
923.333	5695
923.442	5638
923.55	5562
923.659	5604
923.767	5699
923.876	5562
923.984	5585
924.092	5547
924.201	5543
924.309	5573
924.417	5566
924.525	5512
924.633	5524
924.741	6311
924.849	5383
924.956	5490
925.064	5349
925.172	5357
925.279	5315
925.387	5311
925.494	5357
925.602	5433
925.709	5402
925.816	5273
925.924	5307
926.031	5376
926.138	5326
926.245	5353
926.352	5239
926.459	5337
926.566	5349
926.673	5193
926.779	5189
926.886	5102
926.993	5060
927.099	5029
927.206	4961
927.312	4934
927.419	5029
927.525	5010
927.631	5033
927.737	4946
927.843	4900
927.95	4824
928.056	4873
928.162	4866
928.267	4881
928.373	5315
928.479	4904
928.585	4691
928.69	4816
928.796	4748
928.901	4668
929.007	4603
929.112	4675
929.218	4607
929.323	4573
929.428	4603
929.533	4714
929.638	4550
929.743	4561
929.848	4596
929.953	4504
930.058	4500
930.163	4371
930.267	4405
930.372	4417
930.477	4322
930.581	4459
930.685	4367
930.79	4265
930.894	4310
930.998	4287
931.103	4394
931.207	4158
931.311	4101
931.415	4063
931.519	3934
931.623	4002
