Data from glass_V78500241_808.txt Node
Date: Wed Sep 01 19:20:06 CST 2021
User: usil
Spectrometer: V785-0024
Trigger mode: 0
Integration Time (sec): 4.000000E-1
Scans to average: 1
Nonlinearity correction enabled: false
Boxcar width: 0
Storing dark spectrum: false
XAxis mode: Wavelengths
Number of Pixels in Spectrum: 1024
>>>>>Begin Spectral Data<<<<<
801.071	3724
801.214	3778
801.356	3709
801.499	3770
801.641	3698
801.783	3823
801.926	3869
802.068	3827
802.211	3873
802.353	3892
802.496	3846
802.638	3869
802.78	3896
802.923	3960
803.065	3941
803.208	3907
803.35	3876
803.492	3956
803.635	3922
803.777	3797
803.919	3949
804.061	4166
804.204	4006
804.346	3991
804.488	3934
804.63	4051
804.773	4006
804.915	4048
805.057	4196
805.199	4029
805.341	4097
805.483	4109
805.626	4109
805.768	4135
805.91	4211
806.052	4227
806.194	4215
806.336	4383
806.478	4227
806.62	4204
806.762	4211
806.904	4280
807.046	4352
807.188	4211
807.33	4204
807.472	4261
807.614	4227
807.756	4257
807.898	4207
808.04	4219
808.182	4295
808.324	4318
808.465	4348
808.607	4459
808.749	4485
808.891	4504
809.033	4542
809.174	4375
809.316	4272
809.458	4227
809.6	4196
809.741	4173
809.883	4154
810.025	4207
810.166	4230
810.308	4207
810.45	4253
810.591	4211
810.733	4310
810.875	4531
811.016	4892
811.158	5140
811.299	5258
811.441	5280
811.582	5102
811.724	4740
811.865	4470
812.007	4493
812.148	4455
812.29	4443
812.431	4390
812.573	4383
812.714	4379
812.855	4424
812.997	4455
813.138	4508
813.279	4386
813.421	4421
813.562	4394
813.703	4333
813.845	4314
813.986	4265
814.127	4242
814.268	4253
814.41	4348
814.551	4322
814.692	4276
814.833	4303
814.974	4329
815.115	4375
815.256	4246
815.397	4234
815.539	4291
815.68	4211
815.821	4177
815.962	4356
816.103	4291
816.244	4265
816.385	4253
816.526	4276
816.666	4196
816.807	4154
816.948	4185
817.089	4177
817.23	4131
817.371	4044
817.512	4086
817.653	4120
817.793	4055
817.934	4071
818.075	4116
818.216	4021
818.356	4090
818.497	3968
818.638	3911
818.778	3918
818.919	3926
819.06	3903
819.2	3930
819.341	3846
819.481	3846
819.622	3907
819.762	4036
819.903	3968
820.043	3880
820.184	3835
820.324	3838
820.465	3880
820.605	3850
820.746	3861
820.886	3804
821.026	3911
821.167	3899
821.307	3953
821.447	3979
821.588	3941
821.728	3945
821.868	3922
822.008	3884
822.149	3911
822.289	3930
822.429	3846
822.569	3766
822.709	3804
822.849	3709
822.99	3759
823.13	3808
823.27	3778
823.41	3728
823.55	3759
823.69	3717
823.83	3751
823.97	3724
824.11	3595
824.25	3614
824.389	3641
824.529	3671
824.669	3618
824.809	3736
824.949	3759
825.089	3759
825.228	3717
825.368	3641
825.508	3580
825.648	3584
825.787	3587
825.927	3622
826.067	3637
826.206	3679
826.346	3804
826.485	3793
826.625	3869
826.765	3949
826.904	3816
827.044	3595
827.183	3576
827.323	3443
827.462	3481
827.601	3447
827.741	3454
827.88	3458
828.02	3397
828.159	3443
828.298	3488
828.437	3542
828.577	3462
828.716	3576
828.855	3549
828.994	3386
829.134	3389
829.273	3412
829.412	3363
829.551	3355
829.69	3405
829.829	3473
829.968	3496
830.107	3450
830.246	3462
830.385	3401
830.524	3367
830.663	3310
830.802	3287
830.941	3207
831.08	3207
831.219	3264
831.357	3256
831.496	3435
831.635	3256
831.774	3180
831.913	3237
832.051	3146
832.19	3169
832.329	3184
832.467	3173
832.606	3142
832.744	3157
832.883	3233
833.022	3237
833.16	3260
833.299	3325
833.437	3317
833.576	3355
833.714	3439
833.852	3462
833.991	3469
834.129	3504
834.267	3454
834.406	3382
834.544	3428
834.682	3412
834.821	3412
834.959	3568
835.097	3412
835.235	3576
835.373	3496
835.511	3542
835.65	3469
835.788	3492
835.926	3450
836.064	3378
836.202	3393
836.34	3561
836.478	3599
836.615	3568
836.753	3610
836.891	3633
837.029	3603
837.167	3622
837.305	3545
837.443	3549
837.58	3530
837.718	3622
837.856	3606
837.993	3564
838.131	3595
838.269	3587
838.406	3572
838.544	3633
838.681	3473
838.819	3450
838.956	3412
839.094	3424
839.231	3473
839.369	3492
839.506	3755
839.643	3644
839.781	3477
839.918	3473
840.055	3542
840.193	3549
840.33	3526
840.467	3557
840.604	3610
840.742	3808
840.879	3561
841.016	3534
841.153	3591
841.29	3793
841.427	3770
841.564	3720
841.701	3743
841.838	3701
841.975	3694
842.112	3732
842.249	3663
842.385	3644
842.522	3876
842.659	3686
842.796	3698
842.933	3698
843.069	3690
843.206	3740
843.343	3842
843.479	3778
843.616	3835
843.752	3682
843.889	3679
844.025	3865
844.162	3724
844.298	3865
844.435	3846
844.571	3797
844.708	3945
844.844	4040
844.98	4029
845.117	4059
845.253	3945
845.389	3953
845.525	3930
845.661	3968
845.798	3960
845.934	3979
846.07	3949
846.206	4044
846.342	4120
846.478	4067
846.614	3975
846.75	3926
846.886	3949
847.022	4044
847.158	4010
847.294	4036
847.429	4025
847.565	3991
847.701	4276
847.837	3892
847.972	3918
848.108	4029
848.244	3979
848.379	3865
848.515	3827
848.65	3831
848.786	3865
848.921	3876
849.057	3956
849.192	3930
849.328	3915
849.463	3922
849.598	3884
849.734	3861
849.869	3846
850.004	3804
850.14	3835
850.275	3838
850.41	3747
850.545	3762
850.68	3785
850.815	3789
850.95	3800
851.085	3956
851.22	3907
851.355	3819
851.49	3831
851.625	3819
851.76	3808
851.895	3724
852.03	3724
852.165	3808
852.299	3861
852.434	3941
852.569	3880
852.703	3915
852.838	3915
852.973	4025
853.107	4021
853.242	3873
853.376	3876
853.511	3781
853.645	3857
853.78	3979
853.914	3896
854.048	3884
854.183	3812
854.317	4002
854.451	4063
854.585	3983
854.72	3991
854.854	4090
854.988	3975
855.122	3968
855.256	3960
855.39	4021
855.524	4131
855.658	4074
855.792	4112
855.926	4135
856.06	4188
856.194	4207
856.327	4162
856.461	4154
856.595	4154
856.729	4185
856.862	4287
856.996	4249
857.13	4276
857.263	4329
857.397	4348
857.53	4291
857.664	4344
857.797	4451
857.931	4462
858.064	4367
858.197	4462
858.331	4432
858.464	4375
858.597	4428
858.731	4417
858.864	4455
858.997	4466
859.13	4485
859.263	4561
859.396	4580
859.529	4588
859.662	4538
859.795	4558
859.928	4618
860.061	4755
860.194	4744
860.327	4656
860.46	4649
860.592	4706
860.725	4771
860.858	4744
860.99	4702
861.123	4717
861.256	4721
861.388	4763
861.521	5406
861.653	4736
861.786	4687
861.918	4736
862.05	4801
862.183	4850
862.315	4900
862.447	5018
862.58	4885
862.712	4835
862.844	4763
862.976	4896
863.108	4919
863.24	5296
863.372	4843
863.504	4919
863.636	4919
863.768	4976
863.9	4991
864.032	4938
864.164	4999
864.296	5064
864.428	5094
864.559	5098
864.691	5121
864.823	5136
864.954	5071
865.086	5132
865.217	5124
865.349	5105
865.48	5189
865.612	5239
865.743	5292
865.875	5204
866.006	5227
866.137	5220
866.269	5208
866.4	5299
866.531	5277
866.662	5231
866.793	5277
866.924	5269
867.055	5360
867.186	5341
867.317	5322
867.448	5337
867.579	5395
867.71	5376
867.841	5433
867.972	5433
868.103	5459
868.233	5501
868.364	5528
868.495	5551
868.625	5695
868.756	5790
868.886	5676
869.017	5779
869.147	5821
869.278	5920
869.408	5844
869.539	5859
869.669	5973
869.799	5927
869.929	6007
870.06	6015
870.19	6232
870.32	6224
870.45	6308
870.58	6357
870.71	6426
870.84	6494
870.97	6445
871.1	6448
871.23	6662
871.36	6688
871.489	6726
871.619	6749
871.749	6863
871.879	6928
872.008	7031
872.138	6939
872.267	7023
872.397	7004
872.526	7004
872.656	7156
872.785	7206
872.915	7453
873.044	7544
873.173	7529
873.303	7624
873.432	7772
873.561	7925
873.69	7860
873.819	7951
873.948	8183
874.077	8282
874.206	8328
874.335	8457
874.464	8648
874.593	8830
874.722	8910
874.851	9116
874.979	9260
875.108	9363
875.237	9454
875.365	9504
875.494	9641
875.623	9835
875.751	9827
875.88	10006
876.008	10200
876.136	10261
876.265	10516
876.393	10706
876.521	10740
876.65	10816
876.778	10889
876.906	10850
877.034	11056
877.162	11010
877.29	11201
877.418	11315
877.546	11474
877.674	11436
877.802	11554
877.93	11493
878.058	11497
878.185	11482
878.313	11684
878.441	11832
878.568	11627
878.696	11775
878.824	11923
878.951	11920
879.079	12053
879.206	12106
879.333	12079
879.461	12003
879.588	12064
879.715	12102
879.842	12273
879.97	11980
880.097	11847
880.224	11916
880.351	11973
880.478	11904
880.605	11908
880.732	11836
880.859	11977
880.986	11828
881.112	11893
881.239	11786
881.366	11642
881.493	11634
881.619	11596
881.746	11608
881.872	11596
881.999	11482
882.125	11436
882.252	11551
882.378	11463
882.505	11535
882.631	11474
882.757	11322
882.883	11337
883.01	11242
883.136	11178
883.262	11162
883.388	11056
883.514	11185
883.64	11208
883.766	11113
883.892	11067
884.018	11029
884.143	11029
884.269	11105
884.395	10809
884.52	10714
884.646	10725
884.772	10763
884.897	10668
885.023	10714
885.148	10683
885.274	10774
885.399	10698
885.524	10565
885.65	10573
885.775	10588
885.9	10596
886.025	10645
886.15	10565
886.275	10443
886.4	10348
886.525	10424
886.65	10390
886.775	10390
886.9	10413
887.025	10611
887.149	10333
887.274	10261
887.399	10219
887.523	10120
887.648	10150
887.773	10185
887.897	10249
888.021	10215
888.146	10109
888.27	10322
888.395	10257
888.519	10200
888.643	10219
888.767	10162
888.891	10154
889.015	10006
889.139	10055
889.263	9991
889.387	10032
889.511	10067
889.635	10124
889.759	10006
889.883	9975
890.006	10032
890.13	10090
890.254	10021
890.377	10010
890.501	9880
890.624	9915
890.748	9907
890.871	9736
890.995	9644
891.118	9720
891.241	9781
891.364	9728
891.488	9838
891.611	9755
891.734	9797
891.857	9762
891.98	9705
892.103	9766
892.226	9743
892.349	9694
892.471	9511
892.594	9580
892.717	9580
892.839	9580
892.962	9637
893.085	9705
893.207	9641
893.33	9542
893.452	9534
893.575	9587
893.697	9526
893.819	9614
893.941	9675
894.064	9603
894.186	9523
894.308	9435
894.43	9466
894.552	9618
894.674	9549
894.796	9466
894.918	9355
895.04	9344
895.161	9389
895.283	9454
895.405	9222
895.526	9272
895.648	9268
895.769	9211
895.891	9253
896.012	9218
896.134	9230
896.255	9188
896.376	9089
896.498	9093
896.619	9176
896.74	9116
896.861	9093
896.982	9253
897.103	9382
897.224	9207
897.345	9058
897.466	9062
897.587	9047
897.708	9104
897.828	8979
897.949	8960
898.07	8902
898.19	8849
898.311	8929
898.431	8895
898.552	8963
898.672	8979
898.792	8967
898.913	8910
899.033	8849
899.153	8777
899.273	8769
899.393	8708
899.513	8773
899.633	8762
899.753	8735
899.873	8716
899.993	8792
900.113	8651
900.232	8735
900.352	8610
900.472	8617
900.591	8636
900.711	8602
900.83	8579
900.95	8689
901.069	8720
901.189	8564
901.308	8446
901.427	8419
901.546	8434
901.665	8423
901.784	8518
901.904	8377
902.023	8339
902.141	8244
902.26	8210
902.379	8347
902.498	8202
902.617	8202
902.735	8358
902.854	8290
902.973	8244
903.091	8214
903.21	8115
903.328	8107
903.446	8161
903.565	8088
903.683	8115
903.801	7967
903.919	8077
904.038	8164
904.156	8008
904.274	8096
904.392	8016
904.51	8107
904.627	8054
904.745	8111
904.863	8058
904.981	7951
905.098	7986
905.216	7837
905.334	7947
905.451	7940
905.569	7871
905.686	7963
905.803	7887
905.921	7799
906.038	7917
906.155	7833
906.272	7765
906.389	7738
906.506	7616
906.623	7578
906.74	7639
906.857	7533
906.974	7575
907.091	7712
907.208	7795
907.324	7594
907.441	7613
907.557	7483
907.674	7510
907.79	7377
907.907	7377
908.023	7480
908.139	7430
908.256	7339
908.372	7453
908.488	7354
908.604	7320
908.72	7282
908.836	7293
908.952	7263
909.068	7324
909.184	7331
909.3	7278
909.415	7274
909.531	7305
909.647	7084
909.762	7095
909.878	7088
909.993	7145
910.108	7126
910.224	7034
910.339	7145
910.454	7061
910.57	7027
910.685	6897
910.8	7194
910.915	7110
911.03	7019
911.145	6916
911.259	6928
911.374	6882
911.489	6875
911.604	6867
911.718	6726
911.833	6764
911.947	6646
912.062	6578
912.176	6688
912.291	6734
912.405	6741
912.519	6829
912.633	6939
912.748	6840
912.862	6665
912.976	6593
913.09	6578
913.204	6589
913.318	6635
913.431	6642
913.545	6658
913.659	6711
913.772	6608
913.886	6563
914	6521
914.113	6646
914.226	6658
914.34	6646
914.453	6479
914.566	6601
914.68	6486
914.793	6551
914.906	6445
915.019	6426
915.132	6407
915.245	6464
915.358	6460
915.47	6414
915.583	6475
915.696	6475
915.809	6563
915.921	6578
916.034	6429
916.146	6441
916.259	6429
916.371	6429
916.483	6513
916.595	6433
916.708	6426
916.82	6388
916.932	6456
917.044	6410
917.156	6410
917.268	6376
917.38	6273
917.491	6380
917.603	6342
917.715	6388
917.826	6433
917.938	6399
918.049	6224
918.161	6319
918.272	6391
918.384	6483
918.495	6342
918.606	6243
918.717	6205
918.828	6296
918.939	6277
919.05	6232
919.161	6296
919.272	6121
919.383	6159
919.494	6304
919.604	6456
919.715	6319
919.826	6163
919.936	6254
920.047	6323
920.157	6357
920.267	6429
920.378	6331
920.488	6266
920.598	6433
920.708	6547
920.818	6448
920.928	6483
921.038	6627
921.148	6566
921.258	6418
921.368	6334
921.477	6228
921.587	6205
921.697	6133
921.806	6197
921.916	6095
922.025	5958
922.134	5931
922.244	5908
922.353	5889
922.462	5844
922.571	5794
922.68	5688
922.789	5710
922.898	5718
923.007	5653
923.116	5790
923.224	5661
923.333	5676
923.442	5615
923.55	5570
923.659	5589
923.767	5615
923.876	5528
923.984	5596
924.092	5505
924.201	5551
924.309	5535
924.417	5539
924.525	5543
924.633	5490
924.741	6167
924.849	5425
924.956	5520
925.064	5349
925.172	5353
925.279	5322
925.387	5334
925.494	5376
925.602	5417
925.709	5357
925.816	5269
925.924	5353
926.031	5360
926.138	5307
926.245	5345
926.352	5280
926.459	5330
926.566	5296
926.673	5235
926.779	5136
926.886	5147
926.993	5067
927.099	5025
927.206	5025
927.312	4965
927.419	5079
927.525	4972
927.631	5003
927.737	4919
927.843	4862
927.95	4797
928.056	4847
928.162	4839
928.267	4866
928.373	5330
928.479	4866
928.585	4706
928.69	4755
928.796	4740
928.901	4691
929.007	4611
929.112	4714
929.218	4687
929.323	4641
929.428	4542
929.533	4710
929.638	4550
929.743	4554
929.848	4558
929.953	4493
930.058	4489
930.163	4348
930.267	4352
930.372	4493
930.477	4329
930.581	4493
930.685	4409
930.79	4242
930.894	4246
930.998	4223
931.103	4375
931.207	4120
931.311	4158
931.415	4040
931.519	3899
931.623	3945
