Data from glass_V78500241_1.txt Node
Date: Wed Sep 01 19:14:30 CST 2021
User: usil
Spectrometer: V785-0024
Trigger mode: 0
Integration Time (sec): 4.000000E-1
Scans to average: 1
Nonlinearity correction enabled: false
Boxcar width: 0
Storing dark spectrum: false
XAxis mode: Wavelengths
Number of Pixels in Spectrum: 1024
>>>>>Begin Spectral Data<<<<<
801.071	3785
801.214	3785
801.356	3717
801.499	3778
801.641	3747
801.783	3812
801.926	3869
802.068	3789
802.211	3842
802.353	3896
802.496	3857
802.638	3918
802.78	3934
802.923	3949
803.065	3899
803.208	3842
803.35	3873
803.492	3922
803.635	3930
803.777	3831
803.919	3873
804.061	4131
804.204	4017
804.346	3941
804.488	3922
804.63	4040
804.773	4017
804.915	4044
805.057	4154
805.199	4059
805.341	4086
805.483	4181
805.626	4169
805.768	4131
805.91	4234
806.052	4284
806.194	4200
806.336	4390
806.478	4268
806.62	4185
806.762	4230
806.904	4310
807.046	4402
807.188	4249
807.33	4192
807.472	4253
807.614	4211
807.756	4318
807.898	4196
808.04	4215
808.182	4284
808.324	4318
808.465	4402
808.607	4497
808.749	4470
808.891	4459
809.033	4535
809.174	4398
809.316	4322
809.458	4272
809.6	4188
809.741	4135
809.883	4196
810.025	4246
810.166	4234
810.308	4223
810.45	4234
810.591	4242
810.733	4303
810.875	4519
811.016	4862
811.158	5223
811.299	5250
811.441	5307
811.582	5067
811.724	4744
811.865	4493
812.007	4512
812.148	4470
812.29	4398
812.431	4417
812.573	4417
812.714	4383
812.855	4428
812.997	4421
813.138	4466
813.279	4432
813.421	4413
813.562	4375
813.703	4356
813.845	4333
813.986	4272
814.127	4238
814.268	4272
814.41	4303
814.551	4337
814.692	4363
814.833	4242
814.974	4383
815.115	4337
815.256	4287
815.397	4253
815.539	4318
815.68	4192
815.821	4234
815.962	4386
816.103	4299
816.244	4249
816.385	4227
816.526	4310
816.666	4196
816.807	4097
816.948	4109
817.089	4166
817.23	4131
817.371	4040
817.512	4051
817.653	4090
817.793	4048
817.934	4051
818.075	4116
818.216	4082
818.356	4150
818.497	4013
818.638	3915
818.778	3960
818.919	3903
819.06	3880
819.2	3941
819.341	3896
819.481	3873
819.622	3918
819.762	4029
819.903	3915
820.043	3876
820.184	3842
820.324	3838
820.465	3934
820.605	3945
820.746	3937
820.886	3831
821.026	3907
821.167	3964
821.307	3998
821.447	4002
821.588	3987
821.728	3960
821.868	3949
822.008	3880
822.149	3907
822.289	3937
822.429	3778
822.569	3766
822.709	3785
822.849	3698
822.99	3743
823.13	3808
823.27	3854
823.41	3736
823.55	3736
823.69	3751
823.83	3720
823.97	3701
824.11	3618
824.25	3656
824.389	3637
824.529	3694
824.669	3656
824.809	3759
824.949	3778
825.089	3751
825.228	3759
825.368	3549
825.508	3610
825.648	3572
825.787	3660
825.927	3633
826.067	3660
826.206	3698
826.346	3819
826.485	3854
826.625	3857
826.765	3960
826.904	3846
827.044	3587
827.183	3542
827.323	3488
827.462	3500
827.601	3458
827.741	3458
827.88	3462
828.02	3386
828.159	3477
828.298	3492
828.437	3549
828.577	3507
828.716	3637
828.855	3519
828.994	3359
829.134	3428
829.273	3386
829.412	3329
829.551	3329
829.69	3378
829.829	3458
829.968	3511
830.107	3431
830.246	3447
830.385	3382
830.524	3397
830.663	3306
830.802	3253
830.941	3214
831.08	3199
831.219	3272
831.357	3264
831.496	3469
831.635	3241
831.774	3192
831.913	3230
832.051	3108
832.19	3157
832.329	3230
832.467	3097
832.606	3104
832.744	3203
832.883	3192
833.022	3211
833.16	3264
833.299	3279
833.437	3344
833.576	3412
833.714	3401
833.852	3485
833.991	3462
834.129	3458
834.267	3488
834.406	3454
834.544	3469
834.682	3409
834.821	3412
834.959	3576
835.097	3435
835.235	3504
835.373	3492
835.511	3507
835.65	3473
835.788	3515
835.926	3443
836.064	3435
836.202	3447
836.34	3595
836.478	3629
836.615	3553
836.753	3629
836.891	3701
837.029	3629
837.167	3610
837.305	3572
837.443	3564
837.58	3553
837.718	3599
837.856	3591
837.993	3545
838.131	3576
838.269	3656
838.406	3610
838.544	3580
838.681	3500
838.819	3481
838.956	3393
839.094	3367
839.231	3492
839.369	3534
839.506	3778
839.643	3663
839.781	3530
839.918	3477
840.055	3534
840.193	3542
840.33	3542
840.467	3564
840.604	3618
840.742	3816
840.879	3545
841.016	3564
841.153	3599
841.29	3766
841.427	3709
841.564	3701
841.701	3740
841.838	3724
841.975	3682
842.112	3728
842.249	3648
842.385	3637
842.522	3838
842.659	3717
842.796	3679
842.933	3743
843.069	3701
843.206	3743
843.343	3804
843.479	3789
843.616	3857
843.752	3698
843.889	3679
844.025	3907
844.162	3717
844.298	3915
844.435	3835
844.571	3823
844.708	3930
844.844	3964
844.98	4044
845.117	3998
845.253	3930
845.389	3876
845.525	4013
845.661	3994
845.798	3945
845.934	4021
846.07	3987
846.206	4051
846.342	4150
846.478	4055
846.614	3987
846.75	3941
846.886	3899
847.022	4059
847.158	3987
847.294	4010
847.429	4040
847.565	4021
847.701	4242
847.837	3934
847.972	3854
848.108	3994
848.244	3949
848.379	3896
848.515	3819
848.65	3880
848.786	3865
848.921	3907
849.057	3983
849.192	3972
849.328	3937
849.463	3907
849.598	3880
849.734	3911
849.869	3808
850.004	3812
850.14	3823
850.275	3766
850.41	3743
850.545	3797
850.68	3823
850.815	3838
850.95	3816
851.085	3968
851.22	3854
851.355	3857
851.49	3854
851.625	3808
851.76	3743
851.895	3793
852.03	3724
852.165	3804
852.299	3854
852.434	3918
852.569	3869
852.703	3945
852.838	3896
852.973	4036
853.107	3998
853.242	3899
853.376	3869
853.511	3800
853.645	3838
853.78	3960
853.914	3892
854.048	3884
854.183	3888
854.317	3979
854.451	4074
854.585	3983
854.72	3991
854.854	4051
854.988	3941
855.122	4017
855.256	3937
855.39	4036
855.524	4120
855.658	4131
855.792	4093
855.926	4131
856.06	4162
856.194	4227
856.327	4116
856.461	4131
856.595	4215
856.729	4204
856.862	4253
856.996	4287
857.13	4371
857.263	4329
857.397	4409
857.53	4291
857.664	4394
857.797	4402
857.931	4443
858.064	4386
858.197	4459
858.331	4436
858.464	4344
858.597	4344
858.731	4413
858.864	4470
858.997	4478
859.13	4516
859.263	4516
859.396	4622
859.529	4493
859.662	4550
859.795	4535
859.928	4618
860.061	4740
860.194	4706
860.327	4698
860.46	4698
860.592	4736
860.725	4759
860.858	4740
860.99	4698
861.123	4687
861.256	4672
861.388	4786
861.521	5463
861.653	4721
861.786	4691
861.918	4782
862.05	4847
862.183	4835
862.315	4957
862.447	4953
862.58	4908
862.712	4797
862.844	4763
862.976	4885
863.108	4870
863.24	5277
863.372	4812
863.504	4946
863.636	4927
863.768	5018
863.9	5014
864.032	4942
864.164	4980
864.296	5033
864.428	5094
864.559	5098
864.691	5151
864.823	5143
864.954	5147
865.086	5166
865.217	5193
865.349	5136
865.48	5159
865.612	5204
865.743	5296
865.875	5189
866.006	5181
866.137	5189
866.269	5269
866.4	5292
866.531	5201
866.662	5216
866.793	5318
866.924	5326
867.055	5357
867.186	5417
867.317	5330
867.448	5345
867.579	5402
867.71	5398
867.841	5379
867.972	5467
868.103	5478
868.233	5505
868.364	5532
868.495	5589
868.625	5672
868.756	5836
868.886	5695
869.017	5752
869.147	5821
869.278	5855
869.408	5844
869.539	5817
869.669	6003
869.799	5927
869.929	5969
870.06	5988
870.19	6186
870.32	6171
870.45	6323
870.58	6365
870.71	6486
870.84	6467
870.97	6399
871.1	6445
871.23	6673
871.36	6760
871.489	6692
871.619	6741
871.749	6844
871.879	6852
872.008	6939
872.138	7023
872.267	6993
872.397	7069
872.526	7027
872.656	7168
872.785	7232
872.915	7422
873.044	7548
873.173	7609
873.303	7643
873.432	7742
873.561	7913
873.69	7951
873.819	8008
873.948	8233
874.077	8271
874.206	8347
874.335	8461
874.464	8678
874.593	8902
874.722	8956
874.851	9131
874.979	9268
875.108	9416
875.237	9435
875.365	9496
875.494	9637
875.623	9888
875.751	9854
875.88	10063
876.008	10112
876.136	10299
876.265	10554
876.393	10714
876.521	10698
876.65	10812
876.778	10900
876.906	10904
877.034	11056
877.162	11136
877.29	11170
877.418	11341
877.546	11337
877.674	11467
877.802	11573
877.93	11577
878.058	11615
878.185	11535
878.313	11596
878.441	11767
878.568	11634
878.696	11828
878.824	11870
878.951	11958
879.079	11904
879.206	12205
879.333	12083
879.461	12019
879.588	12152
879.715	12136
879.842	12270
879.97	12121
880.097	11927
880.224	11855
880.351	11893
880.478	11901
880.605	11923
880.732	11817
880.859	12011
880.986	11805
881.112	11828
881.239	11710
881.366	11638
881.493	11672
881.619	11615
881.746	11528
881.872	11543
881.999	11520
882.125	11524
882.252	11566
882.378	11463
882.505	11566
882.631	11372
882.757	11299
882.883	11318
883.01	11246
883.136	11201
883.262	11151
883.388	11147
883.514	11170
883.64	11227
883.766	11121
883.892	10984
884.018	10980
884.143	11117
884.269	11117
884.395	10831
884.52	10729
884.646	10771
884.772	10733
884.897	10660
885.023	10717
885.148	10698
885.274	10778
885.399	10653
885.524	10569
885.65	10588
885.775	10599
885.9	10561
886.025	10634
886.15	10599
886.275	10432
886.4	10417
886.525	10447
886.65	10402
886.775	10371
886.9	10451
887.025	10565
887.149	10443
887.274	10207
887.399	10204
887.523	10162
887.648	10063
887.773	10131
887.897	10185
888.021	10188
888.146	10128
888.27	10227
888.395	10257
888.519	10261
888.643	10204
888.767	10246
888.891	10067
889.015	9968
889.139	10071
889.263	9983
889.387	10071
889.511	10234
889.635	10082
889.759	9918
889.883	10059
890.006	9972
890.13	10051
890.254	10048
890.377	10002
890.501	9846
890.624	9983
890.748	9884
890.871	9812
890.995	9812
891.118	9766
891.241	9789
891.364	9804
891.488	9953
891.611	9747
891.734	9785
891.857	9728
891.98	9701
892.103	9789
892.226	9682
892.349	9717
892.471	9466
892.594	9614
892.717	9625
892.839	9667
892.962	9606
893.085	9606
893.207	9633
893.33	9553
893.452	9587
893.575	9606
893.697	9507
893.819	9599
893.941	9648
894.064	9542
894.186	9477
894.308	9485
894.43	9526
894.552	9545
894.674	9443
894.796	9393
894.918	9412
895.04	9325
895.161	9359
895.283	9325
895.405	9256
895.526	9275
895.648	9302
895.769	9287
895.891	9249
896.012	9340
896.134	9287
896.255	9131
896.376	9150
896.498	9214
896.619	9161
896.74	9070
896.861	9085
896.982	9230
897.103	9325
897.224	9192
897.345	9097
897.466	9020
897.587	9005
897.708	9089
897.828	9176
897.949	8994
898.07	8948
898.19	8941
898.311	9081
898.431	8952
898.552	8960
898.672	8963
898.792	9001
898.913	8979
899.033	8773
899.153	8754
899.273	8712
899.393	8663
899.513	8743
899.633	8712
899.753	8724
899.873	8667
899.993	8811
900.113	8708
900.232	8807
900.352	8693
900.472	8648
900.591	8617
900.711	8564
900.83	8598
900.95	8678
901.069	8689
901.189	8556
901.308	8446
901.427	8412
901.546	8499
901.665	8503
901.784	8499
901.904	8415
902.023	8355
902.141	8271
902.26	8240
902.379	8240
902.498	8336
902.617	8256
902.735	8301
902.854	8328
902.973	8214
903.091	8130
903.21	8142
903.328	8229
903.446	8130
903.565	8050
903.683	8183
903.801	8031
903.919	8111
904.038	8062
904.156	8100
904.274	8096
904.392	8065
904.51	8069
904.627	8062
904.745	8119
904.863	8123
904.981	7967
905.098	7925
905.216	7845
905.334	7887
905.451	7913
905.569	7852
905.686	7997
905.803	7917
905.921	7780
906.038	7879
906.155	7803
906.272	7742
906.389	7731
906.506	7613
906.623	7609
906.74	7578
906.857	7559
906.974	7609
907.091	7666
907.208	7723
907.324	7616
907.441	7632
907.557	7472
907.674	7487
907.79	7392
907.907	7445
908.023	7457
908.139	7400
908.256	7388
908.372	7407
908.488	7354
908.604	7228
908.72	7312
908.836	7301
908.952	7236
909.068	7289
909.184	7335
909.3	7240
909.415	7308
909.531	7316
909.647	7126
909.762	7122
909.878	7088
909.993	7164
910.108	7126
910.224	7042
910.339	7095
910.454	7091
910.57	6962
910.685	6954
910.8	7183
910.915	7091
911.03	7038
911.145	6916
911.259	6905
911.374	6897
911.489	6932
911.604	6802
911.718	6719
911.833	6734
911.947	6654
912.062	6639
912.176	6741
912.291	6753
912.405	6692
912.519	6867
912.633	6867
912.748	6753
912.862	6677
912.976	6627
913.09	6540
913.204	6608
913.318	6608
913.431	6764
913.545	6700
913.659	6681
913.772	6662
913.886	6563
914	6551
914.113	6597
914.226	6623
914.34	6616
914.453	6521
914.566	6620
914.68	6540
914.793	6532
914.906	6407
915.019	6410
915.132	6380
915.245	6479
915.358	6460
915.47	6475
915.583	6464
915.696	6429
915.809	6544
915.921	6544
916.034	6437
916.146	6441
916.259	6422
916.371	6445
916.483	6490
916.595	6361
916.708	6448
916.82	6448
916.932	6372
917.044	6426
917.156	6399
917.268	6372
917.38	6376
917.491	6327
917.603	6365
917.715	6365
917.826	6403
917.938	6372
918.049	6289
918.161	6365
918.272	6479
918.384	6426
918.495	6426
918.606	6258
918.717	6289
918.828	6338
918.939	6331
919.05	6239
919.161	6319
919.272	6140
919.383	6163
919.494	6270
919.604	6452
919.715	6369
919.826	6239
919.936	6270
920.047	6369
920.157	6247
920.267	6414
920.378	6323
920.488	6304
920.598	6467
920.708	6555
920.818	6498
920.928	6467
921.038	6612
921.148	6589
921.258	6361
921.368	6361
921.477	6175
921.587	6201
921.697	6114
921.806	6251
921.916	6091
922.025	5958
922.134	5958
922.244	5904
922.353	5916
922.462	5855
922.571	5817
922.68	5684
922.789	5668
922.898	5756
923.007	5634
923.116	5752
923.224	5623
923.333	5619
923.442	5642
923.55	5585
923.659	5619
923.767	5634
923.876	5535
923.984	5600
924.092	5570
924.201	5577
924.309	5570
924.417	5554
924.525	5509
924.633	5493
924.741	6292
924.849	5387
924.956	5516
925.064	5383
925.172	5311
925.279	5277
925.387	5406
925.494	5353
925.602	5440
925.709	5383
925.816	5284
925.924	5341
926.031	5395
926.138	5299
926.245	5318
926.352	5208
926.459	5349
926.566	5387
926.673	5284
926.779	5117
926.886	5117
926.993	5025
927.099	5029
927.206	4995
927.312	4972
927.419	5105
927.525	4953
927.631	5014
927.737	4908
927.843	4873
927.95	4771
928.056	4828
928.162	4862
928.267	4885
928.373	5364
928.479	4930
928.585	4702
928.69	4797
928.796	4767
928.901	4664
929.007	4637
929.112	4752
929.218	4641
929.323	4599
929.428	4580
929.533	4710
929.638	4558
929.743	4523
929.848	4573
929.953	4554
930.058	4481
930.163	4363
930.267	4394
930.372	4470
930.477	4360
930.581	4470
930.685	4367
930.79	4280
930.894	4314
930.998	4329
931.103	4402
931.207	4128
931.311	4086
931.415	4086
931.519	3888
931.623	3994
