Data from glass_V78500241_2579.txt Node
Date: Wed Sep 01 19:32:22 CST 2021
User: usil
Spectrometer: V785-0024
Trigger mode: 0
Integration Time (sec): 4.000000E-1
Scans to average: 1
Nonlinearity correction enabled: false
Boxcar width: 0
Storing dark spectrum: false
XAxis mode: Wavelengths
Number of Pixels in Spectrum: 1024
>>>>>Begin Spectral Data<<<<<
801.071	3705
801.214	3709
801.356	3732
801.499	3743
801.641	3740
801.783	3724
801.926	3861
802.068	3831
802.211	3823
802.353	3869
802.496	3812
802.638	3876
802.78	3903
802.923	3956
803.065	3865
803.208	3846
803.35	3854
803.492	3876
803.635	3945
803.777	3789
803.919	3876
804.061	4154
804.204	3911
804.346	3945
804.488	3956
804.63	4017
804.773	3953
804.915	4017
805.057	4147
805.199	4010
805.341	4048
805.483	4109
805.626	4139
805.768	4048
805.91	4215
806.052	4223
806.194	4162
806.336	4356
806.478	4219
806.62	4185
806.762	4173
806.904	4230
807.046	4348
807.188	4204
807.33	4162
807.472	4215
807.614	4177
807.756	4265
807.898	4188
808.04	4185
808.182	4306
808.324	4310
808.465	4360
808.607	4489
808.749	4455
808.891	4455
809.033	4504
809.174	4371
809.316	4257
809.458	4192
809.6	4169
809.741	4173
809.883	4116
810.025	4246
810.166	4173
810.308	4211
810.45	4192
810.591	4246
810.733	4291
810.875	4538
811.016	4782
811.158	5083
811.299	5235
811.441	5269
811.582	5041
811.724	4721
811.865	4451
812.007	4451
812.148	4413
812.29	4402
812.431	4371
812.573	4363
812.714	4341
812.855	4421
812.997	4424
813.138	4455
813.279	4421
813.421	4383
813.562	4329
813.703	4299
813.845	4314
813.986	4303
814.127	4227
814.268	4223
814.41	4227
814.551	4272
814.692	4329
814.833	4253
814.974	4287
815.115	4341
815.256	4211
815.397	4223
815.539	4200
815.68	4249
815.821	4185
815.962	4276
816.103	4234
816.244	4238
816.385	4242
816.526	4249
816.666	4181
816.807	4112
816.948	4185
817.089	4181
817.23	4131
817.371	4071
817.512	4025
817.653	4032
817.793	4051
817.934	4105
818.075	4101
818.216	4059
818.356	4078
818.497	4029
818.638	3907
818.778	3903
818.919	3888
819.06	3896
819.2	3892
819.341	3819
819.481	3819
819.622	3937
819.762	4010
819.903	3960
820.043	3861
820.184	3797
820.324	3781
820.465	3861
820.605	3896
820.746	3861
820.886	3800
821.026	3941
821.167	3922
821.307	3949
821.447	3956
821.588	3972
821.728	3945
821.868	3911
822.008	3876
822.149	3876
822.289	3918
822.429	3793
822.569	3785
822.709	3743
822.849	3667
822.99	3766
823.13	3736
823.27	3732
823.41	3690
823.55	3732
823.69	3717
823.83	3736
823.97	3675
824.11	3606
824.25	3599
824.389	3614
824.529	3656
824.669	3644
824.809	3694
824.949	3740
825.089	3736
825.228	3686
825.368	3564
825.508	3538
825.648	3557
825.787	3610
825.927	3663
826.067	3603
826.206	3663
826.346	3740
826.485	3835
826.625	3831
826.765	3899
826.904	3846
827.044	3625
827.183	3557
827.323	3435
827.462	3447
827.601	3431
827.741	3401
827.88	3412
828.02	3336
828.159	3466
828.298	3454
828.437	3519
828.577	3412
828.716	3576
828.855	3538
828.994	3386
829.134	3351
829.273	3401
829.412	3325
829.551	3306
829.69	3359
829.829	3386
829.968	3485
830.107	3458
830.246	3424
830.385	3359
830.524	3378
830.663	3298
830.802	3249
830.941	3199
831.08	3218
831.219	3260
831.357	3214
831.496	3378
831.635	3226
831.774	3154
831.913	3180
832.051	3097
832.19	3176
832.329	3180
832.467	3138
832.606	3127
832.744	3123
832.883	3214
833.022	3188
833.16	3226
833.299	3329
833.437	3321
833.576	3332
833.714	3439
833.852	3416
833.991	3481
834.129	3435
834.267	3454
834.406	3374
834.544	3397
834.682	3431
834.821	3412
834.959	3591
835.097	3370
835.235	3519
835.373	3477
835.511	3515
835.65	3428
835.788	3473
835.926	3378
836.064	3367
836.202	3389
836.34	3591
836.478	3618
836.615	3504
836.753	3606
836.891	3614
837.029	3622
837.167	3561
837.305	3564
837.443	3538
837.58	3477
837.718	3584
837.856	3538
837.993	3545
838.131	3542
838.269	3591
838.406	3553
838.544	3599
838.681	3485
838.819	3443
838.956	3416
839.094	3355
839.231	3420
839.369	3492
839.506	3743
839.643	3610
839.781	3492
839.918	3466
840.055	3511
840.193	3542
840.33	3511
840.467	3545
840.604	3564
840.742	3785
840.879	3534
841.016	3538
841.153	3572
841.29	3724
841.427	3690
841.564	3671
841.701	3717
841.838	3667
841.975	3660
842.112	3686
842.249	3629
842.385	3618
842.522	3808
842.659	3667
842.796	3675
842.933	3679
843.069	3720
843.206	3660
843.343	3789
843.479	3743
843.616	3846
843.752	3675
843.889	3660
844.025	3861
844.162	3663
844.298	3850
844.435	3800
844.571	3785
844.708	3869
844.844	4013
844.98	3987
845.117	4029
845.253	3956
845.389	3915
845.525	3915
845.661	3945
845.798	3918
845.934	3991
846.07	3934
846.206	4051
846.342	4131
846.478	4105
846.614	3937
846.75	3911
846.886	3907
847.022	3975
847.158	3941
847.294	3968
847.429	4021
847.565	3975
847.701	4238
847.837	3865
847.972	3865
848.108	3964
848.244	3964
848.379	3869
848.515	3804
848.65	3804
848.786	3831
848.921	3846
849.057	3899
849.192	3926
849.328	3922
849.463	3861
849.598	3899
849.734	3827
849.869	3846
850.004	3781
850.14	3816
850.275	3740
850.41	3701
850.545	3759
850.68	3743
850.815	3736
850.95	3793
851.085	3941
851.22	3854
851.355	3838
851.49	3751
851.625	3774
851.76	3804
851.895	3709
852.03	3698
852.165	3800
852.299	3831
852.434	3876
852.569	3850
852.703	3876
852.838	3930
852.973	4006
853.107	3960
853.242	3884
853.376	3861
853.511	3785
853.645	3804
853.78	3983
853.914	3865
854.048	3899
854.183	3903
854.317	3937
854.451	4067
854.585	4029
854.72	3956
854.854	4044
854.988	3934
855.122	3937
855.256	3949
855.39	3991
855.524	4093
855.658	4078
855.792	4082
855.926	4120
856.06	4173
856.194	4169
856.327	4143
856.461	4154
856.595	4131
856.729	4169
856.862	4223
856.996	4207
857.13	4303
857.263	4303
857.397	4405
857.53	4261
857.664	4299
857.797	4383
857.931	4375
858.064	4436
858.197	4383
858.331	4421
858.464	4344
858.597	4352
858.731	4402
858.864	4440
858.997	4466
859.13	4485
859.263	4561
859.396	4584
859.529	4535
859.662	4527
859.795	4523
859.928	4519
860.061	4653
860.194	4675
860.327	4626
860.46	4649
860.592	4797
860.725	4714
860.858	4763
860.99	4721
861.123	4675
861.256	4675
861.388	4736
861.521	5368
861.653	4717
861.786	4687
861.918	4740
862.05	4793
862.183	4854
862.315	4850
862.447	4919
862.58	4885
862.712	4793
862.844	4759
862.976	4850
863.108	4873
863.24	5143
863.372	4801
863.504	4881
863.636	4881
863.768	4991
863.9	4930
864.032	4885
864.164	4927
864.296	5006
864.428	5083
864.559	5083
864.691	5102
864.823	5147
864.954	5105
865.086	5094
865.217	5075
865.349	5102
865.48	5128
865.612	5166
865.743	5307
865.875	5178
866.006	5147
866.137	5288
866.269	5254
866.4	5292
866.531	5216
866.662	5201
866.793	5277
866.924	5254
867.055	5303
867.186	5372
867.317	5235
867.448	5299
867.579	5398
867.71	5326
867.841	5379
867.972	5448
868.103	5467
868.233	5455
868.364	5474
868.495	5558
868.625	5661
868.756	5756
868.886	5638
869.017	5718
869.147	5821
869.278	5912
869.408	5764
869.539	5805
869.669	5965
869.799	5916
869.929	5931
870.06	6026
870.19	6213
870.32	6140
870.45	6296
870.58	6350
870.71	6357
870.84	6506
870.97	6452
871.1	6502
871.23	6684
871.36	6677
871.489	6688
871.619	6753
871.749	6833
871.879	6852
872.008	6951
872.138	6954
872.267	6947
872.397	7019
872.526	6985
872.656	7080
872.785	7225
872.915	7346
873.044	7521
873.173	7518
873.303	7624
873.432	7761
873.561	7799
873.69	7940
873.819	7997
873.948	8180
874.077	8309
874.206	8358
874.335	8434
874.464	8606
874.593	8838
874.722	8857
874.851	9157
874.979	9173
875.108	9393
875.237	9454
875.365	9466
875.494	9660
875.623	9831
875.751	9797
875.88	9953
876.008	10101
876.136	10303
876.265	10588
876.393	10691
876.521	10668
876.65	10809
876.778	10892
876.906	10866
877.034	11018
877.162	10968
877.29	11155
877.418	11292
877.546	11349
877.674	11448
877.802	11535
877.93	11467
878.058	11608
878.185	11608
878.313	11630
878.441	11824
878.568	11657
878.696	11771
878.824	11851
878.951	11901
879.079	11916
879.206	12125
879.333	12087
879.461	11973
879.588	12049
879.715	12045
879.842	12216
879.97	12057
880.097	11802
880.224	11920
880.351	11866
880.478	11923
880.605	11836
880.732	11809
880.859	12015
880.986	11817
881.112	11889
881.239	11729
881.366	11676
881.493	11543
881.619	11512
881.746	11600
881.872	11516
881.999	11364
882.125	11478
882.252	11570
882.378	11452
882.505	11657
882.631	11303
882.757	11231
882.883	11296
883.01	11201
883.136	11174
883.262	11178
883.388	11037
883.514	11189
883.64	11128
883.766	11105
883.892	10976
884.018	10968
884.143	11010
884.269	11143
884.395	10854
884.52	10694
884.646	10752
884.772	10733
884.897	10679
885.023	10710
885.148	10725
885.274	10816
885.399	10611
885.524	10531
885.65	10611
885.775	10618
885.9	10584
886.025	10580
886.15	10519
886.275	10462
886.4	10440
886.525	10337
886.65	10341
886.775	10367
886.9	10470
887.025	10584
887.149	10314
887.274	10295
887.399	10188
887.523	10200
887.648	10192
887.773	10055
887.897	10238
888.021	10215
888.146	10074
888.27	10196
888.395	10185
888.519	10162
888.643	10173
888.767	10143
888.891	10010
889.015	10032
889.139	10040
889.263	10017
889.387	10116
889.511	10131
889.635	9998
889.759	9983
889.883	9991
890.006	9895
890.13	10067
890.254	10006
890.377	9945
890.501	9857
890.624	9812
890.748	9892
890.871	9774
890.995	9789
891.118	9724
891.241	9705
891.364	9732
891.488	9842
891.611	9713
891.734	9755
891.857	9781
891.98	9743
892.103	9793
892.226	9614
892.349	9644
892.471	9496
892.594	9614
892.717	9625
892.839	9580
892.962	9618
893.085	9576
893.207	9572
893.33	9587
893.452	9500
893.575	9530
893.697	9519
893.819	9656
893.941	9603
894.064	9580
894.186	9473
894.308	9496
894.43	9507
894.552	9504
894.674	9458
894.796	9348
894.918	9428
895.04	9313
895.161	9321
895.283	9359
895.405	9176
895.526	9241
895.648	9291
895.769	9214
895.891	9264
896.012	9294
896.134	9203
896.255	9138
896.376	9066
896.498	9135
896.619	9195
896.74	9047
896.861	9135
896.982	9218
897.103	9260
897.224	9127
897.345	9047
897.466	9028
897.587	9009
897.708	9135
897.828	9017
897.949	8937
898.07	8887
898.19	8906
898.311	8975
898.431	8864
898.552	8941
898.672	8979
898.792	9005
898.913	8921
899.033	8807
899.153	8762
899.273	8617
899.393	8750
899.513	8720
899.633	8693
899.753	8781
899.873	8689
899.993	8754
900.113	8674
900.232	8712
900.352	8560
900.472	8594
900.591	8530
900.711	8549
900.83	8499
900.95	8648
901.069	8663
901.189	8461
901.308	8419
901.427	8450
901.546	8419
901.665	8480
901.784	8480
901.904	8377
902.023	8412
902.141	8180
902.26	8225
902.379	8252
902.498	8233
902.617	8309
902.735	8313
902.854	8305
902.973	8240
903.091	8115
903.21	8183
903.328	8145
903.446	8176
903.565	8005
903.683	8111
903.801	8039
903.919	8081
904.038	8073
904.156	8035
904.274	8027
904.392	7978
904.51	7955
904.627	8058
904.745	8058
904.863	8111
904.981	7963
905.098	7814
905.216	7875
905.334	7841
905.451	7906
905.569	7864
905.686	7974
905.803	7852
905.921	7738
906.038	7841
906.155	7799
906.272	7731
906.389	7689
906.506	7624
906.623	7651
906.74	7609
906.857	7567
906.974	7616
907.091	7632
907.208	7719
907.324	7636
907.441	7518
907.557	7449
907.674	7453
907.79	7369
907.907	7346
908.023	7400
908.139	7441
908.256	7377
908.372	7384
908.488	7331
908.604	7255
908.72	7175
908.836	7255
908.952	7259
909.068	7156
909.184	7308
909.3	7171
909.415	7244
909.531	7301
909.647	7122
909.762	7088
909.878	7179
909.993	7080
910.108	7080
910.224	7091
910.339	7076
910.454	7015
910.57	7057
910.685	6981
910.8	7114
910.915	7099
911.03	7000
911.145	6901
911.259	6821
911.374	6947
911.489	6814
911.604	6814
911.718	6711
911.833	6711
911.947	6612
912.062	6582
912.176	6665
912.291	6692
912.405	6677
912.519	6810
912.633	6894
912.748	6658
912.862	6677
912.976	6612
913.09	6544
913.204	6620
913.318	6623
913.431	6684
913.545	6677
913.659	6658
913.772	6612
913.886	6532
914	6574
914.113	6623
914.226	6692
914.34	6646
914.453	6502
914.566	6604
914.68	6528
914.793	6521
914.906	6399
915.019	6399
915.132	6300
915.245	6448
915.358	6460
915.47	6433
915.583	6399
915.696	6502
915.809	6479
915.921	6536
916.034	6380
916.146	6384
916.259	6395
916.371	6456
916.483	6414
916.595	6414
916.708	6346
916.82	6391
916.932	6311
917.044	6380
917.156	6391
917.268	6350
917.38	6357
917.491	6292
917.603	6311
917.715	6372
917.826	6410
917.938	6296
918.049	6216
918.161	6308
918.272	6407
918.384	6437
918.495	6323
918.606	6270
918.717	6175
918.828	6228
918.939	6197
919.05	6220
919.161	6258
919.272	6140
919.383	6087
919.494	6258
919.604	6437
919.715	6273
919.826	6152
919.936	6285
920.047	6365
920.157	6243
920.267	6429
920.378	6319
920.488	6289
920.598	6433
920.708	6528
920.818	6509
920.928	6452
921.038	6631
921.148	6506
921.258	6350
921.368	6270
921.477	6178
921.587	6224
921.697	6102
921.806	6125
921.916	6030
922.025	5950
922.134	5855
922.244	5920
922.353	5954
922.462	5836
922.571	5779
922.68	5668
922.789	5680
922.898	5722
923.007	5634
923.116	5741
923.224	5691
923.333	5668
923.442	5581
923.55	5505
923.659	5554
923.767	5627
923.876	5551
923.984	5619
924.092	5501
924.201	5600
924.309	5528
924.417	5570
924.525	5433
924.633	5471
924.741	6277
924.849	5406
924.956	5478
925.064	5315
925.172	5337
925.279	5341
925.387	5345
925.494	5284
925.602	5429
925.709	5364
925.816	5318
925.924	5326
926.031	5296
926.138	5254
926.245	5303
926.352	5197
926.459	5303
926.566	5318
926.673	5162
926.779	5098
926.886	5098
926.993	5025
927.099	4999
927.206	4965
927.312	4927
927.419	5029
927.525	4972
927.631	4892
927.737	4896
927.843	4877
927.95	4767
928.056	4820
928.162	4847
928.267	4858
928.373	5265
928.479	4816
928.585	4698
928.69	4755
928.796	4763
928.901	4672
929.007	4588
929.112	4645
929.218	4573
929.323	4599
929.428	4535
929.533	4672
929.638	4512
929.743	4531
929.848	4588
929.953	4474
930.058	4413
930.163	4314
930.267	4325
930.372	4440
930.477	4242
930.581	4459
930.685	4379
930.79	4265
930.894	4291
930.998	4242
931.103	4371
931.207	4128
931.311	4093
931.415	4032
931.519	3922
931.623	3945
