Data from glass_V78500241_2758.txt Node
Date: Wed Sep 01 19:33:37 CST 2021
User: usil
Spectrometer: V785-0024
Trigger mode: 0
Integration Time (sec): 4.000000E-1
Scans to average: 1
Nonlinearity correction enabled: false
Boxcar width: 0
Storing dark spectrum: false
XAxis mode: Wavelengths
Number of Pixels in Spectrum: 1024
>>>>>Begin Spectral Data<<<<<
801.071	3720
801.214	3740
801.356	3713
801.499	3682
801.641	3751
801.783	3778
801.926	3823
802.068	3827
802.211	3869
802.353	3854
802.496	3861
802.638	3797
802.78	3899
802.923	3892
803.065	3857
803.208	3869
803.35	3861
803.492	3888
803.635	3892
803.777	3797
803.919	3937
804.061	4112
804.204	3930
804.346	3937
804.488	3892
804.63	4002
804.773	3953
804.915	4025
805.057	4090
805.199	4048
805.341	4101
805.483	4067
805.626	4169
805.768	4143
805.91	4173
806.052	4188
806.194	4166
806.336	4314
806.478	4211
806.62	4169
806.762	4181
806.904	4223
807.046	4287
807.188	4192
807.33	4166
807.472	4196
807.614	4196
807.756	4276
807.898	4158
808.04	4200
808.182	4291
808.324	4325
808.465	4371
808.607	4402
808.749	4417
808.891	4432
809.033	4459
809.174	4413
809.316	4291
809.458	4253
809.6	4185
809.741	4139
809.883	4158
810.025	4200
810.166	4234
810.308	4230
810.45	4207
810.591	4200
810.733	4234
810.875	4512
811.016	4774
811.158	5143
811.299	5254
811.441	5250
811.582	5090
811.724	4649
811.865	4462
812.007	4481
812.148	4386
812.29	4379
812.431	4398
812.573	4367
812.714	4356
812.855	4379
812.997	4398
813.138	4417
813.279	4386
813.421	4386
813.562	4413
813.703	4329
813.845	4314
813.986	4268
814.127	4192
814.268	4177
814.41	4291
814.551	4268
814.692	4295
814.833	4299
814.974	4284
815.115	4280
815.256	4253
815.397	4234
815.539	4249
815.68	4135
815.821	4185
815.962	4314
816.103	4261
816.244	4219
816.385	4242
816.526	4253
816.666	4204
816.807	4078
816.948	4192
817.089	4158
817.23	4143
817.371	4044
817.512	4010
817.653	4067
817.793	4048
817.934	4044
818.075	4101
818.216	4101
818.356	4105
818.497	3956
818.638	3937
818.778	3896
818.919	3884
819.06	3892
819.2	3884
819.341	3823
819.481	3804
819.622	3865
819.762	4013
819.903	3918
820.043	3850
820.184	3819
820.324	3835
820.465	3869
820.605	3819
820.746	3850
820.886	3778
821.026	3918
821.167	3876
821.307	3987
821.447	3964
821.588	3911
821.728	3934
821.868	3949
822.008	3857
822.149	3888
822.289	3838
822.429	3823
822.569	3717
822.709	3800
822.849	3690
822.99	3694
823.13	3724
823.27	3785
823.41	3694
823.55	3740
823.69	3679
823.83	3701
823.97	3644
824.11	3584
824.25	3595
824.389	3603
824.529	3660
824.669	3618
824.809	3709
824.949	3686
825.089	3698
825.228	3652
825.368	3564
825.508	3553
825.648	3500
825.787	3618
825.927	3603
826.067	3610
826.206	3667
826.346	3743
826.485	3846
826.625	3846
826.765	3907
826.904	3785
827.044	3561
827.183	3500
827.323	3397
827.462	3443
827.601	3397
827.741	3405
827.88	3447
828.02	3351
828.159	3393
828.298	3507
828.437	3507
828.577	3435
828.716	3542
828.855	3496
828.994	3393
829.134	3336
829.273	3340
829.412	3344
829.551	3313
829.69	3332
829.829	3431
829.968	3481
830.107	3367
830.246	3416
830.385	3344
830.524	3332
830.663	3264
830.802	3211
830.941	3173
831.08	3180
831.219	3249
831.357	3233
831.496	3401
831.635	3245
831.774	3169
831.913	3195
832.051	3131
832.19	3154
832.329	3180
832.467	3135
832.606	3127
832.744	3142
832.883	3157
833.022	3218
833.16	3310
833.299	3325
833.437	3283
833.576	3382
833.714	3344
833.852	3443
833.991	3454
834.129	3466
834.267	3428
834.406	3405
834.544	3389
834.682	3412
834.821	3401
834.959	3538
835.097	3393
835.235	3523
835.373	3477
835.511	3458
835.65	3447
835.788	3447
835.926	3386
836.064	3359
836.202	3401
836.34	3580
836.478	3595
836.615	3523
836.753	3568
836.891	3625
837.029	3572
837.167	3587
837.305	3561
837.443	3564
837.58	3511
837.718	3576
837.856	3534
837.993	3523
838.131	3587
838.269	3572
838.406	3564
838.544	3545
838.681	3435
838.819	3428
838.956	3336
839.094	3412
839.231	3450
839.369	3485
839.506	3675
839.643	3587
839.781	3477
839.918	3485
840.055	3523
840.193	3511
840.33	3553
840.467	3530
840.604	3580
840.742	3766
840.879	3488
841.016	3485
841.153	3549
841.29	3709
841.427	3732
841.564	3682
841.701	3747
841.838	3690
841.975	3656
842.112	3701
842.249	3610
842.385	3614
842.522	3789
842.659	3675
842.796	3641
842.933	3667
843.069	3728
843.206	3705
843.343	3789
843.479	3793
843.616	3812
843.752	3637
843.889	3652
844.025	3850
844.162	3713
844.298	3800
844.435	3774
844.571	3759
844.708	3880
844.844	3956
844.98	4006
845.117	3991
845.253	3918
845.389	3922
845.525	3918
845.661	3994
845.798	3850
845.934	3987
846.07	3884
846.206	4055
846.342	4109
846.478	4055
846.614	3899
846.75	3911
846.886	3937
847.022	4051
847.158	3907
847.294	3960
847.429	3975
847.565	3991
847.701	4196
847.837	3876
847.972	3842
848.108	3972
848.244	3953
848.379	3880
848.515	3797
848.65	3816
848.786	3808
848.921	3869
849.057	3903
849.192	3930
849.328	3869
849.463	3918
849.598	3896
849.734	3842
849.869	3816
850.004	3736
850.14	3778
850.275	3804
850.41	3698
850.545	3724
850.68	3762
850.815	3793
850.95	3835
851.085	3926
851.22	3892
851.355	3778
851.49	3770
851.625	3804
851.76	3743
851.895	3751
852.03	3728
852.165	3812
852.299	3800
852.434	3907
852.569	3838
852.703	3854
852.838	3876
852.973	3956
853.107	3968
853.242	3888
853.376	3816
853.511	3762
853.645	3808
853.78	4010
853.914	3899
854.048	3869
854.183	3861
854.317	3915
854.451	4040
854.585	3918
854.72	3945
854.854	4010
854.988	3884
855.122	3964
855.256	3892
855.39	4051
855.524	4093
855.658	4071
855.792	4078
855.926	4097
856.06	4131
856.194	4207
856.327	4120
856.461	4124
856.595	4139
856.729	4154
856.862	4253
856.996	4257
857.13	4287
857.263	4322
857.397	4322
857.53	4295
857.664	4318
857.797	4367
857.931	4421
858.064	4390
858.197	4405
858.331	4356
858.464	4390
858.597	4314
858.731	4447
858.864	4421
858.997	4432
859.13	4519
859.263	4519
859.396	4558
859.529	4504
859.662	4538
859.795	4493
859.928	4558
860.061	4717
860.194	4729
860.327	4630
860.46	4596
860.592	4729
860.725	4752
860.858	4725
860.99	4668
861.123	4656
861.256	4706
861.388	4717
861.521	5235
861.653	4714
861.786	4675
861.918	4725
862.05	4778
862.183	4805
862.315	4858
862.447	4908
862.58	4877
862.712	4782
862.844	4752
862.976	4839
863.108	4824
863.24	5212
863.372	4820
863.504	4881
863.636	4873
863.768	4999
863.9	4930
864.032	4896
864.164	4896
864.296	4961
864.428	5094
864.559	5090
864.691	5098
864.823	5105
864.954	5128
865.086	5124
865.217	5124
865.349	5056
865.48	5071
865.612	5204
865.743	5269
865.875	5128
866.006	5181
866.137	5242
866.269	5201
866.4	5288
866.531	5227
866.662	5197
866.793	5197
866.924	5227
867.055	5364
867.186	5315
867.317	5288
867.448	5254
867.579	5318
867.71	5303
867.841	5387
867.972	5406
868.103	5433
868.233	5467
868.364	5478
868.495	5505
868.625	5642
868.756	5779
868.886	5661
869.017	5688
869.147	5855
869.278	5893
869.408	5764
869.539	5798
869.669	5882
869.799	5809
869.929	5942
870.06	5977
870.19	6155
870.32	6133
870.45	6228
870.58	6285
870.71	6384
870.84	6426
870.97	6369
871.1	6445
871.23	6631
871.36	6696
871.489	6627
871.619	6741
871.749	6776
871.879	6802
872.008	6920
872.138	6909
872.267	6989
872.397	6954
872.526	6916
872.656	6996
872.785	7114
872.915	7358
873.044	7502
873.173	7499
873.303	7586
873.432	7723
873.561	7898
873.69	7841
873.819	8005
873.948	8142
874.077	8191
874.206	8275
874.335	8400
874.464	8686
874.593	8792
874.722	8902
874.851	9112
874.979	9203
875.108	9340
875.237	9435
875.365	9519
875.494	9591
875.623	9812
875.751	9816
875.88	10025
876.008	10169
876.136	10268
876.265	10523
876.393	10668
876.521	10782
876.65	10862
876.778	10805
876.906	10877
877.034	11045
877.162	11045
877.29	11121
877.418	11345
877.546	11280
877.674	11440
877.802	11440
877.93	11448
878.058	11554
878.185	11592
878.313	11573
878.441	11676
878.568	11630
878.696	11802
878.824	11847
878.951	11916
879.079	11958
879.206	12144
879.333	12076
879.461	11961
879.588	12072
879.715	12083
879.842	12262
879.97	12049
880.097	11828
880.224	11904
880.351	11893
880.478	11828
880.605	11885
880.732	11775
880.859	12003
880.986	11783
881.112	11786
881.239	11642
881.366	11649
881.493	11577
881.619	11520
881.746	11512
881.872	11547
881.999	11611
882.125	11455
882.252	11486
882.378	11383
882.505	11558
882.631	11307
882.757	11254
882.883	11296
883.01	11223
883.136	11162
883.262	11048
883.388	11113
883.514	11185
883.64	11189
883.766	11052
883.892	10957
884.018	10984
884.143	11022
884.269	11117
884.395	10805
884.52	10778
884.646	10748
884.772	10721
884.897	10634
885.023	10588
885.148	10672
885.274	10752
885.399	10752
885.524	10592
885.65	10569
885.775	10550
885.9	10596
886.025	10603
886.15	10637
886.275	10424
886.4	10409
886.525	10348
886.65	10413
886.775	10333
886.9	10478
887.025	10485
887.149	10329
887.274	10124
887.399	10227
887.523	10173
887.648	10158
887.773	10109
887.897	10173
888.021	10219
888.146	10048
888.27	10227
888.395	10105
888.519	10109
888.643	10135
888.767	10204
888.891	10074
889.015	10013
889.139	10029
889.263	9922
889.387	10055
889.511	10067
889.635	9968
889.759	9892
889.883	9892
890.006	9979
890.13	10029
890.254	10002
890.377	9979
890.501	9918
890.624	9854
890.748	9838
890.871	9861
890.995	9785
891.118	9740
891.241	9705
891.364	9679
891.488	9785
891.611	9797
891.734	9690
891.857	9717
891.98	9762
892.103	9797
892.226	9679
892.349	9667
892.471	9469
892.594	9591
892.717	9603
892.839	9587
892.962	9587
893.085	9682
893.207	9580
893.33	9519
893.452	9576
893.575	9545
893.697	9511
893.819	9557
893.941	9625
894.064	9523
894.186	9348
894.308	9386
894.43	9492
894.552	9526
894.674	9572
894.796	9412
894.918	9344
895.04	9374
895.161	9351
895.283	9310
895.405	9173
895.526	9253
895.648	9279
895.769	9199
895.891	9268
896.012	9283
896.134	9287
896.255	9074
896.376	9097
896.498	9100
896.619	9138
896.74	9123
896.861	9024
896.982	9154
897.103	9245
897.224	9074
897.345	9100
897.466	8963
897.587	9070
897.708	9024
897.828	9039
897.949	8895
898.07	8880
898.19	8838
898.311	8967
898.431	8842
898.552	8921
898.672	8971
898.792	8971
898.913	8861
899.033	8819
899.153	8754
899.273	8651
899.393	8644
899.513	8705
899.633	8727
899.753	8724
899.873	8648
899.993	8746
900.113	8724
900.232	8701
900.352	8583
900.472	8549
900.591	8568
900.711	8575
900.83	8503
900.95	8594
901.069	8712
901.189	8522
901.308	8374
901.427	8385
901.546	8309
901.665	8450
901.784	8492
901.904	8374
902.023	8332
902.141	8240
902.26	8130
902.379	8240
902.498	8229
902.617	8252
902.735	8298
902.854	8290
902.973	8279
903.091	8092
903.21	8081
903.328	8225
903.446	8058
903.565	8024
903.683	8084
903.801	8149
903.919	8134
904.038	8107
904.156	8016
904.274	8092
904.392	8062
904.51	8027
904.627	8065
904.745	8058
904.863	8100
904.981	7928
905.098	7871
905.216	7890
905.334	7921
905.451	7864
905.569	7852
905.686	7879
905.803	7906
905.921	7757
906.038	7845
906.155	7727
906.272	7704
906.389	7727
906.506	7636
906.623	7662
906.74	7632
906.857	7521
906.974	7552
907.091	7655
907.208	7712
907.324	7693
907.441	7597
907.557	7426
907.674	7415
907.79	7358
907.907	7396
908.023	7460
908.139	7392
908.256	7430
908.372	7354
908.488	7270
908.604	7301
908.72	7247
908.836	7232
908.952	7221
909.068	7194
909.184	7251
909.3	7285
909.415	7247
909.531	7221
909.647	7107
909.762	7076
909.878	7118
909.993	7179
910.108	7042
910.224	7118
910.339	7031
910.454	7042
910.57	6996
910.685	6890
910.8	7118
910.915	7050
911.03	6981
911.145	6825
911.259	6878
911.374	6837
911.489	6772
911.604	6760
911.718	6749
911.833	6707
911.947	6612
912.062	6578
912.176	6715
912.291	6722
912.405	6688
912.519	6833
912.633	6837
912.748	6707
912.862	6711
912.976	6589
913.09	6551
913.204	6563
913.318	6589
913.431	6715
913.545	6623
913.659	6711
913.772	6646
913.886	6498
914	6513
914.113	6559
914.226	6658
914.34	6620
914.453	6494
914.566	6578
914.68	6498
914.793	6486
914.906	6422
915.019	6426
915.132	6315
915.245	6380
915.358	6399
915.47	6422
915.583	6445
915.696	6429
915.809	6532
915.921	6494
916.034	6407
916.146	6407
916.259	6426
916.371	6471
916.483	6460
916.595	6388
916.708	6361
916.82	6346
916.932	6384
917.044	6369
917.156	6372
917.268	6331
917.38	6338
917.491	6304
917.603	6331
917.715	6376
917.826	6391
917.938	6296
918.049	6304
918.161	6361
918.272	6372
918.384	6418
918.495	6315
918.606	6194
918.717	6144
918.828	6262
918.939	6258
919.05	6155
919.161	6232
919.272	6060
919.383	6114
919.494	6319
919.604	6429
919.715	6304
919.826	6186
919.936	6251
920.047	6315
920.157	6194
920.267	6426
920.378	6327
920.488	6285
920.598	6395
920.708	6551
920.818	6441
920.928	6418
921.038	6597
921.148	6578
921.258	6304
921.368	6266
921.477	6175
921.587	6209
921.697	6072
921.806	6095
921.916	6117
922.025	5920
922.134	5874
922.244	5885
922.353	5935
922.462	5767
922.571	5775
922.68	5672
922.789	5707
922.898	5703
923.007	5634
923.116	5634
923.224	5672
923.333	5638
923.442	5600
923.55	5547
923.659	5604
923.767	5657
923.876	5520
923.984	5581
924.092	5459
924.201	5551
924.309	5512
924.417	5551
924.525	5478
924.633	5467
924.741	6243
924.849	5387
924.956	5459
925.064	5368
925.172	5288
925.279	5284
925.387	5387
925.494	5307
925.602	5421
925.709	5398
925.816	5292
925.924	5284
926.031	5341
926.138	5265
926.245	5315
926.352	5208
926.459	5273
926.566	5322
926.673	5159
926.779	5121
926.886	5105
926.993	4949
927.099	5018
927.206	4942
927.312	4919
927.419	5014
927.525	4965
927.631	4946
927.737	4892
927.843	4820
927.95	4828
928.056	4767
928.162	4816
928.267	4904
928.373	5258
928.479	4828
928.585	4653
928.69	4744
928.796	4748
928.901	4637
929.007	4615
929.112	4645
929.218	4599
929.323	4611
929.428	4516
929.533	4588
929.638	4527
929.743	4519
929.848	4493
929.953	4512
930.058	4421
930.163	4341
930.267	4337
930.372	4394
930.477	4265
930.581	4424
930.685	4352
930.79	4265
930.894	4268
930.998	4276
931.103	4367
931.207	4097
931.311	4063
931.415	4006
931.519	3922
931.623	3907
