Data from glass_V78500241_2850.txt Node
Date: Wed Sep 01 19:34:15 CST 2021
User: usil
Spectrometer: V785-0024
Trigger mode: 0
Integration Time (sec): 4.000000E-1
Scans to average: 1
Nonlinearity correction enabled: false
Boxcar width: 0
Storing dark spectrum: false
XAxis mode: Wavelengths
Number of Pixels in Spectrum: 1024
>>>>>Begin Spectral Data<<<<<
801.071	3766
801.214	3709
801.356	3671
801.499	3740
801.641	3736
801.783	3740
801.926	3831
802.068	3819
802.211	3812
802.353	3861
802.496	3793
802.638	3850
802.78	3907
802.923	3850
803.065	3880
803.208	3819
803.35	3823
803.492	3857
803.635	3896
803.777	3793
803.919	3896
804.061	4131
804.204	3987
804.346	3934
804.488	3911
804.63	4017
804.773	3949
804.915	3994
805.057	4116
805.199	4048
805.341	4074
805.483	4143
805.626	4105
805.768	4105
805.91	4177
806.052	4234
806.194	4215
806.336	4337
806.478	4192
806.62	4162
806.762	4162
806.904	4230
807.046	4344
807.188	4188
807.33	4128
807.472	4207
807.614	4192
807.756	4276
807.898	4162
808.04	4177
808.182	4299
808.324	4314
808.465	4363
808.607	4478
808.749	4379
808.891	4466
809.033	4481
809.174	4417
809.316	4265
809.458	4207
809.6	4124
809.741	4105
809.883	4139
810.025	4200
810.166	4192
810.308	4211
810.45	4181
810.591	4257
810.733	4276
810.875	4508
811.016	4805
811.158	5098
811.299	5220
811.441	5269
811.582	5022
811.724	4656
811.865	4440
812.007	4489
812.148	4383
812.29	4356
812.431	4436
812.573	4375
812.714	4329
812.855	4383
812.997	4379
813.138	4436
813.279	4360
813.421	4337
813.562	4375
813.703	4360
813.845	4280
813.986	4211
814.127	4249
814.268	4219
814.41	4249
814.551	4261
814.692	4295
814.833	4211
814.974	4276
815.115	4295
815.256	4211
815.397	4204
815.539	4223
815.68	4181
815.821	4219
815.962	4299
816.103	4291
816.244	4162
816.385	4207
816.526	4196
816.666	4207
816.807	4109
816.948	4120
817.089	4181
817.23	4078
817.371	4021
817.512	4021
817.653	4067
817.793	3979
817.934	4010
818.075	4093
818.216	4029
818.356	4093
818.497	3972
818.638	3873
818.778	3903
818.919	3911
819.06	3835
819.2	3903
819.341	3869
819.481	3831
819.622	3892
819.762	4029
819.903	3884
820.043	3842
820.184	3770
820.324	3778
820.465	3846
820.605	3857
820.746	3842
820.886	3774
821.026	3907
821.167	3888
821.307	3930
821.447	3960
821.588	3945
821.728	3922
821.868	3892
822.008	3869
822.149	3873
822.289	3869
822.429	3781
822.569	3774
822.709	3774
822.849	3682
822.99	3667
823.13	3713
823.27	3762
823.41	3682
823.55	3690
823.69	3690
823.83	3720
823.97	3652
824.11	3564
824.25	3587
824.389	3591
824.529	3614
824.669	3633
824.809	3690
824.949	3724
825.089	3690
825.228	3644
825.368	3584
825.508	3549
825.648	3549
825.787	3584
825.927	3625
826.067	3599
826.206	3663
826.346	3785
826.485	3800
826.625	3816
826.765	3922
826.904	3827
827.044	3595
827.183	3485
827.323	3393
827.462	3496
827.601	3397
827.741	3416
827.88	3409
828.02	3359
828.159	3450
828.298	3462
828.437	3545
828.577	3435
828.716	3580
828.855	3462
828.994	3359
829.134	3367
829.273	3363
829.412	3340
829.551	3329
829.69	3336
829.829	3386
829.968	3496
830.107	3378
830.246	3420
830.385	3367
830.524	3329
830.663	3272
830.802	3279
830.941	3188
831.08	3192
831.219	3222
831.357	3245
831.496	3389
831.635	3226
831.774	3165
831.913	3165
832.051	3131
832.19	3123
832.329	3195
832.467	3131
832.606	3077
832.744	3154
832.883	3180
833.022	3195
833.16	3253
833.299	3279
833.437	3310
833.576	3359
833.714	3363
833.852	3462
833.991	3431
834.129	3447
834.267	3401
834.406	3332
834.544	3409
834.682	3405
834.821	3386
834.959	3595
835.097	3412
835.235	3504
835.373	3496
835.511	3420
835.65	3416
835.788	3485
835.926	3344
836.064	3367
836.202	3363
836.34	3557
836.478	3587
836.615	3538
836.753	3572
836.891	3633
837.029	3599
837.167	3576
837.305	3553
837.443	3515
837.58	3515
837.718	3553
837.856	3564
837.993	3507
838.131	3584
838.269	3526
838.406	3557
838.544	3572
838.681	3435
838.819	3439
838.956	3325
839.094	3386
839.231	3409
839.369	3488
839.506	3686
839.643	3564
839.781	3500
839.918	3447
840.055	3523
840.193	3519
840.33	3488
840.467	3553
840.604	3526
840.742	3766
840.879	3523
841.016	3526
841.153	3591
841.29	3713
841.427	3709
841.564	3667
841.701	3720
841.838	3663
841.975	3652
842.112	3701
842.249	3629
842.385	3686
842.522	3778
842.659	3648
842.796	3675
842.933	3682
843.069	3679
843.206	3709
843.343	3789
843.479	3766
843.616	3823
843.752	3663
843.889	3667
844.025	3842
844.162	3686
844.298	3850
844.435	3781
844.571	3774
844.708	3857
844.844	3949
844.98	4036
845.117	3998
845.253	3949
845.389	3896
845.525	3945
845.661	3975
845.798	3861
845.934	3994
846.07	3956
846.206	4051
846.342	4101
846.478	4044
846.614	3922
846.75	3903
846.886	3903
847.022	3991
847.158	3915
847.294	3983
847.429	4036
847.565	3960
847.701	4238
847.837	3876
847.972	3850
848.108	3964
848.244	3956
848.379	3842
848.515	3812
848.65	3797
848.786	3816
848.921	3842
849.057	3896
849.192	3911
849.328	3846
849.463	3861
849.598	3880
849.734	3850
849.869	3861
850.004	3766
850.14	3797
850.275	3762
850.41	3713
850.545	3713
850.68	3751
850.815	3789
850.95	3778
851.085	3953
851.22	3823
851.355	3831
851.49	3751
851.625	3766
851.76	3774
851.895	3713
852.03	3679
852.165	3762
852.299	3819
852.434	3873
852.569	3854
852.703	3857
852.838	3907
852.973	4006
853.107	3960
853.242	3869
853.376	3842
853.511	3789
853.645	3873
853.78	3956
853.914	3880
854.048	3880
854.183	3842
854.317	3907
854.451	4074
854.585	3949
854.72	3964
854.854	4013
854.988	3949
855.122	3991
855.256	3861
855.39	4013
855.524	4097
855.658	4071
855.792	4051
855.926	4135
856.06	4120
856.194	4192
856.327	4112
856.461	4093
856.595	4131
856.729	4150
856.862	4227
856.996	4211
857.13	4276
857.263	4348
857.397	4322
857.53	4261
857.664	4352
857.797	4356
857.931	4455
858.064	4356
858.197	4466
858.331	4409
858.464	4421
858.597	4352
858.731	4440
858.864	4421
858.997	4417
859.13	4500
859.263	4519
859.396	4577
859.529	4459
859.662	4516
859.795	4542
859.928	4565
860.061	4691
860.194	4683
860.327	4668
860.46	4641
860.592	4717
860.725	4736
860.858	4733
860.99	4702
861.123	4660
861.256	4649
861.388	4698
861.521	5216
861.653	4721
861.786	4660
861.918	4729
862.05	4778
862.183	4854
862.315	4881
862.447	4847
862.58	4877
862.712	4748
862.844	4786
862.976	4881
863.108	4854
863.24	5246
863.372	4755
863.504	4854
863.636	4889
863.768	4934
863.9	4938
864.032	4873
864.164	4915
864.296	4999
864.428	5045
864.559	5045
864.691	5117
864.823	5113
864.954	5117
865.086	5113
865.217	5132
865.349	5121
865.48	5151
865.612	5193
865.743	5303
865.875	5212
866.006	5216
866.137	5231
866.269	5250
866.4	5239
866.531	5212
866.662	5273
866.793	5254
866.924	5261
867.055	5334
867.186	5311
867.317	5280
867.448	5292
867.579	5357
867.71	5364
867.841	5364
867.972	5452
868.103	5444
868.233	5387
868.364	5490
868.495	5509
868.625	5623
868.756	5794
868.886	5627
869.017	5691
869.147	5817
869.278	5882
869.408	5745
869.539	5767
869.669	5885
869.799	5859
869.929	5954
870.06	5992
870.19	6175
870.32	6175
870.45	6239
870.58	6334
870.71	6323
870.84	6475
870.97	6414
871.1	6388
871.23	6665
871.36	6627
871.489	6684
871.619	6627
871.749	6795
871.879	6856
872.008	6966
872.138	6989
872.267	6951
872.397	6916
872.526	7004
872.656	7046
872.785	7194
872.915	7335
873.044	7441
873.173	7563
873.303	7632
873.432	7670
873.561	7799
873.69	7849
873.819	7951
873.948	8126
874.077	8279
874.206	8218
874.335	8419
874.464	8651
874.593	8872
874.722	8937
874.851	9089
874.979	9241
875.108	9355
875.237	9439
875.365	9485
875.494	9637
875.623	9808
875.751	9816
875.88	9983
876.008	10181
876.136	10253
876.265	10432
876.393	10702
876.521	10698
876.65	10839
876.778	10889
876.906	10873
877.034	11033
877.162	11102
877.29	11143
877.418	11311
877.546	11322
877.674	11379
877.802	11478
877.93	11524
878.058	11566
878.185	11512
878.313	11630
878.441	11699
878.568	11562
878.696	11798
878.824	11798
878.951	11935
879.079	12019
879.206	12076
879.333	12076
879.461	11961
879.588	12064
879.715	12060
879.842	12171
879.97	12060
880.097	11859
880.224	11878
880.351	11927
880.478	11874
880.605	11824
880.732	11893
880.859	12007
880.986	11798
881.112	11733
881.239	11688
881.366	11619
881.493	11615
881.619	11532
881.746	11520
881.872	11512
881.999	11455
882.125	11524
882.252	11509
882.378	11436
882.505	11539
882.631	11307
882.757	11299
882.883	11299
883.01	11269
883.136	11174
883.262	11151
883.388	11045
883.514	11204
883.64	11075
883.766	11147
883.892	10930
884.018	10972
884.143	11045
884.269	11113
884.395	10828
884.52	10771
884.646	10782
884.772	10721
884.897	10660
885.023	10634
885.148	10744
885.274	10729
885.399	10664
885.524	10584
885.65	10538
885.775	10618
885.9	10535
886.025	10569
886.15	10531
886.275	10379
886.4	10280
886.525	10424
886.65	10421
886.775	10390
886.9	10405
887.025	10432
887.149	10306
887.274	10116
887.399	10131
887.523	10166
887.648	10101
887.773	10112
887.897	10105
888.021	10196
888.146	10131
888.27	10204
888.395	10207
888.519	10131
888.643	10154
888.767	10116
888.891	10017
889.015	9987
889.139	10010
889.263	9926
889.387	10093
889.511	9991
889.635	9991
889.759	9994
889.883	9987
890.006	9956
890.13	10124
890.254	9915
890.377	10002
890.501	9838
890.624	9804
890.748	9918
890.871	9686
890.995	9705
891.118	9603
891.241	9759
891.364	9724
891.488	9846
891.611	9709
891.734	9709
891.857	9740
891.98	9690
892.103	9694
892.226	9633
892.349	9603
892.471	9496
892.594	9633
892.717	9568
892.839	9587
892.962	9606
893.085	9652
893.207	9568
893.33	9511
893.452	9526
893.575	9549
893.697	9458
893.819	9648
893.941	9614
894.064	9652
894.186	9408
894.308	9450
894.43	9534
894.552	9504
894.674	9534
894.796	9393
894.918	9382
895.04	9287
895.161	9355
895.283	9313
895.405	9222
895.526	9214
895.648	9294
895.769	9188
895.891	9169
896.012	9195
896.134	9195
896.255	9169
896.376	9089
896.498	9146
896.619	9195
896.74	9081
896.861	9028
896.982	9313
897.103	9230
897.224	9062
897.345	9028
897.466	9032
897.587	8998
897.708	9089
897.828	8941
897.949	9013
898.07	8861
898.19	8880
898.311	9001
898.431	8861
898.552	8857
898.672	8880
898.792	8921
898.913	8887
899.033	8788
899.153	8674
899.273	8648
899.393	8689
899.513	8746
899.633	8674
899.753	8735
899.873	8625
899.993	8697
900.113	8705
900.232	8716
900.352	8655
900.472	8613
900.591	8495
900.711	8606
900.83	8560
900.95	8659
901.069	8533
901.189	8564
901.308	8355
901.427	8347
901.546	8480
901.665	8480
901.784	8488
901.904	8347
902.023	8221
902.141	8195
902.26	8183
902.379	8240
902.498	8157
902.617	8199
902.735	8355
902.854	8218
902.973	8252
903.091	8164
903.21	8172
903.328	8145
903.446	8050
903.565	8005
903.683	8084
903.801	8031
903.919	8130
904.038	8103
904.156	8081
904.274	8050
904.392	7978
904.51	8024
904.627	8054
904.745	8069
904.863	8043
904.981	7951
905.098	7788
905.216	7856
905.334	7925
905.451	7845
905.569	7841
905.686	7845
905.803	7883
905.921	7666
906.038	7837
906.155	7792
906.272	7677
906.389	7727
906.506	7681
906.623	7605
906.74	7613
906.857	7506
906.974	7514
907.091	7647
907.208	7693
907.324	7658
907.441	7578
907.557	7434
907.674	7449
907.79	7441
907.907	7327
908.023	7495
908.139	7441
908.256	7324
908.372	7301
908.488	7335
908.604	7240
908.72	7213
908.836	7251
908.952	7187
909.068	7244
909.184	7259
909.3	7255
909.415	7259
909.531	7213
909.647	7057
909.762	7088
909.878	7137
909.993	7084
910.108	7084
910.224	7046
910.339	7061
910.454	7084
910.57	6989
910.685	6935
910.8	7126
910.915	7107
911.03	7012
911.145	6916
911.259	6894
911.374	6878
911.489	6798
911.604	6749
911.718	6715
911.833	6692
911.947	6673
912.062	6544
912.176	6703
912.291	6692
912.405	6707
912.519	6779
912.633	6791
912.748	6665
912.862	6703
912.976	6631
913.09	6578
913.204	6563
913.318	6574
913.431	6662
913.545	6646
913.659	6684
913.772	6658
913.886	6532
914	6490
914.113	6578
914.226	6673
914.34	6578
914.453	6502
914.566	6563
914.68	6494
914.793	6475
914.906	6391
915.019	6391
915.132	6334
915.245	6380
915.358	6464
915.47	6506
915.583	6456
915.696	6464
915.809	6490
915.921	6498
916.034	6471
916.146	6399
916.259	6384
916.371	6426
916.483	6414
916.595	6350
916.708	6346
916.82	6357
916.932	6357
917.044	6353
917.156	6391
917.268	6296
917.38	6315
917.491	6270
917.603	6296
917.715	6350
917.826	6353
917.938	6376
918.049	6235
918.161	6346
918.272	6429
918.384	6422
918.495	6296
918.606	6178
918.717	6175
918.828	6205
918.939	6296
919.05	6152
919.161	6258
919.272	6102
919.383	6136
919.494	6296
919.604	6376
919.715	6273
919.826	6167
919.936	6194
920.047	6273
920.157	6220
920.267	6437
920.378	6270
920.488	6247
920.598	6369
920.708	6559
920.818	6441
920.928	6391
921.038	6612
921.148	6544
921.258	6300
921.368	6232
921.477	6155
921.587	6167
921.697	6026
921.806	6144
921.916	6091
922.025	5897
922.134	5912
922.244	5893
922.353	5946
922.462	5828
922.571	5779
922.68	5646
922.789	5638
922.898	5668
923.007	5604
923.116	5707
923.224	5657
923.333	5642
923.442	5558
923.55	5551
923.659	5566
923.767	5551
923.876	5547
923.984	5554
924.092	5467
924.201	5528
924.309	5528
924.417	5592
924.525	5486
924.633	5486
924.741	6125
924.849	5383
924.956	5467
925.064	5341
925.172	5258
925.279	5280
925.387	5330
925.494	5326
925.602	5421
925.709	5349
925.816	5242
925.924	5239
926.031	5345
926.138	5288
926.245	5280
926.352	5178
926.459	5296
926.566	5303
926.673	5159
926.779	5121
926.886	5117
926.993	4968
927.099	4980
927.206	4942
927.312	4976
927.419	4946
927.525	4927
927.631	4961
927.737	4896
927.843	4843
927.95	4767
928.056	4790
928.162	4809
928.267	4858
928.373	5174
928.479	4831
928.585	4649
928.69	4752
928.796	4805
928.901	4656
929.007	4611
929.112	4645
929.218	4577
929.323	4577
929.428	4542
929.533	4634
929.638	4466
929.743	4523
929.848	4527
929.953	4485
930.058	4443
930.163	4348
930.267	4325
930.372	4432
930.477	4295
930.581	4413
930.685	4360
930.79	4246
930.894	4249
930.998	4223
931.103	4371
931.207	4093
931.311	4082
931.415	4006
931.519	3899
931.623	3876
