Data from glass_V78500241_915.txt Node
Date: Wed Sep 01 19:20:50 CST 2021
User: usil
Spectrometer: V785-0024
Trigger mode: 0
Integration Time (sec): 4.000000E-1
Scans to average: 1
Nonlinearity correction enabled: false
Boxcar width: 0
Storing dark spectrum: false
XAxis mode: Wavelengths
Number of Pixels in Spectrum: 1024
>>>>>Begin Spectral Data<<<<<
801.071	3774
801.214	3774
801.356	3717
801.499	3778
801.641	3701
801.783	3797
801.926	3869
802.068	3812
802.211	3892
802.353	3857
802.496	3865
802.638	3857
802.78	3876
802.923	3937
803.065	3876
803.208	3804
803.35	3880
803.492	3911
803.635	3926
803.777	3808
803.919	3899
804.061	4150
804.204	3994
804.346	3994
804.488	3953
804.63	4074
804.773	3960
804.915	4017
805.057	4105
805.199	4082
805.341	4120
805.483	4173
805.626	4131
805.768	4139
805.91	4211
806.052	4234
806.194	4230
806.336	4344
806.478	4154
806.62	4185
806.762	4185
806.904	4265
807.046	4337
807.188	4200
807.33	4192
807.472	4223
807.614	4219
807.756	4299
807.898	4192
808.04	4223
808.182	4318
808.324	4322
808.465	4386
808.607	4409
808.749	4478
808.891	4489
809.033	4508
809.174	4413
809.316	4242
809.458	4249
809.6	4154
809.741	4169
809.883	4128
810.025	4249
810.166	4227
810.308	4219
810.45	4215
810.591	4204
810.733	4310
810.875	4538
811.016	4850
811.158	5170
811.299	5337
811.441	5292
811.582	5064
811.724	4664
811.865	4504
812.007	4542
812.148	4417
812.29	4447
812.431	4451
812.573	4451
812.714	4447
812.855	4371
812.997	4417
813.138	4497
813.279	4432
813.421	4424
813.562	4413
813.703	4363
813.845	4379
813.986	4242
814.127	4223
814.268	4280
814.41	4265
814.551	4295
814.692	4344
814.833	4257
814.974	4284
815.115	4386
815.256	4257
815.397	4268
815.539	4246
815.68	4207
815.821	4249
815.962	4314
816.103	4299
816.244	4249
816.385	4242
816.526	4318
816.666	4268
816.807	4128
816.948	4188
817.089	4162
817.23	4135
817.371	4029
817.512	4074
817.653	4078
817.793	4082
817.934	4074
818.075	4105
818.216	4124
818.356	4082
818.497	4048
818.638	3907
818.778	3911
818.919	3915
819.06	3861
819.2	3915
819.341	3854
819.481	3846
819.622	3953
819.762	4032
819.903	3953
820.043	3869
820.184	3857
820.324	3800
820.465	3880
820.605	3827
820.746	3876
820.886	3793
821.026	3956
821.167	3911
821.307	4017
821.447	4006
821.588	3953
821.728	3975
821.868	3922
822.008	3884
822.149	3880
822.289	3915
822.429	3770
822.569	3804
822.709	3835
822.849	3694
822.99	3732
823.13	3774
823.27	3770
823.41	3781
823.55	3740
823.69	3724
823.83	3812
823.97	3686
824.11	3614
824.25	3610
824.389	3656
824.529	3701
824.669	3637
824.809	3720
824.949	3743
825.089	3766
825.228	3709
825.368	3572
825.508	3591
825.648	3603
825.787	3599
825.927	3637
826.067	3648
826.206	3732
826.346	3774
826.485	3869
826.625	3880
826.765	3991
826.904	3835
827.044	3644
827.183	3549
827.323	3462
827.462	3492
827.601	3450
827.741	3454
827.88	3473
828.02	3443
828.159	3431
828.298	3473
828.437	3507
828.577	3526
828.716	3614
828.855	3530
828.994	3389
829.134	3363
829.273	3401
829.412	3340
829.551	3329
829.69	3389
829.829	3485
829.968	3523
830.107	3431
830.246	3443
830.385	3393
830.524	3359
830.663	3287
830.802	3245
830.941	3176
831.08	3207
831.219	3268
831.357	3313
831.496	3416
831.635	3249
831.774	3203
831.913	3192
832.051	3180
832.19	3150
832.329	3241
832.467	3161
832.606	3142
832.744	3176
832.883	3214
833.022	3199
833.16	3260
833.299	3298
833.437	3340
833.576	3374
833.714	3389
833.852	3454
833.991	3428
834.129	3454
834.267	3435
834.406	3378
834.544	3420
834.682	3462
834.821	3401
834.959	3625
835.097	3428
835.235	3504
835.373	3477
835.511	3500
835.65	3469
835.788	3496
835.926	3409
836.064	3428
836.202	3424
836.34	3614
836.478	3614
836.615	3584
836.753	3584
836.891	3682
837.029	3637
837.167	3618
837.305	3538
837.443	3557
837.58	3515
837.718	3599
837.856	3538
837.993	3549
838.131	3606
838.269	3580
838.406	3644
838.544	3568
838.681	3530
838.819	3496
838.956	3389
839.094	3439
839.231	3485
839.369	3492
839.506	3686
839.643	3663
839.781	3515
839.918	3481
840.055	3504
840.193	3523
840.33	3542
840.467	3580
840.604	3595
840.742	3789
840.879	3538
841.016	3595
841.153	3625
841.29	3759
841.427	3724
841.564	3720
841.701	3774
841.838	3694
841.975	3698
842.112	3743
842.249	3656
842.385	3660
842.522	3812
842.659	3690
842.796	3709
842.933	3717
843.069	3724
843.206	3766
843.343	3831
843.479	3785
843.616	3827
843.752	3682
843.889	3709
844.025	3838
844.162	3705
844.298	3888
844.435	3816
844.571	3789
844.708	3934
844.844	4010
844.98	4032
845.117	4048
845.253	3945
845.389	3930
845.525	3968
845.661	3968
845.798	3892
845.934	4025
846.07	3953
846.206	4101
846.342	4112
846.478	4063
846.614	3930
846.75	3964
846.886	3994
847.022	4040
847.158	4025
847.294	4006
847.429	4063
847.565	4017
847.701	4303
847.837	3892
847.972	3884
848.108	3998
848.244	3998
848.379	3911
848.515	3846
848.65	3861
848.786	3865
848.921	3876
849.057	3945
849.192	3972
849.328	3934
849.463	3953
849.598	3865
849.734	3857
849.869	3835
850.004	3804
850.14	3816
850.275	3793
850.41	3751
850.545	3682
850.68	3819
850.815	3785
850.95	3827
851.085	3949
851.22	3926
851.355	3831
851.49	3842
851.625	3778
851.76	3789
851.895	3709
852.03	3781
852.165	3808
852.299	3850
852.434	3911
852.569	3934
852.703	3876
852.838	3926
852.973	4010
853.107	3972
853.242	3892
853.376	3804
853.511	3797
853.645	3808
853.78	4021
853.914	3884
854.048	3896
854.183	3880
854.317	3953
854.451	4078
854.585	3960
854.72	3972
854.854	4032
854.988	3945
855.122	4055
855.256	3922
855.39	4036
855.524	4143
855.658	4036
855.792	4116
855.926	4181
856.06	4181
856.194	4223
856.327	4143
856.461	4135
856.595	4173
856.729	4207
856.862	4287
856.996	4242
857.13	4295
857.263	4363
857.397	4341
857.53	4276
857.664	4367
857.797	4371
857.931	4405
858.064	4428
858.197	4481
858.331	4413
858.464	4390
858.597	4299
858.731	4470
858.864	4451
858.997	4497
859.13	4512
859.263	4527
859.396	4622
859.529	4550
859.662	4519
859.795	4546
859.928	4599
860.061	4706
860.194	4721
860.327	4653
860.46	4698
860.592	4706
860.725	4771
860.858	4767
860.99	4717
861.123	4664
861.256	4714
861.388	4805
861.521	5547
861.653	4729
861.786	4664
861.918	4748
862.05	4786
862.183	4790
862.315	4900
862.447	4953
862.58	4881
862.712	4866
862.844	4752
862.976	4892
863.108	4862
863.24	5151
863.372	4850
863.504	4919
863.636	4919
863.768	4923
863.9	4984
864.032	4919
864.164	4968
864.296	5090
864.428	5033
864.559	5086
864.691	5128
864.823	5170
864.954	5121
865.086	5147
865.217	5113
865.349	5197
865.48	5140
865.612	5193
865.743	5258
865.875	5220
866.006	5178
866.137	5204
866.269	5258
866.4	5337
866.531	5265
866.662	5280
866.793	5326
866.924	5288
867.055	5387
867.186	5398
867.317	5341
867.448	5368
867.579	5364
867.71	5368
867.841	5357
867.972	5440
868.103	5452
868.233	5509
868.364	5505
868.495	5493
868.625	5665
868.756	5786
868.886	5665
869.017	5748
869.147	5863
869.278	5874
869.408	5824
869.539	5813
869.669	5916
869.799	5920
869.929	6007
870.06	6053
870.19	6228
870.32	6194
870.45	6319
870.58	6357
870.71	6410
870.84	6486
870.97	6437
871.1	6490
871.23	6627
871.36	6738
871.489	6673
871.619	6795
871.749	6787
871.879	6859
872.008	6958
872.138	6924
872.267	7015
872.397	7012
872.526	7057
872.656	7080
872.785	7194
872.915	7335
873.044	7521
873.173	7575
873.303	7658
873.432	7723
873.561	7852
873.69	7890
873.819	8001
873.948	8142
874.077	8256
874.206	8279
874.335	8526
874.464	8678
874.593	8853
874.722	8861
874.851	9176
874.979	9275
875.108	9359
875.237	9447
875.365	9473
875.494	9648
875.623	9869
875.751	9857
875.88	10036
876.008	10154
876.136	10284
876.265	10554
876.393	10664
876.521	10702
876.65	10885
876.778	10854
876.906	10866
877.034	10991
877.162	11094
877.29	11147
877.418	11330
877.546	11379
877.674	11478
877.802	11478
877.93	11543
878.058	11562
878.185	11547
878.313	11722
878.441	11661
878.568	11684
878.696	11794
878.824	11783
878.951	11927
879.079	11950
879.206	12114
879.333	12030
879.461	12007
879.588	12152
879.715	12117
879.842	12224
879.97	12095
880.097	11832
880.224	11893
880.351	11935
880.478	11885
880.605	11927
880.732	11889
880.859	11988
880.986	11855
881.112	11813
881.239	11771
881.366	11691
881.493	11657
881.619	11592
881.746	11608
881.872	11520
881.999	11478
882.125	11440
882.252	11558
882.378	11505
882.505	11539
882.631	11318
882.757	11288
882.883	11288
883.01	11277
883.136	11227
883.262	11121
883.388	11025
883.514	11162
883.64	11223
883.766	11094
883.892	10999
884.018	10965
884.143	11098
884.269	11136
884.395	10824
884.52	10816
884.646	10771
884.772	10755
884.897	10672
885.023	10660
885.148	10793
885.274	10767
885.399	10736
885.524	10618
885.65	10706
885.775	10554
885.9	10519
886.025	10603
886.15	10500
886.275	10459
886.4	10375
886.525	10485
886.65	10382
886.775	10375
886.9	10470
887.025	10516
887.149	10310
887.274	10177
887.399	10150
887.523	10143
887.648	10128
887.773	10150
887.897	10207
888.021	10268
888.146	10150
888.27	10303
888.395	10234
888.519	10124
888.643	10131
888.767	10192
888.891	10048
889.015	10078
889.139	10101
889.263	9937
889.387	10032
889.511	10147
889.635	10097
889.759	9979
889.883	10093
890.006	10059
890.13	10116
890.254	9918
890.377	9884
890.501	9819
890.624	9835
890.748	9975
890.871	9819
890.995	9720
891.118	9652
891.241	9751
891.364	9728
891.488	9838
891.611	9679
891.734	9751
891.857	9781
891.98	9701
892.103	9736
892.226	9690
892.349	9679
892.471	9530
892.594	9595
892.717	9728
892.839	9523
892.962	9656
893.085	9606
893.207	9656
893.33	9504
893.452	9530
893.575	9709
893.697	9515
893.819	9576
893.941	9591
894.064	9610
894.186	9473
894.308	9401
894.43	9591
894.552	9584
894.674	9553
894.796	9435
894.918	9447
895.04	9359
895.161	9363
895.283	9325
895.405	9291
895.526	9226
895.648	9367
895.769	9226
895.891	9302
896.012	9275
896.134	9249
896.255	9230
896.376	9119
896.498	9245
896.619	9135
896.74	9093
896.861	9127
896.982	9249
897.103	9268
897.224	9192
897.345	9051
897.466	9032
897.587	9009
897.708	9089
897.828	9017
897.949	8918
898.07	8910
898.19	8979
898.311	8979
898.431	8902
898.552	8937
898.672	8963
898.792	8963
898.913	8925
899.033	8834
899.153	8777
899.273	8697
899.393	8762
899.513	8712
899.633	8731
899.753	8697
899.873	8625
899.993	8750
900.113	8746
900.232	8670
900.352	8712
900.472	8602
900.591	8541
900.711	8613
900.83	8541
900.95	8663
901.069	8731
901.189	8568
901.308	8480
901.427	8389
901.546	8431
901.665	8503
901.784	8499
901.904	8415
902.023	8374
902.141	8240
902.26	8271
902.379	8324
902.498	8271
902.617	8275
902.735	8358
902.854	8267
902.973	8271
903.091	8123
903.21	8119
903.328	8199
903.446	8107
903.565	8077
903.683	8088
903.801	8039
903.919	8168
904.038	8145
904.156	8058
904.274	8142
904.392	8027
904.51	8027
904.627	8081
904.745	8111
904.863	8142
904.981	7909
905.098	7906
905.216	7890
905.334	7921
905.451	7852
905.569	7894
905.686	7890
905.803	7955
905.921	7734
906.038	7898
906.155	7856
906.272	7746
906.389	7772
906.506	7616
906.623	7655
906.74	7575
906.857	7605
906.974	7563
907.091	7639
907.208	7757
907.324	7647
907.441	7586
907.557	7487
907.674	7537
907.79	7411
907.907	7419
908.023	7453
908.139	7457
908.256	7419
908.372	7373
908.488	7331
908.604	7263
908.72	7171
908.836	7316
908.952	7278
909.068	7228
909.184	7354
909.3	7217
909.415	7316
909.531	7312
909.647	7076
909.762	7114
909.878	7141
909.993	7122
910.108	7084
910.224	7061
910.339	7122
910.454	7065
910.57	7023
910.685	6977
910.8	7228
910.915	7118
911.03	7012
911.145	6943
911.259	6897
911.374	6939
911.489	6821
911.604	6825
911.718	6776
911.833	6749
911.947	6700
912.062	6616
912.176	6722
912.291	6772
912.405	6696
912.519	6825
912.633	6890
912.748	6760
912.862	6696
912.976	6623
913.09	6551
913.204	6635
913.318	6582
913.431	6623
913.545	6623
913.659	6776
913.772	6734
913.886	6589
914	6563
914.113	6608
914.226	6646
914.34	6635
914.453	6479
914.566	6570
914.68	6502
914.793	6525
914.906	6395
915.019	6369
915.132	6357
915.245	6448
915.358	6433
915.47	6433
915.583	6448
915.696	6422
915.809	6566
915.921	6551
916.034	6422
916.146	6445
916.259	6395
916.371	6517
916.483	6437
916.595	6395
916.708	6410
916.82	6395
916.932	6448
917.044	6418
917.156	6414
917.268	6369
917.38	6395
917.491	6277
917.603	6315
917.715	6429
917.826	6475
917.938	6334
918.049	6201
918.161	6331
918.272	6456
918.384	6422
918.495	6342
918.606	6239
918.717	6224
918.828	6277
918.939	6258
919.05	6209
919.161	6232
919.272	6121
919.383	6163
919.494	6304
919.604	6437
919.715	6300
919.826	6273
919.936	6285
920.047	6338
920.157	6315
920.267	6490
920.378	6350
920.488	6346
920.598	6498
920.708	6563
920.818	6479
920.928	6471
921.038	6646
921.148	6593
921.258	6391
921.368	6338
921.477	6167
921.587	6190
921.697	6083
921.806	6201
921.916	6068
922.025	5946
922.134	5882
922.244	5897
922.353	5980
922.462	5908
922.571	5802
922.68	5688
922.789	5665
922.898	5707
923.007	5668
923.116	5699
923.224	5668
923.333	5691
923.442	5592
923.55	5581
923.659	5627
923.767	5600
923.876	5535
923.984	5543
924.092	5554
924.201	5604
924.309	5520
924.417	5577
924.525	5543
924.633	5501
924.741	6159
924.849	5398
924.956	5497
925.064	5391
925.172	5326
925.279	5349
925.387	5349
925.494	5353
925.602	5452
925.709	5387
925.816	5368
925.924	5311
926.031	5337
926.138	5303
926.245	5330
926.352	5254
926.459	5345
926.566	5299
926.673	5227
926.779	5159
926.886	5174
926.993	4972
927.099	5018
927.206	4972
927.312	5037
927.419	5029
927.525	4968
927.631	5067
927.737	4908
927.843	4847
927.95	4771
928.056	4843
928.162	4809
928.267	4885
928.373	5364
928.479	4801
928.585	4656
928.69	4786
928.796	4774
928.901	4668
929.007	4592
929.112	4694
929.218	4615
929.323	4588
929.428	4558
929.533	4675
929.638	4485
929.743	4561
929.848	4592
929.953	4531
930.058	4436
930.163	4333
930.267	4371
930.372	4443
930.477	4333
930.581	4470
930.685	4379
930.79	4268
930.894	4291
930.998	4253
931.103	4394
931.207	4128
931.311	4105
931.415	4109
931.519	3945
931.623	3960
