Data from glass_V78500241_1781.txt Node
Date: Wed Sep 01 19:26:50 CST 2021
User: usil
Spectrometer: V785-0024
Trigger mode: 0
Integration Time (sec): 4.000000E-1
Scans to average: 1
Nonlinearity correction enabled: false
Boxcar width: 0
Storing dark spectrum: false
XAxis mode: Wavelengths
Number of Pixels in Spectrum: 1024
>>>>>Begin Spectral Data<<<<<
801.071	3720
801.214	3736
801.356	3705
801.499	3720
801.641	3694
801.783	3808
801.926	3857
802.068	3778
802.211	3896
802.353	3880
802.496	3861
802.638	3888
802.78	3930
802.923	3926
803.065	3884
803.208	3823
803.35	3857
803.492	3899
803.635	3941
803.777	3800
803.919	3873
804.061	4128
804.204	3968
804.346	3922
804.488	3896
804.63	4029
804.773	3972
804.915	4025
805.057	4131
805.199	4063
805.341	4105
805.483	4101
805.626	4071
805.768	4116
805.91	4200
806.052	4223
806.194	4207
806.336	4348
806.478	4215
806.62	4166
806.762	4143
806.904	4249
807.046	4314
807.188	4265
807.33	4219
807.472	4295
807.614	4230
807.756	4249
807.898	4188
808.04	4219
808.182	4329
808.324	4337
808.465	4356
808.607	4481
808.749	4470
808.891	4478
809.033	4443
809.174	4413
809.316	4253
809.458	4246
809.6	4143
809.741	4147
809.883	4154
810.025	4238
810.166	4230
810.308	4253
810.45	4211
810.591	4246
810.733	4265
810.875	4542
811.016	4774
811.158	5121
811.299	5242
811.441	5307
811.582	5071
811.724	4752
811.865	4512
812.007	4512
812.148	4440
812.29	4459
812.431	4394
812.573	4402
812.714	4375
812.855	4436
812.997	4428
813.138	4462
813.279	4436
813.421	4417
813.562	4344
813.703	4318
813.845	4337
813.986	4268
814.127	4219
814.268	4257
814.41	4257
814.551	4306
814.692	4314
814.833	4272
814.974	4318
815.115	4322
815.256	4265
815.397	4238
815.539	4223
815.68	4196
815.821	4257
815.962	4276
816.103	4303
816.244	4249
816.385	4265
816.526	4276
816.666	4242
816.807	4078
816.948	4204
817.089	4200
817.23	4158
817.371	4051
817.512	4059
817.653	4074
817.793	4040
817.934	4040
818.075	4139
818.216	4078
818.356	4078
818.497	3983
818.638	3918
818.778	3899
818.919	3899
819.06	3804
819.2	3953
819.341	3854
819.481	3861
819.622	3903
819.762	4025
819.903	3960
820.043	3869
820.184	3812
820.324	3778
820.465	3892
820.605	3884
820.746	3869
820.886	3812
821.026	3926
821.167	3922
821.307	3956
821.447	4036
821.588	3960
821.728	3979
821.868	3915
822.008	3857
822.149	3911
822.289	3956
822.429	3800
822.569	3751
822.709	3774
822.849	3698
822.99	3705
823.13	3740
823.27	3808
823.41	3728
823.55	3766
823.69	3732
823.83	3690
823.97	3709
824.11	3564
824.25	3599
824.389	3595
824.529	3637
824.669	3633
824.809	3728
824.949	3728
825.089	3717
825.228	3705
825.368	3572
825.508	3545
825.648	3568
825.787	3584
825.927	3644
826.067	3606
826.206	3667
826.346	3762
826.485	3816
826.625	3850
826.765	3964
826.904	3831
827.044	3614
827.183	3553
827.323	3435
827.462	3488
827.601	3435
827.741	3447
827.88	3424
828.02	3386
828.159	3454
828.298	3462
828.437	3549
828.577	3466
828.716	3625
828.855	3523
828.994	3382
829.134	3401
829.273	3416
829.412	3298
829.551	3359
829.69	3409
829.829	3439
829.968	3504
830.107	3458
830.246	3439
830.385	3374
830.524	3325
830.663	3321
830.802	3245
830.941	3211
831.08	3233
831.219	3287
831.357	3264
831.496	3412
831.635	3279
831.774	3207
831.913	3188
832.051	3176
832.19	3138
832.329	3222
832.467	3142
832.606	3123
832.744	3173
832.883	3214
833.022	3214
833.16	3306
833.299	3291
833.437	3386
833.576	3435
833.714	3367
833.852	3424
833.991	3389
834.129	3462
834.267	3439
834.406	3382
834.544	3428
834.682	3386
834.821	3397
834.959	3538
835.097	3435
835.235	3584
835.373	3485
835.511	3481
835.65	3424
835.788	3477
835.926	3351
836.064	3351
836.202	3386
836.34	3534
836.478	3587
836.615	3526
836.753	3591
836.891	3682
837.029	3584
837.167	3595
837.305	3557
837.443	3523
837.58	3492
837.718	3591
837.856	3572
837.993	3526
838.131	3614
838.269	3591
838.406	3580
838.544	3553
838.681	3462
838.819	3466
838.956	3378
839.094	3348
839.231	3435
839.369	3507
839.506	3717
839.643	3603
839.781	3488
839.918	3458
840.055	3504
840.193	3526
840.33	3561
840.467	3587
840.604	3591
840.742	3793
840.879	3534
841.016	3576
841.153	3603
841.29	3724
841.427	3713
841.564	3675
841.701	3740
841.838	3671
841.975	3667
842.112	3740
842.249	3637
842.385	3641
842.522	3869
842.659	3682
842.796	3675
842.933	3698
843.069	3694
843.206	3660
843.343	3785
843.479	3740
843.616	3823
843.752	3656
843.889	3671
844.025	3804
844.162	3713
844.298	3823
844.435	3800
844.571	3838
844.708	3896
844.844	3987
844.98	4002
845.117	4013
845.253	3918
845.389	3876
845.525	3991
845.661	4006
845.798	3899
845.934	3979
846.07	3998
846.206	4093
846.342	4116
846.478	4082
846.614	3987
846.75	3953
846.886	3880
847.022	3987
847.158	3968
847.294	4017
847.429	4013
847.565	3979
847.701	4234
847.837	3861
847.972	3854
848.108	3960
848.244	3972
848.379	3880
848.515	3812
848.65	3808
848.786	3854
848.921	3869
849.057	3888
849.192	3922
849.328	3915
849.463	3915
849.598	3888
849.734	3892
849.869	3838
850.004	3789
850.14	3785
850.275	3804
850.41	3747
850.545	3736
850.68	3823
850.815	3827
850.95	3785
851.085	3941
851.22	3842
851.355	3842
851.49	3781
851.625	3793
851.76	3778
851.895	3762
852.03	3720
852.165	3800
852.299	3873
852.434	3953
852.569	3819
852.703	3873
852.838	3945
852.973	4044
853.107	3960
853.242	3915
853.376	3842
853.511	3781
853.645	3854
853.78	3979
853.914	3903
854.048	3903
854.183	3907
854.317	3937
854.451	4090
854.585	3922
854.72	3926
854.854	4044
854.988	3918
855.122	4006
855.256	3892
855.39	4017
855.524	4143
855.658	4135
855.792	4105
855.926	4135
856.06	4162
856.194	4200
856.327	4116
856.461	4090
856.595	4105
856.729	4181
856.862	4257
856.996	4265
857.13	4276
857.263	4360
857.397	4383
857.53	4265
857.664	4337
857.797	4344
857.931	4386
858.064	4451
858.197	4481
858.331	4383
858.464	4379
858.597	4402
858.731	4424
858.864	4451
858.997	4428
859.13	4508
859.263	4527
859.396	4573
859.529	4523
859.662	4508
859.795	4535
859.928	4634
860.061	4702
860.194	4714
860.327	4694
860.46	4653
860.592	4763
860.725	4763
860.858	4755
860.99	4672
861.123	4729
861.256	4672
861.388	4733
861.521	5433
861.653	4698
861.786	4714
861.918	4721
862.05	4835
862.183	4824
862.315	4892
862.447	4908
862.58	4843
862.712	4862
862.844	4793
862.976	4858
863.108	4908
863.24	5258
863.372	4854
863.504	4923
863.636	4885
863.768	4949
863.9	4984
864.032	4957
864.164	4957
864.296	5029
864.428	5067
864.559	5105
864.691	5121
864.823	5170
864.954	5075
865.086	5113
865.217	5109
865.349	5083
865.48	5181
865.612	5170
865.743	5277
865.875	5170
866.006	5185
866.137	5223
866.269	5223
866.4	5334
866.531	5261
866.662	5170
866.793	5261
866.924	5284
867.055	5364
867.186	5383
867.317	5330
867.448	5334
867.579	5387
867.71	5376
867.841	5353
867.972	5448
868.103	5452
868.233	5448
868.364	5528
868.495	5600
868.625	5684
868.756	5756
868.886	5619
869.017	5714
869.147	5874
869.278	5836
869.408	5786
869.539	5828
869.669	5893
869.799	5863
869.929	5954
870.06	6015
870.19	6133
870.32	6110
870.45	6205
870.58	6399
870.71	6460
870.84	6486
870.97	6372
871.1	6441
871.23	6681
871.36	6696
871.489	6673
871.619	6745
871.749	6818
871.879	6875
872.008	7004
872.138	6989
872.267	7000
872.397	7019
872.526	7050
872.656	7133
872.785	7213
872.915	7354
873.044	7472
873.173	7540
873.303	7674
873.432	7750
873.561	7887
873.69	7909
873.819	7986
873.948	8107
874.077	8221
874.206	8336
874.335	8545
874.464	8674
874.593	8826
874.722	8902
874.851	9264
874.979	9230
875.108	9321
875.237	9431
875.365	9447
875.494	9641
875.623	9797
875.751	9880
875.88	10048
876.008	10086
876.136	10268
876.265	10497
876.393	10736
876.521	10687
876.65	10782
876.778	10961
876.906	10953
877.034	10927
877.162	11189
877.29	11189
877.418	11326
877.546	11425
877.674	11337
877.802	11474
877.93	11532
878.058	11566
878.185	11528
878.313	11665
878.441	11798
878.568	11619
878.696	11752
878.824	11874
878.951	11958
879.079	11988
879.206	12102
879.333	12015
879.461	12003
879.588	12076
879.715	12026
879.842	12319
879.97	12057
880.097	11843
880.224	11859
880.351	11851
880.478	11855
880.605	11836
880.732	11859
880.859	12041
880.986	11798
881.112	11843
881.239	11726
881.366	11710
881.493	11535
881.619	11497
881.746	11604
881.872	11474
881.999	11558
882.125	11444
882.252	11543
882.378	11414
882.505	11543
882.631	11368
882.757	11349
882.883	11349
883.01	11178
883.136	11235
883.262	11075
883.388	11090
883.514	11193
883.64	11250
883.766	11102
883.892	11083
884.018	10862
884.143	10995
884.269	11124
884.395	10835
884.52	10725
884.646	10831
884.772	10706
884.897	10679
885.023	10710
885.148	10714
885.274	10790
885.399	10805
885.524	10683
885.65	10592
885.775	10615
885.9	10527
886.025	10626
886.15	10607
886.275	10497
886.4	10386
886.525	10436
886.65	10440
886.775	10363
886.9	10440
887.025	10565
887.149	10390
887.274	10242
887.399	10223
887.523	10116
887.648	10177
887.773	10097
887.897	10234
888.021	10246
888.146	10196
888.27	10196
888.395	10249
888.519	10112
888.643	10207
888.767	10223
888.891	10093
889.015	9994
889.139	10055
889.263	9979
889.387	10048
889.511	10055
889.635	10048
889.759	9998
889.883	9964
890.006	9979
890.13	10154
890.254	9975
890.377	9953
890.501	9850
890.624	9823
890.748	9899
890.871	9865
890.995	9827
891.118	9694
891.241	9774
891.364	9770
891.488	9812
891.611	9644
891.734	9724
891.857	9827
891.98	9774
892.103	9789
892.226	9709
892.349	9644
892.471	9515
892.594	9591
892.717	9580
892.839	9549
892.962	9564
893.085	9701
893.207	9511
893.33	9511
893.452	9488
893.575	9618
893.697	9545
893.819	9671
893.941	9648
894.064	9572
894.186	9431
894.308	9389
894.43	9572
894.552	9603
894.674	9557
894.796	9382
894.918	9382
895.04	9370
895.161	9329
895.283	9374
895.405	9260
895.526	9272
895.648	9272
895.769	9192
895.891	9226
896.012	9249
896.134	9192
896.255	9176
896.376	9081
896.498	9241
896.619	9093
896.74	9009
896.861	9074
896.982	9241
897.103	9218
897.224	9233
897.345	9070
897.466	8990
897.587	9070
897.708	9058
897.828	9089
897.949	8960
898.07	8861
898.19	8864
898.311	9058
898.431	8937
898.552	8956
898.672	8998
898.792	8990
898.913	8891
899.033	8895
899.153	8716
899.273	8689
899.393	8708
899.513	8716
899.633	8678
899.753	8727
899.873	8667
899.993	8678
900.113	8701
900.232	8659
900.352	8659
900.472	8617
900.591	8571
900.711	8545
900.83	8518
900.95	8636
901.069	8667
901.189	8613
901.308	8412
901.427	8336
901.546	8434
901.665	8408
901.784	8503
901.904	8362
902.023	8324
902.141	8263
902.26	8225
902.379	8259
902.498	8263
902.617	8225
902.735	8263
902.854	8309
902.973	8199
903.091	8077
903.21	8126
903.328	8183
903.446	8111
903.565	8088
903.683	8081
903.801	7982
903.919	8142
904.038	8153
904.156	8012
904.274	8092
904.392	8077
904.51	8058
904.627	8065
904.745	8043
904.863	8088
904.981	7909
905.098	7875
905.216	7883
905.334	7883
905.451	7917
905.569	7887
905.686	7986
905.803	7917
905.921	7765
906.038	7879
906.155	7750
906.272	7753
906.389	7696
906.506	7670
906.623	7700
906.74	7643
906.857	7597
906.974	7537
907.091	7704
907.208	7696
907.324	7586
907.441	7594
907.557	7460
907.674	7510
907.79	7400
907.907	7415
908.023	7457
908.139	7434
908.256	7335
908.372	7369
908.488	7369
908.604	7175
908.72	7240
908.836	7301
908.952	7232
909.068	7202
909.184	7346
909.3	7285
909.415	7350
909.531	7263
909.647	7126
909.762	7069
909.878	7160
909.993	7103
910.108	7076
910.224	7126
910.339	7110
910.454	7042
910.57	6993
910.685	6954
910.8	7179
910.915	7088
911.03	7050
911.145	6905
911.259	6848
911.374	6856
911.489	6859
911.604	6859
911.718	6662
911.833	6741
911.947	6684
912.062	6616
912.176	6707
912.291	6787
912.405	6726
912.519	6776
912.633	6821
912.748	6635
912.862	6703
912.976	6604
913.09	6536
913.204	6559
913.318	6635
913.431	6696
913.545	6681
913.659	6688
913.772	6631
913.886	6627
914	6536
914.113	6639
914.226	6601
914.34	6631
914.453	6475
914.566	6627
914.68	6506
914.793	6494
914.906	6376
915.019	6429
915.132	6376
915.245	6479
915.358	6399
915.47	6464
915.583	6536
915.696	6426
915.809	6456
915.921	6517
916.034	6441
916.146	6418
916.259	6334
916.371	6448
916.483	6486
916.595	6456
916.708	6437
916.82	6372
916.932	6350
917.044	6403
917.156	6437
917.268	6258
917.38	6346
917.491	6323
917.603	6315
917.715	6372
917.826	6429
917.938	6376
918.049	6251
918.161	6327
918.272	6422
918.384	6407
918.495	6353
918.606	6266
918.717	6216
918.828	6243
918.939	6292
919.05	6224
919.161	6311
919.272	6148
919.383	6129
919.494	6281
919.604	6372
919.715	6292
919.826	6273
919.936	6266
920.047	6334
920.157	6258
920.267	6418
920.378	6308
920.488	6296
920.598	6380
920.708	6528
920.818	6456
920.928	6486
921.038	6620
921.148	6627
921.258	6350
921.368	6292
921.477	6190
921.587	6163
921.697	6091
921.806	6220
921.916	6091
922.025	5889
922.134	5923
922.244	5844
922.353	6026
922.462	5844
922.571	5786
922.68	5707
922.789	5661
922.898	5745
923.007	5649
923.116	5668
923.224	5676
923.333	5688
923.442	5558
923.55	5596
923.659	5573
923.767	5611
923.876	5573
923.984	5570
924.092	5535
924.201	5627
924.309	5532
924.417	5554
924.525	5505
924.633	5512
924.741	6251
924.849	5311
924.956	5448
925.064	5364
925.172	5299
925.279	5311
925.387	5322
925.494	5349
925.602	5452
925.709	5334
925.816	5299
925.924	5307
926.031	5368
926.138	5334
926.245	5299
926.352	5212
926.459	5261
926.566	5318
926.673	5223
926.779	5147
926.886	5121
926.993	5067
927.099	5022
927.206	4991
927.312	4976
927.419	5086
927.525	4991
927.631	4919
927.737	4915
927.843	4881
927.95	4755
928.056	4866
928.162	4816
928.267	4790
928.373	5330
928.479	4839
928.585	4694
928.69	4733
928.796	4752
928.901	4660
929.007	4618
929.112	4691
929.218	4649
929.323	4599
929.428	4512
929.533	4687
929.638	4516
929.743	4538
929.848	4542
929.953	4504
930.058	4466
930.163	4322
930.267	4322
930.372	4409
930.477	4314
930.581	4519
930.685	4402
930.79	4242
930.894	4291
930.998	4246
931.103	4398
931.207	4071
931.311	4074
931.415	4025
931.519	3937
931.623	3956
