Data from glass_V78500241_2099.txt Node
Date: Wed Sep 01 19:29:03 CST 2021
User: usil
Spectrometer: V785-0024
Trigger mode: 0
Integration Time (sec): 4.000000E-1
Scans to average: 1
Nonlinearity correction enabled: false
Boxcar width: 0
Storing dark spectrum: false
XAxis mode: Wavelengths
Number of Pixels in Spectrum: 1024
>>>>>Begin Spectral Data<<<<<
801.071	3755
801.214	3797
801.356	3717
801.499	3720
801.641	3694
801.783	3762
801.926	3865
802.068	3808
802.211	3850
802.353	3915
802.496	3823
802.638	3873
802.78	3915
802.923	3922
803.065	3911
803.208	3865
803.35	3873
803.492	3861
803.635	3884
803.777	3800
803.919	3911
804.061	4169
804.204	3918
804.346	3941
804.488	3899
804.63	4010
804.773	3926
804.915	4021
805.057	4105
805.199	4029
805.341	4086
805.483	4158
805.626	4147
805.768	4090
805.91	4215
806.052	4242
806.194	4169
806.336	4329
806.478	4238
806.62	4147
806.762	4169
806.904	4219
807.046	4348
807.188	4227
807.33	4150
807.472	4215
807.614	4162
807.756	4284
807.898	4200
808.04	4215
808.182	4314
808.324	4333
808.465	4428
808.607	4455
808.749	4413
808.891	4421
809.033	4523
809.174	4417
809.316	4246
809.458	4215
809.6	4139
809.741	4185
809.883	4128
810.025	4166
810.166	4215
810.308	4185
810.45	4211
810.591	4207
810.733	4280
810.875	4531
811.016	4858
811.158	5128
811.299	5277
811.441	5242
811.582	5094
811.724	4706
811.865	4413
812.007	4508
812.148	4474
812.29	4409
812.431	4440
812.573	4379
812.714	4390
812.855	4424
812.997	4443
813.138	4466
813.279	4398
813.421	4405
813.562	4379
813.703	4329
813.845	4348
813.986	4253
814.127	4227
814.268	4249
814.41	4246
814.551	4280
814.692	4253
814.833	4299
814.974	4295
815.115	4322
815.256	4238
815.397	4249
815.539	4246
815.68	4196
815.821	4192
815.962	4348
816.103	4291
816.244	4204
816.385	4246
816.526	4223
816.666	4173
816.807	4090
816.948	4207
817.089	4158
817.23	4143
817.371	4048
817.512	4090
817.653	4074
817.793	4017
817.934	4036
818.075	4097
818.216	4048
818.356	4101
818.497	3994
818.638	3903
818.778	3949
818.919	3876
819.06	3861
819.2	3861
819.341	3876
819.481	3835
819.622	3888
819.762	4044
819.903	3937
820.043	3865
820.184	3793
820.324	3804
820.465	3911
820.605	3926
820.746	3835
820.886	3789
821.026	3964
821.167	3850
821.307	3968
821.447	3979
821.588	3918
821.728	3960
821.868	3953
822.008	3876
822.149	3896
822.289	3918
822.429	3766
822.569	3747
822.709	3785
822.849	3709
822.99	3705
823.13	3751
823.27	3785
823.41	3743
823.55	3740
823.69	3724
823.83	3751
823.97	3690
824.11	3622
824.25	3587
824.389	3637
824.529	3686
824.669	3629
824.809	3751
824.949	3713
825.089	3747
825.228	3656
825.368	3591
825.508	3553
825.648	3553
825.787	3576
825.927	3629
826.067	3641
826.206	3629
826.346	3778
826.485	3819
826.625	3873
826.765	3945
826.904	3774
827.044	3637
827.183	3504
827.323	3409
827.462	3488
827.601	3435
827.741	3420
827.88	3431
828.02	3386
828.159	3431
828.298	3492
828.437	3530
828.577	3488
828.716	3584
828.855	3500
828.994	3355
829.134	3332
829.273	3374
829.412	3325
829.551	3355
829.69	3340
829.829	3378
829.968	3492
830.107	3466
830.246	3447
830.385	3378
830.524	3332
830.663	3329
830.802	3226
830.941	3173
831.08	3195
831.219	3241
831.357	3264
831.496	3401
831.635	3222
831.774	3188
831.913	3180
832.051	3112
832.19	3108
832.329	3192
832.467	3146
832.606	3146
832.744	3207
832.883	3161
833.022	3203
833.16	3272
833.299	3294
833.437	3321
833.576	3348
833.714	3420
833.852	3424
833.991	3447
834.129	3462
834.267	3435
834.406	3401
834.544	3428
834.682	3424
834.821	3435
834.959	3584
835.097	3416
835.235	3511
835.373	3443
835.511	3500
835.65	3416
835.788	3447
835.926	3378
836.064	3370
836.202	3393
836.34	3530
836.478	3603
836.615	3542
836.753	3545
836.891	3637
837.029	3599
837.167	3587
837.305	3549
837.443	3504
837.58	3519
837.718	3606
837.856	3504
837.993	3515
838.131	3580
838.269	3587
838.406	3568
838.544	3568
838.681	3450
838.819	3454
838.956	3389
839.094	3386
839.231	3443
839.369	3515
839.506	3736
839.643	3641
839.781	3477
839.918	3443
840.055	3519
840.193	3534
840.33	3553
840.467	3553
840.604	3606
840.742	3797
840.879	3549
841.016	3553
841.153	3622
841.29	3770
841.427	3679
841.564	3682
841.701	3743
841.838	3679
841.975	3671
842.112	3709
842.249	3644
842.385	3644
842.522	3846
842.659	3709
842.796	3660
842.933	3679
843.069	3690
843.206	3698
843.343	3793
843.479	3747
843.616	3797
843.752	3637
843.889	3705
844.025	3850
844.162	3701
844.298	3857
844.435	3720
844.571	3774
844.708	3861
844.844	3998
844.98	4010
845.117	4029
845.253	3934
845.389	3892
845.525	3972
845.661	3926
845.798	3930
845.934	3987
846.07	3964
846.206	4059
846.342	4143
846.478	4040
846.614	3964
846.75	3937
846.886	3896
847.022	3979
847.158	3983
847.294	3987
847.429	3994
847.565	4036
847.701	4154
847.837	3869
847.972	3823
848.108	3998
848.244	3934
848.379	3865
848.515	3785
848.65	3808
848.786	3812
848.921	3865
849.057	3915
849.192	3896
849.328	3865
849.463	3896
849.598	3873
849.734	3831
849.869	3827
850.004	3781
850.14	3846
850.275	3766
850.41	3720
850.545	3740
850.68	3766
850.815	3800
850.95	3747
851.085	3945
851.22	3846
851.355	3793
851.49	3808
851.625	3743
851.76	3740
851.895	3724
852.03	3736
852.165	3785
852.299	3808
852.434	3884
852.569	3880
852.703	3869
852.838	3964
852.973	3968
853.107	3972
853.242	3880
853.376	3873
853.511	3793
853.645	3846
853.78	3956
853.914	3884
854.048	3892
854.183	3880
854.317	3941
854.451	4063
854.585	3956
854.72	3960
854.854	4002
854.988	3941
855.122	4010
855.256	3899
855.39	3979
855.524	4116
855.658	4093
855.792	4112
855.926	4116
856.06	4116
856.194	4177
856.327	4124
856.461	4188
856.595	4162
856.729	4166
856.862	4268
856.996	4272
857.13	4314
857.263	4306
857.397	4314
857.53	4253
857.664	4360
857.797	4383
857.931	4432
858.064	4383
858.197	4443
858.331	4329
858.464	4394
858.597	4329
858.731	4440
858.864	4409
858.997	4493
859.13	4478
859.263	4535
859.396	4580
859.529	4573
859.662	4538
859.795	4512
859.928	4577
860.061	4691
860.194	4733
860.327	4660
860.46	4645
860.592	4710
860.725	4797
860.858	4759
860.99	4729
861.123	4630
861.256	4668
861.388	4759
861.521	5444
861.653	4740
861.786	4679
861.918	4740
862.05	4790
862.183	4820
862.315	4862
862.447	4904
862.58	4923
862.712	4816
862.844	4835
862.976	4866
863.108	4873
863.24	5136
863.372	4828
863.504	4896
863.636	4896
863.768	4953
863.9	4904
864.032	4953
864.164	4953
864.296	5033
864.428	5094
864.559	5121
864.691	5140
864.823	5140
864.954	5124
865.086	5113
865.217	5143
865.349	5128
865.48	5147
865.612	5208
865.743	5284
865.875	5201
866.006	5178
866.137	5181
866.269	5254
866.4	5231
866.531	5239
866.662	5208
866.793	5280
866.924	5280
867.055	5357
867.186	5322
867.317	5292
867.448	5284
867.579	5303
867.71	5398
867.841	5349
867.972	5452
868.103	5414
868.233	5429
868.364	5486
868.495	5486
868.625	5657
868.756	5741
868.886	5604
869.017	5752
869.147	5828
869.278	5866
869.408	5794
869.539	5832
869.669	5946
869.799	5901
869.929	5984
870.06	5973
870.19	6148
870.32	6213
870.45	6243
870.58	6315
870.71	6418
870.84	6456
870.97	6422
871.1	6464
871.23	6696
871.36	6700
871.489	6646
871.619	6703
871.749	6753
871.879	6829
872.008	6981
872.138	7000
872.267	7015
872.397	6962
872.526	7065
872.656	7053
872.785	7171
872.915	7384
873.044	7506
873.173	7552
873.303	7632
873.432	7734
873.561	7830
873.69	7959
873.819	8031
873.948	8176
874.077	8275
874.206	8305
874.335	8442
874.464	8632
874.593	8845
874.722	8979
874.851	9108
874.979	9207
875.108	9393
875.237	9424
875.365	9416
875.494	9580
875.623	9842
875.751	9907
875.88	10010
876.008	10082
876.136	10169
876.265	10588
876.393	10641
876.521	10721
876.65	10812
876.778	10786
876.906	10938
877.034	10900
877.162	11083
877.29	11113
877.418	11140
877.546	11280
877.674	11448
877.802	11421
877.93	11509
878.058	11539
878.185	11539
878.313	11699
878.441	11726
878.568	11608
878.696	11745
878.824	11889
878.951	11923
879.079	12011
879.206	12079
879.333	12003
879.461	11977
879.588	12041
879.715	11980
879.842	12232
879.97	11977
880.097	11840
880.224	11904
880.351	11882
880.478	11866
880.605	11832
880.732	11775
880.859	11965
880.986	11824
881.112	11832
881.239	11752
881.366	11649
881.493	11646
881.619	11467
881.746	11532
881.872	11570
881.999	11501
882.125	11467
882.252	11455
882.378	11482
882.505	11509
882.631	11273
882.757	11273
882.883	11452
883.01	11227
883.136	11239
883.262	11060
883.388	11143
883.514	11155
883.64	11208
883.766	11181
883.892	10908
884.018	10999
884.143	11075
884.269	11075
884.395	10744
884.52	10809
884.646	10702
884.772	10641
884.897	10702
885.023	10702
885.148	10668
885.274	10752
885.399	10809
885.524	10649
885.65	10592
885.775	10599
885.9	10565
886.025	10558
886.15	10573
886.275	10466
886.4	10356
886.525	10398
886.65	10417
886.775	10314
886.9	10554
887.025	10573
887.149	10322
887.274	10215
887.399	10131
887.523	10112
887.648	10177
887.773	10207
887.897	10276
888.021	10150
888.146	10200
888.27	10344
888.395	10166
888.519	10154
888.643	10082
888.767	10150
888.891	10055
889.015	10040
889.139	10059
889.263	10017
889.387	10051
889.511	10135
889.635	10013
889.759	9987
889.883	9994
890.006	9930
890.13	10105
890.254	9895
890.377	9895
890.501	9907
890.624	9865
890.748	9850
890.871	9781
890.995	9770
891.118	9705
891.241	9846
891.364	9755
891.488	9876
891.611	9686
891.734	9774
891.857	9728
891.98	9797
892.103	9762
892.226	9766
892.349	9709
892.471	9488
892.594	9545
892.717	9591
892.839	9526
892.962	9576
893.085	9637
893.207	9485
893.33	9500
893.452	9523
893.575	9557
893.697	9439
893.819	9641
893.941	9580
894.064	9614
894.186	9439
894.308	9408
894.43	9526
894.552	9622
894.674	9507
894.796	9367
894.918	9393
895.04	9302
895.161	9359
895.283	9313
895.405	9287
895.526	9317
895.648	9203
895.769	9230
895.891	9260
896.012	9249
896.134	9218
896.255	9157
896.376	9218
896.498	9097
896.619	9108
896.74	9123
896.861	9100
896.982	9329
897.103	9283
897.224	9161
897.345	9116
897.466	8948
897.587	8998
897.708	9108
897.828	9047
897.949	8895
898.07	8842
898.19	8807
898.311	8956
898.431	8895
898.552	8861
898.672	8952
898.792	8891
898.913	8895
899.033	8819
899.153	8697
899.273	8663
899.393	8735
899.513	8708
899.633	8693
899.753	8693
899.873	8689
899.993	8788
900.113	8754
900.232	8762
900.352	8705
900.472	8644
900.591	8518
900.711	8598
900.83	8545
900.95	8629
901.069	8678
901.189	8507
901.308	8446
901.427	8305
901.546	8495
901.665	8446
901.784	8419
901.904	8351
902.023	8309
902.141	8221
902.26	8206
902.379	8206
902.498	8191
902.617	8183
902.735	8286
902.854	8320
902.973	8286
903.091	8153
903.21	8149
903.328	8225
903.446	8100
903.565	8065
903.683	8183
903.801	8046
903.919	8111
904.038	8145
904.156	8046
904.274	8149
904.392	7993
904.51	8031
904.627	8103
904.745	8100
904.863	8035
904.981	7947
905.098	7879
905.216	7830
905.334	7902
905.451	7909
905.569	7879
905.686	7890
905.803	7932
905.921	7795
906.038	7822
906.155	7780
906.272	7685
906.389	7647
906.506	7677
906.623	7639
906.74	7578
906.857	7529
906.974	7556
907.091	7620
907.208	7696
907.324	7639
907.441	7556
907.557	7441
907.674	7476
907.79	7426
907.907	7422
908.023	7468
908.139	7460
908.256	7373
908.372	7373
908.488	7324
908.604	7251
908.72	7190
908.836	7293
908.952	7194
909.068	7301
909.184	7335
909.3	7202
909.415	7331
909.531	7228
909.647	7088
909.762	7084
909.878	7076
909.993	7152
910.108	7099
910.224	7031
910.339	7091
910.454	7072
910.57	7004
910.685	6985
910.8	7057
910.915	7129
911.03	6989
911.145	6947
911.259	6897
911.374	6920
911.489	6871
911.604	6818
911.718	6631
911.833	6711
911.947	6700
912.062	6608
912.176	6749
912.291	6658
912.405	6642
912.519	6818
912.633	6837
912.748	6741
912.862	6700
912.976	6589
913.09	6513
913.204	6544
913.318	6532
913.431	6681
913.545	6669
913.659	6726
913.772	6635
913.886	6544
914	6582
914.113	6589
914.226	6620
914.34	6570
914.453	6509
914.566	6665
914.68	6525
914.793	6513
914.906	6376
915.019	6414
915.132	6395
915.245	6372
915.358	6433
915.47	6441
915.583	6486
915.696	6437
915.809	6544
915.921	6525
916.034	6407
916.146	6410
916.259	6395
916.371	6490
916.483	6395
916.595	6388
916.708	6399
916.82	6372
916.932	6395
917.044	6369
917.156	6429
917.268	6338
917.38	6353
917.491	6311
917.603	6353
917.715	6414
917.826	6319
917.938	6247
918.049	6262
918.161	6384
918.272	6372
918.384	6460
918.495	6327
918.606	6304
918.717	6213
918.828	6281
918.939	6251
919.05	6224
919.161	6197
919.272	6133
919.383	6144
919.494	6331
919.604	6429
919.715	6262
919.826	6270
919.936	6228
920.047	6350
920.157	6296
920.267	6418
920.378	6277
920.488	6315
920.598	6460
920.708	6506
920.818	6410
920.928	6456
921.038	6566
921.148	6517
921.258	6350
921.368	6338
921.477	6239
921.587	6144
921.697	6053
921.806	6148
921.916	6076
922.025	5942
922.134	5878
922.244	5912
922.353	5973
922.462	5882
922.571	5771
922.68	5741
922.789	5668
922.898	5653
923.007	5638
923.116	5665
923.224	5684
923.333	5642
923.442	5600
923.55	5589
923.659	5573
923.767	5600
923.876	5562
923.984	5604
924.092	5539
924.201	5592
924.309	5585
924.417	5581
924.525	5452
924.633	5592
924.741	6262
924.849	5341
924.956	5433
925.064	5296
925.172	5311
925.279	5326
925.387	5349
925.494	5311
925.602	5414
925.709	5318
925.816	5258
925.924	5292
926.031	5391
926.138	5353
926.245	5315
926.352	5239
926.459	5318
926.566	5292
926.673	5231
926.779	5121
926.886	5102
926.993	5029
927.099	5052
927.206	4972
927.312	4953
927.419	4968
927.525	4957
927.631	5018
927.737	4915
927.843	4908
927.95	4774
928.056	4797
928.162	4816
928.267	4862
928.373	5376
928.479	4877
928.585	4675
928.69	4793
928.796	4725
928.901	4702
929.007	4580
929.112	4618
929.218	4611
929.323	4611
929.428	4573
929.533	4675
929.638	4531
929.743	4500
929.848	4554
929.953	4519
930.058	4462
930.163	4314
930.267	4306
930.372	4447
930.477	4265
930.581	4409
930.685	4318
930.79	4257
930.894	4280
930.998	4287
931.103	4375
931.207	4109
931.311	4128
931.415	4036
931.519	3934
931.623	3930
