Data from glass_V78500241_610.txt Node
Date: Wed Sep 01 19:18:43 CST 2021
User: usil
Spectrometer: V785-0024
Trigger mode: 0
Integration Time (sec): 4.000000E-1
Scans to average: 1
Nonlinearity correction enabled: false
Boxcar width: 0
Storing dark spectrum: false
XAxis mode: Wavelengths
Number of Pixels in Spectrum: 1024
>>>>>Begin Spectral Data<<<<<
801.071	3740
801.214	3720
801.356	3701
801.499	3740
801.641	3736
801.783	3736
801.926	3884
802.068	3861
802.211	3842
802.353	3941
802.496	3831
802.638	3850
802.78	3915
802.923	3907
803.065	3903
803.208	3865
803.35	3861
803.492	3953
803.635	3937
803.777	3835
803.919	3926
804.061	4166
804.204	4006
804.346	3991
804.488	3937
804.63	4063
804.773	3964
804.915	4040
805.057	4143
805.199	4032
805.341	4109
805.483	4173
805.626	4128
805.768	4090
805.91	4204
806.052	4261
806.194	4188
806.336	4356
806.478	4253
806.62	4200
806.762	4147
806.904	4253
807.046	4341
807.188	4192
807.33	4173
807.472	4234
807.614	4147
807.756	4272
807.898	4242
808.04	4246
808.182	4261
808.324	4299
808.465	4402
808.607	4497
808.749	4459
808.891	4500
809.033	4565
809.174	4447
809.316	4310
809.458	4249
809.6	4177
809.741	4169
809.883	4162
810.025	4230
810.166	4215
810.308	4230
810.45	4261
810.591	4280
810.733	4318
810.875	4508
811.016	4835
811.158	5132
811.299	5284
811.441	5326
811.582	5060
811.724	4698
811.865	4527
812.007	4531
812.148	4447
812.29	4447
812.431	4466
812.573	4417
812.714	4417
812.855	4462
812.997	4390
813.138	4478
813.279	4409
813.421	4379
813.562	4405
813.703	4322
813.845	4360
813.986	4280
814.127	4234
814.268	4314
814.41	4341
814.551	4287
814.692	4322
814.833	4261
814.974	4363
815.115	4375
815.256	4257
815.397	4265
815.539	4314
815.68	4211
815.821	4227
815.962	4348
816.103	4253
816.244	4242
816.385	4207
816.526	4295
816.666	4196
816.807	4135
816.948	4181
817.089	4204
817.23	4143
817.371	4071
817.512	4074
817.653	4093
817.793	4040
817.934	4086
818.075	4128
818.216	4093
818.356	4074
818.497	3991
818.638	3949
818.778	3934
818.919	3926
819.06	3880
819.2	3926
819.341	3876
819.481	3835
819.622	3918
819.762	4040
819.903	3964
820.043	3819
820.184	3827
820.324	3804
820.465	3915
820.605	3892
820.746	3903
820.886	3838
821.026	3922
821.167	3964
821.307	3994
821.447	3994
821.588	3972
821.728	3926
821.868	3922
822.008	3850
822.149	3964
822.289	3934
822.429	3797
822.569	3770
822.709	3854
822.849	3732
822.99	3785
823.13	3751
823.27	3770
823.41	3743
823.55	3732
823.69	3720
823.83	3743
823.97	3705
824.11	3671
824.25	3629
824.389	3644
824.529	3690
824.669	3614
824.809	3759
824.949	3759
825.089	3713
825.228	3728
825.368	3614
825.508	3572
825.648	3584
825.787	3603
825.927	3663
826.067	3660
826.206	3686
826.346	3808
826.485	3835
826.625	3850
826.765	3968
826.904	3804
827.044	3633
827.183	3500
827.323	3424
827.462	3500
827.601	3435
827.741	3443
827.88	3511
828.02	3428
828.159	3466
828.298	3443
828.437	3572
828.577	3485
828.716	3633
828.855	3504
828.994	3416
829.134	3386
829.273	3428
829.412	3363
829.551	3351
829.69	3405
829.829	3420
829.968	3519
830.107	3466
830.246	3469
830.385	3355
830.524	3359
830.663	3313
830.802	3287
830.941	3245
831.08	3192
831.219	3272
831.357	3233
831.496	3428
831.635	3260
831.774	3249
831.913	3218
832.051	3176
832.19	3173
832.329	3211
832.467	3180
832.606	3119
832.744	3199
832.883	3173
833.022	3230
833.16	3287
833.299	3313
833.437	3355
833.576	3363
833.714	3416
833.852	3428
833.991	3435
834.129	3492
834.267	3439
834.406	3397
834.544	3450
834.682	3447
834.821	3428
834.959	3557
835.097	3424
835.235	3542
835.373	3511
835.511	3477
835.65	3443
835.788	3530
835.926	3401
836.064	3409
836.202	3420
836.34	3564
836.478	3591
836.615	3549
836.753	3587
836.891	3701
837.029	3648
837.167	3599
837.305	3553
837.443	3580
837.58	3523
837.718	3614
837.856	3576
837.993	3538
838.131	3625
838.269	3584
838.406	3603
838.544	3584
838.681	3496
838.819	3515
838.956	3367
839.094	3389
839.231	3447
839.369	3538
839.506	3766
839.643	3648
839.781	3507
839.918	3485
840.055	3523
840.193	3572
840.33	3538
840.467	3576
840.604	3614
840.742	3755
840.879	3599
841.016	3580
841.153	3637
841.29	3762
841.427	3713
841.564	3732
841.701	3732
841.838	3679
841.975	3694
842.112	3717
842.249	3675
842.385	3663
842.522	3842
842.659	3717
842.796	3709
842.933	3709
843.069	3724
843.206	3701
843.343	3850
843.479	3785
843.616	3827
843.752	3675
843.889	3686
844.025	3884
844.162	3736
844.298	3831
844.435	3827
844.571	3766
844.708	3937
844.844	4013
844.98	4021
845.117	4010
845.253	3956
845.389	3911
845.525	4006
845.661	3964
845.798	3918
845.934	4013
846.07	3972
846.206	4055
846.342	4143
846.478	4059
846.614	3953
846.75	3907
846.886	3880
847.022	4036
847.158	3991
847.294	4021
847.429	4025
847.565	4025
847.701	4223
847.837	3873
847.972	3896
848.108	4002
848.244	3975
848.379	3880
848.515	3808
848.65	3854
848.786	3835
848.921	3857
849.057	3953
849.192	3968
849.328	3884
849.463	3953
849.598	3915
849.734	3892
849.869	3831
850.004	3808
850.14	3873
850.275	3808
850.41	3778
850.545	3766
850.68	3781
850.815	3816
850.95	3808
851.085	3975
851.22	3892
851.355	3854
851.49	3770
851.625	3778
851.76	3838
851.895	3732
852.03	3781
852.165	3789
852.299	3873
852.434	3918
852.569	3884
852.703	3907
852.838	3991
852.973	3983
853.107	3979
853.242	3892
853.376	3888
853.511	3793
853.645	3876
853.78	3991
853.914	3930
854.048	3930
854.183	3907
854.317	3983
854.451	4131
854.585	3964
854.72	3979
854.854	4074
854.988	3945
855.122	3998
855.256	3987
855.39	4006
855.524	4071
855.658	4086
855.792	4116
855.926	4162
856.06	4185
856.194	4219
856.327	4177
856.461	4181
856.595	4162
856.729	4166
856.862	4333
856.996	4219
857.13	4337
857.263	4306
857.397	4386
857.53	4253
857.664	4333
857.797	4424
857.931	4455
858.064	4386
858.197	4451
858.331	4375
858.464	4379
858.597	4352
858.731	4421
858.864	4516
858.997	4447
859.13	4531
859.263	4580
859.396	4599
859.529	4500
859.662	4550
859.795	4596
859.928	4577
860.061	4752
860.194	4729
860.327	4683
860.46	4714
860.592	4733
860.725	4755
860.858	4790
860.99	4729
861.123	4679
861.256	4767
861.388	4797
861.521	5425
861.653	4740
861.786	4729
861.918	4721
862.05	4767
862.183	4835
862.315	4892
862.447	4934
862.58	4923
862.712	4809
862.844	4790
862.976	4904
863.108	4873
863.24	5159
863.372	4816
863.504	4870
863.636	4881
863.768	4938
863.9	4961
864.032	4942
864.164	4968
864.296	5048
864.428	5090
864.559	5117
864.691	5151
864.823	5136
864.954	5128
865.086	5155
865.217	5128
865.349	5140
865.48	5166
865.612	5204
865.743	5307
865.875	5220
866.006	5204
866.137	5288
866.269	5258
866.4	5227
866.531	5212
866.662	5269
866.793	5277
866.924	5299
867.055	5315
867.186	5372
867.317	5292
867.448	5303
867.579	5326
867.71	5368
867.841	5349
867.972	5490
868.103	5463
868.233	5512
868.364	5478
868.495	5535
868.625	5680
868.756	5767
868.886	5714
869.017	5805
869.147	5920
869.278	5916
869.408	5840
869.539	5805
869.669	5958
869.799	5859
869.929	5961
870.06	6068
870.19	6182
870.32	6201
870.45	6247
870.58	6365
870.71	6437
870.84	6437
870.97	6433
871.1	6422
871.23	6646
871.36	6677
871.489	6681
871.619	6776
871.749	6798
871.879	6859
872.008	6954
872.138	6985
872.267	7072
872.397	7008
872.526	7057
872.656	7152
872.785	7206
872.915	7411
873.044	7571
873.173	7556
873.303	7689
873.432	7780
873.561	7959
873.69	7925
873.819	8031
873.948	8248
874.077	8305
874.206	8419
874.335	8518
874.464	8693
874.593	8914
874.722	8910
874.851	9089
874.979	9184
875.108	9378
875.237	9454
875.365	9519
875.494	9717
875.623	9766
875.751	9857
875.88	10017
876.008	10291
876.136	10344
876.265	10558
876.393	10683
876.521	10710
876.65	10885
876.778	10873
876.906	10843
877.034	10984
877.162	11083
877.29	11143
877.418	11391
877.546	11315
877.674	11482
877.802	11497
877.93	11589
878.058	11497
878.185	11543
878.313	11771
878.441	11726
878.568	11737
878.696	11741
878.824	11904
878.951	12019
879.079	12019
879.206	12171
879.333	12106
879.461	12072
879.588	12171
879.715	12125
879.842	12209
879.97	12064
880.097	11866
880.224	11916
880.351	11878
880.478	11874
880.605	11805
880.732	11904
880.859	12049
880.986	11836
881.112	11836
881.239	11843
881.366	11764
881.493	11668
881.619	11592
881.746	11566
881.872	11490
881.999	11520
882.125	11425
882.252	11532
882.378	11497
882.505	11573
882.631	11402
882.757	11273
882.883	11379
883.01	11360
883.136	11231
883.262	11121
883.388	11124
883.514	11208
883.64	11174
883.766	11159
883.892	10995
884.018	11090
884.143	11071
884.269	11155
884.395	10889
884.52	10729
884.646	10774
884.772	10702
884.897	10687
885.023	10759
885.148	10771
885.274	10854
885.399	10660
885.524	10702
885.65	10565
885.775	10554
885.9	10599
886.025	10626
886.15	10542
886.275	10459
886.4	10394
886.525	10375
886.65	10363
886.775	10390
886.9	10478
887.025	10592
887.149	10436
887.274	10322
887.399	10246
887.523	10185
887.648	10166
887.773	10112
887.897	10291
888.021	10265
888.146	10078
888.27	10207
888.395	10234
888.519	10223
888.643	10135
888.767	10177
888.891	10082
889.015	9975
889.139	10044
889.263	9956
889.387	10082
889.511	10097
889.635	10021
889.759	9922
889.883	10010
890.006	10006
890.13	10181
890.254	9968
890.377	9888
890.501	9949
890.624	9762
890.748	9949
890.871	9861
890.995	9774
891.118	9709
891.241	9755
891.364	9770
891.488	9842
891.611	9686
891.734	9770
891.857	9778
891.98	9751
892.103	9778
892.226	9720
892.349	9686
892.471	9553
892.594	9576
892.717	9595
892.839	9587
892.962	9625
893.085	9660
893.207	9614
893.33	9534
893.452	9515
893.575	9622
893.697	9553
893.819	9629
893.941	9625
894.064	9698
894.186	9454
894.308	9485
894.43	9454
894.552	9538
894.674	9576
894.796	9416
894.918	9435
895.04	9340
895.161	9367
895.283	9336
895.405	9188
895.526	9203
895.648	9241
895.769	9249
895.891	9275
896.012	9268
896.134	9291
896.255	9233
896.376	9199
896.498	9169
896.619	9138
896.74	9077
896.861	9138
896.982	9192
897.103	9374
897.224	9176
897.345	9081
897.466	9055
897.587	9058
897.708	9157
897.828	9066
897.949	8956
898.07	8845
898.19	8986
898.311	9047
898.431	8876
898.552	8975
898.672	9020
898.792	8971
898.913	8948
899.033	8773
899.153	8735
899.273	8697
899.393	8712
899.513	8800
899.633	8701
899.753	8769
899.873	8762
899.993	8651
900.113	8731
900.232	8670
900.352	8670
900.472	8689
900.591	8644
900.711	8644
900.83	8579
900.95	8682
901.069	8701
901.189	8556
901.308	8454
901.427	8442
901.546	8431
901.665	8488
901.784	8518
901.904	8469
902.023	8343
902.141	8252
902.26	8172
902.379	8301
902.498	8206
902.617	8218
902.735	8267
902.854	8301
902.973	8313
903.091	8088
903.21	8145
903.328	8164
903.446	8107
903.565	8084
903.683	8027
903.801	8020
903.919	8157
904.038	8176
904.156	8111
904.274	8081
904.392	8046
904.51	8081
904.627	8020
904.745	8084
904.863	8168
904.981	7959
905.098	7871
905.216	7871
905.334	7936
905.451	7887
905.569	7928
905.686	7936
905.803	7883
905.921	7780
906.038	7902
906.155	7780
906.272	7784
906.389	7719
906.506	7636
906.623	7628
906.74	7586
906.857	7533
906.974	7518
907.091	7700
907.208	7693
907.324	7662
907.441	7559
907.557	7472
907.674	7426
907.79	7460
907.907	7411
908.023	7483
908.139	7438
908.256	7434
908.372	7316
908.488	7354
908.604	7240
908.72	7274
908.836	7285
908.952	7278
909.068	7289
909.184	7274
909.3	7282
909.415	7297
909.531	7289
909.647	7091
909.762	7156
909.878	7061
909.993	7118
910.108	7103
910.224	7076
910.339	7110
910.454	7072
910.57	7034
910.685	6993
910.8	7114
910.915	7095
911.03	6989
911.145	6928
911.259	6905
911.374	6871
911.489	6878
911.604	6798
911.718	6703
911.833	6787
911.947	6745
912.062	6589
912.176	6734
912.291	6677
912.405	6646
912.519	6859
912.633	6856
912.748	6757
912.862	6642
912.976	6601
913.09	6574
913.204	6566
913.318	6639
913.431	6662
913.545	6722
913.659	6696
913.772	6665
913.886	6540
914	6601
914.113	6612
914.226	6563
914.34	6570
914.453	6521
914.566	6620
914.68	6536
914.793	6563
914.906	6479
915.019	6414
915.132	6372
915.245	6445
915.358	6502
915.47	6456
915.583	6441
915.696	6483
915.809	6517
915.921	6517
916.034	6418
916.146	6460
916.259	6422
916.371	6502
916.483	6422
916.595	6380
916.708	6441
916.82	6418
916.932	6410
917.044	6414
917.156	6376
917.268	6357
917.38	6388
917.491	6281
917.603	6346
917.715	6403
917.826	6418
917.938	6319
918.049	6254
918.161	6319
918.272	6426
918.384	6407
918.495	6395
918.606	6270
918.717	6258
918.828	6304
918.939	6296
919.05	6232
919.161	6205
919.272	6140
919.383	6182
919.494	6331
919.604	6456
919.715	6296
919.826	6205
919.936	6235
920.047	6258
920.157	6300
920.267	6479
920.378	6365
920.488	6300
920.598	6486
920.708	6517
920.818	6486
920.928	6536
921.038	6631
921.148	6559
921.258	6384
921.368	6296
921.477	6201
921.587	6190
921.697	6140
921.806	6178
921.916	6083
922.025	5977
922.134	5920
922.244	5904
922.353	5939
922.462	5874
922.571	5836
922.68	5684
922.789	5703
922.898	5722
923.007	5680
923.116	5676
923.224	5676
923.333	5668
923.442	5581
923.55	5573
923.659	5630
923.767	5653
923.876	5566
923.984	5589
924.092	5532
924.201	5581
924.309	5566
924.417	5592
924.525	5486
924.633	5539
924.741	6247
924.849	5353
924.956	5501
925.064	5360
925.172	5334
925.279	5330
925.387	5322
925.494	5303
925.602	5417
925.709	5383
925.816	5296
925.924	5296
926.031	5391
926.138	5330
926.245	5334
926.352	5227
926.459	5345
926.566	5334
926.673	5246
926.779	5159
926.886	5151
926.993	5094
927.099	5041
927.206	5003
927.312	5010
927.419	5010
927.525	4946
927.631	5014
927.737	4949
927.843	4877
927.95	4748
928.056	4839
928.162	4850
928.267	4850
928.373	5299
928.479	4889
928.585	4710
928.69	4736
928.796	4828
928.901	4748
929.007	4573
929.112	4706
929.218	4698
929.323	4573
929.428	4588
929.533	4702
929.638	4592
929.743	4542
929.848	4561
929.953	4516
930.058	4440
930.163	4333
930.267	4394
930.372	4455
930.477	4272
930.581	4485
930.685	4413
930.79	4227
930.894	4344
930.998	4272
931.103	4451
931.207	4124
931.311	4097
931.415	4067
931.519	3975
931.623	3972
