Data from glass_V78500241_309.txt Node
Date: Wed Sep 01 19:16:38 CST 2021
User: usil
Spectrometer: V785-0024
Trigger mode: 0
Integration Time (sec): 4.000000E-1
Scans to average: 1
Nonlinearity correction enabled: false
Boxcar width: 0
Storing dark spectrum: false
XAxis mode: Wavelengths
Number of Pixels in Spectrum: 1024
>>>>>Begin Spectral Data<<<<<
801.071	3766
801.214	3743
801.356	3694
801.499	3755
801.641	3720
801.783	3751
801.926	3873
802.068	3869
802.211	3873
802.353	3918
802.496	3869
802.638	3865
802.78	3899
802.923	3953
803.065	3949
803.208	3865
803.35	3918
803.492	3907
803.635	3941
803.777	3770
803.919	3934
804.061	4124
804.204	3998
804.346	3930
804.488	3930
804.63	4040
804.773	3975
804.915	4044
805.057	4143
805.199	4097
805.341	4101
805.483	4097
805.626	4131
805.768	4112
805.91	4192
806.052	4207
806.194	4223
806.336	4352
806.478	4242
806.62	4211
806.762	4162
806.904	4272
807.046	4367
807.188	4234
807.33	4223
807.472	4265
807.614	4230
807.756	4306
807.898	4219
808.04	4265
808.182	4299
808.324	4390
808.465	4375
808.607	4466
808.749	4500
808.891	4462
809.033	4504
809.174	4413
809.316	4314
809.458	4272
809.6	4135
809.741	4169
809.883	4112
810.025	4196
810.166	4265
810.308	4196
810.45	4188
810.591	4265
810.733	4268
810.875	4558
811.016	4816
811.158	5140
811.299	5296
811.441	5322
811.582	5075
811.724	4710
811.865	4504
812.007	4481
812.148	4443
812.29	4451
812.431	4417
812.573	4379
812.714	4386
812.855	4394
812.997	4451
813.138	4531
813.279	4417
813.421	4421
813.562	4371
813.703	4322
813.845	4348
813.986	4223
814.127	4246
814.268	4299
814.41	4325
814.551	4268
814.692	4337
814.833	4314
814.974	4280
815.115	4314
815.256	4299
815.397	4219
815.539	4272
815.68	4223
815.821	4227
815.962	4360
816.103	4295
816.244	4284
816.385	4280
816.526	4272
816.666	4215
816.807	4090
816.948	4219
817.089	4181
817.23	4105
817.371	4086
817.512	4051
817.653	4086
817.793	4040
817.934	4040
818.075	4131
818.216	4124
818.356	4109
818.497	4044
818.638	3956
818.778	3915
818.919	3888
819.06	3869
819.2	3873
819.341	3892
819.481	3865
819.622	3899
819.762	4032
819.903	3915
820.043	3907
820.184	3907
820.324	3831
820.465	3892
820.605	3899
820.746	3869
820.886	3835
821.026	3934
821.167	3911
821.307	3975
821.447	4010
821.588	3987
821.728	3937
821.868	3922
822.008	3892
822.149	3930
822.289	3922
822.429	3823
822.569	3793
822.709	3816
822.849	3713
822.99	3740
823.13	3732
823.27	3831
823.41	3759
823.55	3781
823.69	3762
823.83	3747
823.97	3720
824.11	3644
824.25	3610
824.389	3656
824.529	3682
824.669	3660
824.809	3736
824.949	3797
825.089	3781
825.228	3743
825.368	3595
825.508	3564
825.648	3599
825.787	3584
825.927	3641
826.067	3667
826.206	3690
826.346	3797
826.485	3797
826.625	3869
826.765	3956
826.904	3846
827.044	3610
827.183	3545
827.323	3416
827.462	3488
827.601	3477
827.741	3462
827.88	3439
828.02	3405
828.159	3454
828.298	3511
828.437	3545
828.577	3485
828.716	3606
828.855	3485
828.994	3382
829.134	3397
829.273	3401
829.412	3405
829.551	3378
829.69	3325
829.829	3447
829.968	3561
830.107	3469
830.246	3469
830.385	3450
830.524	3367
830.663	3279
830.802	3249
830.941	3218
831.08	3203
831.219	3298
831.357	3310
831.496	3420
831.635	3253
831.774	3218
831.913	3226
832.051	3116
832.19	3138
832.329	3199
832.467	3165
832.606	3108
832.744	3188
832.883	3218
833.022	3226
833.16	3291
833.299	3310
833.437	3313
833.576	3378
833.714	3439
833.852	3431
833.991	3424
834.129	3496
834.267	3458
834.406	3435
834.544	3447
834.682	3454
834.821	3412
834.959	3576
835.097	3405
835.235	3561
835.373	3500
835.511	3507
835.65	3431
835.788	3519
835.926	3405
836.064	3428
836.202	3393
836.34	3572
836.478	3599
836.615	3549
836.753	3633
836.891	3675
837.029	3606
837.167	3606
837.305	3538
837.443	3564
837.58	3504
837.718	3614
837.856	3591
837.993	3511
838.131	3606
838.269	3599
838.406	3584
838.544	3576
838.681	3473
838.819	3466
838.956	3412
839.094	3401
839.231	3466
839.369	3561
839.506	3728
839.643	3641
839.781	3515
839.918	3473
840.055	3519
840.193	3538
840.33	3538
840.467	3572
840.604	3614
840.742	3816
840.879	3599
841.016	3542
841.153	3614
841.29	3793
841.427	3740
841.564	3747
841.701	3705
841.838	3701
841.975	3701
842.112	3717
842.249	3652
842.385	3625
842.522	3835
842.659	3698
842.796	3667
842.933	3740
843.069	3698
843.206	3709
843.343	3850
843.479	3857
843.616	3812
843.752	3709
843.889	3682
844.025	3884
844.162	3720
844.298	3865
844.435	3812
844.571	3774
844.708	3945
844.844	3964
844.98	4006
845.117	4036
845.253	3911
845.389	3861
845.525	3979
845.661	3968
845.798	3934
845.934	4032
846.07	3998
846.206	4059
846.342	4162
846.478	4109
846.614	4025
846.75	3934
846.886	3941
847.022	4051
847.158	3998
847.294	3991
847.429	4025
847.565	4010
847.701	4265
847.837	3907
847.972	3880
848.108	4017
848.244	4021
848.379	3857
848.515	3884
848.65	3842
848.786	3876
848.921	3892
849.057	3953
849.192	3934
849.328	3956
849.463	3945
849.598	3892
849.734	3888
849.869	3873
850.004	3793
850.14	3861
850.275	3781
850.41	3751
850.545	3778
850.68	3785
850.815	3812
850.95	3827
851.085	3968
851.22	3869
851.355	3808
851.49	3816
851.625	3797
851.76	3827
851.895	3740
852.03	3770
852.165	3808
852.299	3880
852.434	3930
852.569	3831
852.703	3899
852.838	3911
852.973	4029
853.107	3975
853.242	3896
853.376	3846
853.511	3770
853.645	3861
853.78	3994
853.914	3873
854.048	3945
854.183	3911
854.317	3994
854.451	4048
854.585	3949
854.72	3979
854.854	4059
854.988	3949
855.122	4025
855.256	3975
855.39	4025
855.524	4124
855.658	4116
855.792	4116
855.926	4109
856.06	4139
856.194	4192
856.327	4169
856.461	4143
856.595	4166
856.729	4166
856.862	4325
856.996	4276
857.13	4329
857.263	4322
857.397	4363
857.53	4322
857.664	4371
857.797	4390
857.931	4455
858.064	4405
858.197	4478
858.331	4371
858.464	4371
858.597	4360
858.731	4394
858.864	4409
858.997	4443
859.13	4538
859.263	4516
859.396	4611
859.529	4554
859.662	4519
859.795	4573
859.928	4596
860.061	4744
860.194	4809
860.327	4675
860.46	4698
860.592	4729
860.725	4771
860.858	4767
860.99	4725
861.123	4683
861.256	4702
861.388	4805
861.521	5322
861.653	4744
861.786	4668
861.918	4782
862.05	4812
862.183	4839
862.315	4949
862.447	4896
862.58	4858
862.712	4771
862.844	4786
862.976	4831
863.108	4889
863.24	5246
863.372	4805
863.504	4889
863.636	4923
863.768	5056
863.9	5003
864.032	4949
864.164	4968
864.296	5109
864.428	5083
864.559	5102
864.691	5105
864.823	5140
864.954	5151
865.086	5201
865.217	5151
865.349	5109
865.48	5181
865.612	5208
865.743	5372
865.875	5201
866.006	5189
866.137	5318
866.269	5265
866.4	5231
866.531	5261
866.662	5185
866.793	5318
866.924	5318
867.055	5376
867.186	5284
867.317	5334
867.448	5349
867.579	5395
867.71	5436
867.841	5364
867.972	5395
868.103	5459
868.233	5512
868.364	5566
868.495	5570
868.625	5642
868.756	5844
868.886	5688
869.017	5718
869.147	5851
869.278	5885
869.408	5809
869.539	5817
869.669	5969
869.799	5942
869.929	5958
870.06	6030
870.19	6155
870.32	6163
870.45	6273
870.58	6365
870.71	6388
870.84	6509
870.97	6422
871.1	6452
871.23	6620
871.36	6703
871.489	6692
871.619	6734
871.749	6791
871.879	6856
872.008	6943
872.138	6996
872.267	6996
872.397	6985
872.526	7038
872.656	7091
872.785	7225
872.915	7384
873.044	7521
873.173	7582
873.303	7647
873.432	7727
873.561	7856
873.69	7963
873.819	7997
873.948	8164
874.077	8267
874.206	8347
874.335	8427
874.464	8659
874.593	8880
874.722	8956
874.851	9127
874.979	9203
875.108	9348
875.237	9405
875.365	9496
875.494	9709
875.623	9861
875.751	9876
875.88	10040
876.008	10112
876.136	10291
876.265	10577
876.393	10683
876.521	10759
876.65	10873
876.778	10923
876.906	10961
877.034	10968
877.162	11162
877.29	11216
877.418	11345
877.546	11391
877.674	11512
877.802	11471
877.93	11524
878.058	11638
878.185	11486
878.313	11665
878.441	11775
878.568	11676
878.696	11748
878.824	11863
878.951	11935
879.079	12087
879.206	12152
879.333	12083
879.461	11988
879.588	12121
879.715	12129
879.842	12262
879.97	12079
880.097	11885
880.224	11824
880.351	11901
880.478	11901
880.605	11832
880.732	11790
880.859	12087
880.986	11798
881.112	11904
881.239	11665
881.366	11619
881.493	11638
881.619	11535
881.746	11512
881.872	11589
881.999	11532
882.125	11429
882.252	11627
882.378	11547
882.505	11524
882.631	11444
882.757	11356
882.883	11330
883.01	11296
883.136	11197
883.262	11121
883.388	11083
883.514	11170
883.64	11269
883.766	11071
883.892	10930
884.018	11022
884.143	11079
884.269	11094
884.395	10885
884.52	10706
884.646	10774
884.772	10679
884.897	10710
885.023	10668
885.148	10740
885.274	10805
885.399	10767
885.524	10675
885.65	10523
885.775	10577
885.9	10603
886.025	10618
886.15	10516
886.275	10489
886.4	10386
886.525	10459
886.65	10371
886.775	10382
886.9	10500
887.025	10588
887.149	10409
887.274	10219
887.399	10181
887.523	10177
887.648	10143
887.773	10169
887.897	10200
888.021	10261
888.146	10109
888.27	10139
888.395	10257
888.519	10280
888.643	10223
888.767	10204
888.891	10048
889.015	10055
889.139	10078
889.263	9994
889.387	10006
889.511	10082
889.635	10150
889.759	9979
889.883	10002
890.006	10017
890.13	10128
890.254	9953
890.377	9998
890.501	9816
890.624	9903
890.748	9861
890.871	9816
890.995	9797
891.118	9740
891.241	9713
891.364	9842
891.488	9755
891.611	9679
891.734	9793
891.857	9728
891.98	9789
892.103	9812
892.226	9747
892.349	9717
892.471	9542
892.594	9553
892.717	9629
892.839	9580
892.962	9682
893.085	9663
893.207	9534
893.33	9599
893.452	9481
893.575	9580
893.697	9515
893.819	9606
893.941	9629
894.064	9584
894.186	9389
894.308	9428
894.43	9458
894.552	9633
894.674	9523
894.796	9428
894.918	9412
895.04	9416
895.161	9313
895.283	9348
895.405	9241
895.526	9291
895.648	9310
895.769	9275
895.891	9294
896.012	9332
896.134	9245
896.255	9180
896.376	9146
896.498	9097
896.619	9089
896.74	9131
896.861	9097
896.982	9275
897.103	9279
897.224	9157
897.345	9043
897.466	9001
897.587	9017
897.708	9127
897.828	9089
897.949	8990
898.07	8937
898.19	8826
898.311	9039
898.431	8830
898.552	8933
898.672	9001
898.792	9032
898.913	8948
899.033	8826
899.153	8750
899.273	8648
899.393	8739
899.513	8777
899.633	8735
899.753	8743
899.873	8739
899.993	8727
900.113	8689
900.232	8708
900.352	8667
900.472	8625
900.591	8659
900.711	8473
900.83	8545
900.95	8727
901.069	8792
901.189	8552
901.308	8530
901.427	8389
901.546	8465
901.665	8560
901.784	8427
901.904	8465
902.023	8358
902.141	8271
902.26	8229
902.379	8275
902.498	8229
902.617	8195
902.735	8275
902.854	8324
902.973	8252
903.091	8183
903.21	8115
903.328	8180
903.446	8107
903.565	8062
903.683	8115
903.801	8058
903.919	8126
904.038	8183
904.156	8058
904.274	8134
904.392	8046
904.51	7978
904.627	8016
904.745	8107
904.863	8142
904.981	7951
905.098	7894
905.216	7833
905.334	7982
905.451	7932
905.569	7963
905.686	7928
905.803	7887
905.921	7753
906.038	7917
906.155	7811
906.272	7719
906.389	7719
906.506	7651
906.623	7578
906.74	7655
906.857	7632
906.974	7666
907.091	7662
907.208	7757
907.324	7613
907.441	7613
907.557	7445
907.674	7411
907.79	7411
907.907	7373
908.023	7476
908.139	7445
908.256	7388
908.372	7415
908.488	7373
908.604	7240
908.72	7270
908.836	7327
908.952	7171
909.068	7171
909.184	7331
909.3	7259
909.415	7377
909.531	7354
909.647	7080
909.762	7133
909.878	7095
909.993	7122
910.108	7084
910.224	7084
910.339	7149
910.454	7072
910.57	7031
910.685	6909
910.8	7141
910.915	7156
911.03	7004
911.145	6916
911.259	6886
911.374	6840
911.489	6848
911.604	6798
911.718	6749
911.833	6730
911.947	6623
912.062	6589
912.176	6703
912.291	6692
912.405	6700
912.519	6939
912.633	6814
912.748	6745
912.862	6703
912.976	6631
913.09	6589
913.204	6604
913.318	6593
913.431	6658
913.545	6665
913.659	6730
913.772	6574
913.886	6570
914	6559
914.113	6620
914.226	6700
914.34	6696
914.453	6456
914.566	6639
914.68	6502
914.793	6540
914.906	6452
915.019	6414
915.132	6433
915.245	6403
915.358	6475
915.47	6437
915.583	6502
915.696	6525
915.809	6578
915.921	6544
916.034	6426
916.146	6437
916.259	6464
916.371	6502
916.483	6467
916.595	6429
916.708	6410
916.82	6448
916.932	6407
917.044	6384
917.156	6407
917.268	6323
917.38	6334
917.491	6323
917.603	6304
917.715	6433
917.826	6380
917.938	6365
918.049	6220
918.161	6304
918.272	6437
918.384	6445
918.495	6369
918.606	6262
918.717	6251
918.828	6289
918.939	6365
919.05	6175
919.161	6262
919.272	6175
919.383	6106
919.494	6285
919.604	6452
919.715	6365
919.826	6273
919.936	6243
920.047	6448
920.157	6277
920.267	6494
920.378	6361
920.488	6251
920.598	6475
920.708	6525
920.818	6418
920.928	6517
921.038	6642
921.148	6639
921.258	6399
921.368	6235
921.477	6243
921.587	6235
921.697	6117
921.806	6197
921.916	6087
922.025	5946
922.134	5946
922.244	5923
922.353	5958
922.462	5836
922.571	5817
922.68	5714
922.789	5668
922.898	5726
923.007	5646
923.116	5752
923.224	5668
923.333	5684
923.442	5611
923.55	5577
923.659	5566
923.767	5668
923.876	5611
923.984	5657
924.092	5516
924.201	5562
924.309	5535
924.417	5627
924.525	5524
924.633	5493
924.741	6304
924.849	5421
924.956	5535
925.064	5357
925.172	5315
925.279	5353
925.387	5360
925.494	5379
925.602	5417
925.709	5425
925.816	5269
925.924	5353
926.031	5353
926.138	5277
926.245	5357
926.352	5254
926.459	5311
926.566	5376
926.673	5181
926.779	5170
926.886	5181
926.993	5025
927.099	5041
927.206	4934
927.312	4991
927.419	5056
927.525	4987
927.631	4991
927.737	4919
927.843	4885
927.95	4793
928.056	4850
928.162	4782
928.267	4866
928.373	5280
928.479	4881
928.585	4683
928.69	4774
928.796	4771
928.901	4744
929.007	4626
929.112	4664
929.218	4668
929.323	4618
929.428	4577
929.533	4656
929.638	4561
929.743	4538
929.848	4618
929.953	4504
930.058	4455
930.163	4337
930.267	4348
930.372	4462
930.477	4337
930.581	4462
930.685	4394
930.79	4249
930.894	4280
930.998	4246
931.103	4379
931.207	4105
931.311	4112
931.415	4059
931.519	3907
931.623	3960
