Data from glass_V78500241_1153.txt Node
Date: Wed Sep 01 19:22:29 CST 2021
User: usil
Spectrometer: V785-0024
Trigger mode: 0
Integration Time (sec): 4.000000E-1
Scans to average: 1
Nonlinearity correction enabled: false
Boxcar width: 0
Storing dark spectrum: false
XAxis mode: Wavelengths
Number of Pixels in Spectrum: 1024
>>>>>Begin Spectral Data<<<<<
801.071	3701
801.214	3747
801.356	3751
801.499	3751
801.641	3709
801.783	3793
801.926	3903
802.068	3789
802.211	3842
802.353	3884
802.496	3873
802.638	3899
802.78	3892
802.923	3941
803.065	3884
803.208	3865
803.35	3869
803.492	3930
803.635	3926
803.777	3816
803.919	3865
804.061	4219
804.204	3991
804.346	3998
804.488	3899
804.63	4086
804.773	3979
804.915	4032
805.057	4131
805.199	4082
805.341	4101
805.483	4124
805.626	4158
805.768	4135
805.91	4200
806.052	4181
806.194	4169
806.336	4360
806.478	4219
806.62	4158
806.762	4188
806.904	4253
807.046	4371
807.188	4253
807.33	4177
807.472	4219
807.614	4177
807.756	4333
807.898	4223
808.04	4253
808.182	4291
808.324	4318
808.465	4333
808.607	4436
808.749	4459
808.891	4478
809.033	4523
809.174	4409
809.316	4272
809.458	4230
809.6	4188
809.741	4135
809.883	4169
810.025	4169
810.166	4287
810.308	4223
810.45	4207
810.591	4207
810.733	4314
810.875	4569
811.016	4809
811.158	5170
811.299	5280
811.441	5326
811.582	5052
811.724	4698
811.865	4485
812.007	4527
812.148	4447
812.29	4405
812.431	4428
812.573	4432
812.714	4398
812.855	4409
812.997	4443
813.138	4497
813.279	4424
813.421	4386
813.562	4371
813.703	4337
813.845	4352
813.986	4272
814.127	4196
814.268	4246
814.41	4287
814.551	4257
814.692	4337
814.833	4265
814.974	4287
815.115	4348
815.256	4276
815.397	4257
815.539	4265
815.68	4177
815.821	4246
815.962	4291
816.103	4257
816.244	4249
816.385	4238
816.526	4284
816.666	4257
816.807	4093
816.948	4169
817.089	4211
817.23	4128
817.371	4101
817.512	4025
817.653	4116
817.793	4036
817.934	4036
818.075	4128
818.216	4105
818.356	4097
818.497	3968
818.638	3903
818.778	3975
818.919	3888
819.06	3861
819.2	3934
819.341	3854
819.481	3835
819.622	3953
819.762	4029
819.903	3941
820.043	3884
820.184	3846
820.324	3823
820.465	3884
820.605	3850
820.746	3865
820.886	3816
821.026	3903
821.167	3918
821.307	3991
821.447	4006
821.588	3953
821.728	3968
821.868	3941
822.008	3884
822.149	3903
822.289	3949
822.429	3808
822.569	3751
822.709	3789
822.849	3705
822.99	3740
823.13	3766
823.27	3797
823.41	3709
823.55	3720
823.69	3709
823.83	3766
823.97	3682
824.11	3629
824.25	3591
824.389	3667
824.529	3641
824.669	3667
824.809	3713
824.949	3766
825.089	3740
825.228	3724
825.368	3622
825.508	3572
825.648	3553
825.787	3641
825.927	3660
826.067	3614
826.206	3717
826.346	3759
826.485	3842
826.625	3865
826.765	3968
826.904	3823
827.044	3633
827.183	3500
827.323	3481
827.462	3488
827.601	3424
827.741	3424
827.88	3454
828.02	3367
828.159	3450
828.298	3504
828.437	3557
828.577	3496
828.716	3618
828.855	3538
828.994	3382
829.134	3389
829.273	3367
829.412	3386
829.551	3370
829.69	3367
829.829	3409
829.968	3473
830.107	3469
830.246	3420
830.385	3412
830.524	3313
830.663	3317
830.802	3287
830.941	3211
831.08	3180
831.219	3249
831.357	3256
831.496	3428
831.635	3253
831.774	3218
831.913	3241
832.051	3135
832.19	3142
832.329	3199
832.467	3169
832.606	3100
832.744	3188
832.883	3214
833.022	3214
833.16	3256
833.299	3287
833.437	3329
833.576	3359
833.714	3389
833.852	3447
833.991	3447
834.129	3511
834.267	3424
834.406	3416
834.544	3428
834.682	3450
834.821	3424
834.959	3591
835.097	3431
835.235	3538
835.373	3523
835.511	3500
835.65	3450
835.788	3447
835.926	3405
836.064	3382
836.202	3405
836.34	3557
836.478	3603
836.615	3568
836.753	3618
836.891	3660
837.029	3667
837.167	3584
837.305	3553
837.443	3515
837.58	3488
837.718	3622
837.856	3576
837.993	3526
838.131	3591
838.269	3572
838.406	3591
838.544	3530
838.681	3519
838.819	3462
838.956	3409
839.094	3439
839.231	3454
839.369	3526
839.506	3759
839.643	3671
839.781	3504
839.918	3477
840.055	3542
840.193	3526
840.33	3557
840.467	3549
840.604	3618
840.742	3800
840.879	3545
841.016	3587
841.153	3603
841.29	3781
841.427	3698
841.564	3751
841.701	3717
841.838	3667
841.975	3690
842.112	3762
842.249	3660
842.385	3652
842.522	3850
842.659	3679
842.796	3686
842.933	3682
843.069	3698
843.206	3759
843.343	3816
843.479	3774
843.616	3831
843.752	3622
843.889	3675
844.025	3842
844.162	3728
844.298	3861
844.435	3846
844.571	3797
844.708	3876
844.844	3956
844.98	4006
845.117	4067
845.253	3953
845.389	3899
845.525	3987
845.661	3953
845.798	3945
845.934	3987
846.07	3956
846.206	4055
846.342	4131
846.478	4055
846.614	3987
846.75	3956
846.886	3903
847.022	4017
847.158	3998
847.294	3994
847.429	4086
847.565	4074
847.701	4299
847.837	3865
847.972	3850
848.108	4013
848.244	4002
848.379	3869
848.515	3865
848.65	3831
848.786	3835
848.921	3857
849.057	3956
849.192	3960
849.328	3922
849.463	3930
849.598	3930
849.734	3888
849.869	3838
850.004	3816
850.14	3827
850.275	3816
850.41	3781
850.545	3740
850.68	3781
850.815	3850
850.95	3800
851.085	3949
851.22	3880
851.355	3808
851.49	3762
851.625	3793
851.76	3812
851.895	3740
852.03	3732
852.165	3785
852.299	3812
852.434	3892
852.569	3857
852.703	3884
852.838	3915
852.973	4017
853.107	3983
853.242	3861
853.376	3876
853.511	3774
853.645	3835
853.78	3953
853.914	3861
854.048	3903
854.183	3892
854.317	3934
854.451	4082
854.585	3934
854.72	3964
854.854	4040
854.988	3983
855.122	3972
855.256	3930
855.39	4013
855.524	4097
855.658	4135
855.792	4105
855.926	4097
856.06	4154
856.194	4230
856.327	4109
856.461	4139
856.595	4135
856.729	4150
856.862	4291
856.996	4246
857.13	4306
857.263	4379
857.397	4344
857.53	4268
857.664	4367
857.797	4409
857.931	4459
858.064	4409
858.197	4489
858.331	4474
858.464	4409
858.597	4367
858.731	4462
858.864	4504
858.997	4451
859.13	4535
859.263	4535
859.396	4611
859.529	4527
859.662	4538
859.795	4554
859.928	4615
860.061	4736
860.194	4729
860.327	4630
860.46	4698
860.592	4771
860.725	4816
860.858	4786
860.99	4759
861.123	4710
861.256	4710
861.388	4778
861.521	5391
861.653	4714
861.786	4744
861.918	4778
862.05	4801
862.183	4828
862.315	4854
862.447	4946
862.58	4889
862.712	4850
862.844	4736
862.976	4866
863.108	4824
863.24	5166
863.372	4828
863.504	4911
863.636	4866
863.768	4999
863.9	4995
864.032	4938
864.164	4976
864.296	5022
864.428	5109
864.559	5083
864.691	5189
864.823	5181
864.954	5189
865.086	5162
865.217	5143
865.349	5098
865.48	5181
865.612	5197
865.743	5284
865.875	5204
866.006	5166
866.137	5220
866.269	5242
866.4	5277
866.531	5227
866.662	5254
866.793	5326
866.924	5345
867.055	5402
867.186	5337
867.317	5353
867.448	5288
867.579	5429
867.71	5395
867.841	5417
867.972	5524
868.103	5478
868.233	5471
868.364	5532
868.495	5532
868.625	5699
868.756	5805
868.886	5649
869.017	5805
869.147	5889
869.278	5844
869.408	5802
869.539	5832
869.669	5942
869.799	5897
869.929	6026
870.06	6076
870.19	6155
870.32	6175
870.45	6292
870.58	6346
870.71	6452
870.84	6521
870.97	6372
871.1	6464
871.23	6639
871.36	6738
871.489	6700
871.619	6776
871.749	6795
871.879	6897
872.008	7038
872.138	6973
872.267	7038
872.397	6977
872.526	7057
872.656	7152
872.785	7202
872.915	7403
873.044	7502
873.173	7609
873.303	7685
873.432	7746
873.561	7936
873.69	7902
873.819	7997
873.948	8259
874.077	8233
874.206	8419
874.335	8480
874.464	8651
874.593	8895
874.722	8937
874.851	9100
874.979	9188
875.108	9428
875.237	9431
875.365	9424
875.494	9629
875.623	9800
875.751	9861
875.88	9987
876.008	10128
876.136	10310
876.265	10542
876.393	10649
876.521	10736
876.65	10831
876.778	10923
876.906	10957
877.034	11037
877.162	11048
877.29	11136
877.418	11330
877.546	11440
877.674	11455
877.802	11497
877.93	11497
878.058	11615
878.185	11630
878.313	11707
878.441	11752
878.568	11699
878.696	11745
878.824	11870
878.951	11965
879.079	12060
879.206	12053
879.333	12144
879.461	12019
879.588	12144
879.715	12182
879.842	12228
879.97	12106
880.097	11863
880.224	11832
880.351	11908
880.478	11885
880.605	11904
880.732	11840
880.859	12022
880.986	11878
881.112	11832
881.239	11764
881.366	11668
881.493	11589
881.619	11615
881.746	11554
881.872	11554
881.999	11524
882.125	11482
882.252	11505
882.378	11478
882.505	11528
882.631	11383
882.757	11372
882.883	11337
883.01	11121
883.136	11155
883.262	11098
883.388	11124
883.514	11303
883.64	11174
883.766	11079
883.892	10976
884.018	10980
884.143	11086
884.269	11185
884.395	10831
884.52	10809
884.646	10854
884.772	10744
884.897	10668
885.023	10656
885.148	10653
885.274	10828
885.399	10702
885.524	10634
885.65	10649
885.775	10599
885.9	10660
886.025	10615
886.15	10607
886.275	10535
886.4	10455
886.525	10409
886.65	10440
886.775	10390
886.9	10500
887.025	10580
887.149	10337
887.274	10211
887.399	10185
887.523	10181
887.648	10188
887.773	10101
887.897	10215
888.021	10265
888.146	10093
888.27	10242
888.395	10219
888.519	10192
888.643	10200
888.767	10188
888.891	10055
889.015	10086
889.139	10059
889.263	9945
889.387	10059
889.511	10192
889.635	10131
889.759	10074
889.883	9983
890.006	10044
890.13	10154
890.254	9956
890.377	10036
890.501	9899
890.624	9854
890.748	9918
890.871	9816
890.995	9819
891.118	9698
891.241	9740
891.364	9785
891.488	9895
891.611	9755
891.734	9740
891.857	9789
891.98	9778
892.103	9793
892.226	9789
892.349	9778
892.471	9568
892.594	9648
892.717	9641
892.839	9561
892.962	9652
893.085	9671
893.207	9629
893.33	9473
893.452	9530
893.575	9660
893.697	9485
893.819	9622
893.941	9603
894.064	9568
894.186	9485
894.308	9447
894.43	9515
894.552	9587
894.674	9591
894.796	9462
894.918	9428
895.04	9348
895.161	9340
895.283	9420
895.405	9313
895.526	9302
895.648	9222
895.769	9203
895.891	9283
896.012	9294
896.134	9169
896.255	9154
896.376	9100
896.498	9203
896.619	9138
896.74	9066
896.861	9142
896.982	9226
897.103	9287
897.224	9180
897.345	9089
897.466	9005
897.587	8990
897.708	9066
897.828	9062
897.949	8921
898.07	8956
898.19	8933
898.311	8994
898.431	8933
898.552	8971
898.672	9036
898.792	8937
898.913	8929
899.033	8883
899.153	8727
899.273	8697
899.393	8720
899.513	8750
899.633	8716
899.753	8701
899.873	8686
899.993	8743
900.113	8769
900.232	8689
900.352	8701
900.472	8575
900.591	8583
900.711	8590
900.83	8533
900.95	8598
901.069	8743
901.189	8590
901.308	8530
901.427	8358
901.546	8446
901.665	8461
901.784	8419
901.904	8370
902.023	8362
902.141	8279
902.26	8256
902.379	8336
902.498	8252
902.617	8168
902.735	8332
902.854	8347
902.973	8195
903.091	8130
903.21	8183
903.328	8172
903.446	8088
903.565	8164
903.683	8119
903.801	8024
903.919	8176
904.038	8195
904.156	7982
904.274	8096
904.392	8069
904.51	8046
904.627	8062
904.745	8088
904.863	8161
904.981	7955
905.098	7921
905.216	7932
905.334	7947
905.451	7830
905.569	7902
905.686	7871
905.803	7921
905.921	7845
906.038	7868
906.155	7837
906.272	7765
906.389	7731
906.506	7605
906.623	7670
906.74	7613
906.857	7609
906.974	7628
907.091	7639
907.208	7723
907.324	7632
907.441	7563
907.557	7476
907.674	7445
907.79	7422
907.907	7320
908.023	7441
908.139	7483
908.256	7430
908.372	7362
908.488	7343
908.604	7350
908.72	7213
908.836	7297
908.952	7274
909.068	7232
909.184	7392
909.3	7343
909.415	7282
909.531	7305
909.647	7145
909.762	7118
909.878	7160
909.993	7118
910.108	7122
910.224	7072
910.339	7095
910.454	6989
910.57	6989
910.685	7008
910.8	7228
910.915	7095
911.03	7050
911.145	6905
911.259	6897
911.374	6871
911.489	6837
911.604	6825
911.718	6715
911.833	6673
911.947	6642
912.062	6684
912.176	6726
912.291	6726
912.405	6715
912.519	6821
912.633	6878
912.748	6749
912.862	6700
912.976	6570
913.09	6563
913.204	6608
913.318	6589
913.431	6734
913.545	6741
913.659	6734
913.772	6654
913.886	6601
914	6525
914.113	6593
914.226	6631
914.34	6608
914.453	6528
914.566	6578
914.68	6563
914.793	6601
914.906	6414
915.019	6372
915.132	6426
915.245	6475
915.358	6494
915.47	6403
915.583	6521
915.696	6464
915.809	6521
915.921	6547
916.034	6395
916.146	6399
916.259	6350
916.371	6498
916.483	6437
916.595	6372
916.708	6410
916.82	6467
916.932	6395
917.044	6448
917.156	6391
917.268	6304
917.38	6319
917.491	6384
917.603	6376
917.715	6410
917.826	6460
917.938	6315
918.049	6304
918.161	6342
918.272	6437
918.384	6464
918.495	6323
918.606	6277
918.717	6262
918.828	6292
918.939	6258
919.05	6201
919.161	6201
919.272	6197
919.383	6152
919.494	6296
919.604	6494
919.715	6304
919.826	6205
919.936	6285
920.047	6369
920.157	6296
920.267	6433
920.378	6372
920.488	6334
920.598	6441
920.708	6585
920.818	6471
920.928	6486
921.038	6631
921.148	6574
921.258	6346
921.368	6372
921.477	6205
921.587	6247
921.697	6129
921.806	6182
921.916	6060
922.025	5935
922.134	5923
922.244	5893
922.353	5973
922.462	5889
922.571	5813
922.68	5729
922.789	5695
922.898	5676
923.007	5558
923.116	5703
923.224	5672
923.333	5688
923.442	5627
923.55	5623
923.659	5611
923.767	5676
923.876	5535
923.984	5638
924.092	5551
924.201	5608
924.309	5539
924.417	5543
924.525	5509
924.633	5512
924.741	6292
924.849	5379
924.956	5490
925.064	5455
925.172	5322
925.279	5341
925.387	5383
925.494	5334
925.602	5421
925.709	5433
925.816	5246
925.924	5330
926.031	5360
926.138	5265
926.245	5353
926.352	5208
926.459	5360
926.566	5334
926.673	5231
926.779	5178
926.886	5079
926.993	5067
927.099	5045
927.206	5006
927.312	4984
927.419	5094
927.525	5010
927.631	4995
927.737	4911
927.843	4850
927.95	4759
928.056	4854
928.162	4843
928.267	4923
928.373	5345
928.479	4873
928.585	4744
928.69	4793
928.796	4744
928.901	4691
929.007	4615
929.112	4714
929.218	4653
929.323	4626
929.428	4645
929.533	4710
929.638	4516
929.743	4519
929.848	4569
929.953	4577
930.058	4451
930.163	4314
930.267	4322
930.372	4474
930.477	4356
930.581	4546
930.685	4356
930.79	4280
930.894	4314
930.998	4253
931.103	4394
931.207	4131
931.311	4078
931.415	4051
931.519	3953
931.623	3949
