Data from glass_V78500241_1173.txt Node
Date: Wed Sep 01 19:22:37 CST 2021
User: usil
Spectrometer: V785-0024
Trigger mode: 0
Integration Time (sec): 4.000000E-1
Scans to average: 1
Nonlinearity correction enabled: false
Boxcar width: 0
Storing dark spectrum: false
XAxis mode: Wavelengths
Number of Pixels in Spectrum: 1024
>>>>>Begin Spectral Data<<<<<
801.071	3793
801.214	3709
801.356	3660
801.499	3720
801.641	3770
801.783	3751
801.926	3865
802.068	3827
802.211	3850
802.353	3899
802.496	3846
802.638	3880
802.78	3869
802.923	3953
803.065	3918
803.208	3842
803.35	3899
803.492	3934
803.635	3899
803.777	3812
803.919	3903
804.061	4158
804.204	3960
804.346	3941
804.488	3953
804.63	3975
804.773	3979
804.915	4029
805.057	4109
805.199	4025
805.341	4131
805.483	4169
805.626	4101
805.768	4139
805.91	4188
806.052	4287
806.194	4219
806.336	4383
806.478	4219
806.62	4158
806.762	4200
806.904	4280
807.046	4318
807.188	4223
807.33	4188
807.472	4268
807.614	4200
807.756	4306
807.898	4185
808.04	4223
808.182	4310
808.324	4325
808.465	4390
808.607	4459
808.749	4470
808.891	4474
809.033	4462
809.174	4363
809.316	4284
809.458	4322
809.6	4188
809.741	4173
809.883	4150
810.025	4196
810.166	4207
810.308	4227
810.45	4230
810.591	4261
810.733	4257
810.875	4542
811.016	4850
811.158	5162
811.299	5246
811.441	5296
811.582	5083
811.724	4687
811.865	4447
812.007	4481
812.148	4443
812.29	4440
812.431	4409
812.573	4398
812.714	4375
812.855	4432
812.997	4383
813.138	4538
813.279	4462
813.421	4405
813.562	4390
813.703	4341
813.845	4322
813.986	4268
814.127	4196
814.268	4265
814.41	4306
814.551	4280
814.692	4371
814.833	4249
814.974	4318
815.115	4352
815.256	4246
815.397	4234
815.539	4253
815.68	4227
815.821	4177
815.962	4306
816.103	4291
816.244	4227
816.385	4223
816.526	4329
816.666	4215
816.807	4105
816.948	4211
817.089	4177
817.23	4112
817.371	4067
817.512	4051
817.653	4139
817.793	4067
817.934	4078
818.075	4166
818.216	4055
818.356	4078
818.497	4021
818.638	3899
818.778	3903
818.919	3865
819.06	3846
819.2	3941
819.341	3873
819.481	3819
819.622	3956
819.762	4025
819.903	3983
820.043	3835
820.184	3842
820.324	3800
820.465	3911
820.605	3880
820.746	3888
820.886	3800
821.026	3930
821.167	3922
821.307	3960
821.447	3998
821.588	3956
821.728	3964
821.868	3964
822.008	3888
822.149	3892
822.289	3911
822.429	3755
822.569	3804
822.709	3778
822.849	3747
822.99	3713
823.13	3781
823.27	3793
823.41	3720
823.55	3713
823.69	3728
823.83	3793
823.97	3690
824.11	3595
824.25	3599
824.389	3644
824.529	3690
824.669	3633
824.809	3740
824.949	3724
825.089	3747
825.228	3682
825.368	3618
825.508	3587
825.648	3568
825.787	3591
825.927	3599
826.067	3591
826.206	3644
826.346	3778
826.485	3835
826.625	3896
826.765	3968
826.904	3854
827.044	3625
827.183	3523
827.323	3431
827.462	3488
827.601	3466
827.741	3439
827.88	3469
828.02	3393
828.159	3462
828.298	3519
828.437	3519
828.577	3477
828.716	3641
828.855	3481
828.994	3416
829.134	3393
829.273	3355
829.412	3329
829.551	3336
829.69	3393
829.829	3439
829.968	3511
830.107	3420
830.246	3435
830.385	3374
830.524	3367
830.663	3306
830.802	3249
830.941	3233
831.08	3211
831.219	3264
831.357	3264
831.496	3412
831.635	3249
831.774	3230
831.913	3214
832.051	3135
832.19	3169
832.329	3211
832.467	3192
832.606	3123
832.744	3161
832.883	3135
833.022	3211
833.16	3253
833.299	3291
833.437	3393
833.576	3409
833.714	3393
833.852	3466
833.991	3458
834.129	3477
834.267	3424
834.406	3378
834.544	3428
834.682	3424
834.821	3439
834.959	3576
835.097	3431
835.235	3515
835.373	3492
835.511	3542
835.65	3469
835.788	3519
835.926	3363
836.064	3386
836.202	3359
836.34	3606
836.478	3610
836.615	3549
836.753	3580
836.891	3675
837.029	3633
837.167	3591
837.305	3568
837.443	3568
837.58	3545
837.718	3629
837.856	3568
837.993	3526
838.131	3648
838.269	3614
838.406	3591
838.544	3584
838.681	3492
838.819	3447
838.956	3317
839.094	3412
839.231	3488
839.369	3580
839.506	3762
839.643	3648
839.781	3473
839.918	3485
840.055	3553
840.193	3507
840.33	3587
840.467	3572
840.604	3622
840.742	3850
840.879	3584
841.016	3545
841.153	3587
841.29	3759
841.427	3724
841.564	3701
841.701	3743
841.838	3724
841.975	3698
842.112	3762
842.249	3667
842.385	3644
842.522	3857
842.659	3652
842.796	3679
842.933	3736
843.069	3740
843.206	3709
843.343	3831
843.479	3762
843.616	3785
843.752	3679
843.889	3656
844.025	3896
844.162	3717
844.298	3846
844.435	3838
844.571	3789
844.708	3930
844.844	3949
844.98	4013
845.117	3998
845.253	3956
845.389	3934
845.525	3987
845.661	3945
845.798	3930
845.934	3994
846.07	3937
846.206	4055
846.342	4101
846.478	4051
846.614	3972
846.75	3918
846.886	3934
847.022	4021
847.158	3975
847.294	4013
847.429	4048
847.565	4025
847.701	4200
847.837	3888
847.972	3873
848.108	3987
848.244	4013
848.379	3854
848.515	3812
848.65	3797
848.786	3869
848.921	3884
849.057	3941
849.192	3998
849.328	3907
849.463	3892
849.598	3865
849.734	3861
849.869	3827
850.004	3766
850.14	3861
850.275	3816
850.41	3732
850.545	3740
850.68	3797
850.815	3838
850.95	3762
851.085	3949
851.22	3846
851.355	3831
851.49	3793
851.625	3778
851.76	3808
851.895	3751
852.03	3720
852.165	3819
852.299	3869
852.434	3926
852.569	3903
852.703	3899
852.838	3972
852.973	3994
853.107	3975
853.242	3926
853.376	3865
853.511	3755
853.645	3857
853.78	3960
853.914	3892
854.048	3930
854.183	3876
854.317	3972
854.451	4071
854.585	3941
854.72	3991
854.854	4013
854.988	3941
855.122	4006
855.256	3911
855.39	3998
855.524	4131
855.658	4109
855.792	4131
855.926	4169
856.06	4147
856.194	4211
856.327	4139
856.461	4139
856.595	4147
856.729	4188
856.862	4249
856.996	4249
857.13	4318
857.263	4325
857.397	4371
857.53	4295
857.664	4386
857.797	4356
857.931	4409
858.064	4413
858.197	4466
858.331	4409
858.464	4421
858.597	4363
858.731	4432
858.864	4436
858.997	4474
859.13	4485
859.263	4592
859.396	4546
859.529	4489
859.662	4535
859.795	4538
859.928	4577
860.061	4675
860.194	4736
860.327	4664
860.46	4637
860.592	4698
860.725	4752
860.858	4797
860.99	4637
861.123	4755
861.256	4687
861.388	4797
861.521	5398
861.653	4786
861.786	4733
861.918	4748
862.05	4812
862.183	4908
862.315	4908
862.447	4980
862.58	4923
862.712	4786
862.844	4809
862.976	4885
863.108	4900
863.24	5124
863.372	4812
863.504	4862
863.636	4850
863.768	4953
863.9	4953
864.032	4881
864.164	4976
864.296	5033
864.428	5079
864.559	5124
864.691	5098
864.823	5128
864.954	5105
865.086	5132
865.217	5117
865.349	5083
865.48	5132
865.612	5227
865.743	5242
865.875	5201
866.006	5204
866.137	5258
866.269	5254
866.4	5242
866.531	5231
866.662	5223
866.793	5288
866.924	5261
867.055	5360
867.186	5345
867.317	5322
867.448	5326
867.579	5337
867.71	5372
867.841	5391
867.972	5471
868.103	5459
868.233	5516
868.364	5497
868.495	5551
868.625	5638
868.756	5790
868.886	5691
869.017	5752
869.147	5912
869.278	5832
869.408	5760
869.539	5821
869.669	5961
869.799	5954
869.929	5961
870.06	5984
870.19	6163
870.32	6194
870.45	6289
870.58	6350
870.71	6445
870.84	6506
870.97	6414
871.1	6429
871.23	6711
871.36	6669
871.489	6700
871.619	6772
871.749	6825
871.879	6848
872.008	7008
872.138	7012
872.267	7034
872.397	7000
872.526	7080
872.656	7080
872.785	7247
872.915	7350
873.044	7636
873.173	7544
873.303	7605
873.432	7731
873.561	7818
873.69	7944
873.819	8005
873.948	8164
874.077	8313
874.206	8328
874.335	8408
874.464	8659
874.593	8861
874.722	8956
874.851	9097
874.979	9222
875.108	9374
875.237	9431
875.365	9485
875.494	9660
875.623	9865
875.751	9888
875.88	9991
876.008	10169
876.136	10246
876.265	10618
876.393	10653
876.521	10729
876.65	10866
876.778	10904
876.906	10839
877.034	10927
877.162	11113
877.29	11197
877.418	11326
877.546	11345
877.674	11368
877.802	11429
877.93	11535
878.058	11524
878.185	11608
878.313	11752
878.441	11813
878.568	11634
878.696	11786
878.824	11824
878.951	12011
879.079	11984
879.206	12144
879.333	12087
879.461	12022
879.588	12026
879.715	12117
879.842	12273
879.97	12019
880.097	11889
880.224	11847
880.351	11859
880.478	11901
880.605	11954
880.732	11843
880.859	12022
880.986	11847
881.112	11851
881.239	11729
881.366	11680
881.493	11726
881.619	11600
881.746	11554
881.872	11505
881.999	11623
882.125	11554
882.252	11596
882.378	11516
882.505	11562
882.631	11356
882.757	11307
882.883	11246
883.01	11258
883.136	11193
883.262	11121
883.388	11090
883.514	11105
883.64	11174
883.766	11147
883.892	11006
884.018	10961
884.143	11094
884.269	11128
884.395	10881
884.52	10778
884.646	10771
884.772	10687
884.897	10675
885.023	10702
885.148	10733
885.274	10721
885.399	10637
885.524	10641
885.65	10668
885.775	10603
885.9	10588
886.025	10607
886.15	10573
886.275	10462
886.4	10402
886.525	10447
886.65	10451
886.775	10318
886.9	10459
887.025	10512
887.149	10375
887.274	10261
887.399	10196
887.523	10215
887.648	10188
887.773	10116
887.897	10276
888.021	10158
888.146	10135
888.27	10291
888.395	10223
888.519	10204
888.643	10166
888.767	10219
888.891	9987
889.015	10044
889.139	10048
889.263	9991
889.387	10120
889.511	10147
889.635	10055
889.759	9972
889.883	10006
890.006	10029
890.13	10131
890.254	9934
890.377	10006
890.501	9899
890.624	9876
890.748	9911
890.871	9838
890.995	9774
891.118	9778
891.241	9766
891.364	9717
891.488	9838
891.611	9781
891.734	9694
891.857	9778
891.98	9797
892.103	9770
892.226	9720
892.349	9656
892.471	9591
892.594	9614
892.717	9610
892.839	9682
892.962	9671
893.085	9637
893.207	9660
893.33	9534
893.452	9515
893.575	9576
893.697	9496
893.819	9576
893.941	9622
894.064	9557
894.186	9420
894.308	9389
894.43	9538
894.552	9614
894.674	9599
894.796	9393
894.918	9435
895.04	9382
895.161	9336
895.283	9329
895.405	9249
895.526	9253
895.648	9176
895.769	9249
895.891	9237
896.012	9283
896.134	9321
896.255	9241
896.376	9173
896.498	9161
896.619	9146
896.74	9051
896.861	9093
896.982	9211
897.103	9249
897.224	9169
897.345	9108
897.466	8982
897.587	9013
897.708	9142
897.828	9032
897.949	8963
898.07	8830
898.19	8937
898.311	9055
898.431	8906
898.552	8944
898.672	9032
898.792	8952
898.913	8902
899.033	8838
899.153	8785
899.273	8720
899.393	8739
899.513	8800
899.633	8716
899.753	8785
899.873	8689
899.993	8781
900.113	8674
900.232	8659
900.352	8712
900.472	8587
900.591	8549
900.711	8598
900.83	8617
900.95	8659
901.069	8670
901.189	8560
901.308	8419
901.427	8370
901.546	8465
901.665	8473
901.784	8454
901.904	8366
902.023	8412
902.141	8195
902.26	8202
902.379	8237
902.498	8195
902.617	8252
902.735	8351
902.854	8339
902.973	8172
903.091	8092
903.21	8176
903.328	8187
903.446	8096
903.565	8111
903.683	8123
903.801	8031
903.919	8134
904.038	8103
904.156	8069
904.274	8126
904.392	8069
904.51	8069
904.627	8005
904.745	8092
904.863	8024
904.981	7951
905.098	7837
905.216	7932
905.334	7909
905.451	7875
905.569	7845
905.686	7909
905.803	7932
905.921	7841
906.038	7921
906.155	7868
906.272	7738
906.389	7734
906.506	7681
906.623	7636
906.74	7590
906.857	7563
906.974	7594
907.091	7594
907.208	7753
907.324	7628
907.441	7601
907.557	7495
907.674	7449
907.79	7445
907.907	7449
908.023	7476
908.139	7483
908.256	7354
908.372	7365
908.488	7381
908.604	7297
908.72	7259
908.836	7350
908.952	7221
909.068	7240
909.184	7350
909.3	7221
909.415	7305
909.531	7282
909.647	7072
909.762	7072
909.878	7084
909.993	7122
910.108	7023
910.224	7057
910.339	7080
910.454	7015
910.57	7008
910.685	6993
910.8	7179
910.915	7080
911.03	7008
911.145	6897
911.259	6844
911.374	6943
911.489	6802
911.604	6730
911.718	6722
911.833	6753
911.947	6677
912.062	6612
912.176	6650
912.291	6749
912.405	6730
912.519	6844
912.633	6833
912.748	6738
912.862	6715
912.976	6631
913.09	6540
913.204	6620
913.318	6612
913.431	6795
913.545	6604
913.659	6734
913.772	6673
913.886	6585
914	6544
914.113	6688
914.226	6684
914.34	6593
914.453	6486
914.566	6593
914.68	6540
914.793	6509
914.906	6422
915.019	6445
915.132	6445
915.245	6403
915.358	6395
915.47	6433
915.583	6441
915.696	6479
915.809	6513
915.921	6502
916.034	6388
916.146	6502
916.259	6407
916.371	6429
916.483	6448
916.595	6376
916.708	6452
916.82	6422
916.932	6353
917.044	6422
917.156	6410
917.268	6300
917.38	6372
917.491	6289
917.603	6369
917.715	6460
917.826	6433
917.938	6334
918.049	6262
918.161	6311
918.272	6445
918.384	6441
918.495	6327
918.606	6319
918.717	6190
918.828	6243
918.939	6327
919.05	6235
919.161	6228
919.272	6110
919.383	6140
919.494	6323
919.604	6475
919.715	6300
919.826	6266
919.936	6235
920.047	6353
920.157	6292
920.267	6376
920.378	6308
920.488	6239
920.598	6483
920.708	6566
920.818	6498
920.928	6540
921.038	6616
921.148	6635
921.258	6422
921.368	6296
921.477	6243
921.587	6159
921.697	6117
921.806	6167
921.916	6136
922.025	5988
922.134	5950
922.244	5961
922.353	5927
922.462	5885
922.571	5798
922.68	5642
922.789	5680
922.898	5737
923.007	5653
923.116	5688
923.224	5710
923.333	5657
923.442	5604
923.55	5600
923.659	5570
923.767	5668
923.876	5570
923.984	5646
924.092	5493
924.201	5577
924.309	5581
924.417	5554
924.525	5539
924.633	5516
924.741	6270
924.849	5353
924.956	5425
925.064	5406
925.172	5341
925.279	5269
925.387	5402
925.494	5341
925.602	5421
925.709	5406
925.816	5330
925.924	5299
926.031	5322
926.138	5250
926.245	5349
926.352	5208
926.459	5322
926.566	5303
926.673	5239
926.779	5105
926.886	5155
926.993	5045
927.099	5033
927.206	5006
927.312	4953
927.419	5037
927.525	5003
927.631	4946
927.737	4927
927.843	4831
927.95	4759
928.056	4850
928.162	4790
928.267	4854
928.373	5337
928.479	4820
928.585	4694
928.69	4755
928.796	4778
928.901	4664
929.007	4592
929.112	4725
929.218	4622
929.323	4611
929.428	4603
929.533	4691
929.638	4504
929.743	4546
929.848	4550
929.953	4519
930.058	4432
930.163	4322
930.267	4352
930.372	4424
930.477	4333
930.581	4470
930.685	4352
930.79	4291
930.894	4303
930.998	4234
931.103	4424
931.207	4105
931.311	4067
931.415	4036
931.519	3934
931.623	3949
