Data from glass_V78500241_1377.txt Node
Date: Wed Sep 01 19:24:02 CST 2021
User: usil
Spectrometer: V785-0024
Trigger mode: 0
Integration Time (sec): 4.000000E-1
Scans to average: 1
Nonlinearity correction enabled: false
Boxcar width: 0
Storing dark spectrum: false
XAxis mode: Wavelengths
Number of Pixels in Spectrum: 1024
>>>>>Begin Spectral Data<<<<<
801.071	3736
801.214	3751
801.356	3701
801.499	3728
801.641	3770
801.783	3778
801.926	3873
802.068	3854
802.211	3865
802.353	3873
802.496	3819
802.638	3892
802.78	3888
802.923	3945
803.065	3918
803.208	3854
803.35	3876
803.492	3907
803.635	3949
803.777	3800
803.919	3899
804.061	4143
804.204	4002
804.346	3968
804.488	3884
804.63	4093
804.773	3975
804.915	4010
805.057	4154
805.199	4112
805.341	4097
805.483	4071
805.626	4124
805.768	4139
805.91	4162
806.052	4265
806.194	4261
806.336	4352
806.478	4230
806.62	4173
806.762	4207
806.904	4242
807.046	4386
807.188	4230
807.33	4177
807.472	4215
807.614	4188
807.756	4204
807.898	4204
808.04	4207
808.182	4257
808.324	4291
808.465	4398
808.607	4459
808.749	4478
808.891	4512
809.033	4451
809.174	4375
809.316	4280
809.458	4234
809.6	4177
809.741	4124
809.883	4158
810.025	4242
810.166	4227
810.308	4204
810.45	4242
810.591	4265
810.733	4280
810.875	4516
811.016	4858
811.158	5162
811.299	5322
811.441	5258
811.582	5098
811.724	4748
811.865	4512
812.007	4478
812.148	4443
812.29	4455
812.431	4432
812.573	4402
812.714	4383
812.855	4417
812.997	4421
813.138	4462
813.279	4417
813.421	4390
813.562	4360
813.703	4344
813.845	4341
813.986	4261
814.127	4230
814.268	4276
814.41	4268
814.551	4272
814.692	4318
814.833	4234
814.974	4325
815.115	4360
815.256	4284
815.397	4257
815.539	4287
815.68	4230
815.821	4204
815.962	4337
816.103	4306
816.244	4261
816.385	4192
816.526	4272
816.666	4162
816.807	4116
816.948	4188
817.089	4154
817.23	4124
817.371	4124
817.512	4051
817.653	4040
817.793	3979
817.934	4059
818.075	4112
818.216	4086
818.356	4112
818.497	4029
818.638	3873
818.778	3922
818.919	3918
819.06	3838
819.2	3941
819.341	3816
819.481	3846
819.622	3926
819.762	4017
819.903	3998
820.043	3873
820.184	3854
820.324	3823
820.465	3831
820.605	3854
820.746	3869
820.886	3789
821.026	3899
821.167	3945
821.307	4002
821.447	3953
821.588	3930
821.728	3998
821.868	3918
822.008	3850
822.149	3918
822.289	3964
822.429	3785
822.569	3751
822.709	3789
822.849	3690
822.99	3728
823.13	3774
823.27	3804
823.41	3705
823.55	3770
823.69	3732
823.83	3728
823.97	3671
824.11	3610
824.25	3629
824.389	3629
824.529	3652
824.669	3614
824.809	3713
824.949	3736
825.089	3736
825.228	3713
825.368	3572
825.508	3587
825.648	3603
825.787	3580
825.927	3644
826.067	3603
826.206	3648
826.346	3785
826.485	3835
826.625	3869
826.765	3949
826.904	3854
827.044	3606
827.183	3549
827.323	3466
827.462	3477
827.601	3424
827.741	3428
827.88	3439
828.02	3367
828.159	3462
828.298	3534
828.437	3538
828.577	3473
828.716	3576
828.855	3534
828.994	3378
829.134	3389
829.273	3370
829.412	3367
829.551	3344
829.69	3389
829.829	3447
829.968	3511
830.107	3435
830.246	3405
830.385	3412
830.524	3367
830.663	3313
830.802	3268
830.941	3207
831.08	3214
831.219	3222
831.357	3264
831.496	3397
831.635	3249
831.774	3188
831.913	3161
832.051	3100
832.19	3138
832.329	3203
832.467	3119
832.606	3081
832.744	3169
832.883	3180
833.022	3176
833.16	3294
833.299	3306
833.437	3329
833.576	3397
833.714	3466
833.852	3450
833.991	3462
834.129	3462
834.267	3454
834.406	3393
834.544	3412
834.682	3397
834.821	3420
834.959	3606
835.097	3462
835.235	3580
835.373	3481
835.511	3523
835.65	3450
835.788	3485
835.926	3378
836.064	3401
836.202	3420
836.34	3568
836.478	3606
836.615	3538
836.753	3622
836.891	3652
837.029	3584
837.167	3599
837.305	3568
837.443	3515
837.58	3473
837.718	3633
837.856	3507
837.993	3492
838.131	3622
838.269	3523
838.406	3572
838.544	3572
838.681	3469
838.819	3458
838.956	3374
839.094	3431
839.231	3416
839.369	3549
839.506	3724
839.643	3644
839.781	3466
839.918	3454
840.055	3496
840.193	3538
840.33	3542
840.467	3553
840.604	3603
840.742	3812
840.879	3526
841.016	3564
841.153	3629
841.29	3789
841.427	3720
841.564	3705
841.701	3736
841.838	3698
841.975	3679
842.112	3766
842.249	3648
842.385	3618
842.522	3819
842.659	3732
842.796	3663
842.933	3713
843.069	3709
843.206	3698
843.343	3846
843.479	3789
843.616	3838
843.752	3660
843.889	3705
844.025	3835
844.162	3732
844.298	3865
844.435	3789
844.571	3747
844.708	3850
844.844	3956
844.98	4059
845.117	4029
845.253	3918
845.389	3926
845.525	3994
845.661	3975
845.798	3941
845.934	3991
846.07	3983
846.206	4032
846.342	4143
846.478	4112
846.614	3960
846.75	3937
846.886	3892
847.022	4017
847.158	3979
847.294	4029
847.429	4059
847.565	4029
847.701	4230
847.837	3884
847.972	3850
848.108	3934
848.244	3991
848.379	3873
848.515	3823
848.65	3838
848.786	3899
848.921	3888
849.057	3953
849.192	3937
849.328	3918
849.463	3941
849.598	3926
849.734	3896
849.869	3854
850.004	3804
850.14	3812
850.275	3804
850.41	3736
850.545	3778
850.68	3781
850.815	3816
850.95	3747
851.085	3953
851.22	3835
851.355	3804
851.49	3831
851.625	3785
851.76	3785
851.895	3743
852.03	3774
852.165	3785
852.299	3865
852.434	3945
852.569	3865
852.703	3888
852.838	3926
852.973	4025
853.107	4010
853.242	3884
853.376	3831
853.511	3759
853.645	3861
853.78	3983
853.914	3918
854.048	3884
854.183	3873
854.317	3918
854.451	4086
854.585	3968
854.72	3941
854.854	4067
854.988	3915
855.122	4048
855.256	3983
855.39	4048
855.524	4101
855.658	4093
855.792	4082
855.926	4158
856.06	4120
856.194	4192
856.327	4101
856.461	4162
856.595	4147
856.729	4173
856.862	4337
856.996	4284
857.13	4348
857.263	4363
857.397	4386
857.53	4318
857.664	4363
857.797	4432
857.931	4424
858.064	4386
858.197	4443
858.331	4405
858.464	4367
858.597	4325
858.731	4470
858.864	4421
858.997	4474
859.13	4531
859.263	4592
859.396	4634
859.529	4558
859.662	4531
859.795	4565
859.928	4618
860.061	4687
860.194	4736
860.327	4660
860.46	4649
860.592	4717
860.725	4710
860.858	4759
860.99	4714
861.123	4725
861.256	4752
861.388	4752
861.521	5334
861.653	4733
861.786	4733
861.918	4763
862.05	4824
862.183	4870
862.315	4908
862.447	4976
862.58	4915
862.712	4835
862.844	4801
862.976	4889
863.108	4885
863.24	5242
863.372	4843
863.504	4892
863.636	4930
863.768	4961
863.9	4915
864.032	4919
864.164	4965
864.296	5037
864.428	5098
864.559	5132
864.691	5105
864.823	5147
864.954	5121
865.086	5181
865.217	5147
865.349	5181
865.48	5140
865.612	5201
865.743	5357
865.875	5181
866.006	5155
866.137	5246
866.269	5178
866.4	5269
866.531	5216
866.662	5212
866.793	5265
866.924	5315
867.055	5303
867.186	5337
867.317	5330
867.448	5364
867.579	5337
867.71	5368
867.841	5360
867.972	5433
868.103	5486
868.233	5520
868.364	5543
868.495	5566
868.625	5657
868.756	5783
868.886	5707
869.017	5714
869.147	5863
869.278	5904
869.408	5847
869.539	5836
869.669	5916
869.799	5885
869.929	5961
870.06	6011
870.19	6194
870.32	6285
870.45	6285
870.58	6391
870.71	6391
870.84	6513
870.97	6429
871.1	6407
871.23	6692
871.36	6745
871.489	6681
871.619	6757
871.749	6806
871.879	6932
872.008	6996
872.138	6897
872.267	6985
872.397	6973
872.526	6932
872.656	7141
872.785	7206
872.915	7384
873.044	7506
873.173	7578
873.303	7628
873.432	7772
873.561	7868
873.69	7955
873.819	8012
873.948	8134
874.077	8301
874.206	8286
874.335	8412
874.464	8629
874.593	8849
874.722	8910
874.851	9081
874.979	9260
875.108	9313
875.237	9466
875.365	9469
875.494	9701
875.623	9884
875.751	9842
875.88	10059
876.008	10173
876.136	10215
876.265	10481
876.393	10714
876.521	10767
876.65	10755
876.778	10908
876.906	10919
877.034	10987
877.162	11098
877.29	11162
877.418	11364
877.546	11376
877.674	11547
877.802	11372
877.93	11528
878.058	11577
878.185	11581
878.313	11653
878.441	11695
878.568	11638
878.696	11729
878.824	11870
878.951	11870
879.079	12011
879.206	12091
879.333	11977
879.461	12019
879.588	12087
879.715	12068
879.842	12190
879.97	12030
880.097	11790
880.224	11901
880.351	11904
880.478	11885
880.605	11836
880.732	11817
880.859	12022
880.986	11832
881.112	11821
881.239	11729
881.366	11688
881.493	11592
881.619	11608
881.746	11528
881.872	11532
881.999	11410
882.125	11398
882.252	11493
882.378	11516
882.505	11600
882.631	11372
882.757	11368
882.883	11322
883.01	11265
883.136	11227
883.262	11105
883.388	11105
883.514	11216
883.64	11136
883.766	11121
883.892	10991
884.018	11018
884.143	11098
884.269	11113
884.395	10843
884.52	10698
884.646	10801
884.772	10702
884.897	10630
885.023	10660
885.148	10698
885.274	10831
885.399	10687
885.524	10615
885.65	10588
885.775	10641
885.9	10588
886.025	10611
886.15	10580
886.275	10478
886.4	10413
886.525	10402
886.65	10409
886.775	10360
886.9	10485
887.025	10523
887.149	10394
887.274	10242
887.399	10265
887.523	10158
887.648	10154
887.773	10150
887.897	10280
888.021	10265
888.146	10188
888.27	10253
888.395	10238
888.519	10196
888.643	10200
888.767	10246
888.891	10059
889.015	10029
889.139	10044
889.263	9915
889.387	10143
889.511	10040
889.635	10097
889.759	10025
889.883	9968
890.006	10006
890.13	10055
890.254	10021
890.377	9960
890.501	9827
890.624	9831
890.748	9880
890.871	9705
890.995	9705
891.118	9713
891.241	9747
891.364	9728
891.488	9838
891.611	9728
891.734	9709
891.857	9793
891.98	9800
892.103	9770
892.226	9755
892.349	9656
892.471	9500
892.594	9610
892.717	9580
892.839	9557
892.962	9568
893.085	9648
893.207	9549
893.33	9485
893.452	9485
893.575	9637
893.697	9519
893.819	9622
893.941	9660
894.064	9660
894.186	9435
894.308	9393
894.43	9576
894.552	9622
894.674	9564
894.796	9378
894.918	9416
895.04	9317
895.161	9393
895.283	9348
895.405	9233
895.526	9218
895.648	9275
895.769	9226
895.891	9237
896.012	9294
896.134	9222
896.255	9184
896.376	9123
896.498	9100
896.619	9116
896.74	9104
896.861	9058
896.982	9230
897.103	9313
897.224	9176
897.345	9116
897.466	8910
897.587	9058
897.708	9138
897.828	9013
897.949	8929
898.07	8861
898.19	8986
898.311	9058
898.431	8941
898.552	8929
898.672	9005
898.792	8914
898.913	8929
899.033	8807
899.153	8731
899.273	8674
899.393	8640
899.513	8754
899.633	8731
899.753	8712
899.873	8667
899.993	8724
900.113	8701
900.232	8674
900.352	8720
900.472	8606
900.591	8556
900.711	8583
900.83	8492
900.95	8682
901.069	8693
901.189	8560
901.308	8412
901.427	8381
901.546	8404
901.665	8412
901.784	8469
901.904	8442
902.023	8339
902.141	8252
902.26	8206
902.379	8279
902.498	8187
902.617	8202
902.735	8347
902.854	8282
902.973	8290
903.091	8050
903.21	8149
903.328	8180
903.446	8107
903.565	8054
903.683	8088
903.801	8123
903.919	8096
904.038	8149
904.156	7989
904.274	8138
904.392	8039
904.51	8084
904.627	8031
904.745	8111
904.863	8100
904.981	7921
905.098	7830
905.216	7890
905.334	7879
905.451	7868
905.569	7890
905.686	7974
905.803	7917
905.921	7765
906.038	7883
906.155	7734
906.272	7719
906.389	7746
906.506	7620
906.623	7674
906.74	7571
906.857	7601
906.974	7609
907.091	7704
907.208	7727
907.324	7620
907.441	7590
907.557	7407
907.674	7472
907.79	7392
907.907	7434
908.023	7499
908.139	7426
908.256	7377
908.372	7327
908.488	7305
908.604	7289
908.72	7251
908.836	7244
908.952	7198
909.068	7236
909.184	7327
909.3	7255
909.415	7335
909.531	7266
909.647	7122
909.762	7225
909.878	7095
909.993	7187
910.108	7129
910.224	7061
910.339	7072
910.454	7057
910.57	6985
910.685	6947
910.8	7179
910.915	7099
911.03	7004
911.145	6840
911.259	6875
911.374	6951
911.489	6806
911.604	6795
911.718	6738
911.833	6814
911.947	6673
912.062	6650
912.176	6707
912.291	6707
912.405	6730
912.519	6863
912.633	6867
912.748	6711
912.862	6734
912.976	6635
913.09	6509
913.204	6639
913.318	6650
913.431	6688
913.545	6719
913.659	6696
913.772	6677
913.886	6627
914	6570
914.113	6623
914.226	6681
914.34	6608
914.453	6490
914.566	6601
914.68	6532
914.793	6494
914.906	6407
915.019	6410
915.132	6395
915.245	6422
915.358	6410
915.47	6475
915.583	6445
915.696	6445
915.809	6536
915.921	6536
916.034	6433
916.146	6399
916.259	6372
916.371	6490
916.483	6456
916.595	6388
916.708	6376
916.82	6456
916.932	6384
917.044	6391
917.156	6414
917.268	6346
917.38	6338
917.491	6311
917.603	6350
917.715	6429
917.826	6452
917.938	6376
918.049	6247
918.161	6331
918.272	6395
918.384	6429
918.495	6350
918.606	6292
918.717	6182
918.828	6258
918.939	6258
919.05	6239
919.161	6220
919.272	6140
919.383	6110
919.494	6319
919.604	6433
919.715	6251
919.826	6190
919.936	6285
920.047	6353
920.157	6350
920.267	6422
920.378	6285
920.488	6311
920.598	6490
920.708	6521
920.818	6429
920.928	6422
921.038	6612
921.148	6563
921.258	6350
921.368	6304
921.477	6235
921.587	6216
921.697	6072
921.806	6163
921.916	6106
922.025	5923
922.134	5923
922.244	5897
922.353	5916
922.462	5828
922.571	5794
922.68	5710
922.789	5688
922.898	5760
923.007	5649
923.116	5741
923.224	5680
923.333	5653
923.442	5611
923.55	5558
923.659	5608
923.767	5676
923.876	5589
923.984	5589
924.092	5528
924.201	5577
924.309	5551
924.417	5562
924.525	5471
924.633	5486
924.741	6292
924.849	5387
924.956	5448
925.064	5376
925.172	5269
925.279	5318
925.387	5364
925.494	5303
925.602	5414
925.709	5402
925.816	5250
925.924	5315
926.031	5368
926.138	5318
926.245	5315
926.352	5235
926.459	5299
926.566	5292
926.673	5185
926.779	5136
926.886	5155
926.993	5067
927.099	5037
927.206	4961
927.312	4972
927.419	5022
927.525	4961
927.631	4953
927.737	4873
927.843	4850
927.95	4816
928.056	4839
928.162	4805
928.267	4812
928.373	5235
928.479	4843
928.585	4717
928.69	4752
928.796	4782
928.901	4645
929.007	4634
929.112	4664
929.218	4618
929.323	4611
929.428	4592
929.533	4649
929.638	4558
929.743	4519
929.848	4550
929.953	4489
930.058	4405
930.163	4333
930.267	4329
930.372	4390
930.477	4356
930.581	4485
930.685	4348
930.79	4238
930.894	4299
930.998	4295
931.103	4413
931.207	4120
931.311	4082
931.415	4078
931.519	3949
931.623	3903
