Data from glass_V78500241_292.txt Node
Date: Wed Sep 01 19:16:31 CST 2021
User: usil
Spectrometer: V785-0024
Trigger mode: 0
Integration Time (sec): 4.000000E-1
Scans to average: 1
Nonlinearity correction enabled: false
Boxcar width: 0
Storing dark spectrum: false
XAxis mode: Wavelengths
Number of Pixels in Spectrum: 1024
>>>>>Begin Spectral Data<<<<<
801.071	3766
801.214	3808
801.356	3759
801.499	3747
801.641	3774
801.783	3819
801.926	3888
802.068	3831
802.211	3861
802.353	3896
802.496	3823
802.638	3892
802.78	3888
802.923	3979
803.065	3922
803.208	3880
803.35	3903
803.492	3930
803.635	3926
803.777	3835
803.919	3911
804.061	4177
804.204	3968
804.346	3960
804.488	3937
804.63	4059
804.773	3968
804.915	4059
805.057	4143
805.199	4059
805.341	4082
805.483	4059
805.626	4135
805.768	4101
805.91	4215
806.052	4211
806.194	4219
806.336	4405
806.478	4249
806.62	4181
806.762	4219
806.904	4219
807.046	4341
807.188	4173
807.33	4242
807.472	4253
807.614	4188
807.756	4348
807.898	4246
808.04	4223
808.182	4253
808.324	4337
808.465	4394
808.607	4504
808.749	4531
808.891	4436
809.033	4546
809.174	4417
809.316	4337
809.458	4249
809.6	4177
809.741	4207
809.883	4154
810.025	4253
810.166	4185
810.308	4268
810.45	4325
810.591	4230
810.733	4363
810.875	4523
811.016	4854
811.158	5132
811.299	5269
811.441	5261
811.582	5109
811.724	4691
811.865	4489
812.007	4474
812.148	4436
812.29	4451
812.431	4436
812.573	4428
812.714	4398
812.855	4402
812.997	4428
813.138	4497
813.279	4424
813.421	4371
813.562	4424
813.703	4356
813.845	4344
813.986	4268
814.127	4249
814.268	4253
814.41	4322
814.551	4280
814.692	4314
814.833	4265
814.974	4314
815.115	4363
815.256	4253
815.397	4276
815.539	4261
815.68	4219
815.821	4230
815.962	4337
816.103	4314
816.244	4246
816.385	4246
816.526	4322
816.666	4234
816.807	4131
816.948	4211
817.089	4219
817.23	4169
817.371	4067
817.512	4032
817.653	4082
817.793	4032
817.934	4029
818.075	4090
818.216	4093
818.356	4105
818.497	4044
818.638	3903
818.778	3918
818.919	3869
819.06	3922
819.2	3930
819.341	3892
819.481	3857
819.622	3941
819.762	3994
819.903	4025
820.043	3857
820.184	3854
820.324	3819
820.465	3911
820.605	3846
820.746	3861
820.886	3819
821.026	3945
821.167	3960
821.307	3960
821.447	4017
821.588	3960
821.728	3972
821.868	3983
822.008	3915
822.149	3964
822.289	3930
822.429	3793
822.569	3835
822.709	3823
822.849	3736
822.99	3762
823.13	3781
823.27	3827
823.41	3740
823.55	3759
823.69	3747
823.83	3770
823.97	3667
824.11	3652
824.25	3568
824.389	3671
824.529	3663
824.669	3671
824.809	3713
824.949	3759
825.089	3755
825.228	3743
825.368	3603
825.508	3599
825.648	3599
825.787	3648
825.927	3625
826.067	3580
826.206	3705
826.346	3808
826.485	3842
826.625	3861
826.765	3987
826.904	3816
827.044	3629
827.183	3530
827.323	3431
827.462	3538
827.601	3424
827.741	3477
827.88	3515
828.02	3367
828.159	3477
828.298	3496
828.437	3549
828.577	3469
828.716	3606
828.855	3496
828.994	3431
829.134	3389
829.273	3370
829.412	3367
829.551	3370
829.69	3405
829.829	3401
829.968	3500
830.107	3443
830.246	3450
830.385	3382
830.524	3332
830.663	3279
830.802	3272
830.941	3192
831.08	3207
831.219	3264
831.357	3241
831.496	3428
831.635	3218
831.774	3184
831.913	3241
832.051	3150
832.19	3154
832.329	3260
832.467	3138
832.606	3100
832.744	3218
832.883	3207
833.022	3192
833.16	3253
833.299	3332
833.437	3348
833.576	3359
833.714	3409
833.852	3466
833.991	3473
834.129	3500
834.267	3485
834.406	3431
834.544	3462
834.682	3420
834.821	3443
834.959	3549
835.097	3454
835.235	3542
835.373	3523
835.511	3534
835.65	3469
835.788	3492
835.926	3443
836.064	3374
836.202	3389
836.34	3584
836.478	3648
836.615	3549
836.753	3622
836.891	3675
837.029	3648
837.167	3599
837.305	3568
837.443	3599
837.58	3553
837.718	3599
837.856	3545
837.993	3580
838.131	3625
838.269	3576
838.406	3603
838.544	3603
838.681	3500
838.819	3458
838.956	3397
839.094	3370
839.231	3504
839.369	3542
839.506	3736
839.643	3648
839.781	3545
839.918	3500
840.055	3542
840.193	3564
840.33	3519
840.467	3584
840.604	3610
840.742	3831
840.879	3549
841.016	3599
841.153	3622
841.29	3816
841.427	3732
841.564	3743
841.701	3766
841.838	3682
841.975	3682
842.112	3717
842.249	3648
842.385	3606
842.522	3835
842.659	3728
842.796	3648
842.933	3720
843.069	3682
843.206	3732
843.343	3816
843.479	3774
843.616	3846
843.752	3682
843.889	3679
844.025	3857
844.162	3701
844.298	3861
844.435	3778
844.571	3804
844.708	3922
844.844	3964
844.98	4040
845.117	4025
845.253	3975
845.389	3937
845.525	4036
845.661	4006
845.798	3915
845.934	3945
846.07	4025
846.206	4074
846.342	4112
846.478	4090
846.614	3960
846.75	3941
846.886	3922
847.022	4063
847.158	4006
847.294	4017
847.429	4051
847.565	4013
847.701	4268
847.837	3907
847.972	3846
848.108	4029
848.244	3972
848.379	3865
848.515	3827
848.65	3846
848.786	3892
848.921	3869
849.057	3994
849.192	3991
849.328	3949
849.463	3937
849.598	3960
849.734	3922
849.869	3800
850.004	3785
850.14	3812
850.275	3808
850.41	3740
850.545	3724
850.68	3812
850.815	3816
850.95	3808
851.085	3956
851.22	3888
851.355	3838
851.49	3800
851.625	3831
851.76	3816
851.895	3762
852.03	3732
852.165	3819
852.299	3861
852.434	3899
852.569	3892
852.703	3861
852.838	3926
852.973	3998
853.107	3998
853.242	3915
853.376	3899
853.511	3797
853.645	3835
853.78	3983
853.914	3903
854.048	3903
854.183	3911
854.317	3960
854.451	4071
854.585	3945
854.72	3968
854.854	4059
854.988	3991
855.122	4006
855.256	3934
855.39	4021
855.524	4086
855.658	4109
855.792	4109
855.926	4112
856.06	4207
856.194	4272
856.327	4211
856.461	4116
856.595	4120
856.729	4192
856.862	4261
856.996	4284
857.13	4337
857.263	4367
857.397	4371
857.53	4299
857.664	4329
857.797	4386
857.931	4436
858.064	4383
858.197	4504
858.331	4386
858.464	4402
858.597	4348
858.731	4436
858.864	4485
858.997	4466
859.13	4580
859.263	4523
859.396	4649
859.529	4550
859.662	4577
859.795	4500
859.928	4603
860.061	4660
860.194	4740
860.327	4664
860.46	4626
860.592	4729
860.725	4767
860.858	4752
860.99	4736
861.123	4710
861.256	4721
861.388	4755
861.521	5296
861.653	4733
861.786	4717
861.918	4763
862.05	4820
862.183	4889
862.315	4927
862.447	4889
862.58	4866
862.712	4782
862.844	4793
862.976	4850
863.108	4885
863.24	5288
863.372	4889
863.504	4946
863.636	4896
863.768	4999
863.9	4987
864.032	4961
864.164	4946
864.296	5041
864.428	5128
864.559	5155
864.691	5124
864.823	5181
864.954	5109
865.086	5147
865.217	5117
865.349	5128
865.48	5201
865.612	5166
865.743	5250
865.875	5204
866.006	5216
866.137	5288
866.269	5250
866.4	5288
866.531	5201
866.662	5254
866.793	5254
866.924	5307
867.055	5368
867.186	5364
867.317	5326
867.448	5326
867.579	5364
867.71	5383
867.841	5398
867.972	5429
868.103	5452
868.233	5497
868.364	5482
868.495	5558
868.625	5729
868.756	5756
868.886	5657
869.017	5737
869.147	5859
869.278	5916
869.408	5745
869.539	5878
869.669	5950
869.799	5863
869.929	5988
870.06	6041
870.19	6159
870.32	6239
870.45	6270
870.58	6410
870.71	6407
870.84	6513
870.97	6490
871.1	6437
871.23	6715
871.36	6677
871.489	6650
871.619	6719
871.749	6795
871.879	6863
872.008	7015
872.138	6947
872.267	7012
872.397	6977
872.526	7019
872.656	7099
872.785	7198
872.915	7411
873.044	7578
873.173	7590
873.303	7597
873.432	7818
873.561	7856
873.69	7871
873.819	8016
873.948	8195
874.077	8252
874.206	8343
874.335	8465
874.464	8648
874.593	8925
874.722	8967
874.851	9192
874.979	9233
875.108	9351
875.237	9412
875.365	9481
875.494	9690
875.623	9865
875.751	9831
875.88	10059
876.008	10188
876.136	10284
876.265	10607
876.393	10702
876.521	10736
876.65	10908
876.778	10828
876.906	10942
877.034	10961
877.162	11098
877.29	11197
877.418	11337
877.546	11353
877.674	11425
877.802	11528
877.93	11509
878.058	11547
878.185	11577
878.313	11604
878.441	11779
878.568	11592
878.696	11737
878.824	11942
878.951	11950
879.079	12060
879.206	12159
879.333	12167
879.461	11927
879.588	12114
879.715	12064
879.842	12300
879.97	12068
880.097	11954
880.224	11901
880.351	11908
880.478	11923
880.605	11874
880.732	11863
880.859	11980
880.986	11912
881.112	11821
881.239	11775
881.366	11630
881.493	11615
881.619	11463
881.746	11589
881.872	11490
881.999	11661
882.125	11516
882.252	11543
882.378	11410
882.505	11547
882.631	11372
882.757	11337
882.883	11318
883.01	11258
883.136	11193
883.262	11117
883.388	11071
883.514	11155
883.64	11216
883.766	11113
883.892	10995
884.018	11006
884.143	11022
884.269	11151
884.395	10831
884.52	10831
884.646	10786
884.772	10656
884.897	10626
885.023	10710
885.148	10630
885.274	10774
885.399	10653
885.524	10702
885.65	10653
885.775	10649
885.9	10630
886.025	10573
886.15	10607
886.275	10535
886.4	10424
886.525	10379
886.65	10318
886.775	10413
886.9	10417
887.025	10512
887.149	10409
887.274	10310
887.399	10219
887.523	10215
887.648	10147
887.773	10131
887.897	10310
888.021	10227
888.146	10086
888.27	10230
888.395	10242
888.519	10211
888.643	10215
888.767	10223
888.891	10063
889.015	10036
889.139	10040
889.263	9941
889.387	10051
889.511	10131
889.635	10078
889.759	9953
889.883	9968
890.006	10032
890.13	10128
890.254	9930
890.377	9987
890.501	9895
890.624	9888
890.748	9899
890.871	9873
890.995	9728
891.118	9743
891.241	9778
891.364	9781
891.488	9880
891.611	9789
891.734	9762
891.857	9838
891.98	9774
892.103	9865
892.226	9736
892.349	9633
892.471	9584
892.594	9633
892.717	9625
892.839	9576
892.962	9652
893.085	9694
893.207	9633
893.33	9599
893.452	9504
893.575	9610
893.697	9507
893.819	9675
893.941	9637
894.064	9587
894.186	9370
894.308	9313
894.43	9568
894.552	9572
894.674	9542
894.796	9386
894.918	9496
895.04	9424
895.161	9382
895.283	9359
895.405	9253
895.526	9207
895.648	9325
895.769	9306
895.891	9218
896.012	9256
896.134	9272
896.255	9165
896.376	9119
896.498	9169
896.619	9097
896.74	9138
896.861	9112
896.982	9294
897.103	9321
897.224	9176
897.345	9051
897.466	9005
897.587	9009
897.708	9074
897.828	9074
897.949	9001
898.07	8872
898.19	8952
898.311	8986
898.431	8948
898.552	8925
898.672	8971
898.792	8925
898.913	8918
899.033	8815
899.153	8804
899.273	8659
899.393	8689
899.513	8845
899.633	8724
899.753	8701
899.873	8716
899.993	8777
900.113	8686
900.232	8735
900.352	8686
900.472	8617
900.591	8560
900.711	8610
900.83	8537
900.95	8743
901.069	8705
901.189	8541
901.308	8389
901.427	8377
901.546	8427
901.665	8473
901.784	8537
901.904	8336
902.023	8358
902.141	8275
902.26	8237
902.379	8309
902.498	8199
902.617	8233
902.735	8355
902.854	8221
902.973	8267
903.091	8176
903.21	8126
903.328	8130
903.446	8107
903.565	8092
903.683	8039
903.801	8058
903.919	8062
904.038	8153
904.156	8054
904.274	8115
904.392	8001
904.51	8073
904.627	8069
904.745	8077
904.863	8107
904.981	7932
905.098	7860
905.216	7894
905.334	7936
905.451	7925
905.569	7871
905.686	7906
905.803	7963
905.921	7852
906.038	7868
906.155	7807
906.272	7723
906.389	7776
906.506	7700
906.623	7670
906.74	7613
906.857	7582
906.974	7586
907.091	7655
907.208	7738
907.324	7727
907.441	7601
907.557	7445
907.674	7457
907.79	7426
907.907	7407
908.023	7457
908.139	7445
908.256	7339
908.372	7324
908.488	7400
908.604	7343
908.72	7255
908.836	7228
908.952	7213
909.068	7240
909.184	7335
909.3	7305
909.415	7270
909.531	7305
909.647	7171
909.762	7088
909.878	7126
909.993	7141
910.108	7129
910.224	7103
910.339	7141
910.454	7084
910.57	7038
910.685	6996
910.8	7160
910.915	7126
911.03	7034
911.145	6863
911.259	6844
911.374	6886
911.489	6852
911.604	6825
911.718	6711
911.833	6745
911.947	6631
912.062	6658
912.176	6692
912.291	6711
912.405	6684
912.519	6875
912.633	6840
912.748	6768
912.862	6772
912.976	6696
913.09	6578
913.204	6612
913.318	6642
913.431	6692
913.545	6646
913.659	6776
913.772	6677
913.886	6582
914	6532
914.113	6612
914.226	6707
914.34	6616
914.453	6521
914.566	6646
914.68	6566
914.793	6479
914.906	6410
915.019	6433
915.132	6399
915.245	6433
915.358	6429
915.47	6460
915.583	6410
915.696	6578
915.809	6555
915.921	6601
916.034	6399
916.146	6414
916.259	6414
916.371	6502
916.483	6490
916.595	6410
916.708	6388
916.82	6429
916.932	6384
917.044	6429
917.156	6376
917.268	6357
917.38	6342
917.491	6331
917.603	6346
917.715	6418
917.826	6460
917.938	6331
918.049	6258
918.161	6315
918.272	6407
918.384	6509
918.495	6353
918.606	6262
918.717	6224
918.828	6281
918.939	6262
919.05	6197
919.161	6277
919.272	6136
919.383	6186
919.494	6323
919.604	6414
919.715	6277
919.826	6235
919.936	6194
920.047	6327
920.157	6315
920.267	6464
920.378	6327
920.488	6369
920.598	6437
920.708	6570
920.818	6490
920.928	6509
921.038	6597
921.148	6574
921.258	6376
921.368	6308
921.477	6243
921.587	6243
921.697	6121
921.806	6182
921.916	6114
922.025	5999
922.134	5870
922.244	5912
922.353	5996
922.462	5866
922.571	5836
922.68	5714
922.789	5718
922.898	5729
923.007	5646
923.116	5691
923.224	5657
923.333	5722
923.442	5566
923.55	5596
923.659	5649
923.767	5646
923.876	5570
923.984	5589
924.092	5486
924.201	5551
924.309	5608
924.417	5551
924.525	5528
924.633	5471
924.741	6292
924.849	5376
924.956	5490
925.064	5337
925.172	5254
925.279	5322
925.387	5326
925.494	5296
925.602	5421
925.709	5425
925.816	5303
925.924	5318
926.031	5387
926.138	5269
926.245	5383
926.352	5265
926.459	5322
926.566	5387
926.673	5269
926.779	5189
926.886	5155
926.993	5056
927.099	5029
927.206	4999
927.312	5048
927.419	5048
927.525	5006
927.631	4995
927.737	4934
927.843	4881
927.95	4786
928.056	4793
928.162	4881
928.267	4949
928.373	5273
928.479	4858
928.585	4717
928.69	4797
928.796	4771
928.901	4733
929.007	4577
929.112	4664
929.218	4653
929.323	4618
929.428	4622
929.533	4698
929.638	4508
929.743	4565
929.848	4538
929.953	4546
930.058	4462
930.163	4371
930.267	4360
930.372	4436
930.477	4303
930.581	4485
930.685	4383
930.79	4291
930.894	4314
930.998	4272
931.103	4386
931.207	4109
931.311	4109
931.415	4063
931.519	3960
931.623	3975
