Data from glass_V78500241_1770.txt Node
Date: Wed Sep 01 19:26:46 CST 2021
User: usil
Spectrometer: V785-0024
Trigger mode: 0
Integration Time (sec): 4.000000E-1
Scans to average: 1
Nonlinearity correction enabled: false
Boxcar width: 0
Storing dark spectrum: false
XAxis mode: Wavelengths
Number of Pixels in Spectrum: 1024
>>>>>Begin Spectral Data<<<<<
801.071	3797
801.214	3679
801.356	3709
801.499	3751
801.641	3770
801.783	3793
801.926	3838
802.068	3819
802.211	3838
802.353	3850
802.496	3838
802.638	3850
802.78	3903
802.923	3945
803.065	3899
803.208	3865
803.35	3838
803.492	3930
803.635	3899
803.777	3827
803.919	3899
804.061	4135
804.204	3983
804.346	3987
804.488	3907
804.63	4010
804.773	3968
804.915	4013
805.057	4128
805.199	4086
805.341	4093
805.483	4105
805.626	4086
805.768	4158
805.91	4234
806.052	4265
806.194	4185
806.336	4360
806.478	4196
806.62	4158
806.762	4192
806.904	4249
807.046	4325
807.188	4200
807.33	4173
807.472	4215
807.614	4200
807.756	4253
807.898	4185
808.04	4207
808.182	4257
808.324	4329
808.465	4398
808.607	4455
808.749	4470
808.891	4481
809.033	4436
809.174	4394
809.316	4272
809.458	4249
809.6	4147
809.741	4124
809.883	4143
810.025	4215
810.166	4211
810.308	4204
810.45	4215
810.591	4230
810.733	4272
810.875	4531
811.016	4782
811.158	5140
811.299	5269
811.441	5292
811.582	5067
811.724	4702
811.865	4417
812.007	4485
812.148	4398
812.29	4383
812.431	4348
812.573	4432
812.714	4363
812.855	4383
812.997	4451
813.138	4500
813.279	4405
813.421	4398
813.562	4352
813.703	4314
813.845	4272
813.986	4215
814.127	4242
814.268	4223
814.41	4276
814.551	4276
814.692	4291
814.833	4291
814.974	4360
815.115	4348
815.256	4272
815.397	4291
815.539	4234
815.68	4166
815.821	4200
815.962	4318
816.103	4238
816.244	4230
816.385	4227
816.526	4291
816.666	4230
816.807	4120
816.948	4181
817.089	4158
817.23	4116
817.371	4055
817.512	4048
817.653	4097
817.793	4017
817.934	4048
818.075	4067
818.216	4051
818.356	4078
818.497	3968
818.638	3884
818.778	3934
818.919	3865
819.06	3869
819.2	3926
819.341	3831
819.481	3857
819.622	3907
819.762	4048
819.903	3983
820.043	3888
820.184	3838
820.324	3816
820.465	3854
820.605	3876
820.746	3857
820.886	3842
821.026	3960
821.167	3945
821.307	3941
821.447	3979
821.588	3960
821.728	3907
821.868	3899
822.008	3869
822.149	3892
822.289	3926
822.429	3812
822.569	3762
822.709	3797
822.849	3720
822.99	3709
823.13	3785
823.27	3793
823.41	3694
823.55	3686
823.69	3713
823.83	3740
823.97	3656
824.11	3622
824.25	3614
824.389	3614
824.529	3622
824.669	3641
824.809	3709
824.949	3713
825.089	3701
825.228	3682
825.368	3568
825.508	3523
825.648	3584
825.787	3587
825.927	3622
826.067	3625
826.206	3671
826.346	3770
826.485	3827
826.625	3876
826.765	3918
826.904	3816
827.044	3622
827.183	3542
827.323	3443
827.462	3504
827.601	3412
827.741	3416
827.88	3469
828.02	3363
828.159	3435
828.298	3504
828.437	3477
828.577	3473
828.716	3561
828.855	3507
828.994	3378
829.134	3382
829.273	3393
829.412	3344
829.551	3340
829.69	3370
829.829	3439
829.968	3519
830.107	3450
830.246	3428
830.385	3355
830.524	3359
830.663	3310
830.802	3249
830.941	3173
831.08	3180
831.219	3275
831.357	3230
831.496	3439
831.635	3218
831.774	3203
831.913	3184
832.051	3100
832.19	3119
832.329	3226
832.467	3165
832.606	3089
832.744	3146
832.883	3195
833.022	3222
833.16	3233
833.299	3325
833.437	3317
833.576	3370
833.714	3416
833.852	3439
833.991	3409
834.129	3492
834.267	3496
834.406	3370
834.544	3405
834.682	3428
834.821	3416
834.959	3545
835.097	3454
835.235	3523
835.373	3504
835.511	3492
835.65	3450
835.788	3481
835.926	3424
836.064	3393
836.202	3393
836.34	3568
836.478	3641
836.615	3526
836.753	3584
836.891	3591
837.029	3599
837.167	3580
837.305	3572
837.443	3519
837.58	3530
837.718	3599
837.856	3553
837.993	3519
838.131	3629
838.269	3595
838.406	3587
838.544	3580
838.681	3462
838.819	3469
838.956	3359
839.094	3374
839.231	3420
839.369	3511
839.506	3770
839.643	3614
839.781	3504
839.918	3458
840.055	3526
840.193	3538
840.33	3511
840.467	3576
840.604	3606
840.742	3793
840.879	3595
841.016	3568
841.153	3591
841.29	3781
841.427	3724
841.564	3740
841.701	3774
841.838	3709
841.975	3682
842.112	3751
842.249	3679
842.385	3595
842.522	3865
842.659	3660
842.796	3652
842.933	3701
843.069	3732
843.206	3694
843.343	3740
843.479	3778
843.616	3797
843.752	3644
843.889	3686
844.025	3865
844.162	3720
844.298	3800
844.435	3816
844.571	3793
844.708	3896
844.844	4002
844.98	3987
845.117	3987
845.253	3945
845.389	3915
845.525	3953
845.661	3934
845.798	3876
845.934	3979
846.07	3926
846.206	4048
846.342	4147
846.478	4071
846.614	3953
846.75	3907
846.886	3896
847.022	3994
847.158	3987
847.294	4013
847.429	3979
847.565	4025
847.701	4242
847.837	3857
847.972	3823
848.108	3979
848.244	3960
848.379	3888
848.515	3835
848.65	3827
848.786	3850
848.921	3888
849.057	3937
849.192	3880
849.328	3930
849.463	3907
849.598	3888
849.734	3899
849.869	3861
850.004	3854
850.14	3819
850.275	3812
850.41	3705
850.545	3759
850.68	3755
850.815	3800
850.95	3785
851.085	3911
851.22	3861
851.355	3816
851.49	3770
851.625	3819
851.76	3778
851.895	3728
852.03	3717
852.165	3808
852.299	3827
852.434	3915
852.569	3857
852.703	3911
852.838	3941
852.973	3945
853.107	4036
853.242	3892
853.376	3857
853.511	3755
853.645	3850
853.78	3964
853.914	3869
854.048	3873
854.183	3899
854.317	3941
854.451	4029
854.585	3968
854.72	3972
854.854	4048
854.988	3911
855.122	3987
855.256	3918
855.39	4013
855.524	4059
855.658	4109
855.792	4074
855.926	4128
856.06	4154
856.194	4192
856.327	4124
856.461	4112
856.595	4135
856.729	4166
856.862	4246
856.996	4219
857.13	4268
857.263	4284
857.397	4383
857.53	4303
857.664	4341
857.797	4421
857.931	4383
858.064	4417
858.197	4421
858.331	4421
858.464	4417
858.597	4337
858.731	4451
858.864	4508
858.997	4447
859.13	4519
859.263	4519
859.396	4577
859.529	4550
859.662	4527
859.795	4546
859.928	4611
860.061	4717
860.194	4721
860.327	4668
860.46	4653
860.592	4721
860.725	4752
860.858	4702
860.99	4683
861.123	4679
861.256	4694
861.388	4771
861.521	5387
861.653	4736
861.786	4706
861.918	4694
862.05	4771
862.183	4854
862.315	4923
862.447	4900
862.58	4896
862.712	4816
862.844	4793
862.976	4801
863.108	4839
863.24	5197
863.372	4839
863.504	4915
863.636	4927
863.768	4949
863.9	4976
864.032	4892
864.164	4938
864.296	5060
864.428	5071
864.559	5086
864.691	5098
864.823	5166
864.954	5128
865.086	5155
865.217	5109
865.349	5067
865.48	5193
865.612	5181
865.743	5311
865.875	5159
866.006	5185
866.137	5258
866.269	5227
866.4	5204
866.531	5216
866.662	5273
866.793	5227
866.924	5284
867.055	5345
867.186	5337
867.317	5296
867.448	5326
867.579	5421
867.71	5349
867.841	5379
867.972	5414
868.103	5467
868.233	5497
868.364	5490
868.495	5486
868.625	5684
868.756	5722
868.886	5657
869.017	5722
869.147	5878
869.278	5897
869.408	5844
869.539	5851
869.669	5874
869.799	5904
869.929	5980
870.06	6049
870.19	6175
870.32	6182
870.45	6251
870.58	6311
870.71	6471
870.84	6437
870.97	6475
871.1	6407
871.23	6582
871.36	6688
871.489	6593
871.619	6787
871.749	6768
871.879	6886
872.008	6989
872.138	6985
872.267	7012
872.397	6973
872.526	7000
872.656	7118
872.785	7232
872.915	7362
873.044	7499
873.173	7540
873.303	7670
873.432	7792
873.561	7833
873.69	7944
873.819	7997
873.948	8229
874.077	8206
874.206	8328
874.335	8408
874.464	8667
874.593	8899
874.722	8880
874.851	9089
874.979	9253
875.108	9348
875.237	9454
875.365	9488
875.494	9637
875.623	9838
875.751	9781
875.88	9991
876.008	10181
876.136	10287
876.265	10459
876.393	10668
876.521	10782
876.65	10774
876.778	10809
876.906	10908
877.034	10987
877.162	11208
877.29	11151
877.418	11284
877.546	11311
877.674	11383
877.802	11493
877.93	11642
878.058	11493
878.185	11611
878.313	11676
878.441	11767
878.568	11638
878.696	11760
878.824	11843
878.951	11927
879.079	12003
879.206	12167
879.333	12098
879.461	12117
879.588	12144
879.715	11992
879.842	12323
879.97	12049
880.097	11893
880.224	11935
880.351	11882
880.478	11935
880.605	11939
880.732	11794
880.859	11942
880.986	11813
881.112	11783
881.239	11714
881.366	11672
881.493	11585
881.619	11474
881.746	11604
881.872	11551
881.999	11467
882.125	11406
882.252	11493
882.378	11467
882.505	11532
882.631	11406
882.757	11383
882.883	11406
883.01	11288
883.136	11216
883.262	11109
883.388	11098
883.514	11208
883.64	11140
883.766	11132
883.892	10965
884.018	10968
884.143	11086
884.269	11105
884.395	10843
884.52	10767
884.646	10797
884.772	10774
884.897	10592
885.023	10683
885.148	10672
885.274	10786
885.399	10778
885.524	10618
885.65	10474
885.775	10710
885.9	10554
886.025	10622
886.15	10535
886.275	10417
886.4	10356
886.525	10432
886.65	10379
886.775	10356
886.9	10508
887.025	10508
887.149	10390
887.274	10272
887.399	10188
887.523	10177
887.648	10120
887.773	10116
887.897	10299
888.021	10223
888.146	10139
888.27	10204
888.395	10185
888.519	10196
888.643	10093
888.767	10219
888.891	10006
889.015	10074
889.139	10048
889.263	10025
889.387	10116
889.511	10078
889.635	10090
889.759	9945
889.883	9964
890.006	10010
890.13	10139
890.254	10036
890.377	9918
890.501	9949
890.624	9804
890.748	9865
890.871	9804
890.995	9747
891.118	9732
891.241	9781
891.364	9675
891.488	9812
891.611	9762
891.734	9740
891.857	9770
891.98	9728
892.103	9759
892.226	9717
892.349	9606
892.471	9538
892.594	9667
892.717	9614
892.839	9648
892.962	9553
893.085	9690
893.207	9500
893.33	9458
893.452	9545
893.575	9633
893.697	9603
893.819	9679
893.941	9584
894.064	9690
894.186	9443
894.308	9374
894.43	9534
894.552	9542
894.674	9488
894.796	9310
894.918	9344
895.04	9382
895.161	9348
895.283	9348
895.405	9283
895.526	9287
895.648	9313
895.769	9306
895.891	9279
896.012	9268
896.134	9256
896.255	9173
896.376	9077
896.498	9173
896.619	9173
896.74	9131
896.861	9085
896.982	9241
897.103	9268
897.224	9161
897.345	9089
897.466	9005
897.587	8967
897.708	9097
897.828	9074
897.949	8925
898.07	8830
898.19	8861
898.311	9051
898.431	8918
898.552	8925
898.672	8975
898.792	8910
898.913	8941
899.033	8788
899.153	8716
899.273	8644
899.393	8697
899.513	8758
899.633	8689
899.753	8804
899.873	8682
899.993	8716
900.113	8674
900.232	8640
900.352	8610
900.472	8552
900.591	8598
900.711	8507
900.83	8522
900.95	8674
901.069	8689
901.189	8549
901.308	8488
901.427	8385
901.546	8408
901.665	8457
901.784	8488
901.904	8347
902.023	8328
902.141	8237
902.26	8191
902.379	8294
902.498	8252
902.617	8275
902.735	8313
902.854	8263
902.973	8259
903.091	8172
903.21	8111
903.328	8111
903.446	8153
903.565	8031
903.683	8046
903.801	8088
903.919	8142
904.038	8088
904.156	7986
904.274	8054
904.392	7978
904.51	8039
904.627	7963
904.745	8035
904.863	8157
904.981	7993
905.098	7830
905.216	7906
905.334	7860
905.451	7940
905.569	7890
905.686	7883
905.803	7967
905.921	7799
906.038	7967
906.155	7856
906.272	7769
906.389	7757
906.506	7632
906.623	7601
906.74	7620
906.857	7552
906.974	7582
907.091	7620
907.208	7662
907.324	7628
907.441	7594
907.557	7499
907.674	7457
907.79	7449
907.907	7384
908.023	7464
908.139	7518
908.256	7350
908.372	7346
908.488	7324
908.604	7247
908.72	7183
908.836	7236
908.952	7263
909.068	7240
909.184	7316
909.3	7274
909.415	7327
909.531	7297
909.647	7107
909.762	7069
909.878	7118
909.993	7091
910.108	7091
910.224	7149
910.339	7114
910.454	7080
910.57	7019
910.685	6943
910.8	7190
910.915	7099
911.03	7004
911.145	6886
911.259	6916
911.374	6943
911.489	6810
911.604	6795
911.718	6757
911.833	6734
911.947	6620
912.062	6650
912.176	6722
912.291	6715
912.405	6703
912.519	6913
912.633	6837
912.748	6749
912.862	6722
912.976	6597
913.09	6483
913.204	6502
913.318	6669
913.431	6658
913.545	6711
913.659	6722
913.772	6642
913.886	6578
914	6559
914.113	6555
914.226	6658
914.34	6612
914.453	6544
914.566	6623
914.68	6547
914.793	6506
914.906	6388
915.019	6422
915.132	6414
915.245	6426
915.358	6445
915.47	6464
915.583	6441
915.696	6460
915.809	6544
915.921	6525
916.034	6414
916.146	6433
916.259	6369
916.371	6502
916.483	6441
916.595	6346
916.708	6437
916.82	6395
916.932	6350
917.044	6372
917.156	6441
917.268	6445
917.38	6342
917.491	6311
917.603	6414
917.715	6384
917.826	6395
917.938	6311
918.049	6273
918.161	6308
918.272	6403
918.384	6418
918.495	6407
918.606	6308
918.717	6239
918.828	6296
918.939	6232
919.05	6235
919.161	6289
919.272	6159
919.383	6140
919.494	6262
919.604	6369
919.715	6350
919.826	6213
919.936	6247
920.047	6311
920.157	6273
920.267	6399
920.378	6365
920.488	6289
920.598	6517
920.708	6540
920.818	6498
920.928	6410
921.038	6627
921.148	6589
921.258	6369
921.368	6342
921.477	6243
921.587	6216
921.697	6102
921.806	6178
921.916	6057
922.025	5988
922.134	5958
922.244	5874
922.353	5942
922.462	5805
922.571	5809
922.68	5722
922.789	5752
922.898	5676
923.007	5619
923.116	5741
923.224	5630
923.333	5649
923.442	5627
923.55	5589
923.659	5566
923.767	5604
923.876	5573
923.984	5634
924.092	5486
924.201	5581
924.309	5547
924.417	5516
924.525	5463
924.633	5516
924.741	6285
924.849	5376
924.956	5425
925.064	5330
925.172	5322
925.279	5311
925.387	5326
925.494	5368
925.602	5433
925.709	5345
925.816	5318
925.924	5387
926.031	5391
926.138	5261
926.245	5284
926.352	5204
926.459	5334
926.566	5311
926.673	5227
926.779	5128
926.886	5147
926.993	5018
927.099	5018
927.206	4984
927.312	4976
927.419	5010
927.525	4980
927.631	4972
927.737	4816
927.843	4858
927.95	4824
928.056	4824
928.162	4767
928.267	4854
928.373	5341
928.479	4858
928.585	4675
928.69	4786
928.796	4786
928.901	4668
929.007	4603
929.112	4634
929.218	4626
929.323	4645
929.428	4558
929.533	4664
929.638	4535
929.743	4527
929.848	4599
929.953	4531
930.058	4405
930.163	4306
930.267	4360
930.372	4421
930.477	4325
930.581	4455
930.685	4360
930.79	4280
930.894	4306
930.998	4329
931.103	4375
931.207	4124
931.311	4105
931.415	4025
931.519	3903
931.623	3949
