Data from glass_V78500241_954.txt Node
Date: Wed Sep 01 19:21:06 CST 2021
User: usil
Spectrometer: V785-0024
Trigger mode: 0
Integration Time (sec): 4.000000E-1
Scans to average: 1
Nonlinearity correction enabled: false
Boxcar width: 0
Storing dark spectrum: false
XAxis mode: Wavelengths
Number of Pixels in Spectrum: 1024
>>>>>Begin Spectral Data<<<<<
801.071	3728
801.214	3804
801.356	3766
801.499	3713
801.641	3743
801.783	3778
801.926	3865
802.068	3873
802.211	3880
802.353	3861
802.496	3835
802.638	3876
802.78	3918
802.923	3930
803.065	3926
803.208	3838
803.35	3911
803.492	3915
803.635	3922
803.777	3835
803.919	3918
804.061	4196
804.204	3975
804.346	3987
804.488	3892
804.63	4040
804.773	4017
804.915	4013
805.057	4139
805.199	4071
805.341	4124
805.483	4143
805.626	4116
805.768	4124
805.91	4268
806.052	4249
806.194	4211
806.336	4367
806.478	4238
806.62	4230
806.762	4150
806.904	4242
807.046	4318
807.188	4219
807.33	4169
807.472	4246
807.614	4204
807.756	4261
807.898	4211
808.04	4249
808.182	4306
808.324	4310
808.465	4402
808.607	4512
808.749	4432
808.891	4493
809.033	4474
809.174	4440
809.316	4299
809.458	4276
809.6	4150
809.741	4234
809.883	4162
810.025	4207
810.166	4234
810.308	4215
810.45	4249
810.591	4249
810.733	4272
810.875	4497
811.016	4812
811.158	5159
811.299	5299
811.441	5311
811.582	5060
811.724	4649
811.865	4459
812.007	4504
812.148	4440
812.29	4428
812.431	4440
812.573	4424
812.714	4390
812.855	4409
812.997	4440
813.138	4489
813.279	4436
813.421	4405
813.562	4383
813.703	4341
813.845	4379
813.986	4265
814.127	4204
814.268	4310
814.41	4303
814.551	4265
814.692	4348
814.833	4299
814.974	4314
815.115	4325
815.256	4272
815.397	4322
815.539	4257
815.68	4223
815.821	4219
815.962	4322
816.103	4303
816.244	4280
816.385	4238
816.526	4299
816.666	4204
816.807	4082
816.948	4242
817.089	4207
817.23	4139
817.371	4109
817.512	4074
817.653	4074
817.793	4040
817.934	4078
818.075	4086
818.216	4097
818.356	4093
818.497	4002
818.638	3949
818.778	3941
818.919	3930
819.06	3869
819.2	3949
819.341	3911
819.481	3835
819.622	3903
819.762	4025
819.903	3941
820.043	3892
820.184	3857
820.324	3838
820.465	3922
820.605	3869
820.746	3884
820.886	3827
821.026	3941
821.167	3960
821.307	3975
821.447	3979
821.588	3975
821.728	4002
821.868	3911
822.008	3903
822.149	3892
822.289	3949
822.429	3751
822.569	3819
822.709	3816
822.849	3713
822.99	3694
823.13	3759
823.27	3724
823.41	3705
823.55	3759
823.69	3717
823.83	3736
823.97	3694
824.11	3629
824.25	3625
824.389	3633
824.529	3698
824.669	3633
824.809	3732
824.949	3762
825.089	3736
825.228	3755
825.368	3591
825.508	3591
825.648	3599
825.787	3599
825.927	3637
826.067	3690
826.206	3675
826.346	3793
826.485	3842
826.625	3880
826.765	3907
826.904	3816
827.044	3656
827.183	3523
827.323	3473
827.462	3507
827.601	3481
827.741	3443
827.88	3488
828.02	3389
828.159	3477
828.298	3488
828.437	3561
828.577	3469
828.716	3614
828.855	3473
828.994	3382
829.134	3359
829.273	3409
829.412	3359
829.551	3329
829.69	3378
829.829	3431
829.968	3534
830.107	3492
830.246	3447
830.385	3378
830.524	3332
830.663	3298
830.802	3272
830.941	3169
831.08	3199
831.219	3253
831.357	3310
831.496	3420
831.635	3233
831.774	3203
831.913	3188
832.051	3127
832.19	3100
832.329	3230
832.467	3135
832.606	3104
832.744	3180
832.883	3184
833.022	3165
833.16	3283
833.299	3302
833.437	3329
833.576	3378
833.714	3439
833.852	3424
833.991	3435
834.129	3473
834.267	3458
834.406	3439
834.544	3439
834.682	3431
834.821	3447
834.959	3572
835.097	3420
835.235	3523
835.373	3526
835.511	3515
835.65	3492
835.788	3492
835.926	3401
836.064	3431
836.202	3405
836.34	3599
836.478	3610
836.615	3549
836.753	3610
836.891	3660
837.029	3629
837.167	3603
837.305	3568
837.443	3515
837.58	3557
837.718	3599
837.856	3595
837.993	3534
838.131	3603
838.269	3595
838.406	3606
838.544	3576
838.681	3485
838.819	3507
838.956	3359
839.094	3389
839.231	3454
839.369	3534
839.506	3774
839.643	3656
839.781	3515
839.918	3443
840.055	3530
840.193	3519
840.33	3526
840.467	3564
840.604	3614
840.742	3850
840.879	3523
841.016	3584
841.153	3625
841.29	3759
841.427	3778
841.564	3732
841.701	3755
841.838	3717
841.975	3667
842.112	3717
842.249	3652
842.385	3622
842.522	3850
842.659	3667
842.796	3705
842.933	3698
843.069	3724
843.206	3747
843.343	3838
843.479	3785
843.616	3854
843.752	3701
843.889	3675
844.025	3850
844.162	3743
844.298	3861
844.435	3797
844.571	3751
844.708	3888
844.844	3953
844.98	4013
845.117	3956
845.253	3953
845.389	3922
845.525	3987
845.661	4051
845.798	3922
845.934	4063
846.07	3949
846.206	4090
846.342	4143
846.478	4059
846.614	3964
846.75	3945
846.886	3930
847.022	4029
847.158	3956
847.294	4006
847.429	4071
847.565	3994
847.701	4276
847.837	3907
847.972	3892
848.108	3956
848.244	3956
848.379	3888
848.515	3842
848.65	3850
848.786	3854
848.921	3816
849.057	3979
849.192	3934
849.328	3922
849.463	3937
849.598	3911
849.734	3869
849.869	3865
850.004	3778
850.14	3823
850.275	3766
850.41	3766
850.545	3736
850.68	3838
850.815	3819
850.95	3800
851.085	3975
851.22	3876
851.355	3846
851.49	3804
851.625	3819
851.76	3823
851.895	3740
852.03	3728
852.165	3819
852.299	3838
852.434	3956
852.569	3884
852.703	3880
852.838	3975
852.973	3972
853.107	4021
853.242	3873
853.376	3854
853.511	3800
853.645	3892
853.78	4002
853.914	3922
854.048	3960
854.183	3892
854.317	3972
854.451	4078
854.585	3922
854.72	3949
854.854	4044
854.988	3949
855.122	4040
855.256	3934
855.39	4036
855.524	4082
855.658	4101
855.792	4162
855.926	4147
856.06	4166
856.194	4211
856.327	4177
856.461	4109
856.595	4139
856.729	4154
856.862	4287
856.996	4246
857.13	4299
857.263	4344
857.397	4341
857.53	4306
857.664	4360
857.797	4424
857.931	4440
858.064	4413
858.197	4474
858.331	4371
858.464	4363
858.597	4291
858.731	4398
858.864	4481
858.997	4462
859.13	4519
859.263	4554
859.396	4535
859.529	4508
859.662	4527
859.795	4512
859.928	4550
860.061	4672
860.194	4759
860.327	4645
860.46	4645
860.592	4717
860.725	4729
860.858	4763
860.99	4691
861.123	4725
861.256	4710
861.388	4755
861.521	5539
861.653	4729
861.786	4691
861.918	4771
862.05	4793
862.183	4885
862.315	4881
862.447	4957
862.58	4892
862.712	4816
862.844	4790
862.976	4854
863.108	4919
863.24	5220
863.372	4843
863.504	4892
863.636	4889
863.768	4949
863.9	4995
864.032	4908
864.164	4957
864.296	5010
864.428	5117
864.559	5098
864.691	5113
864.823	5132
864.954	5128
865.086	5166
865.217	5102
865.349	5132
865.48	5178
865.612	5220
865.743	5269
865.875	5216
866.006	5227
866.137	5239
866.269	5231
866.4	5254
866.531	5254
866.662	5201
866.793	5261
866.924	5239
867.055	5376
867.186	5349
867.317	5379
867.448	5322
867.579	5379
867.71	5364
867.841	5345
867.972	5448
868.103	5471
868.233	5478
868.364	5539
868.495	5486
868.625	5714
868.756	5786
868.886	5665
869.017	5741
869.147	5874
869.278	5927
869.408	5855
869.539	5855
869.669	5889
869.799	5931
869.929	6015
870.06	5984
870.19	6220
870.32	6182
870.45	6171
870.58	6384
870.71	6429
870.84	6479
870.97	6445
871.1	6437
871.23	6650
871.36	6677
871.489	6631
871.619	6730
871.749	6764
871.879	6848
872.008	7042
872.138	6920
872.267	7031
872.397	7072
872.526	7088
872.656	7114
872.785	7209
872.915	7339
873.044	7499
873.173	7540
873.303	7590
873.432	7738
873.561	7856
873.69	7887
873.819	8077
873.948	8081
874.077	8298
874.206	8377
874.335	8446
874.464	8636
874.593	8868
874.722	8952
874.851	9074
874.979	9249
875.108	9473
875.237	9393
875.365	9545
875.494	9720
875.623	9888
875.751	9713
875.88	9964
876.008	10116
876.136	10227
876.265	10531
876.393	10691
876.521	10725
876.65	10843
876.778	10965
876.906	10938
877.034	11022
877.162	11071
877.29	11147
877.418	11326
877.546	11311
877.674	11455
877.802	11459
877.93	11535
878.058	11604
878.185	11528
878.313	11695
878.441	11726
878.568	11604
878.696	11821
878.824	11893
878.951	11988
879.079	12019
879.206	12144
879.333	12011
879.461	12019
879.588	12125
879.715	12045
879.842	12220
879.97	12102
880.097	11885
880.224	11912
880.351	11893
880.478	11931
880.605	11805
880.732	11802
880.859	12007
880.986	11813
881.112	11805
881.239	11794
881.366	11688
881.493	11627
881.619	11680
881.746	11638
881.872	11551
881.999	11566
882.125	11448
882.252	11592
882.378	11554
882.505	11528
882.631	11337
882.757	11307
882.883	11345
883.01	11273
883.136	11143
883.262	11204
883.388	11140
883.514	11261
883.64	11166
883.766	11128
883.892	11014
884.018	11048
884.143	11052
884.269	11143
884.395	10900
884.52	10786
884.646	10698
884.772	10698
884.897	10679
885.023	10706
885.148	10748
885.274	10771
885.399	10706
885.524	10664
885.65	10626
885.775	10561
885.9	10516
886.025	10675
886.15	10546
886.275	10443
886.4	10409
886.525	10436
886.65	10379
886.775	10284
886.9	10382
887.025	10569
887.149	10344
887.274	10280
887.399	10276
887.523	10196
887.648	10143
887.773	10181
887.897	10215
888.021	10249
888.146	10090
888.27	10284
888.395	10234
888.519	10101
888.643	10207
888.767	10200
888.891	10082
889.015	10013
889.139	10105
889.263	9975
889.387	10055
889.511	10128
889.635	10109
889.759	9926
889.883	10032
890.006	9949
890.13	10143
890.254	9994
890.377	9892
890.501	9892
890.624	9831
890.748	9964
890.871	9819
890.995	9774
891.118	9831
891.241	9755
891.364	9747
891.488	9793
891.611	9774
891.734	9740
891.857	9873
891.98	9709
892.103	9797
892.226	9679
892.349	9679
892.471	9504
892.594	9637
892.717	9701
892.839	9637
892.962	9652
893.085	9652
893.207	9568
893.33	9542
893.452	9534
893.575	9641
893.697	9564
893.819	9705
893.941	9637
894.064	9564
894.186	9450
894.308	9454
894.43	9580
894.552	9606
894.674	9549
894.796	9355
894.918	9416
895.04	9325
895.161	9477
895.283	9367
895.405	9272
895.526	9253
895.648	9306
895.769	9260
895.891	9302
896.012	9214
896.134	9192
896.255	9192
896.376	9165
896.498	9203
896.619	9119
896.74	9127
896.861	9131
896.982	9256
897.103	9294
897.224	9161
897.345	9097
897.466	9013
897.587	9039
897.708	9100
897.828	9100
897.949	8921
898.07	8887
898.19	8918
898.311	8994
898.431	8864
898.552	8937
898.672	9047
898.792	9017
898.913	8918
899.033	8876
899.153	8804
899.273	8693
899.393	8773
899.513	8750
899.633	8739
899.753	8792
899.873	8705
899.993	8686
900.113	8746
900.232	8705
900.352	8697
900.472	8655
900.591	8533
900.711	8651
900.83	8514
900.95	8655
901.069	8720
901.189	8606
901.308	8484
901.427	8396
901.546	8442
901.665	8438
901.784	8560
901.904	8408
902.023	8351
902.141	8206
902.26	8218
902.379	8225
902.498	8305
902.617	8199
902.735	8267
902.854	8282
902.973	8248
903.091	8073
903.21	8172
903.328	8202
903.446	8069
903.565	8069
903.683	8103
903.801	8005
903.919	8111
904.038	8157
904.156	7993
904.274	8103
904.392	7993
904.51	8031
904.627	8020
904.745	8054
904.863	8058
904.981	7887
905.098	7841
905.216	7917
905.334	7906
905.451	7902
905.569	7890
905.686	7913
905.803	7841
905.921	7799
906.038	7875
906.155	7811
906.272	7799
906.389	7727
906.506	7620
906.623	7605
906.74	7594
906.857	7499
906.974	7624
907.091	7636
907.208	7685
907.324	7655
907.441	7632
907.557	7487
907.674	7449
907.79	7441
907.907	7384
908.023	7514
908.139	7441
908.256	7316
908.372	7293
908.488	7331
908.604	7259
908.72	7274
908.836	7274
908.952	7209
909.068	7282
909.184	7305
909.3	7331
909.415	7354
909.531	7324
909.647	7133
909.762	7160
909.878	7050
909.993	7122
910.108	7046
910.224	7126
910.339	7050
910.454	7004
910.57	7053
910.685	6924
910.8	7168
910.915	7107
911.03	7076
911.145	6875
911.259	6920
911.374	6890
911.489	6844
911.604	6844
911.718	6692
911.833	6738
911.947	6646
912.062	6627
912.176	6734
912.291	6730
912.405	6677
912.519	6776
912.633	6783
912.748	6749
912.862	6734
912.976	6696
913.09	6506
913.204	6544
913.318	6574
913.431	6719
913.545	6673
913.659	6783
913.772	6665
913.886	6593
914	6563
914.113	6574
914.226	6631
914.34	6665
914.453	6467
914.566	6578
914.68	6582
914.793	6547
914.906	6426
915.019	6460
915.132	6391
915.245	6407
915.358	6403
915.47	6422
915.583	6479
915.696	6414
915.809	6559
915.921	6525
916.034	6445
916.146	6414
916.259	6418
916.371	6486
916.483	6486
916.595	6437
916.708	6452
916.82	6429
916.932	6384
917.044	6452
917.156	6357
917.268	6323
917.38	6395
917.491	6319
917.603	6323
917.715	6410
917.826	6483
917.938	6319
918.049	6216
918.161	6323
918.272	6342
918.384	6448
918.495	6350
918.606	6311
918.717	6262
918.828	6296
918.939	6216
919.05	6171
919.161	6251
919.272	6144
919.383	6186
919.494	6315
919.604	6437
919.715	6258
919.826	6262
919.936	6247
920.047	6350
920.157	6315
920.267	6513
920.378	6357
920.488	6311
920.598	6388
920.708	6509
920.818	6483
920.928	6479
921.038	6627
921.148	6620
921.258	6376
921.368	6315
921.477	6224
921.587	6175
921.697	6076
921.806	6201
921.916	6095
922.025	5935
922.134	5954
922.244	5920
922.353	5980
922.462	5817
922.571	5840
922.68	5710
922.789	5684
922.898	5760
923.007	5710
923.116	5737
923.224	5695
923.333	5672
923.442	5615
923.55	5600
923.659	5600
923.767	5592
923.876	5596
923.984	5630
924.092	5528
924.201	5665
924.309	5573
924.417	5566
924.525	5501
924.633	5474
924.741	6159
924.849	5353
924.956	5433
925.064	5349
925.172	5318
925.279	5311
925.387	5387
925.494	5345
925.602	5452
925.709	5391
925.816	5280
925.924	5292
926.031	5387
926.138	5349
926.245	5345
926.352	5197
926.459	5326
926.566	5334
926.673	5220
926.779	5178
926.886	5079
926.993	5048
927.099	5033
927.206	4957
927.312	5006
927.419	5041
927.525	4995
927.631	4987
927.737	4934
927.843	4896
927.95	4763
928.056	4858
928.162	4828
928.267	4858
928.373	5391
928.479	4889
928.585	4714
928.69	4805
928.796	4763
928.901	4710
929.007	4550
929.112	4702
929.218	4641
929.323	4607
929.428	4573
929.533	4694
929.638	4478
929.743	4531
929.848	4565
929.953	4565
930.058	4443
930.163	4325
930.267	4306
930.372	4481
930.477	4314
930.581	4485
930.685	4314
930.79	4303
930.894	4303
930.998	4318
931.103	4386
931.207	4135
931.311	4135
931.415	4036
931.519	3934
931.623	3899
