Data from glass_V78500241_1558.txt Node
Date: Wed Sep 01 19:25:18 CST 2021
User: usil
Spectrometer: V785-0024
Trigger mode: 0
Integration Time (sec): 4.000000E-1
Scans to average: 1
Nonlinearity correction enabled: false
Boxcar width: 0
Storing dark spectrum: false
XAxis mode: Wavelengths
Number of Pixels in Spectrum: 1024
>>>>>Begin Spectral Data<<<<<
801.071	3709
801.214	3736
801.356	3713
801.499	3713
801.641	3701
801.783	3785
801.926	3838
802.068	3819
802.211	3842
802.353	3896
802.496	3861
802.638	3915
802.78	3884
802.923	3926
803.065	3888
803.208	3850
803.35	3880
803.492	3873
803.635	3888
803.777	3778
803.919	3842
804.061	4120
804.204	3926
804.346	3953
804.488	3956
804.63	3972
804.773	3945
804.915	4032
805.057	4143
805.199	4078
805.341	4135
805.483	4135
805.626	4158
805.768	4116
805.91	4215
806.052	4261
806.194	4223
806.336	4367
806.478	4211
806.62	4173
806.762	4173
806.904	4196
807.046	4284
807.188	4219
807.33	4200
807.472	4280
807.614	4246
807.756	4238
807.898	4223
808.04	4253
808.182	4272
808.324	4310
808.465	4341
808.607	4466
808.749	4474
808.891	4478
809.033	4527
809.174	4360
809.316	4204
809.458	4219
809.6	4158
809.741	4139
809.883	4158
810.025	4219
810.166	4177
810.308	4242
810.45	4227
810.591	4261
810.733	4299
810.875	4535
811.016	4843
811.158	5140
811.299	5292
811.441	5288
811.582	5083
811.724	4702
811.865	4447
812.007	4451
812.148	4443
812.29	4443
812.431	4413
812.573	4363
812.714	4348
812.855	4413
812.997	4394
813.138	4470
813.279	4417
813.421	4440
813.562	4390
813.703	4318
813.845	4310
813.986	4276
814.127	4188
814.268	4257
814.41	4280
814.551	4257
814.692	4303
814.833	4299
814.974	4268
815.115	4295
815.256	4253
815.397	4295
815.539	4287
815.68	4261
815.821	4143
815.962	4318
816.103	4295
816.244	4219
816.385	4223
816.526	4291
816.666	4196
816.807	4074
816.948	4200
817.089	4200
817.23	4086
817.371	4059
817.512	4071
817.653	4071
817.793	4040
817.934	4078
818.075	4063
818.216	4078
818.356	4090
818.497	3983
818.638	3937
818.778	3937
818.919	3896
819.06	3850
819.2	3915
819.341	3827
819.481	3819
819.622	3930
819.762	3998
819.903	3941
820.043	3884
820.184	3880
820.324	3846
820.465	3880
820.605	3865
820.746	3899
820.886	3797
821.026	3918
821.167	3930
821.307	3998
821.447	3987
821.588	3956
821.728	3945
821.868	3899
822.008	3884
822.149	3926
822.289	3907
822.429	3804
822.569	3770
822.709	3770
822.849	3705
822.99	3713
823.13	3789
823.27	3804
823.41	3717
823.55	3717
823.69	3694
823.83	3766
823.97	3663
824.11	3622
824.25	3606
824.389	3618
824.529	3663
824.669	3667
824.809	3743
824.949	3766
825.089	3728
825.228	3675
825.368	3545
825.508	3564
825.648	3564
825.787	3591
825.927	3633
826.067	3671
826.206	3686
826.346	3808
826.485	3835
826.625	3880
826.765	3941
826.904	3819
827.044	3625
827.183	3526
827.323	3435
827.462	3477
827.601	3409
827.741	3462
827.88	3466
828.02	3386
828.159	3469
828.298	3504
828.437	3534
828.577	3454
828.716	3629
828.855	3519
828.994	3401
829.134	3412
829.273	3393
829.412	3359
829.551	3363
829.69	3355
829.829	3458
829.968	3477
830.107	3466
830.246	3450
830.385	3386
830.524	3313
830.663	3325
830.802	3306
830.941	3169
831.08	3184
831.219	3237
831.357	3260
831.496	3420
831.635	3283
831.774	3161
831.913	3184
832.051	3100
832.19	3154
832.329	3173
832.467	3116
832.606	3093
832.744	3173
832.883	3176
833.022	3230
833.16	3256
833.299	3272
833.437	3332
833.576	3348
833.714	3428
833.852	3458
833.991	3443
834.129	3466
834.267	3428
834.406	3389
834.544	3424
834.682	3431
834.821	3393
834.959	3580
835.097	3435
835.235	3530
835.373	3439
835.511	3507
835.65	3435
835.788	3504
835.926	3416
836.064	3336
836.202	3389
836.34	3564
836.478	3599
836.615	3511
836.753	3618
836.891	3652
837.029	3599
837.167	3618
837.305	3561
837.443	3526
837.58	3485
837.718	3561
837.856	3595
837.993	3504
838.131	3622
838.269	3625
838.406	3530
838.544	3595
838.681	3507
838.819	3477
838.956	3378
839.094	3405
839.231	3462
839.369	3511
839.506	3743
839.643	3610
839.781	3496
839.918	3492
840.055	3515
840.193	3557
840.33	3526
840.467	3542
840.604	3568
840.742	3785
840.879	3572
841.016	3561
841.153	3591
841.29	3785
841.427	3724
841.564	3717
841.701	3732
841.838	3675
841.975	3698
842.112	3701
842.249	3610
842.385	3652
842.522	3827
842.659	3679
842.796	3671
842.933	3694
843.069	3713
843.206	3713
843.343	3819
843.479	3808
843.616	3846
843.752	3690
843.889	3694
844.025	3876
844.162	3705
844.298	3812
844.435	3789
844.571	3785
844.708	3884
844.844	3994
844.98	4013
845.117	4010
845.253	3934
845.389	3918
845.525	3972
845.661	3956
845.798	3915
845.934	3975
846.07	3945
846.206	4078
846.342	4105
846.478	4055
846.614	3991
846.75	3892
846.886	3934
847.022	4029
847.158	3987
847.294	3991
847.429	4032
847.565	4017
847.701	4253
847.837	3880
847.972	3888
848.108	4013
848.244	3953
848.379	3850
848.515	3808
848.65	3827
848.786	3842
848.921	3857
849.057	3930
849.192	3857
849.328	3857
849.463	3945
849.598	3869
849.734	3934
849.869	3846
850.004	3789
850.14	3838
850.275	3766
850.41	3740
850.545	3736
850.68	3759
850.815	3819
850.95	3789
851.085	3918
851.22	3896
851.355	3857
851.49	3789
851.625	3789
851.76	3797
851.895	3762
852.03	3698
852.165	3808
852.299	3846
852.434	3892
852.569	3819
852.703	3873
852.838	3949
852.973	4029
853.107	3979
853.242	3937
853.376	3850
853.511	3800
853.645	3873
853.78	3960
853.914	3941
854.048	3876
854.183	3873
854.317	3945
854.451	4036
854.585	3922
854.72	3945
854.854	4044
854.988	3915
855.122	3972
855.256	3926
855.39	4010
855.524	4078
855.658	4090
855.792	4120
855.926	4158
856.06	4120
856.194	4177
856.327	4143
856.461	4154
856.595	4143
856.729	4173
856.862	4265
856.996	4249
857.13	4306
857.263	4280
857.397	4318
857.53	4280
857.664	4356
857.797	4402
857.931	4440
858.064	4398
858.197	4447
858.331	4409
858.464	4375
858.597	4383
858.731	4428
858.864	4493
858.997	4344
859.13	4493
859.263	4573
859.396	4596
859.529	4523
859.662	4580
859.795	4558
859.928	4630
860.061	4668
860.194	4736
860.327	4653
860.46	4634
860.592	4729
860.725	4774
860.858	4812
860.99	4675
861.123	4729
861.256	4736
861.388	4786
861.521	5535
861.653	4706
861.786	4641
861.918	4702
862.05	4812
862.183	4854
862.315	4858
862.447	4904
862.58	4889
862.712	4801
862.844	4725
862.976	4885
863.108	4873
863.24	5235
863.372	4866
863.504	4896
863.636	4911
863.768	5006
863.9	4980
864.032	4873
864.164	4976
864.296	5037
864.428	5048
864.559	5136
864.691	5124
864.823	5109
864.954	5113
865.086	5159
865.217	5140
865.349	5067
865.48	5155
865.612	5197
865.743	5246
865.875	5178
866.006	5140
866.137	5174
866.269	5181
866.4	5273
866.531	5261
866.662	5227
866.793	5212
866.924	5261
867.055	5334
867.186	5250
867.317	5357
867.448	5315
867.579	5364
867.71	5345
867.841	5387
867.972	5482
868.103	5482
868.233	5478
868.364	5452
868.495	5585
868.625	5642
868.756	5828
868.886	5672
869.017	5745
869.147	5844
869.278	5855
869.408	5794
869.539	5817
869.669	5866
869.799	5882
869.929	5973
870.06	6087
870.19	6232
870.32	6220
870.45	6273
870.58	6300
870.71	6407
870.84	6448
870.97	6414
871.1	6490
871.23	6616
871.36	6707
871.489	6635
871.619	6703
871.749	6810
871.879	6882
872.008	6973
872.138	6970
872.267	6958
872.397	6970
872.526	7034
872.656	7072
872.785	7206
872.915	7415
873.044	7540
873.173	7567
873.303	7666
873.432	7700
873.561	7845
873.69	7879
873.819	8016
873.948	8183
874.077	8218
874.206	8328
874.335	8438
874.464	8636
874.593	8868
874.722	8914
874.851	9081
874.979	9298
875.108	9344
875.237	9435
875.365	9507
875.494	9644
875.623	9770
875.751	9838
875.88	9983
876.008	10082
876.136	10280
876.265	10535
876.393	10691
876.521	10679
876.65	10892
876.778	10915
876.906	10847
877.034	10919
877.162	11113
877.29	11147
877.418	11326
877.546	11368
877.674	11398
877.802	11421
877.93	11528
878.058	11486
878.185	11608
878.313	11600
878.441	11794
878.568	11627
878.696	11813
878.824	11832
878.951	11996
879.079	11889
879.206	12053
879.333	12072
879.461	12015
879.588	12049
879.715	12106
879.842	12136
879.97	11988
880.097	11855
880.224	11984
880.351	11836
880.478	11897
880.605	11935
880.732	11870
880.859	11973
880.986	11805
881.112	11840
881.239	11760
881.366	11623
881.493	11642
881.619	11535
881.746	11596
881.872	11524
881.999	11524
882.125	11570
882.252	11573
882.378	11562
882.505	11600
882.631	11360
882.757	11307
882.883	11322
883.01	11277
883.136	11216
883.262	11086
883.388	11075
883.514	11216
883.64	11220
883.766	11094
883.892	10968
884.018	11033
884.143	11105
884.269	11075
884.395	10835
884.52	10774
884.646	10679
884.772	10687
884.897	10618
885.023	10691
885.148	10790
885.274	10793
885.399	10752
885.524	10622
885.65	10607
885.775	10573
885.9	10558
886.025	10618
886.15	10516
886.275	10402
886.4	10329
886.525	10306
886.65	10356
886.775	10348
886.9	10493
887.025	10569
887.149	10375
887.274	10219
887.399	10150
887.523	10261
887.648	10101
887.773	10086
887.897	10192
888.021	10219
888.146	10063
888.27	10238
888.395	10204
888.519	10219
888.643	10196
888.767	10223
888.891	10150
889.015	10036
889.139	10051
889.263	9998
889.387	10029
889.511	10105
889.635	10059
889.759	9884
889.883	9987
890.006	9975
890.13	10116
890.254	9983
890.377	9975
890.501	9831
890.624	9899
890.748	9850
890.871	9781
890.995	9671
891.118	9766
891.241	9850
891.364	9778
891.488	9846
891.611	9797
891.734	9667
891.857	9800
891.98	9743
892.103	9797
892.226	9793
892.349	9663
892.471	9488
892.594	9591
892.717	9584
892.839	9557
892.962	9637
893.085	9580
893.207	9545
893.33	9534
893.452	9584
893.575	9549
893.697	9507
893.819	9595
893.941	9580
894.064	9610
894.186	9401
894.308	9355
894.43	9507
894.552	9572
894.674	9462
894.796	9382
894.918	9378
895.04	9332
895.161	9408
895.283	9351
895.405	9275
895.526	9317
895.648	9241
895.769	9313
895.891	9135
896.012	9275
896.134	9272
896.255	9241
896.376	9218
896.498	9207
896.619	9131
896.74	9093
896.861	9112
896.982	9207
897.103	9313
897.224	9180
897.345	9074
897.466	8948
897.587	9051
897.708	9066
897.828	9036
897.949	8914
898.07	8826
898.19	8933
898.311	8956
898.431	8887
898.552	8937
898.672	8990
898.792	8979
898.913	8937
899.033	8830
899.153	8731
899.273	8712
899.393	8727
899.513	8762
899.633	8758
899.753	8766
899.873	8689
899.993	8689
900.113	8663
900.232	8686
900.352	8606
900.472	8697
900.591	8568
900.711	8590
900.83	8556
900.95	8667
901.069	8655
901.189	8552
901.308	8438
901.427	8358
901.546	8438
901.665	8423
901.784	8522
901.904	8381
902.023	8332
902.141	8225
902.26	8180
902.379	8324
902.498	8256
902.617	8256
902.735	8336
902.854	8256
902.973	8229
903.091	8077
903.21	8119
903.328	8130
903.446	8126
903.565	8107
903.683	8077
903.801	8031
903.919	8142
904.038	8126
904.156	8024
904.274	8092
904.392	8050
904.51	8027
904.627	8081
904.745	8073
904.863	8149
904.981	7959
905.098	7845
905.216	7860
905.334	7849
905.451	7925
905.569	7871
905.686	7955
905.803	7944
905.921	7727
906.038	7909
906.155	7833
906.272	7719
906.389	7750
906.506	7624
906.623	7639
906.74	7609
906.857	7537
906.974	7597
907.091	7685
907.208	7788
907.324	7693
907.441	7567
907.557	7422
907.674	7449
907.79	7438
907.907	7441
908.023	7438
908.139	7422
908.256	7392
908.372	7377
908.488	7411
908.604	7244
908.72	7236
908.836	7285
908.952	7301
909.068	7274
909.184	7270
909.3	7308
909.415	7308
909.531	7266
909.647	7099
909.762	7065
909.878	7088
909.993	7114
910.108	7152
910.224	7088
910.339	7053
910.454	7107
910.57	7038
910.685	6981
910.8	7228
910.915	7145
911.03	6932
911.145	6909
911.259	6833
911.374	6867
911.489	6882
911.604	6783
911.718	6658
911.833	6711
911.947	6642
912.062	6612
912.176	6719
912.291	6684
912.405	6677
912.519	6795
912.633	6829
912.748	6734
912.862	6612
912.976	6570
913.09	6555
913.204	6547
913.318	6639
913.431	6681
913.545	6665
913.659	6696
913.772	6665
913.886	6608
914	6544
914.113	6646
914.226	6662
914.34	6620
914.453	6467
914.566	6654
914.68	6528
914.793	6540
914.906	6464
915.019	6464
915.132	6319
915.245	6407
915.358	6410
915.47	6426
915.583	6437
915.696	6471
915.809	6540
915.921	6582
916.034	6475
916.146	6388
916.259	6350
916.371	6517
916.483	6441
916.595	6342
916.708	6395
916.82	6395
916.932	6403
917.044	6361
917.156	6391
917.268	6350
917.38	6319
917.491	6289
917.603	6323
917.715	6380
917.826	6437
917.938	6369
918.049	6262
918.161	6384
918.272	6429
918.384	6475
918.495	6350
918.606	6262
918.717	6239
918.828	6243
918.939	6334
919.05	6216
919.161	6270
919.272	6106
919.383	6148
919.494	6315
919.604	6456
919.715	6308
919.826	6239
919.936	6273
920.047	6376
920.157	6254
920.267	6399
920.378	6369
920.488	6262
920.598	6437
920.708	6528
920.818	6456
920.928	6513
921.038	6559
921.148	6604
921.258	6365
921.368	6254
921.477	6277
921.587	6133
921.697	6072
921.806	6152
921.916	6079
922.025	5988
922.134	5908
922.244	5863
922.353	5958
922.462	5863
922.571	5775
922.68	5710
922.789	5661
922.898	5718
923.007	5665
923.116	5611
923.224	5691
923.333	5672
923.442	5649
923.55	5566
923.659	5611
923.767	5649
923.876	5505
923.984	5577
924.092	5524
924.201	5539
924.309	5573
924.417	5562
924.525	5509
924.633	5516
924.741	6220
924.849	5288
924.956	5452
925.064	5334
925.172	5318
925.279	5315
925.387	5410
925.494	5315
925.602	5444
925.709	5334
925.816	5345
925.924	5303
926.031	5368
926.138	5318
926.245	5334
926.352	5227
926.459	5277
926.566	5345
926.673	5204
926.779	5136
926.886	5079
926.993	5006
927.099	4953
927.206	4976
927.312	4923
927.419	4972
927.525	4965
927.631	4961
927.737	4873
927.843	4896
927.95	4782
928.056	4854
928.162	4805
928.267	4877
928.373	5341
928.479	4812
928.585	4668
928.69	4793
928.796	4771
928.901	4683
929.007	4588
929.112	4702
929.218	4672
929.323	4588
929.428	4611
929.533	4634
929.638	4508
929.743	4588
929.848	4542
929.953	4504
930.058	4432
930.163	4333
930.267	4363
930.372	4375
930.477	4322
930.581	4485
930.685	4348
930.79	4238
930.894	4272
930.998	4219
931.103	4386
931.207	4147
931.311	4090
931.415	4013
931.519	3934
931.623	3930
