Data from glass_V78500241_1361.txt Node
Date: Wed Sep 01 19:23:56 CST 2021
User: usil
Spectrometer: V785-0024
Trigger mode: 0
Integration Time (sec): 4.000000E-1
Scans to average: 1
Nonlinearity correction enabled: false
Boxcar width: 0
Storing dark spectrum: false
XAxis mode: Wavelengths
Number of Pixels in Spectrum: 1024
>>>>>Begin Spectral Data<<<<<
801.071	3774
801.214	3770
801.356	3736
801.499	3785
801.641	3747
801.783	3781
801.926	3884
802.068	3842
802.211	3876
802.353	3903
802.496	3850
802.638	3854
802.78	3899
802.923	3934
803.065	3865
803.208	3854
803.35	3892
803.492	3880
803.635	3956
803.777	3850
803.919	3892
804.061	4135
804.204	3975
804.346	3953
804.488	3945
804.63	4036
804.773	3991
804.915	4010
805.057	4154
805.199	4078
805.341	4055
805.483	4166
805.626	4128
805.768	4101
805.91	4238
806.052	4181
806.194	4196
806.336	4333
806.478	4188
806.62	4215
806.762	4166
806.904	4230
807.046	4402
807.188	4204
807.33	4204
807.472	4242
807.614	4181
807.756	4276
807.898	4219
808.04	4169
808.182	4272
808.324	4318
808.465	4390
808.607	4459
808.749	4421
808.891	4447
809.033	4478
809.174	4432
809.316	4268
809.458	4306
809.6	4204
809.741	4128
809.883	4128
810.025	4223
810.166	4234
810.308	4211
810.45	4253
810.591	4230
810.733	4291
810.875	4569
811.016	4812
811.158	5189
811.299	5299
811.441	5315
811.582	5067
811.724	4725
811.865	4466
812.007	4474
812.148	4413
812.29	4424
812.431	4402
812.573	4375
812.714	4409
812.855	4379
812.997	4417
813.138	4504
813.279	4424
813.421	4398
813.562	4375
813.703	4329
813.845	4348
813.986	4299
814.127	4268
814.268	4234
814.41	4276
814.551	4207
814.692	4337
814.833	4280
814.974	4280
815.115	4291
815.256	4230
815.397	4246
815.539	4276
815.68	4230
815.821	4211
815.962	4299
816.103	4295
816.244	4253
816.385	4200
816.526	4249
816.666	4223
816.807	4093
816.948	4154
817.089	4188
817.23	4196
817.371	4071
817.512	4059
817.653	4090
817.793	4040
817.934	4036
818.075	4101
818.216	4109
818.356	4059
818.497	3983
818.638	3934
818.778	3918
818.919	3884
819.06	3865
819.2	3915
819.341	3888
819.481	3880
819.622	3888
819.762	4036
819.903	3991
820.043	3873
820.184	3850
820.324	3835
820.465	3846
820.605	3896
820.746	3861
820.886	3778
821.026	3964
821.167	3880
821.307	3983
821.447	3968
821.588	3964
821.728	3949
821.868	3941
822.008	3880
822.149	3945
822.289	3873
822.429	3819
822.569	3800
822.709	3789
822.849	3740
822.99	3740
823.13	3747
823.27	3812
823.41	3698
823.55	3743
823.69	3736
823.83	3759
823.97	3663
824.11	3587
824.25	3633
824.389	3618
824.529	3660
824.669	3686
824.809	3698
824.949	3755
825.089	3740
825.228	3694
825.368	3591
825.508	3504
825.648	3561
825.787	3595
825.927	3599
826.067	3587
826.206	3682
826.346	3774
826.485	3823
826.625	3899
826.765	3956
826.904	3804
827.044	3618
827.183	3542
827.323	3462
827.462	3485
827.601	3458
827.741	3405
827.88	3462
828.02	3374
828.159	3435
828.298	3504
828.437	3526
828.577	3473
828.716	3606
828.855	3469
828.994	3416
829.134	3389
829.273	3420
829.412	3378
829.551	3336
829.69	3348
829.829	3420
829.968	3545
830.107	3477
830.246	3443
830.385	3397
830.524	3386
830.663	3317
830.802	3260
830.941	3154
831.08	3222
831.219	3256
831.357	3268
831.496	3397
831.635	3203
831.774	3184
831.913	3203
832.051	3146
832.19	3131
832.329	3214
832.467	3131
832.606	3123
832.744	3169
832.883	3203
833.022	3195
833.16	3230
833.299	3363
833.437	3367
833.576	3355
833.714	3382
833.852	3458
833.991	3450
834.129	3481
834.267	3447
834.406	3416
834.544	3397
834.682	3428
834.821	3412
834.959	3599
835.097	3439
835.235	3534
835.373	3515
835.511	3534
835.65	3466
835.788	3462
835.926	3378
836.064	3389
836.202	3386
836.34	3572
836.478	3622
836.615	3538
836.753	3641
836.891	3644
837.029	3629
837.167	3584
837.305	3591
837.443	3511
837.58	3496
837.718	3591
837.856	3606
837.993	3534
838.131	3595
838.269	3576
838.406	3534
838.544	3587
838.681	3454
838.819	3447
838.956	3378
839.094	3416
839.231	3466
839.369	3511
839.506	3713
839.643	3637
839.781	3492
839.918	3477
840.055	3519
840.193	3534
840.33	3515
840.467	3652
840.604	3591
840.742	3800
840.879	3564
841.016	3564
841.153	3584
841.29	3743
841.427	3759
841.564	3736
841.701	3778
841.838	3747
841.975	3667
842.112	3717
842.249	3656
842.385	3656
842.522	3789
842.659	3682
842.796	3694
842.933	3686
843.069	3686
843.206	3720
843.343	3804
843.479	3808
843.616	3831
843.752	3747
843.889	3690
844.025	3861
844.162	3770
844.298	3850
844.435	3785
844.571	3740
844.708	3876
844.844	3994
844.98	4021
845.117	4006
845.253	3922
845.389	3899
845.525	3953
845.661	3968
845.798	3915
845.934	4025
846.07	3968
846.206	4040
846.342	4166
846.478	4063
846.614	3994
846.75	3930
846.886	3903
847.022	4002
847.158	3968
847.294	3953
847.429	4036
847.565	3979
847.701	4310
847.837	3827
847.972	3854
848.108	3983
848.244	3964
848.379	3880
848.515	3781
848.65	3838
848.786	3846
848.921	3892
849.057	3907
849.192	3926
849.328	3930
849.463	3861
849.598	3888
849.734	3884
849.869	3854
850.004	3823
850.14	3819
850.275	3770
850.41	3705
850.545	3789
850.68	3774
850.815	3800
850.95	3842
851.085	3884
851.22	3888
851.355	3869
851.49	3800
851.625	3797
851.76	3816
851.895	3747
852.03	3724
852.165	3797
852.299	3861
852.434	3896
852.569	3884
852.703	3937
852.838	3915
852.973	4044
853.107	3975
853.242	3854
853.376	3869
853.511	3785
853.645	3876
853.78	3983
853.914	3934
854.048	3892
854.183	3892
854.317	3934
854.451	4063
854.585	3949
854.72	3972
854.854	4071
854.988	3941
855.122	4002
855.256	3937
855.39	4055
855.524	4150
855.658	4086
855.792	4124
855.926	4128
856.06	4162
856.194	4215
856.327	4109
856.461	4032
856.595	4147
856.729	4162
856.862	4303
856.996	4249
857.13	4314
857.263	4352
857.397	4325
857.53	4284
857.664	4344
857.797	4398
857.931	4417
858.064	4413
858.197	4451
858.331	4417
858.464	4402
858.597	4356
858.731	4474
858.864	4386
858.997	4451
859.13	4535
859.263	4546
859.396	4603
859.529	4519
859.662	4516
859.795	4516
859.928	4630
860.061	4653
860.194	4702
860.327	4668
860.46	4618
860.592	4767
860.725	4721
860.858	4767
860.99	4653
861.123	4694
861.256	4706
861.388	4793
861.521	5429
861.653	4733
861.786	4679
861.918	4763
862.05	4805
862.183	4835
862.315	4862
862.447	4923
862.58	4870
862.712	4790
862.844	4733
862.976	4919
863.108	4850
863.24	5208
863.372	4809
863.504	4911
863.636	4889
863.768	4999
863.9	4919
864.032	4930
864.164	4968
864.296	4987
864.428	5121
864.559	5098
864.691	5094
864.823	5132
864.954	5117
865.086	5136
865.217	5140
865.349	5132
865.48	5185
865.612	5220
865.743	5277
865.875	5204
866.006	5159
866.137	5250
866.269	5204
866.4	5208
866.531	5265
866.662	5277
866.793	5273
866.924	5303
867.055	5337
867.186	5330
867.317	5326
867.448	5341
867.579	5376
867.71	5349
867.841	5376
867.972	5444
868.103	5444
868.233	5478
868.364	5528
868.495	5524
868.625	5646
868.756	5786
868.886	5638
869.017	5676
869.147	5817
869.278	5882
869.408	5832
869.539	5805
869.669	5927
869.799	5954
869.929	5935
870.06	6022
870.19	6216
870.32	6201
870.45	6232
870.58	6353
870.71	6403
870.84	6494
870.97	6483
871.1	6471
871.23	6574
871.36	6726
871.489	6646
871.619	6703
871.749	6852
871.879	6856
872.008	6977
872.138	6962
872.267	6981
872.397	6970
872.526	7019
872.656	7065
872.785	7187
872.915	7460
873.044	7499
873.173	7457
873.303	7624
873.432	7784
873.561	7947
873.69	7925
873.819	7978
873.948	8164
874.077	8256
874.206	8385
874.335	8457
874.464	8640
874.593	8864
874.722	8872
874.851	9142
874.979	9272
875.108	9279
875.237	9401
875.365	9500
875.494	9671
875.623	9873
875.751	9888
875.88	9941
876.008	10196
876.136	10306
876.265	10584
876.393	10736
876.521	10687
876.65	10774
876.778	10869
876.906	10885
877.034	11025
877.162	11132
877.29	11258
877.418	11277
877.546	11303
877.674	11448
877.802	11535
877.93	11528
878.058	11554
878.185	11592
878.313	11642
878.441	11714
878.568	11665
878.696	11863
878.824	11775
878.951	11836
879.079	11935
879.206	12197
879.333	12064
879.461	11927
879.588	12060
879.715	12095
879.842	12228
879.97	12022
880.097	11870
880.224	11893
880.351	11874
880.478	11863
880.605	11802
880.732	11885
880.859	11969
880.986	11779
881.112	11874
881.239	11699
881.366	11653
881.493	11608
881.619	11585
881.746	11691
881.872	11501
881.999	11566
882.125	11577
882.252	11547
882.378	11455
882.505	11486
882.631	11440
882.757	11299
882.883	11292
883.01	11273
883.136	11212
883.262	11060
883.388	11075
883.514	11223
883.64	11071
883.766	11132
883.892	10987
884.018	11022
884.143	11056
884.269	11113
884.395	10877
884.52	10778
884.646	10816
884.772	10702
884.897	10729
885.023	10710
885.148	10649
885.274	10748
885.399	10656
885.524	10607
885.65	10588
885.775	10577
885.9	10558
886.025	10580
886.15	10573
886.275	10443
886.4	10386
886.525	10440
886.65	10421
886.775	10363
886.9	10421
887.025	10584
887.149	10375
887.274	10291
887.399	10215
887.523	10139
887.648	10101
887.773	10105
887.897	10261
888.021	10181
888.146	10143
888.27	10177
888.395	10280
888.519	10200
888.643	10131
888.767	10169
888.891	9987
889.015	10006
889.139	10074
889.263	9873
889.387	10002
889.511	10158
889.635	10029
889.759	9968
889.883	10010
890.006	10067
890.13	10082
890.254	9987
890.377	9972
890.501	9892
890.624	9835
890.748	9926
890.871	9751
890.995	9770
891.118	9774
891.241	9724
891.364	9759
891.488	9816
891.611	9747
891.734	9762
891.857	9740
891.98	9751
892.103	9804
892.226	9747
892.349	9675
892.471	9534
892.594	9603
892.717	9572
892.839	9637
892.962	9538
893.085	9686
893.207	9603
893.33	9481
893.452	9530
893.575	9610
893.697	9458
893.819	9675
893.941	9652
894.064	9580
894.186	9424
894.308	9401
894.43	9545
894.552	9523
894.674	9473
894.796	9397
894.918	9481
895.04	9386
895.161	9397
895.283	9340
895.405	9245
895.526	9294
895.648	9207
895.769	9199
895.891	9317
896.012	9294
896.134	9180
896.255	9176
896.376	9165
896.498	9146
896.619	9108
896.74	9028
896.861	9131
896.982	9310
897.103	9355
897.224	9169
897.345	9036
897.466	9077
897.587	8990
897.708	9100
897.828	9036
897.949	8979
898.07	8876
898.19	8891
898.311	9009
898.431	8853
898.552	8971
898.672	8944
898.792	8929
898.913	8891
899.033	8819
899.153	8739
899.273	8686
899.393	8629
899.513	8769
899.633	8746
899.753	8758
899.873	8693
899.993	8800
900.113	8762
900.232	8735
900.352	8587
900.472	8590
900.591	8568
900.711	8590
900.83	8575
900.95	8598
901.069	8750
901.189	8526
901.308	8381
901.427	8454
901.546	8476
901.665	8412
901.784	8560
901.904	8370
902.023	8317
902.141	8240
902.26	8153
902.379	8252
902.498	8259
902.617	8164
902.735	8286
902.854	8263
902.973	8248
903.091	8119
903.21	8157
903.328	8142
903.446	8199
903.565	8119
903.683	8149
903.801	8050
903.919	8111
904.038	8134
904.156	8027
904.274	8077
904.392	8008
904.51	8043
904.627	8065
904.745	8111
904.863	8111
904.981	7894
905.098	7887
905.216	7879
905.334	7909
905.451	7959
905.569	7811
905.686	7940
905.803	7906
905.921	7761
906.038	7875
906.155	7803
906.272	7738
906.389	7681
906.506	7696
906.623	7559
906.74	7537
906.857	7518
906.974	7590
907.091	7658
907.208	7693
907.324	7636
907.441	7628
907.557	7499
907.674	7529
907.79	7369
907.907	7419
908.023	7460
908.139	7377
908.256	7392
908.372	7426
908.488	7369
908.604	7244
908.72	7289
908.836	7266
908.952	7228
909.068	7259
909.184	7301
909.3	7247
909.415	7316
909.531	7289
909.647	7118
909.762	7095
909.878	7137
909.993	7160
910.108	7110
910.224	7103
910.339	7164
910.454	7023
910.57	7050
910.685	6947
910.8	7213
910.915	7110
911.03	7042
911.145	6829
911.259	6837
911.374	6894
911.489	6852
911.604	6867
911.718	6703
911.833	6722
911.947	6650
912.062	6604
912.176	6711
912.291	6669
912.405	6738
912.519	6821
912.633	6867
912.748	6658
912.862	6688
912.976	6639
913.09	6570
913.204	6574
913.318	6623
913.431	6722
913.545	6662
913.659	6700
913.772	6608
913.886	6593
914	6570
914.113	6654
914.226	6608
914.34	6604
914.453	6509
914.566	6646
914.68	6559
914.793	6525
914.906	6460
915.019	6376
915.132	6338
915.245	6418
915.358	6407
915.47	6445
915.583	6483
915.696	6509
915.809	6521
915.921	6551
916.034	6441
916.146	6391
916.259	6403
916.371	6456
916.483	6483
916.595	6399
916.708	6331
916.82	6346
916.932	6372
917.044	6391
917.156	6407
917.268	6353
917.38	6346
917.491	6296
917.603	6361
917.715	6448
917.826	6441
917.938	6323
918.049	6232
918.161	6258
918.272	6418
918.384	6410
918.495	6323
918.606	6281
918.717	6197
918.828	6273
918.939	6228
919.05	6178
919.161	6251
919.272	6140
919.383	6136
919.494	6239
919.604	6422
919.715	6308
919.826	6209
919.936	6292
920.047	6300
920.157	6243
920.267	6441
920.378	6308
920.488	6304
920.598	6490
920.708	6616
920.818	6448
920.928	6418
921.038	6608
921.148	6536
921.258	6357
921.368	6251
921.477	6182
921.587	6175
921.697	6136
921.806	6201
921.916	6049
922.025	5999
922.134	5954
922.244	5885
922.353	5935
922.462	5874
922.571	5821
922.68	5699
922.789	5665
922.898	5691
923.007	5672
923.116	5661
923.224	5695
923.333	5676
923.442	5638
923.55	5589
923.659	5619
923.767	5608
923.876	5554
923.984	5619
924.092	5566
924.201	5566
924.309	5539
924.417	5573
924.525	5501
924.633	5524
924.741	6258
924.849	5379
924.956	5444
925.064	5372
925.172	5315
925.279	5337
925.387	5318
925.494	5360
925.602	5440
925.709	5391
925.816	5250
925.924	5280
926.031	5364
926.138	5265
926.245	5288
926.352	5181
926.459	5364
926.566	5337
926.673	5254
926.779	5143
926.886	5121
926.993	5067
927.099	5018
927.206	5010
927.312	4953
927.419	5029
927.525	5010
927.631	4972
927.737	4896
927.843	4862
927.95	4763
928.056	4801
928.162	4843
928.267	4889
928.373	5360
928.479	4820
928.585	4714
928.69	4816
928.796	4793
928.901	4668
929.007	4599
929.112	4653
929.218	4668
929.323	4637
929.428	4580
929.533	4714
929.638	4523
929.743	4546
929.848	4538
929.953	4527
930.058	4474
930.163	4322
930.267	4333
930.372	4447
930.477	4287
930.581	4504
930.685	4375
930.79	4249
930.894	4295
930.998	4280
931.103	4325
931.207	4158
931.311	4093
931.415	4010
931.519	3907
931.623	3979
