Data from glass_V78500241_412.txt Node
Date: Wed Sep 01 19:17:21 CST 2021
User: usil
Spectrometer: V785-0024
Trigger mode: 0
Integration Time (sec): 4.000000E-1
Scans to average: 1
Nonlinearity correction enabled: false
Boxcar width: 0
Storing dark spectrum: false
XAxis mode: Wavelengths
Number of Pixels in Spectrum: 1024
>>>>>Begin Spectral Data<<<<<
801.071	3751
801.214	3770
801.356	3724
801.499	3713
801.641	3743
801.783	3812
801.926	3850
802.068	3857
802.211	3873
802.353	3865
802.496	3854
802.638	3857
802.78	3903
802.923	3930
803.065	3915
803.208	3907
803.35	3884
803.492	3899
803.635	3937
803.777	3797
803.919	3896
804.061	4166
804.204	3968
804.346	3975
804.488	3937
804.63	4010
804.773	3987
804.915	4029
805.057	4207
805.199	4059
805.341	4071
805.483	4147
805.626	4169
805.768	4131
805.91	4242
806.052	4246
806.194	4207
806.336	4390
806.478	4204
806.62	4207
806.762	4177
806.904	4238
807.046	4329
807.188	4227
807.33	4169
807.472	4215
807.614	4215
807.756	4299
807.898	4223
808.04	4215
808.182	4253
808.324	4344
808.465	4375
808.607	4470
808.749	4481
808.891	4508
809.033	4485
809.174	4398
809.316	4284
809.458	4249
809.6	4150
809.741	4185
809.883	4169
810.025	4234
810.166	4249
810.308	4200
810.45	4238
810.591	4253
810.733	4295
810.875	4554
811.016	4854
811.158	5174
811.299	5239
811.441	5315
811.582	5109
811.724	4729
811.865	4500
812.007	4500
812.148	4443
812.29	4459
812.431	4402
812.573	4394
812.714	4398
812.855	4489
812.997	4459
813.138	4519
813.279	4443
813.421	4417
813.562	4405
813.703	4344
813.845	4367
813.986	4268
814.127	4223
814.268	4272
814.41	4337
814.551	4272
814.692	4348
814.833	4295
814.974	4329
815.115	4322
815.256	4249
815.397	4223
815.539	4272
815.68	4177
815.821	4200
815.962	4360
816.103	4314
816.244	4284
816.385	4246
816.526	4314
816.666	4227
816.807	4112
816.948	4204
817.089	4230
817.23	4124
817.371	4051
817.512	4048
817.653	4071
817.793	4025
817.934	4078
818.075	4074
818.216	4112
818.356	4082
818.497	3964
818.638	3873
818.778	3922
818.919	3896
819.06	3873
819.2	3960
819.341	3888
819.481	3876
819.622	3926
819.762	4021
819.903	3937
820.043	3850
820.184	3778
820.324	3842
820.465	3903
820.605	3846
820.746	3857
820.886	3842
821.026	3941
821.167	3934
821.307	4021
821.447	4006
821.588	3945
821.728	3972
821.868	3937
822.008	3903
822.149	3880
822.289	3937
822.429	3793
822.569	3793
822.709	3842
822.849	3743
822.99	3690
823.13	3766
823.27	3774
823.41	3717
823.55	3755
823.69	3747
823.83	3755
823.97	3698
824.11	3599
824.25	3629
824.389	3660
824.529	3679
824.669	3633
824.809	3762
824.949	3762
825.089	3728
825.228	3717
825.368	3576
825.508	3606
825.648	3603
825.787	3625
825.927	3671
826.067	3660
826.206	3694
826.346	3804
826.485	3854
826.625	3880
826.765	3972
826.904	3869
827.044	3614
827.183	3549
827.323	3462
827.462	3523
827.601	3420
827.741	3450
827.88	3492
828.02	3409
828.159	3389
828.298	3462
828.437	3519
828.577	3477
828.716	3622
828.855	3557
828.994	3370
829.134	3344
829.273	3424
829.412	3367
829.551	3340
829.69	3370
829.829	3454
829.968	3526
830.107	3466
830.246	3405
830.385	3412
830.524	3340
830.663	3294
830.802	3264
830.941	3218
831.08	3230
831.219	3291
831.357	3272
831.496	3409
831.635	3249
831.774	3195
831.913	3199
832.051	3123
832.19	3195
832.329	3226
832.467	3138
832.606	3116
832.744	3173
832.883	3203
833.022	3226
833.16	3291
833.299	3291
833.437	3378
833.576	3405
833.714	3420
833.852	3462
833.991	3439
834.129	3488
834.267	3420
834.406	3397
834.544	3443
834.682	3401
834.821	3439
834.959	3572
835.097	3428
835.235	3542
835.373	3485
835.511	3523
835.65	3504
835.788	3477
835.926	3443
836.064	3393
836.202	3420
836.34	3580
836.478	3622
836.615	3603
836.753	3599
836.891	3660
837.029	3595
837.167	3584
837.305	3561
837.443	3595
837.58	3511
837.718	3599
837.856	3515
837.993	3591
838.131	3580
838.269	3595
838.406	3599
838.544	3599
838.681	3504
838.819	3481
838.956	3431
839.094	3409
839.231	3469
839.369	3549
839.506	3717
839.643	3637
839.781	3485
839.918	3477
840.055	3576
840.193	3530
840.33	3511
840.467	3572
840.604	3656
840.742	3850
840.879	3553
841.016	3572
841.153	3568
841.29	3762
841.427	3701
841.564	3747
841.701	3766
841.838	3675
841.975	3648
842.112	3724
842.249	3629
842.385	3637
842.522	3835
842.659	3694
842.796	3663
842.933	3705
843.069	3740
843.206	3720
843.343	3797
843.479	3816
843.616	3800
843.752	3644
843.889	3709
844.025	3865
844.162	3705
844.298	3857
844.435	3800
844.571	3759
844.708	3949
844.844	3983
844.98	4082
845.117	4021
845.253	3911
845.389	3960
845.525	3964
845.661	4025
845.798	3930
845.934	4055
846.07	3975
846.206	4059
846.342	4150
846.478	4063
846.614	3975
846.75	3964
846.886	3911
847.022	4040
847.158	3960
847.294	4010
847.429	4059
847.565	3975
847.701	4253
847.837	3892
847.972	3892
848.108	4029
848.244	3975
848.379	3857
848.515	3850
848.65	3835
848.786	3907
848.921	3903
849.057	3949
849.192	3975
849.328	3926
849.463	3953
849.598	3842
849.734	3857
849.869	3846
850.004	3808
850.14	3861
850.275	3800
850.41	3766
850.545	3747
850.68	3838
850.815	3800
850.95	3762
851.085	3941
851.22	3838
851.355	3884
851.49	3819
851.625	3808
851.76	3762
851.895	3732
852.03	3732
852.165	3785
852.299	3827
852.434	3903
852.569	3869
852.703	3880
852.838	3960
852.973	4010
853.107	4017
853.242	3926
853.376	3880
853.511	3812
853.645	3857
853.78	3968
853.914	3892
854.048	3907
854.183	3911
854.317	3934
854.451	4074
854.585	3979
854.72	3987
854.854	4059
854.988	3941
855.122	4017
855.256	3922
855.39	4044
855.524	4143
855.658	4101
855.792	4071
855.926	4150
856.06	4154
856.194	4173
856.327	4139
856.461	4158
856.595	4162
856.729	4196
856.862	4291
856.996	4253
857.13	4276
857.263	4390
857.397	4360
857.53	4310
857.664	4398
857.797	4402
857.931	4417
858.064	4379
858.197	4478
858.331	4481
858.464	4367
858.597	4367
858.731	4451
858.864	4500
858.997	4440
859.13	4508
859.263	4565
859.396	4554
859.529	4538
859.662	4531
859.795	4565
859.928	4611
860.061	4649
860.194	4736
860.327	4664
860.46	4656
860.592	4744
860.725	4771
860.858	4740
860.99	4637
861.123	4706
861.256	4714
861.388	4752
861.521	5406
861.653	4744
861.786	4706
861.918	4782
862.05	4812
862.183	4839
862.315	4908
862.447	4923
862.58	4915
862.712	4847
862.844	4774
862.976	4854
863.108	4904
863.24	5250
863.372	4854
863.504	4908
863.636	4934
863.768	4999
863.9	4949
864.032	4915
864.164	4949
864.296	5048
864.428	5124
864.559	5159
864.691	5140
864.823	5128
864.954	5102
865.086	5185
865.217	5105
865.349	5105
865.48	5181
865.612	5204
865.743	5337
865.875	5174
866.006	5227
866.137	5265
866.269	5292
866.4	5250
866.531	5288
866.662	5242
866.793	5269
866.924	5334
867.055	5357
867.186	5360
867.317	5299
867.448	5326
867.579	5440
867.71	5360
867.841	5444
867.972	5402
868.103	5417
868.233	5478
868.364	5478
868.495	5543
868.625	5653
868.756	5771
868.886	5680
869.017	5741
869.147	5805
869.278	5832
869.408	5832
869.539	5855
869.669	5923
869.799	5901
869.929	5988
870.06	6030
870.19	6178
870.32	6232
870.45	6232
870.58	6361
870.71	6372
870.84	6475
870.97	6452
871.1	6429
871.23	6677
871.36	6673
871.489	6696
871.619	6753
871.749	6806
871.879	6829
872.008	6970
872.138	6954
872.267	7012
872.397	6996
872.526	7019
872.656	7080
872.785	7221
872.915	7400
873.044	7491
873.173	7499
873.303	7700
873.432	7685
873.561	7887
873.69	7921
873.819	8065
873.948	8145
874.077	8313
874.206	8347
874.335	8469
874.464	8686
874.593	8804
874.722	8918
874.851	9119
874.979	9363
875.108	9336
875.237	9526
875.365	9477
875.494	9682
875.623	9899
875.751	9857
875.88	9937
876.008	10158
876.136	10322
876.265	10504
876.393	10675
876.521	10668
876.65	10854
876.778	10938
876.906	10911
877.034	11003
877.162	11071
877.29	11178
877.418	11311
877.546	11402
877.674	11436
877.802	11455
877.93	11509
878.058	11543
878.185	11581
878.313	11638
878.441	11733
878.568	11684
878.696	11771
878.824	11855
878.951	11935
879.079	11961
879.206	12205
879.333	12019
879.461	11916
879.588	12106
879.715	12060
879.842	12273
879.97	12095
880.097	11832
880.224	11870
880.351	11889
880.478	11931
880.605	11843
880.732	11813
880.859	12015
880.986	11805
881.112	11885
881.239	11707
881.366	11642
881.493	11623
881.619	11577
881.746	11539
881.872	11539
881.999	11589
882.125	11493
882.252	11532
882.378	11570
882.505	11497
882.631	11376
882.757	11258
882.883	11246
883.01	11174
883.136	11185
883.262	11155
883.388	11109
883.514	11269
883.64	11216
883.766	11109
883.892	10999
884.018	10991
884.143	11121
884.269	11147
884.395	10828
884.52	10774
884.646	10828
884.772	10637
884.897	10714
885.023	10774
885.148	10755
885.274	10740
885.399	10714
885.524	10634
885.65	10618
885.775	10592
885.9	10569
886.025	10565
886.15	10478
886.275	10440
886.4	10417
886.525	10455
886.65	10341
886.775	10375
886.9	10516
887.025	10538
887.149	10306
887.274	10230
887.399	10147
887.523	10204
887.648	10192
887.773	10135
887.897	10211
888.021	10219
888.146	10204
888.27	10242
888.395	10223
888.519	10188
888.643	10166
888.767	10192
888.891	10090
889.015	9983
889.139	10059
889.263	9915
889.387	10093
889.511	10154
889.635	10120
889.759	10040
889.883	9972
890.006	10074
890.13	10093
890.254	9899
890.377	9979
890.501	9835
890.624	9918
890.748	9880
890.871	9899
890.995	9770
891.118	9724
891.241	9766
891.364	9724
891.488	9762
891.611	9751
891.734	9812
891.857	9713
891.98	9793
892.103	9884
892.226	9705
892.349	9728
892.471	9553
892.594	9603
892.717	9652
892.839	9648
892.962	9614
893.085	9576
893.207	9591
893.33	9523
893.452	9511
893.575	9644
893.697	9462
893.819	9671
893.941	9690
894.064	9564
894.186	9420
894.308	9332
894.43	9496
894.552	9591
894.674	9507
894.796	9401
894.918	9370
895.04	9370
895.161	9485
895.283	9325
895.405	9211
895.526	9279
895.648	9291
895.769	9203
895.891	9268
896.012	9283
896.134	9226
896.255	9207
896.376	9161
896.498	9165
896.619	9043
896.74	9070
896.861	9093
896.982	9245
897.103	9374
897.224	9188
897.345	9024
897.466	9039
897.587	9013
897.708	9135
897.828	9112
897.949	8979
898.07	8941
898.19	8948
898.311	9100
898.431	8876
898.552	8925
898.672	8979
898.792	8925
898.913	8956
899.033	8830
899.153	8701
899.273	8651
899.393	8712
899.513	8705
899.633	8754
899.753	8739
899.873	8701
899.993	8716
900.113	8705
900.232	8731
900.352	8735
900.472	8621
900.591	8560
900.711	8697
900.83	8606
900.95	8667
901.069	8743
901.189	8590
901.308	8457
901.427	8431
901.546	8381
901.665	8503
901.784	8488
901.904	8370
902.023	8294
902.141	8252
902.26	8210
902.379	8267
902.498	8206
902.617	8328
902.735	8351
902.854	8332
902.973	8214
903.091	8119
903.21	8191
903.328	8187
903.446	8130
903.565	8065
903.683	8172
903.801	8027
903.919	8103
904.038	8103
904.156	8016
904.274	8138
904.392	8054
904.51	8012
904.627	8153
904.745	8107
904.863	8126
904.981	7970
905.098	7925
905.216	7868
905.334	7974
905.451	7894
905.569	7909
905.686	7974
905.803	7989
905.921	7772
906.038	7875
906.155	7761
906.272	7693
906.389	7704
906.506	7708
906.623	7647
906.74	7624
906.857	7552
906.974	7540
907.091	7613
907.208	7753
907.324	7616
907.441	7575
907.557	7457
907.674	7441
907.79	7438
907.907	7384
908.023	7434
908.139	7422
908.256	7365
908.372	7343
908.488	7445
908.604	7312
908.72	7278
908.836	7270
908.952	7255
909.068	7297
909.184	7327
909.3	7278
909.415	7247
909.531	7320
909.647	7122
909.762	7088
909.878	7164
909.993	7141
910.108	7050
910.224	7072
910.339	7080
910.454	7000
910.57	6962
910.685	6928
910.8	7190
910.915	7091
911.03	7072
911.145	6920
911.259	6818
911.374	6878
911.489	6806
911.604	6833
911.718	6726
911.833	6760
911.947	6715
912.062	6604
912.176	6768
912.291	6726
912.405	6707
912.519	6840
912.633	6810
912.748	6757
912.862	6662
912.976	6616
913.09	6506
913.204	6684
913.318	6642
913.431	6662
913.545	6738
913.659	6719
913.772	6646
913.886	6585
914	6582
914.113	6620
914.226	6677
914.34	6658
914.453	6525
914.566	6559
914.68	6513
914.793	6532
914.906	6426
915.019	6384
915.132	6376
915.245	6410
915.358	6456
915.47	6490
915.583	6483
915.696	6471
915.809	6574
915.921	6525
916.034	6467
916.146	6441
916.259	6342
916.371	6437
916.483	6410
916.595	6433
916.708	6399
916.82	6448
916.932	6445
917.044	6448
917.156	6384
917.268	6357
917.38	6380
917.491	6338
917.603	6391
917.715	6395
917.826	6399
917.938	6315
918.049	6232
918.161	6338
918.272	6414
918.384	6399
918.495	6350
918.606	6247
918.717	6224
918.828	6243
918.939	6315
919.05	6194
919.161	6262
919.272	6155
919.383	6091
919.494	6281
919.604	6502
919.715	6350
919.826	6171
919.936	6224
920.047	6452
920.157	6331
920.267	6494
920.378	6350
920.488	6292
920.598	6506
920.708	6528
920.818	6452
920.928	6490
921.038	6623
921.148	6574
921.258	6407
921.368	6315
921.477	6213
921.587	6190
921.697	6083
921.806	6182
921.916	6152
922.025	5973
922.134	5939
922.244	5908
922.353	5946
922.462	5897
922.571	5821
922.68	5680
922.789	5703
922.898	5726
923.007	5638
923.116	5760
923.224	5688
923.333	5680
923.442	5668
923.55	5589
923.659	5581
923.767	5653
923.876	5562
923.984	5642
924.092	5463
924.201	5543
924.309	5554
924.417	5570
924.525	5482
924.633	5474
924.741	6258
924.849	5414
924.956	5516
925.064	5368
925.172	5318
925.279	5311
925.387	5353
925.494	5353
925.602	5436
925.709	5402
925.816	5345
925.924	5364
926.031	5364
926.138	5345
926.245	5341
926.352	5239
926.459	5364
926.566	5345
926.673	5242
926.779	5094
926.886	5136
926.993	5048
927.099	5045
927.206	5003
927.312	4911
927.419	5029
927.525	5025
927.631	4942
927.737	4843
927.843	4870
927.95	4790
928.056	4797
928.162	4862
928.267	4866
928.373	5311
928.479	4885
928.585	4714
928.69	4801
928.796	4774
928.901	4725
929.007	4596
929.112	4683
929.218	4607
929.323	4622
929.428	4538
929.533	4687
929.638	4538
929.743	4584
929.848	4565
929.953	4516
930.058	4470
930.163	4337
930.267	4352
930.372	4462
930.477	4375
930.581	4451
930.685	4375
930.79	4272
930.894	4227
930.998	4265
931.103	4466
931.207	4139
931.311	4067
931.415	4071
931.519	3956
931.623	3926
