Data from glass_V78500241_1945.txt Node
Date: Wed Sep 01 19:27:59 CST 2021
User: usil
Spectrometer: V785-0024
Trigger mode: 0
Integration Time (sec): 4.000000E-1
Scans to average: 1
Nonlinearity correction enabled: false
Boxcar width: 0
Storing dark spectrum: false
XAxis mode: Wavelengths
Number of Pixels in Spectrum: 1024
>>>>>Begin Spectral Data<<<<<
801.071	3759
801.214	3778
801.356	3728
801.499	3762
801.641	3732
801.783	3827
801.926	3892
802.068	3835
802.211	3850
802.353	3911
802.496	3804
802.638	3854
802.78	3911
802.923	3956
803.065	3907
803.208	3823
803.35	3861
803.492	3869
803.635	3896
803.777	3804
803.919	3861
804.061	4128
804.204	3968
804.346	3937
804.488	3926
804.63	4002
804.773	3953
804.915	3998
805.057	4086
805.199	4044
805.341	4093
805.483	4109
805.626	4093
805.768	4101
805.91	4158
806.052	4249
806.194	4219
806.336	4303
806.478	4192
806.62	4154
806.762	4192
806.904	4234
807.046	4329
807.188	4207
807.33	4139
807.472	4185
807.614	4173
807.756	4242
807.898	4188
808.04	4207
808.182	4265
808.324	4341
808.465	4383
808.607	4459
808.749	4436
808.891	4470
809.033	4516
809.174	4356
809.316	4276
809.458	4257
809.6	4147
809.741	4086
809.883	4101
810.025	4204
810.166	4223
810.308	4173
810.45	4246
810.591	4204
810.733	4268
810.875	4504
811.016	4812
811.158	5189
811.299	5265
811.441	5315
811.582	5124
811.724	4683
811.865	4519
812.007	4481
812.148	4409
812.29	4462
812.431	4421
812.573	4367
812.714	4383
812.855	4413
812.997	4417
813.138	4485
813.279	4440
813.421	4341
813.562	4367
813.703	4314
813.845	4333
813.986	4246
814.127	4219
814.268	4238
814.41	4249
814.551	4234
814.692	4314
814.833	4257
814.974	4303
815.115	4344
815.256	4181
815.397	4272
815.539	4234
815.68	4192
815.821	4185
815.962	4318
816.103	4230
816.244	4219
816.385	4253
816.526	4246
816.666	4200
816.807	4112
816.948	4147
817.089	4169
817.23	4086
817.371	4086
817.512	4051
817.653	4040
817.793	4040
817.934	4029
818.075	4112
818.216	4086
818.356	4112
818.497	3983
818.638	3880
818.778	3896
818.919	3915
819.06	3888
819.2	3880
819.341	3865
819.481	3838
819.622	3979
819.762	4055
819.903	3983
820.043	3884
820.184	3892
820.324	3804
820.465	3876
820.605	3850
820.746	3896
820.886	3812
821.026	3884
821.167	3880
821.307	3915
821.447	4006
821.588	3949
821.728	3934
821.868	3918
822.008	3869
822.149	3918
822.289	3896
822.429	3778
822.569	3724
822.709	3789
822.849	3694
822.99	3705
823.13	3720
823.27	3778
823.41	3743
823.55	3698
823.69	3720
823.83	3785
823.97	3679
824.11	3633
824.25	3606
824.389	3618
824.529	3633
824.669	3644
824.809	3694
824.949	3736
825.089	3694
825.228	3686
825.368	3584
825.508	3523
825.648	3564
825.787	3572
825.927	3648
826.067	3572
826.206	3679
826.346	3762
826.485	3785
826.625	3857
826.765	3960
826.904	3831
827.044	3606
827.183	3504
827.323	3428
827.462	3507
827.601	3439
827.741	3473
827.88	3473
828.02	3344
828.159	3469
828.298	3477
828.437	3561
828.577	3481
828.716	3580
828.855	3481
828.994	3355
829.134	3397
829.273	3351
829.412	3348
829.551	3336
829.69	3393
829.829	3409
829.968	3511
830.107	3428
830.246	3401
830.385	3412
830.524	3336
830.663	3298
830.802	3230
830.941	3214
831.08	3150
831.219	3260
831.357	3253
831.496	3397
831.635	3226
831.774	3188
831.913	3188
832.051	3100
832.19	3127
832.329	3207
832.467	3169
832.606	3119
832.744	3157
832.883	3176
833.022	3218
833.16	3272
833.299	3313
833.437	3332
833.576	3351
833.714	3416
833.852	3416
833.991	3466
834.129	3473
834.267	3405
834.406	3355
834.544	3405
834.682	3447
834.821	3409
834.959	3580
835.097	3473
835.235	3519
835.373	3477
835.511	3530
835.65	3443
835.788	3549
835.926	3424
836.064	3363
836.202	3393
836.34	3591
836.478	3591
836.615	3507
836.753	3580
836.891	3663
837.029	3614
837.167	3606
837.305	3568
837.443	3564
837.58	3450
837.718	3603
837.856	3557
837.993	3549
838.131	3622
838.269	3580
838.406	3580
838.544	3576
838.681	3450
838.819	3443
838.956	3329
839.094	3355
839.231	3416
839.369	3473
839.506	3675
839.643	3644
839.781	3504
839.918	3435
840.055	3488
840.193	3553
840.33	3542
840.467	3584
840.604	3587
840.742	3827
840.879	3549
841.016	3553
841.153	3580
841.29	3736
841.427	3694
841.564	3736
841.701	3751
841.838	3709
841.975	3667
842.112	3740
842.249	3633
842.385	3660
842.522	3812
842.659	3675
842.796	3660
842.933	3679
843.069	3694
843.206	3690
843.343	3838
843.479	3789
843.616	3797
843.752	3660
843.889	3663
844.025	3827
844.162	3705
844.298	3861
844.435	3781
844.571	3759
844.708	3926
844.844	3956
844.98	4021
845.117	4017
845.253	3930
845.389	3865
845.525	3911
845.661	3983
845.798	3873
845.934	3987
846.07	3911
846.206	4017
846.342	4078
846.478	4135
846.614	3968
846.75	3907
846.886	3903
847.022	4032
847.158	3949
847.294	3972
847.429	3991
847.565	3998
847.701	4268
847.837	3918
847.972	3884
848.108	3975
848.244	3930
848.379	3857
848.515	3808
848.65	3751
848.786	3808
848.921	3896
849.057	3892
849.192	3934
849.328	3915
849.463	3865
849.598	3873
849.734	3842
849.869	3842
850.004	3740
850.14	3770
850.275	3797
850.41	3686
850.545	3751
850.68	3781
850.815	3800
850.95	3785
851.085	3903
851.22	3896
851.355	3808
851.49	3797
851.625	3759
851.76	3789
851.895	3751
852.03	3701
852.165	3751
852.299	3827
852.434	3922
852.569	3861
852.703	3846
852.838	3930
852.973	3972
853.107	3937
853.242	3911
853.376	3876
853.511	3762
853.645	3854
853.78	3964
853.914	3907
854.048	3888
854.183	3876
854.317	3907
854.451	4074
854.585	3937
854.72	3964
854.854	4044
854.988	3949
855.122	4002
855.256	3903
855.39	4017
855.524	4059
855.658	4063
855.792	4093
855.926	4185
856.06	4177
856.194	4207
856.327	4150
856.461	4139
856.595	4128
856.729	4181
856.862	4234
856.996	4272
857.13	4306
857.263	4348
857.397	4363
857.53	4291
857.664	4352
857.797	4341
857.931	4409
858.064	4402
858.197	4421
858.331	4386
858.464	4360
858.597	4337
858.731	4466
858.864	4474
858.997	4474
859.13	4508
859.263	4470
859.396	4577
859.529	4546
859.662	4561
859.795	4523
859.928	4577
860.061	4729
860.194	4740
860.327	4634
860.46	4653
860.592	4736
860.725	4748
860.858	4717
860.99	4702
861.123	4675
861.256	4683
861.388	4816
861.521	5402
861.653	4694
861.786	4725
861.918	4755
862.05	4774
862.183	4828
862.315	4854
862.447	4961
862.58	4870
862.712	4824
862.844	4736
862.976	4877
863.108	4862
863.24	5174
863.372	4843
863.504	4900
863.636	4930
863.768	4965
863.9	4965
864.032	4889
864.164	4995
864.296	5014
864.428	5086
864.559	5094
864.691	5098
864.823	5136
864.954	5056
865.086	5178
865.217	5128
865.349	5079
865.48	5178
865.612	5201
865.743	5284
865.875	5242
866.006	5181
866.137	5235
866.269	5239
866.4	5231
866.531	5250
866.662	5254
866.793	5284
866.924	5280
867.055	5353
867.186	5322
867.317	5357
867.448	5292
867.579	5387
867.71	5334
867.841	5357
867.972	5467
868.103	5436
868.233	5505
868.364	5482
868.495	5535
868.625	5688
868.756	5733
868.886	5653
869.017	5741
869.147	5866
869.278	5931
869.408	5760
869.539	5779
869.669	5950
869.799	5874
869.929	5965
870.06	6003
870.19	6209
870.32	6239
870.45	6216
870.58	6365
870.71	6399
870.84	6467
870.97	6445
871.1	6395
871.23	6585
871.36	6726
871.489	6665
871.619	6764
871.749	6798
871.879	6897
872.008	6951
872.138	6943
872.267	6996
872.397	7042
872.526	7015
872.656	7126
872.785	7213
872.915	7373
873.044	7540
873.173	7544
873.303	7647
873.432	7784
873.561	7909
873.69	7909
873.819	7989
873.948	8142
874.077	8153
874.206	8298
874.335	8385
874.464	8640
874.593	8906
874.722	8918
874.851	9093
874.979	9180
875.108	9382
875.237	9397
875.365	9488
875.494	9606
875.623	9797
875.751	9842
875.88	9987
876.008	10150
876.136	10238
876.265	10512
876.393	10675
876.521	10733
876.65	10725
876.778	10923
876.906	10923
877.034	10927
877.162	11029
877.29	11136
877.418	11261
877.546	11265
877.674	11402
877.802	11455
877.93	11577
878.058	11570
878.185	11554
878.313	11657
878.441	11779
878.568	11649
878.696	11748
878.824	11882
878.951	11874
879.079	12015
879.206	12117
879.333	12038
879.461	11992
879.588	12076
879.715	12140
879.842	12228
879.97	12057
880.097	11916
880.224	11870
880.351	11764
880.478	11923
880.605	11863
880.732	11866
880.859	11977
880.986	11805
881.112	11847
881.239	11737
881.366	11688
881.493	11623
881.619	11570
881.746	11539
881.872	11585
881.999	11493
882.125	11459
882.252	11573
882.378	11581
882.505	11589
882.631	11330
882.757	11288
882.883	11360
883.01	11231
883.136	11254
883.262	11105
883.388	11090
883.514	11166
883.64	11147
883.766	11079
883.892	10946
884.018	10908
884.143	11041
884.269	11181
884.395	10790
884.52	10801
884.646	10702
884.772	10778
884.897	10645
885.023	10645
885.148	10710
885.274	10797
885.399	10748
885.524	10706
885.65	10584
885.775	10554
885.9	10512
886.025	10504
886.15	10565
886.275	10405
886.4	10394
886.525	10405
886.65	10325
886.775	10371
886.9	10432
887.025	10508
887.149	10360
887.274	10295
887.399	10223
887.523	10204
887.648	10150
887.773	10078
887.897	10169
888.021	10230
888.146	10051
888.27	10246
888.395	10234
888.519	10090
888.643	10120
888.767	10181
888.891	9994
889.015	10044
889.139	10025
889.263	9949
889.387	9975
889.511	10067
889.635	10063
889.759	9964
889.883	9934
890.006	9987
890.13	10086
890.254	9979
890.377	10032
890.501	9915
890.624	9892
890.748	9945
890.871	9759
890.995	9728
891.118	9682
891.241	9743
891.364	9667
891.488	9781
891.611	9785
891.734	9656
891.857	9778
891.98	9759
892.103	9808
892.226	9724
892.349	9675
892.471	9542
892.594	9671
892.717	9591
892.839	9595
892.962	9595
893.085	9633
893.207	9595
893.33	9504
893.452	9454
893.575	9568
893.697	9466
893.819	9644
893.941	9595
894.064	9545
894.186	9450
894.308	9401
894.43	9500
894.552	9561
894.674	9492
894.796	9329
894.918	9412
895.04	9325
895.161	9336
895.283	9332
895.405	9230
895.526	9306
895.648	9253
895.769	9192
895.891	9283
896.012	9279
896.134	9097
896.255	9188
896.376	9127
896.498	9214
896.619	9093
896.74	9024
896.861	9013
896.982	9268
897.103	9275
897.224	9081
897.345	9009
897.466	9043
897.587	8979
897.708	9058
897.828	9013
897.949	8963
898.07	8864
898.19	8929
898.311	9024
898.431	8883
898.552	8941
898.672	8956
898.792	8921
898.913	8838
899.033	8815
899.153	8670
899.273	8651
899.393	8621
899.513	8708
899.633	8686
899.753	8708
899.873	8739
899.993	8716
900.113	8758
900.232	8754
900.352	8575
900.472	8655
900.591	8488
900.711	8632
900.83	8564
900.95	8655
901.069	8651
901.189	8545
901.308	8457
901.427	8393
901.546	8415
901.665	8514
901.784	8484
901.904	8282
902.023	8267
902.141	8305
902.26	8221
902.379	8221
902.498	8172
902.617	8229
902.735	8313
902.854	8240
902.973	8305
903.091	8145
903.21	8157
903.328	8183
903.446	8123
903.565	8088
903.683	8058
903.801	8130
903.919	8081
904.038	8145
904.156	8012
904.274	8111
904.392	8054
904.51	8077
904.627	8054
904.745	8039
904.863	8058
904.981	7947
905.098	7871
905.216	7807
905.334	7826
905.451	7845
905.569	7849
905.686	7932
905.803	7913
905.921	7788
906.038	7913
906.155	7772
906.272	7723
906.389	7727
906.506	7696
906.623	7616
906.74	7647
906.857	7548
906.974	7670
907.091	7651
907.208	7704
907.324	7563
907.441	7590
907.557	7460
907.674	7502
907.79	7396
907.907	7400
908.023	7487
908.139	7411
908.256	7365
908.372	7438
908.488	7346
908.604	7217
908.72	7232
908.836	7259
908.952	7206
909.068	7221
909.184	7335
909.3	7171
909.415	7255
909.531	7270
909.647	7099
909.762	7156
909.878	7042
909.993	7137
910.108	7091
910.224	7065
910.339	7099
910.454	7084
910.57	6913
910.685	6970
910.8	7149
910.915	7061
911.03	7034
911.145	6920
911.259	6837
911.374	6863
911.489	6787
911.604	6764
911.718	6707
911.833	6760
911.947	6681
912.062	6635
912.176	6719
912.291	6700
912.405	6757
912.519	6821
912.633	6806
912.748	6753
912.862	6719
912.976	6635
913.09	6544
913.204	6631
913.318	6551
913.431	6612
913.545	6700
913.659	6692
913.772	6623
913.886	6635
914	6532
914.113	6612
914.226	6623
914.34	6593
914.453	6471
914.566	6623
914.68	6517
914.793	6525
914.906	6395
915.019	6407
915.132	6384
915.245	6460
915.358	6399
915.47	6433
915.583	6479
915.696	6467
915.809	6502
915.921	6540
916.034	6407
916.146	6376
916.259	6365
916.371	6384
916.483	6475
916.595	6365
916.708	6414
916.82	6391
916.932	6342
917.044	6338
917.156	6407
917.268	6311
917.38	6289
917.491	6315
917.603	6365
917.715	6327
917.826	6369
917.938	6327
918.049	6262
918.161	6292
918.272	6456
918.384	6445
918.495	6346
918.606	6220
918.717	6144
918.828	6296
918.939	6331
919.05	6159
919.161	6292
919.272	6083
919.383	6152
919.494	6319
919.604	6384
919.715	6308
919.826	6186
919.936	6232
920.047	6391
920.157	6258
920.267	6437
920.378	6300
920.488	6251
920.598	6445
920.708	6536
920.818	6498
920.928	6372
921.038	6601
921.148	6517
921.258	6346
921.368	6323
921.477	6243
921.587	6194
921.697	6087
921.806	6167
921.916	6034
922.025	5939
922.134	5931
922.244	5901
922.353	5931
922.462	5882
922.571	5786
922.68	5668
922.789	5737
922.898	5699
923.007	5627
923.116	5741
923.224	5684
923.333	5634
923.442	5627
923.55	5543
923.659	5554
923.767	5604
923.876	5512
923.984	5524
924.092	5512
924.201	5478
924.309	5573
924.417	5558
924.525	5520
924.633	5486
924.741	6239
924.849	5330
924.956	5539
925.064	5337
925.172	5288
925.279	5280
925.387	5376
925.494	5288
925.602	5402
925.709	5368
925.816	5296
925.924	5326
926.031	5330
926.138	5322
926.245	5379
926.352	5212
926.459	5311
926.566	5341
926.673	5216
926.779	5075
926.886	5079
926.993	5071
927.099	5014
927.206	4987
927.312	4919
927.419	5014
927.525	5003
927.631	5003
927.737	4862
927.843	4877
927.95	4759
928.056	4790
928.162	4828
928.267	4866
928.373	5326
928.479	4824
928.585	4683
928.69	4790
928.796	4744
928.901	4714
929.007	4577
929.112	4668
929.218	4611
929.323	4599
929.428	4592
929.533	4664
929.638	4519
929.743	4558
929.848	4542
929.953	4508
930.058	4409
930.163	4318
930.267	4333
930.372	4383
930.477	4287
930.581	4466
930.685	4360
930.79	4238
930.894	4265
930.998	4284
931.103	4375
931.207	4105
931.311	4063
931.415	4055
931.519	3888
931.623	3979
