Data from glass_V78500241_437.txt Node
Date: Wed Sep 01 19:17:31 CST 2021
User: usil
Spectrometer: V785-0024
Trigger mode: 0
Integration Time (sec): 4.000000E-1
Scans to average: 1
Nonlinearity correction enabled: false
Boxcar width: 0
Storing dark spectrum: false
XAxis mode: Wavelengths
Number of Pixels in Spectrum: 1024
>>>>>Begin Spectral Data<<<<<
801.071	3766
801.214	3751
801.356	3679
801.499	3774
801.641	3766
801.783	3762
801.926	3873
802.068	3888
802.211	3888
802.353	3892
802.496	3876
802.638	3888
802.78	3857
802.923	3918
803.065	3918
803.208	3869
803.35	3884
803.492	3915
803.635	3930
803.777	3842
803.919	3892
804.061	4131
804.204	3926
804.346	3964
804.488	3941
804.63	4044
804.773	3945
804.915	4074
805.057	4158
805.199	4051
805.341	4139
805.483	4128
805.626	4158
805.768	4150
805.91	4219
806.052	4227
806.194	4166
806.336	4352
806.478	4246
806.62	4150
806.762	4188
806.904	4253
807.046	4379
807.188	4234
807.33	4192
807.472	4257
807.614	4257
807.756	4280
807.898	4238
808.04	4253
808.182	4306
808.324	4352
808.465	4375
808.607	4474
808.749	4500
808.891	4485
809.033	4500
809.174	4428
809.316	4227
809.458	4303
809.6	4169
809.741	4196
809.883	4173
810.025	4200
810.166	4188
810.308	4192
810.45	4223
810.591	4272
810.733	4280
810.875	4497
811.016	4812
811.158	5174
811.299	5296
811.441	5303
811.582	5064
811.724	4759
811.865	4447
812.007	4504
812.148	4459
812.29	4405
812.431	4417
812.573	4432
812.714	4379
812.855	4398
812.997	4428
813.138	4516
813.279	4421
813.421	4432
813.562	4375
813.703	4310
813.845	4341
813.986	4276
814.127	4246
814.268	4268
814.41	4280
814.551	4253
814.692	4367
814.833	4287
814.974	4265
815.115	4371
815.256	4303
815.397	4238
815.539	4227
815.68	4215
815.821	4238
815.962	4322
816.103	4280
816.244	4299
816.385	4238
816.526	4265
816.666	4268
816.807	4150
816.948	4177
817.089	4139
817.23	4128
817.371	4071
817.512	4090
817.653	4063
817.793	4025
817.934	4032
818.075	4071
818.216	4063
818.356	4158
818.497	3994
818.638	3915
818.778	3934
818.919	3930
819.06	3899
819.2	3930
819.341	3869
819.481	3842
819.622	3930
819.762	4002
819.903	3949
820.043	3873
820.184	3831
820.324	3793
820.465	3865
820.605	3873
820.746	3865
820.886	3808
821.026	3960
821.167	3945
821.307	4006
821.447	3991
821.588	3960
821.728	3960
821.868	3975
822.008	3838
822.149	3918
822.289	3884
822.429	3789
822.569	3743
822.709	3808
822.849	3728
822.99	3736
823.13	3755
823.27	3808
823.41	3705
823.55	3713
823.69	3724
823.83	3743
823.97	3686
824.11	3656
824.25	3633
824.389	3675
824.529	3690
824.669	3656
824.809	3713
824.949	3774
825.089	3728
825.228	3743
825.368	3606
825.508	3572
825.648	3591
825.787	3610
825.927	3637
826.067	3652
826.206	3671
826.346	3808
826.485	3854
826.625	3857
826.765	3975
826.904	3869
827.044	3622
827.183	3534
827.323	3466
827.462	3492
827.601	3424
827.741	3485
827.88	3466
828.02	3359
828.159	3454
828.298	3526
828.437	3534
828.577	3450
828.716	3614
828.855	3564
828.994	3378
829.134	3378
829.273	3424
829.412	3344
829.551	3313
829.69	3416
829.829	3424
829.968	3534
830.107	3454
830.246	3466
830.385	3382
830.524	3378
830.663	3306
830.802	3306
830.941	3237
831.08	3230
831.219	3302
831.357	3317
831.496	3450
831.635	3207
831.774	3241
831.913	3188
832.051	3138
832.19	3184
832.329	3233
832.467	3157
832.606	3154
832.744	3146
832.883	3188
833.022	3214
833.16	3253
833.299	3310
833.437	3344
833.576	3412
833.714	3428
833.852	3420
833.991	3435
834.129	3450
834.267	3454
834.406	3397
834.544	3382
834.682	3458
834.821	3409
834.959	3576
835.097	3428
835.235	3526
835.373	3488
835.511	3504
835.65	3466
835.788	3466
835.926	3374
836.064	3389
836.202	3428
836.34	3557
836.478	3606
836.615	3534
836.753	3595
836.891	3652
837.029	3637
837.167	3587
837.305	3545
837.443	3538
837.58	3458
837.718	3622
837.856	3557
837.993	3568
838.131	3595
838.269	3595
838.406	3625
838.544	3599
838.681	3492
838.819	3462
838.956	3393
839.094	3424
839.231	3469
839.369	3542
839.506	3747
839.643	3663
839.781	3534
839.918	3416
840.055	3557
840.193	3576
840.33	3511
840.467	3568
840.604	3610
840.742	3827
840.879	3561
841.016	3633
841.153	3580
841.29	3781
841.427	3743
841.564	3728
841.701	3800
841.838	3740
841.975	3720
842.112	3732
842.249	3686
842.385	3622
842.522	3861
842.659	3709
842.796	3728
842.933	3724
843.069	3713
843.206	3728
843.343	3831
843.479	3800
843.616	3857
843.752	3698
843.889	3724
844.025	3880
844.162	3762
844.298	3842
844.435	3789
844.571	3823
844.708	3930
844.844	4017
844.98	4063
845.117	4025
845.253	3937
845.389	3888
845.525	3983
845.661	3964
845.798	3926
845.934	3998
846.07	3994
846.206	4036
846.342	4124
846.478	4063
846.614	4006
846.75	3987
846.886	3945
847.022	4048
847.158	3972
847.294	4036
847.429	3987
847.565	3991
847.701	4284
847.837	3922
847.972	3899
848.108	4013
848.244	3994
848.379	3896
848.515	3831
848.65	3835
848.786	3835
848.921	3884
849.057	3987
849.192	3987
849.328	3960
849.463	3953
849.598	3873
849.734	3888
849.869	3846
850.004	3816
850.14	3838
850.275	3797
850.41	3728
850.545	3762
850.68	3743
850.815	3793
850.95	3781
851.085	3941
851.22	3937
851.355	3835
851.49	3797
851.625	3770
851.76	3781
851.895	3759
852.03	3774
852.165	3778
852.299	3846
852.434	3876
852.569	3857
852.703	3915
852.838	3903
852.973	3998
853.107	3975
853.242	3899
853.376	3892
853.511	3751
853.645	3865
853.78	3953
853.914	3934
854.048	3922
854.183	3880
854.317	3960
854.451	4131
854.585	3972
854.72	3934
854.854	4090
854.988	3941
855.122	4002
855.256	3934
855.39	4013
855.524	4162
855.658	4116
855.792	4116
855.926	4166
856.06	4196
856.194	4215
856.327	4188
856.461	4143
856.595	4154
856.729	4181
856.862	4303
856.996	4291
857.13	4344
857.263	4402
857.397	4367
857.53	4325
857.664	4352
857.797	4409
857.931	4447
858.064	4417
858.197	4527
858.331	4379
858.464	4409
858.597	4352
858.731	4459
858.864	4424
858.997	4447
859.13	4535
859.263	4580
859.396	4596
859.529	4554
859.662	4542
859.795	4527
859.928	4622
860.061	4725
860.194	4748
860.327	4744
860.46	4645
860.592	4752
860.725	4820
860.858	4793
860.99	4782
861.123	4710
861.256	4691
861.388	4736
861.521	5436
861.653	4759
861.786	4714
861.918	4782
862.05	4805
862.183	4873
862.315	4946
862.447	4961
862.58	4900
862.712	4805
862.844	4839
862.976	4839
863.108	4896
863.24	5235
863.372	4854
863.504	4911
863.636	4934
863.768	5010
863.9	4976
864.032	4949
864.164	4934
864.296	5033
864.428	5086
864.559	5113
864.691	5121
864.823	5128
864.954	5113
865.086	5159
865.217	5140
865.349	5155
865.48	5105
865.612	5193
865.743	5326
865.875	5181
866.006	5212
866.137	5223
866.269	5254
866.4	5277
866.531	5273
866.662	5227
866.793	5254
866.924	5326
867.055	5334
867.186	5360
867.317	5345
867.448	5322
867.579	5406
867.71	5376
867.841	5414
867.972	5532
868.103	5436
868.233	5467
868.364	5486
868.495	5532
868.625	5608
868.756	5786
868.886	5657
869.017	5779
869.147	5870
869.278	5870
869.408	5836
869.539	5859
869.669	5984
869.799	5980
869.929	5942
870.06	6030
870.19	6182
870.32	6098
870.45	6254
870.58	6350
870.71	6490
870.84	6467
870.97	6414
871.1	6483
871.23	6623
871.36	6700
871.489	6662
871.619	6798
871.749	6848
871.879	6829
872.008	6985
872.138	7000
872.267	6985
872.397	7012
872.526	7103
872.656	7126
872.785	7179
872.915	7343
873.044	7537
873.173	7597
873.303	7662
873.432	7784
873.561	7894
873.69	7894
873.819	8058
873.948	8218
874.077	8214
874.206	8393
874.335	8423
874.464	8674
874.593	8929
874.722	8918
874.851	9203
874.979	9256
875.108	9344
875.237	9473
875.365	9481
875.494	9652
875.623	9854
875.751	9842
875.88	9991
876.008	10158
876.136	10268
876.265	10527
876.393	10717
876.521	10733
876.65	10812
876.778	10831
876.906	10835
877.034	10923
877.162	11143
877.29	11067
877.418	11280
877.546	11395
877.674	11471
877.802	11501
877.93	11490
878.058	11497
878.185	11543
878.313	11688
878.441	11741
878.568	11623
878.696	11836
878.824	11874
878.951	11973
879.079	11984
879.206	12083
879.333	12110
879.461	11889
879.588	12060
879.715	12083
879.842	12205
879.97	12178
880.097	11916
880.224	11950
880.351	11802
880.478	11885
880.605	11832
880.732	11866
880.859	12060
880.986	11794
881.112	11805
881.239	11695
881.366	11653
881.493	11627
881.619	11558
881.746	11551
881.872	11543
881.999	11528
882.125	11501
882.252	11566
882.378	11459
882.505	11634
882.631	11330
882.757	11345
882.883	11337
883.01	11292
883.136	11223
883.262	11204
883.388	11128
883.514	11231
883.64	11140
883.766	11090
883.892	10995
884.018	11041
884.143	11037
884.269	11105
884.395	10835
884.52	10866
884.646	10736
884.772	10721
884.897	10660
885.023	10668
885.148	10786
885.274	10786
885.399	10790
885.524	10653
885.65	10653
885.775	10603
885.9	10554
886.025	10603
886.15	10656
886.275	10478
886.4	10337
886.525	10424
886.65	10348
886.775	10398
886.9	10428
887.025	10519
887.149	10360
887.274	10242
887.399	10135
887.523	10158
887.648	10169
887.773	10097
887.897	10200
888.021	10280
888.146	10128
888.27	10188
888.395	10211
888.519	10223
888.643	10196
888.767	10185
888.891	10090
889.015	9979
889.139	10101
889.263	9991
889.387	10124
889.511	10086
889.635	10055
889.759	9987
889.883	9964
890.006	10010
890.13	10112
890.254	9899
890.377	9987
890.501	9797
890.624	9956
890.748	9846
890.871	9823
890.995	9740
891.118	9755
891.241	9835
891.364	9728
891.488	9895
891.611	9698
891.734	9751
891.857	9720
891.98	9633
892.103	9728
892.226	9743
892.349	9743
892.471	9526
892.594	9610
892.717	9599
892.839	9549
892.962	9564
893.085	9679
893.207	9629
893.33	9504
893.452	9564
893.575	9603
893.697	9507
893.819	9633
893.941	9614
894.064	9656
894.186	9443
894.308	9477
894.43	9545
894.552	9561
894.674	9530
894.796	9355
894.918	9450
895.04	9378
895.161	9416
895.283	9389
895.405	9237
895.526	9291
895.648	9283
895.769	9237
895.891	9279
896.012	9344
896.134	9184
896.255	9157
896.376	9085
896.498	9192
896.619	9131
896.74	9062
896.861	9119
896.982	9230
897.103	9344
897.224	9150
897.345	9119
897.466	8963
897.587	9051
897.708	9180
897.828	9043
897.949	8952
898.07	8849
898.19	8941
898.311	9017
898.431	8861
898.552	8941
898.672	8948
898.792	8906
898.913	8902
899.033	8750
899.153	8724
899.273	8640
899.393	8750
899.513	8766
899.633	8678
899.753	8788
899.873	8644
899.993	8678
900.113	8651
900.232	8682
900.352	8655
900.472	8678
900.591	8552
900.711	8587
900.83	8556
900.95	8663
901.069	8701
901.189	8564
901.308	8530
901.427	8355
901.546	8465
901.665	8415
901.784	8533
901.904	8393
902.023	8370
902.141	8279
902.26	8218
902.379	8294
902.498	8210
902.617	8233
902.735	8267
902.854	8317
902.973	8298
903.091	8107
903.21	8138
903.328	8161
903.446	8153
903.565	8084
903.683	8172
903.801	8100
903.919	8176
904.038	8062
904.156	8035
904.274	8103
904.392	8005
904.51	8024
904.627	8039
904.745	8149
904.863	8107
904.981	7894
905.098	7868
905.216	7841
905.334	7963
905.451	7902
905.569	7902
905.686	7917
905.803	7898
905.921	7780
906.038	7902
906.155	7818
906.272	7731
906.389	7746
906.506	7685
906.623	7712
906.74	7651
906.857	7537
906.974	7620
907.091	7712
907.208	7715
907.324	7575
907.441	7620
907.557	7472
907.674	7480
907.79	7362
907.907	7346
908.023	7476
908.139	7441
908.256	7392
908.372	7358
908.488	7308
908.604	7251
908.72	7247
908.836	7293
908.952	7324
909.068	7285
909.184	7365
909.3	7282
909.415	7384
909.531	7350
909.647	7114
909.762	7095
909.878	7145
909.993	7091
910.108	7088
910.224	7137
910.339	7114
910.454	7103
910.57	7015
910.685	6966
910.8	7221
910.915	7095
911.03	7031
911.145	6954
911.259	6871
911.374	6833
911.489	6837
911.604	6821
911.718	6757
911.833	6707
911.947	6700
912.062	6582
912.176	6673
912.291	6722
912.405	6677
912.519	6859
912.633	6840
912.748	6734
912.862	6749
912.976	6620
913.09	6498
913.204	6566
913.318	6589
913.431	6734
913.545	6673
913.659	6696
913.772	6631
913.886	6593
914	6589
914.113	6623
914.226	6623
914.34	6650
914.453	6479
914.566	6635
914.68	6555
914.793	6551
914.906	6471
915.019	6365
915.132	6403
915.245	6498
915.358	6467
915.47	6483
915.583	6467
915.696	6513
915.809	6528
915.921	6566
916.034	6433
916.146	6384
916.259	6483
916.371	6479
916.483	6464
916.595	6395
916.708	6418
916.82	6422
916.932	6350
917.044	6418
917.156	6437
917.268	6361
917.38	6350
917.491	6334
917.603	6361
917.715	6388
917.826	6384
917.938	6369
918.049	6285
918.161	6350
918.272	6479
918.384	6456
918.495	6315
918.606	6228
918.717	6201
918.828	6273
918.939	6239
919.05	6201
919.161	6281
919.272	6163
919.383	6136
919.494	6319
919.604	6467
919.715	6247
919.826	6239
919.936	6262
920.047	6388
920.157	6266
920.267	6467
920.378	6403
920.488	6270
920.598	6490
920.708	6521
920.818	6536
920.928	6426
921.038	6597
921.148	6589
921.258	6418
921.368	6247
921.477	6205
921.587	6140
921.697	6106
921.806	6152
921.916	6098
922.025	5958
922.134	5958
922.244	5885
922.353	5988
922.462	5844
922.571	5813
922.68	5703
922.789	5707
922.898	5668
923.007	5657
923.116	5638
923.224	5710
923.333	5672
923.442	5657
923.55	5615
923.659	5596
923.767	5657
923.876	5501
923.984	5653
924.092	5535
924.201	5554
924.309	5516
924.417	5505
924.525	5509
924.633	5539
924.741	6353
924.849	5311
924.956	5493
925.064	5379
925.172	5322
925.279	5360
925.387	5315
925.494	5292
925.602	5383
925.709	5402
925.816	5318
925.924	5322
926.031	5364
926.138	5311
926.245	5345
926.352	5246
926.459	5345
926.566	5341
926.673	5246
926.779	5166
926.886	5094
926.993	5037
927.099	4995
927.206	5041
927.312	4991
927.419	5014
927.525	4995
927.631	4999
927.737	4885
927.843	4858
927.95	4812
928.056	4801
928.162	4885
928.267	4877
928.373	5277
928.479	4877
928.585	4714
928.69	4835
928.796	4759
928.901	4698
929.007	4599
929.112	4668
929.218	4630
929.323	4622
929.428	4580
929.533	4687
929.638	4508
929.743	4554
929.848	4569
929.953	4516
930.058	4440
930.163	4348
930.267	4360
930.372	4413
930.477	4295
930.581	4489
930.685	4352
930.79	4284
930.894	4333
930.998	4268
931.103	4390
931.207	4120
931.311	4124
931.415	4074
931.519	3949
931.623	3968
