Data from glass_V78500241_1201.txt Node
Date: Wed Sep 01 19:22:49 CST 2021
User: usil
Spectrometer: V785-0024
Trigger mode: 0
Integration Time (sec): 4.000000E-1
Scans to average: 1
Nonlinearity correction enabled: false
Boxcar width: 0
Storing dark spectrum: false
XAxis mode: Wavelengths
Number of Pixels in Spectrum: 1024
>>>>>Begin Spectral Data<<<<<
801.071	3785
801.214	3766
801.356	3732
801.499	3766
801.641	3778
801.783	3819
801.926	3896
802.068	3812
802.211	3838
802.353	3922
802.496	3869
802.638	3888
802.78	3884
802.923	3994
803.065	3888
803.208	3857
803.35	3888
803.492	3896
803.635	3930
803.777	3808
803.919	3907
804.061	4166
804.204	3979
804.346	3979
804.488	3926
804.63	4029
804.773	4006
804.915	4090
805.057	4131
805.199	4006
805.341	4067
805.483	4154
805.626	4112
805.768	4105
805.91	4204
806.052	4215
806.194	4253
806.336	4394
806.478	4223
806.62	4169
806.762	4166
806.904	4299
807.046	4341
807.188	4204
807.33	4143
807.472	4242
807.614	4223
807.756	4276
807.898	4242
808.04	4227
808.182	4303
808.324	4303
808.465	4371
808.607	4478
808.749	4474
808.891	4447
809.033	4550
809.174	4432
809.316	4242
809.458	4227
809.6	4215
809.741	4154
809.883	4211
810.025	4211
810.166	4200
810.308	4188
810.45	4230
810.591	4272
810.733	4257
810.875	4523
811.016	4805
811.158	5136
811.299	5269
811.441	5280
811.582	5094
811.724	4714
811.865	4478
812.007	4497
812.148	4489
812.29	4405
812.431	4440
812.573	4394
812.714	4356
812.855	4485
812.997	4409
813.138	4451
813.279	4440
813.421	4333
813.562	4379
813.703	4341
813.845	4341
813.986	4268
814.127	4196
814.268	4268
814.41	4291
814.551	4291
814.692	4356
814.833	4268
814.974	4322
815.115	4367
815.256	4333
815.397	4261
815.539	4230
815.68	4188
815.821	4215
815.962	4306
816.103	4303
816.244	4249
816.385	4238
816.526	4268
816.666	4196
816.807	4105
816.948	4169
817.089	4185
817.23	4105
817.371	4044
817.512	4067
817.653	4093
817.793	4051
817.934	4044
818.075	4112
818.216	4116
818.356	4090
818.497	3998
818.638	3968
818.778	3918
818.919	3884
819.06	3854
819.2	3915
819.341	3873
819.481	3850
819.622	3876
819.762	4048
819.903	3979
820.043	3896
820.184	3876
820.324	3850
820.465	3888
820.605	3850
820.746	3903
820.886	3778
821.026	3941
821.167	3979
821.307	3983
821.447	3941
821.588	3975
821.728	3937
821.868	3930
822.008	3846
822.149	3941
822.289	3968
822.429	3774
822.569	3785
822.709	3785
822.849	3682
822.99	3751
823.13	3778
823.27	3770
823.41	3717
823.55	3747
823.69	3762
823.83	3732
823.97	3736
824.11	3656
824.25	3572
824.389	3614
824.529	3705
824.669	3660
824.809	3717
824.949	3743
825.089	3751
825.228	3663
825.368	3572
825.508	3542
825.648	3587
825.787	3606
825.927	3603
826.067	3682
826.206	3667
826.346	3789
826.485	3854
826.625	3869
826.765	3945
826.904	3857
827.044	3603
827.183	3511
827.323	3439
827.462	3542
827.601	3420
827.741	3424
827.88	3500
828.02	3393
828.159	3443
828.298	3485
828.437	3561
828.577	3473
828.716	3595
828.855	3477
828.994	3412
829.134	3382
829.273	3420
829.412	3397
829.551	3336
829.69	3378
829.829	3428
829.968	3507
830.107	3481
830.246	3405
830.385	3344
830.524	3374
830.663	3317
830.802	3275
830.941	3233
831.08	3207
831.219	3291
831.357	3275
831.496	3428
831.635	3237
831.774	3169
831.913	3237
832.051	3112
832.19	3176
832.329	3237
832.467	3142
832.606	3150
832.744	3188
832.883	3203
833.022	3195
833.16	3272
833.299	3306
833.437	3340
833.576	3370
833.714	3420
833.852	3420
833.991	3481
834.129	3500
834.267	3416
834.406	3397
834.544	3412
834.682	3416
834.821	3416
834.959	3553
835.097	3443
835.235	3515
835.373	3515
835.511	3488
835.65	3458
835.788	3477
835.926	3348
836.064	3374
836.202	3439
836.34	3587
836.478	3633
836.615	3564
836.753	3610
836.891	3648
837.029	3618
837.167	3595
837.305	3595
837.443	3587
837.58	3542
837.718	3584
837.856	3564
837.993	3542
838.131	3580
838.269	3587
838.406	3584
838.544	3591
838.681	3469
838.819	3481
838.956	3336
839.094	3409
839.231	3469
839.369	3564
839.506	3724
839.643	3625
839.781	3492
839.918	3481
840.055	3530
840.193	3545
840.33	3549
840.467	3545
840.604	3622
840.742	3838
840.879	3534
841.016	3549
841.153	3614
841.29	3747
841.427	3717
841.564	3766
841.701	3766
841.838	3755
841.975	3667
842.112	3732
842.249	3637
842.385	3641
842.522	3835
842.659	3701
842.796	3713
842.933	3701
843.069	3709
843.206	3694
843.343	3850
843.479	3781
843.616	3865
843.752	3732
843.889	3694
844.025	3892
844.162	3705
844.298	3873
844.435	3857
844.571	3785
844.708	3876
844.844	4013
844.98	4021
845.117	4032
845.253	3979
845.389	3930
845.525	3949
845.661	3998
845.798	3896
845.934	3994
846.07	3975
846.206	4059
846.342	4090
846.478	4032
846.614	3972
846.75	3937
846.886	3960
847.022	4063
847.158	3979
847.294	3983
847.429	4048
847.565	3991
847.701	4234
847.837	3896
847.972	3846
848.108	3979
848.244	3991
848.379	3869
848.515	3819
848.65	3800
848.786	3865
848.921	3926
849.057	3922
849.192	3937
849.328	3857
849.463	3903
849.598	3896
849.734	3892
849.869	3850
850.004	3785
850.14	3812
850.275	3838
850.41	3732
850.545	3812
850.68	3778
850.815	3804
850.95	3827
851.085	3953
851.22	3892
851.355	3823
851.49	3804
851.625	3808
851.76	3781
851.895	3759
852.03	3690
852.165	3808
852.299	3903
852.434	3926
852.569	3907
852.703	3876
852.838	3953
852.973	4002
853.107	4032
853.242	3915
853.376	3873
853.511	3778
853.645	3804
853.78	3998
853.914	3918
854.048	3937
854.183	3918
854.317	3975
854.451	4093
854.585	3994
854.72	3987
854.854	4067
854.988	3926
855.122	4067
855.256	3926
855.39	4010
855.524	4090
855.658	4071
855.792	4124
855.926	4112
856.06	4150
856.194	4211
856.327	4131
856.461	4131
856.595	4120
856.729	4204
856.862	4215
856.996	4265
857.13	4291
857.263	4367
857.397	4402
857.53	4352
857.664	4371
857.797	4363
857.931	4386
858.064	4390
858.197	4493
858.331	4405
858.464	4360
858.597	4371
858.731	4394
858.864	4466
858.997	4440
859.13	4519
859.263	4554
859.396	4588
859.529	4538
859.662	4550
859.795	4527
859.928	4615
860.061	4706
860.194	4771
860.327	4691
860.46	4687
860.592	4740
860.725	4778
860.858	4774
860.99	4729
861.123	4645
861.256	4736
861.388	4763
861.521	5391
861.653	4706
861.786	4714
861.918	4759
862.05	4778
862.183	4850
862.315	4862
862.447	4942
862.58	4866
862.712	4828
862.844	4790
862.976	4908
863.108	4915
863.24	5178
863.372	4854
863.504	4980
863.636	4908
863.768	5010
863.9	4957
864.032	4904
864.164	4949
864.296	5029
864.428	5083
864.559	5128
864.691	5090
864.823	5128
864.954	5117
865.086	5151
865.217	5124
865.349	5079
865.48	5174
865.612	5204
865.743	5360
865.875	5212
866.006	5231
866.137	5227
866.269	5170
866.4	5265
866.531	5277
866.662	5258
866.793	5269
866.924	5288
867.055	5372
867.186	5315
867.317	5357
867.448	5334
867.579	5357
867.71	5360
867.841	5417
867.972	5440
868.103	5486
868.233	5478
868.364	5509
868.495	5524
868.625	5630
868.756	5779
868.886	5668
869.017	5767
869.147	5844
869.278	5817
869.408	5817
869.539	5870
869.669	5996
869.799	5904
869.929	5992
870.06	6007
870.19	6182
870.32	6167
870.45	6292
870.58	6391
870.71	6452
870.84	6445
870.97	6452
871.1	6471
871.23	6654
871.36	6684
871.489	6665
871.619	6711
871.749	6818
871.879	6863
872.008	7069
872.138	7004
872.267	7019
872.397	6973
872.526	7099
872.656	7103
872.785	7171
872.915	7381
873.044	7559
873.173	7510
873.303	7666
873.432	7757
873.561	7845
873.69	7890
873.819	8054
873.948	8221
874.077	8244
874.206	8328
874.335	8385
874.464	8686
874.593	8864
874.722	9005
874.851	9123
874.979	9222
875.108	9374
875.237	9382
875.365	9523
875.494	9637
875.623	9869
875.751	9854
875.88	9972
876.008	10196
876.136	10363
876.265	10421
876.393	10736
876.521	10637
876.65	10850
876.778	10923
876.906	10854
877.034	11014
877.162	11113
877.29	11185
877.418	11292
877.546	11368
877.674	11429
877.802	11547
877.93	11562
878.058	11524
878.185	11600
878.313	11684
878.441	11733
878.568	11718
878.696	11733
878.824	11874
878.951	11961
879.079	11946
879.206	12136
879.333	12060
879.461	11916
879.588	12083
879.715	12110
879.842	12197
879.97	12110
880.097	11893
880.224	11893
880.351	11771
880.478	11973
880.605	11889
880.732	11885
880.859	11980
880.986	11859
881.112	11828
881.239	11737
881.366	11718
881.493	11672
881.619	11592
881.746	11630
881.872	11585
881.999	11516
882.125	11429
882.252	11516
882.378	11505
882.505	11493
882.631	11455
882.757	11307
882.883	11345
883.01	11288
883.136	11174
883.262	11128
883.388	10987
883.514	11227
883.64	11147
883.766	11075
883.892	11025
884.018	11029
884.143	11075
884.269	11121
884.395	10812
884.52	10725
884.646	10755
884.772	10729
884.897	10660
885.023	10656
885.148	10763
885.274	10691
885.399	10672
885.524	10523
885.65	10535
885.775	10611
885.9	10573
886.025	10565
886.15	10611
886.275	10546
886.4	10322
886.525	10367
886.65	10447
886.775	10306
886.9	10500
887.025	10523
887.149	10356
887.274	10265
887.399	10211
887.523	10253
887.648	10101
887.773	10166
887.897	10257
888.021	10196
888.146	10116
888.27	10272
888.395	10227
888.519	10204
888.643	10219
888.767	10185
888.891	10101
889.015	10029
889.139	10074
889.263	9998
889.387	10135
889.511	10109
889.635	10082
889.759	9994
889.883	10055
890.006	9998
890.13	10086
890.254	9983
890.377	9926
890.501	9846
890.624	9835
890.748	9895
890.871	9797
890.995	9846
891.118	9709
891.241	9720
891.364	9774
891.488	9880
891.611	9751
891.734	9797
891.857	9743
891.98	9789
892.103	9808
892.226	9720
892.349	9656
892.471	9549
892.594	9576
892.717	9641
892.839	9724
892.962	9656
893.085	9736
893.207	9534
893.33	9511
893.452	9481
893.575	9572
893.697	9496
893.819	9660
893.941	9584
894.064	9606
894.186	9473
894.308	9431
894.43	9485
894.552	9584
894.674	9526
894.796	9378
894.918	9393
895.04	9348
895.161	9393
895.283	9359
895.405	9233
895.526	9283
895.648	9207
895.769	9245
895.891	9332
896.012	9287
896.134	9298
896.255	9188
896.376	9142
896.498	9161
896.619	9192
896.74	9036
896.861	9173
896.982	9302
897.103	9325
897.224	9127
897.345	9154
897.466	8944
897.587	9001
897.708	9017
897.828	9017
897.949	8941
898.07	8887
898.19	8986
898.311	8994
898.431	8929
898.552	8948
898.672	8929
898.792	8967
898.913	8960
899.033	8796
899.153	8823
899.273	8663
899.393	8766
899.513	8697
899.633	8781
899.753	8815
899.873	8689
899.993	8823
900.113	8773
900.232	8727
900.352	8746
900.472	8625
900.591	8564
900.711	8621
900.83	8492
900.95	8663
901.069	8720
901.189	8590
901.308	8480
901.427	8408
901.546	8351
901.665	8495
901.784	8530
901.904	8351
902.023	8328
902.141	8233
902.26	8275
902.379	8267
902.498	8202
902.617	8298
902.735	8301
902.854	8301
902.973	8263
903.091	8164
903.21	8138
903.328	8202
903.446	8134
903.565	8069
903.683	8123
903.801	8107
903.919	8081
904.038	8096
904.156	8046
904.274	8107
904.392	8054
904.51	8065
904.627	8001
904.745	8073
904.863	8126
904.981	7921
905.098	7883
905.216	7860
905.334	7974
905.451	7913
905.569	7932
905.686	7913
905.803	7894
905.921	7712
906.038	7917
906.155	7780
906.272	7761
906.389	7750
906.506	7674
906.623	7624
906.74	7601
906.857	7502
906.974	7567
907.091	7753
907.208	7700
907.324	7666
907.441	7594
907.557	7457
907.674	7392
907.79	7388
907.907	7419
908.023	7453
908.139	7438
908.256	7392
908.372	7396
908.488	7396
908.604	7240
908.72	7255
908.836	7228
908.952	7228
909.068	7225
909.184	7346
909.3	7312
909.415	7297
909.531	7320
909.647	7076
909.762	7156
909.878	7126
909.993	7171
910.108	7110
910.224	7084
910.339	7061
910.454	7038
910.57	6947
910.685	6981
910.8	7145
910.915	7095
911.03	7023
911.145	6954
911.259	6947
911.374	6859
911.489	6837
911.604	6795
911.718	6662
911.833	6741
911.947	6597
912.062	6604
912.176	6711
912.291	6700
912.405	6715
912.519	6818
912.633	6863
912.748	6738
912.862	6741
912.976	6601
913.09	6494
913.204	6593
913.318	6631
913.431	6715
913.545	6715
913.659	6715
913.772	6662
913.886	6570
914	6517
914.113	6654
914.226	6677
914.34	6662
914.453	6498
914.566	6623
914.68	6536
914.793	6513
914.906	6426
915.019	6445
915.132	6376
915.245	6422
915.358	6445
915.47	6414
915.583	6494
915.696	6559
915.809	6570
915.921	6601
916.034	6410
916.146	6403
916.259	6369
916.371	6506
916.483	6467
916.595	6380
916.708	6372
916.82	6445
916.932	6395
917.044	6422
917.156	6395
917.268	6289
917.38	6327
917.491	6266
917.603	6369
917.715	6418
917.826	6410
917.938	6353
918.049	6262
918.161	6429
918.272	6464
918.384	6429
918.495	6346
918.606	6243
918.717	6251
918.828	6289
918.939	6273
919.05	6251
919.161	6262
919.272	6175
919.383	6178
919.494	6384
919.604	6422
919.715	6289
919.826	6213
919.936	6292
920.047	6365
920.157	6205
920.267	6433
920.378	6331
920.488	6266
920.598	6506
920.708	6544
920.818	6464
920.928	6490
921.038	6627
921.148	6597
921.258	6334
921.368	6315
921.477	6182
921.587	6182
921.697	6076
921.806	6136
921.916	6148
922.025	5992
922.134	5954
922.244	5920
922.353	5920
922.462	5893
922.571	5802
922.68	5745
922.789	5699
922.898	5710
923.007	5676
923.116	5729
923.224	5707
923.333	5714
923.442	5623
923.55	5585
923.659	5604
923.767	5630
923.876	5528
923.984	5573
924.092	5493
924.201	5554
924.309	5528
924.417	5596
924.525	5433
924.633	5493
924.741	6273
924.849	5391
924.956	5463
925.064	5368
925.172	5326
925.279	5322
925.387	5372
925.494	5360
925.602	5360
925.709	5387
925.816	5296
925.924	5307
926.031	5368
926.138	5318
926.245	5318
926.352	5227
926.459	5364
926.566	5341
926.673	5235
926.779	5155
926.886	5204
926.993	5079
927.099	4987
927.206	4968
927.312	4949
927.419	5048
927.525	4927
927.631	5010
927.737	4911
927.843	4866
927.95	4801
928.056	4870
928.162	4866
928.267	4866
928.373	5345
928.479	4839
928.585	4736
928.69	4744
928.796	4831
928.901	4736
929.007	4634
929.112	4736
929.218	4584
929.323	4637
929.428	4531
929.533	4664
929.638	4497
929.743	4516
929.848	4569
929.953	4504
930.058	4443
930.163	4367
930.267	4356
930.372	4405
930.477	4261
930.581	4504
930.685	4352
930.79	4230
930.894	4333
930.998	4211
931.103	4367
931.207	4166
931.311	4097
931.415	4006
931.519	3945
931.623	3960
