Data from glass_V78500241_1862.txt Node
Date: Wed Sep 01 19:27:24 CST 2021
User: usil
Spectrometer: V785-0024
Trigger mode: 0
Integration Time (sec): 4.000000E-1
Scans to average: 1
Nonlinearity correction enabled: false
Boxcar width: 0
Storing dark spectrum: false
XAxis mode: Wavelengths
Number of Pixels in Spectrum: 1024
>>>>>Begin Spectral Data<<<<<
801.071	3762
801.214	3724
801.356	3709
801.499	3762
801.641	3701
801.783	3717
801.926	3880
802.068	3770
802.211	3846
802.353	3964
802.496	3797
802.638	3911
802.78	3922
802.923	3922
803.065	3915
803.208	3827
803.35	3857
803.492	3880
803.635	3873
803.777	3774
803.919	3896
804.061	4173
804.204	3998
804.346	3926
804.488	3907
804.63	4055
804.773	3960
804.915	4044
805.057	4173
805.199	4040
805.341	4116
805.483	4135
805.626	4128
805.768	4097
805.91	4188
806.052	4215
806.194	4238
806.336	4325
806.478	4196
806.62	4147
806.762	4158
806.904	4230
807.046	4318
807.188	4185
807.33	4169
807.472	4234
807.614	4181
807.756	4261
807.898	4215
808.04	4215
808.182	4272
808.324	4261
808.465	4421
808.607	4481
808.749	4481
808.891	4451
809.033	4459
809.174	4375
809.316	4272
809.458	4253
809.6	4128
809.741	4143
809.883	4135
810.025	4207
810.166	4207
810.308	4215
810.45	4242
810.591	4223
810.733	4325
810.875	4481
811.016	4862
811.158	5117
811.299	5273
811.441	5303
811.582	5010
811.724	4679
811.865	4436
812.007	4432
812.148	4417
812.29	4375
812.431	4421
812.573	4371
812.714	4367
812.855	4451
812.997	4421
813.138	4470
813.279	4383
813.421	4409
813.562	4417
813.703	4337
813.845	4337
813.986	4268
814.127	4249
814.268	4227
814.41	4280
814.551	4287
814.692	4284
814.833	4261
814.974	4284
815.115	4306
815.256	4291
815.397	4253
815.539	4238
815.68	4230
815.821	4196
815.962	4306
816.103	4306
816.244	4265
816.385	4215
816.526	4280
816.666	4207
816.807	4074
816.948	4204
817.089	4139
817.23	4067
817.371	4063
817.512	4048
817.653	4097
817.793	4067
817.934	4051
818.075	4074
818.216	4097
818.356	4101
818.497	4021
818.638	3892
818.778	3926
818.919	3896
819.06	3861
819.2	3915
819.341	3873
819.481	3819
819.622	3892
819.762	3998
819.903	3964
820.043	3884
820.184	3804
820.324	3827
820.465	3857
820.605	3827
820.746	3850
820.886	3797
821.026	3926
821.167	3915
821.307	3987
821.447	3922
821.588	3945
821.728	3896
821.868	3911
822.008	3896
822.149	3937
822.289	3934
822.429	3770
822.569	3800
822.709	3797
822.849	3694
822.99	3694
823.13	3759
823.27	3781
823.41	3705
823.55	3728
823.69	3743
823.83	3740
823.97	3675
824.11	3591
824.25	3572
824.389	3633
824.529	3682
824.669	3618
824.809	3732
824.949	3728
825.089	3747
825.228	3698
825.368	3584
825.508	3534
825.648	3557
825.787	3576
825.927	3637
826.067	3625
826.206	3660
826.346	3808
826.485	3835
826.625	3842
826.765	3972
826.904	3835
827.044	3603
827.183	3526
827.323	3397
827.462	3515
827.601	3439
827.741	3435
827.88	3462
828.02	3351
828.159	3405
828.298	3507
828.437	3523
828.577	3481
828.716	3587
828.855	3462
828.994	3363
829.134	3363
829.273	3359
829.412	3325
829.551	3355
829.69	3374
829.829	3397
829.968	3492
830.107	3435
830.246	3443
830.385	3378
830.524	3393
830.663	3313
830.802	3218
830.941	3173
831.08	3256
831.219	3272
831.357	3245
831.496	3420
831.635	3275
831.774	3157
831.913	3161
832.051	3161
832.19	3123
832.329	3222
832.467	3116
832.606	3100
832.744	3169
832.883	3184
833.022	3195
833.16	3287
833.299	3325
833.437	3302
833.576	3370
833.714	3351
833.852	3405
833.991	3443
834.129	3454
834.267	3424
834.406	3378
834.544	3431
834.682	3454
834.821	3409
834.959	3576
835.097	3424
835.235	3545
835.373	3481
835.511	3469
835.65	3416
835.788	3485
835.926	3389
836.064	3367
836.202	3454
836.34	3564
836.478	3576
836.615	3591
836.753	3572
836.891	3652
837.029	3614
837.167	3591
837.305	3534
837.443	3553
837.58	3504
837.718	3595
837.856	3557
837.993	3542
838.131	3603
838.269	3599
838.406	3549
838.544	3606
838.681	3481
838.819	3458
838.956	3332
839.094	3389
839.231	3420
839.369	3519
839.506	3705
839.643	3637
839.781	3504
839.918	3469
840.055	3584
840.193	3515
840.33	3519
840.467	3564
840.604	3557
840.742	3800
840.879	3553
841.016	3526
841.153	3629
841.29	3755
841.427	3694
841.564	3690
841.701	3743
841.838	3694
841.975	3701
842.112	3705
842.249	3622
842.385	3584
842.522	3857
842.659	3709
842.796	3671
842.933	3690
843.069	3709
843.206	3717
843.343	3819
843.479	3789
843.616	3797
843.752	3652
843.889	3667
844.025	3850
844.162	3701
844.298	3854
844.435	3785
844.571	3766
844.708	3918
844.844	3987
844.98	4021
845.117	3998
845.253	3854
845.389	3911
845.525	3953
845.661	3968
845.798	3949
845.934	3991
846.07	3964
846.206	4071
846.342	4086
846.478	4082
846.614	3998
846.75	3983
846.886	3915
847.022	4025
847.158	3975
847.294	4021
847.429	4017
847.565	4010
847.701	4200
847.837	3903
847.972	3869
848.108	3998
848.244	3979
848.379	3842
848.515	3823
848.65	3827
848.786	3846
848.921	3861
849.057	3926
849.192	3907
849.328	3884
849.463	3903
849.598	3915
849.734	3869
849.869	3812
850.004	3759
850.14	3804
850.275	3804
850.41	3732
850.545	3743
850.68	3781
850.815	3800
850.95	3774
851.085	3915
851.22	3892
851.355	3850
851.49	3797
851.625	3797
851.76	3797
851.895	3736
852.03	3740
852.165	3804
852.299	3819
852.434	3911
852.569	3888
852.703	3896
852.838	3907
852.973	3972
853.107	3945
853.242	3884
853.376	3861
853.511	3766
853.645	3846
853.78	3964
853.914	3869
854.048	3892
854.183	3865
854.317	3945
854.451	4086
854.585	3964
854.72	3911
854.854	4010
854.988	3934
855.122	4017
855.256	3941
855.39	4010
855.524	4112
855.658	4109
855.792	4059
855.926	4147
856.06	4185
856.194	4211
856.327	4082
856.461	4162
856.595	4128
856.729	4181
856.862	4261
856.996	4234
857.13	4280
857.263	4333
857.397	4356
857.53	4242
857.664	4352
857.797	4371
857.931	4447
858.064	4363
858.197	4470
858.331	4383
858.464	4375
858.597	4325
858.731	4459
858.864	4421
858.997	4466
859.13	4500
859.263	4569
859.396	4603
859.529	4497
859.662	4554
859.795	4489
859.928	4626
860.061	4702
860.194	4740
860.327	4645
860.46	4611
860.592	4698
860.725	4740
860.858	4729
860.99	4733
861.123	4645
861.256	4668
861.388	4790
861.521	5452
861.653	4729
861.786	4717
861.918	4660
862.05	4752
862.183	4850
862.315	4885
862.447	4904
862.58	4919
862.712	4839
862.844	4714
862.976	4854
863.108	4854
863.24	5269
863.372	4820
863.504	4870
863.636	4892
863.768	4965
863.9	4957
864.032	4930
864.164	4980
864.296	5022
864.428	5109
864.559	5071
864.691	5162
864.823	5132
864.954	5098
865.086	5147
865.217	5105
865.349	5162
865.48	5201
865.612	5181
865.743	5288
865.875	5159
866.006	5204
866.137	5178
866.269	5296
866.4	5250
866.531	5242
866.662	5265
866.793	5296
866.924	5315
867.055	5357
867.186	5330
867.317	5311
867.448	5280
867.579	5368
867.71	5387
867.841	5395
867.972	5467
868.103	5444
868.233	5501
868.364	5471
868.495	5520
868.625	5684
868.756	5767
868.886	5619
869.017	5695
869.147	5805
869.278	5840
869.408	5836
869.539	5832
869.669	5897
869.799	5946
869.929	6045
870.06	5977
870.19	6235
870.32	6235
870.45	6273
870.58	6327
870.71	6384
870.84	6479
870.97	6357
871.1	6445
871.23	6658
871.36	6753
871.489	6673
871.619	6707
871.749	6787
871.879	6882
872.008	6916
872.138	6924
872.267	6996
872.397	6951
872.526	7080
872.656	7095
872.785	7198
872.915	7381
873.044	7571
873.173	7556
873.303	7616
873.432	7757
873.561	7970
873.69	7913
873.819	7959
873.948	8142
874.077	8259
874.206	8347
874.335	8408
874.464	8724
874.593	8807
874.722	8857
874.851	9062
874.979	9245
875.108	9401
875.237	9488
875.365	9534
875.494	9610
875.623	9751
875.751	9873
875.88	9945
876.008	10150
876.136	10249
876.265	10577
876.393	10714
876.521	10714
876.65	10816
876.778	10854
876.906	10866
877.034	10934
877.162	11064
877.29	11079
877.418	11269
877.546	11315
877.674	11429
877.802	11547
877.93	11551
878.058	11535
878.185	11543
878.313	11691
878.441	11642
878.568	11653
878.696	11809
878.824	11798
878.951	11942
879.079	11939
879.206	12102
879.333	12034
879.461	12041
879.588	12106
879.715	12125
879.842	12327
879.97	12076
880.097	11824
880.224	11882
880.351	11832
880.478	11863
880.605	11889
880.732	11760
880.859	12064
880.986	11885
881.112	11866
881.239	11710
881.366	11653
881.493	11642
881.619	11558
881.746	11528
881.872	11608
881.999	11490
882.125	11436
882.252	11611
882.378	11505
882.505	11558
882.631	11459
882.757	11330
882.883	11292
883.01	11193
883.136	11155
883.262	11071
883.388	11086
883.514	11216
883.64	11185
883.766	11117
883.892	11029
884.018	10968
884.143	11102
884.269	11079
884.395	10854
884.52	10744
884.646	10748
884.772	10668
884.897	10626
885.023	10702
885.148	10645
885.274	10786
885.399	10691
885.524	10554
885.65	10531
885.775	10573
885.9	10653
886.025	10569
886.15	10626
886.275	10436
886.4	10386
886.525	10417
886.65	10306
886.775	10356
886.9	10413
887.025	10523
887.149	10318
887.274	10280
887.399	10185
887.523	10204
887.648	10227
887.773	10124
887.897	10177
888.021	10211
888.146	10143
888.27	10261
888.395	10223
888.519	10246
888.643	10173
888.767	10162
888.891	10093
889.015	10059
889.139	10013
889.263	10025
889.387	10093
889.511	10112
889.635	10177
889.759	9956
889.883	9991
890.006	10029
890.13	10044
890.254	9892
890.377	9964
890.501	9827
890.624	9816
890.748	9934
890.871	9831
890.995	9717
891.118	9762
891.241	9759
891.364	9762
891.488	9812
891.611	9766
891.734	9793
891.857	9793
891.98	9690
892.103	9808
892.226	9720
892.349	9644
892.471	9496
892.594	9587
892.717	9644
892.839	9587
892.962	9644
893.085	9587
893.207	9591
893.33	9534
893.452	9515
893.575	9660
893.697	9397
893.819	9557
893.941	9671
894.064	9622
894.186	9515
894.308	9363
894.43	9454
894.552	9614
894.674	9557
894.796	9351
894.918	9355
895.04	9363
895.161	9351
895.283	9367
895.405	9245
895.526	9230
895.648	9283
895.769	9203
895.891	9253
896.012	9188
896.134	9211
896.255	9138
896.376	9074
896.498	9077
896.619	9119
896.74	9074
896.861	9093
896.982	9302
897.103	9298
897.224	9241
897.345	9058
897.466	9028
897.587	8998
897.708	9112
897.828	8933
897.949	8994
898.07	8899
898.19	8910
898.311	9028
898.431	8899
898.552	8941
898.672	8929
898.792	8937
898.913	8906
899.033	8739
899.153	8735
899.273	8613
899.393	8724
899.513	8785
899.633	8724
899.753	8754
899.873	8659
899.993	8773
900.113	8724
900.232	8758
900.352	8564
900.472	8579
900.591	8526
900.711	8560
900.83	8514
900.95	8697
901.069	8735
901.189	8503
901.308	8438
901.427	8377
901.546	8400
901.665	8484
901.784	8476
901.904	8313
902.023	8332
902.141	8161
902.26	8206
902.379	8286
902.498	8229
902.617	8244
902.735	8286
902.854	8275
902.973	8282
903.091	8149
903.21	8164
903.328	8123
903.446	8183
903.565	8058
903.683	8065
903.801	8123
903.919	8145
904.038	8145
904.156	7967
904.274	8050
904.392	7986
904.51	8065
904.627	8012
904.745	8096
904.863	8039
904.981	7917
905.098	7830
905.216	7830
905.334	7898
905.451	7902
905.569	7871
905.686	7951
905.803	7940
905.921	7814
906.038	7852
906.155	7841
906.272	7700
906.389	7712
906.506	7567
906.623	7655
906.74	7624
906.857	7567
906.974	7601
907.091	7693
907.208	7822
907.324	7609
907.441	7582
907.557	7430
907.674	7460
907.79	7358
907.907	7419
908.023	7441
908.139	7422
908.256	7373
908.372	7369
908.488	7392
908.604	7202
908.72	7236
908.836	7217
908.952	7190
909.068	7247
909.184	7320
909.3	7213
909.415	7289
909.531	7301
909.647	7099
909.762	7107
909.878	7095
909.993	7118
910.108	7091
910.224	7038
910.339	7114
910.454	7042
910.57	6993
910.685	6909
910.8	7149
910.915	7069
911.03	7057
911.145	6905
911.259	6932
911.374	6863
911.489	6814
911.604	6779
911.718	6753
911.833	6730
911.947	6703
912.062	6544
912.176	6654
912.291	6696
912.405	6734
912.519	6802
912.633	6829
912.748	6753
912.862	6665
912.976	6547
913.09	6555
913.204	6608
913.318	6646
913.431	6703
913.545	6642
913.659	6696
913.772	6635
913.886	6601
914	6563
914.113	6646
914.226	6563
914.34	6631
914.453	6475
914.566	6604
914.68	6521
914.793	6509
914.906	6456
915.019	6331
915.132	6342
915.245	6407
915.358	6486
915.47	6448
915.583	6429
915.696	6433
915.809	6490
915.921	6521
916.034	6418
916.146	6418
916.259	6372
916.371	6460
916.483	6475
916.595	6460
916.708	6403
916.82	6361
916.932	6365
917.044	6391
917.156	6357
917.268	6319
917.38	6304
917.491	6308
917.603	6342
917.715	6433
917.826	6403
917.938	6304
918.049	6243
918.161	6350
918.272	6429
918.384	6342
918.495	6357
918.606	6262
918.717	6243
918.828	6281
918.939	6258
919.05	6209
919.161	6243
919.272	6121
919.383	6201
919.494	6346
919.604	6388
919.715	6285
919.826	6224
919.936	6247
920.047	6304
920.157	6277
920.267	6441
920.378	6292
920.488	6273
920.598	6448
920.708	6502
920.818	6464
920.928	6376
921.038	6574
921.148	6608
921.258	6380
921.368	6296
921.477	6197
921.587	6117
921.697	6102
921.806	6201
921.916	6076
922.025	5939
922.134	5923
922.244	5912
922.353	5939
922.462	5851
922.571	5760
922.68	5665
922.789	5676
922.898	5718
923.007	5585
923.116	5703
923.224	5688
923.333	5615
923.442	5608
923.55	5558
923.659	5554
923.767	5596
923.876	5509
923.984	5577
924.092	5497
924.201	5577
924.309	5509
924.417	5551
924.525	5474
924.633	5486
924.741	6247
924.849	5368
924.956	5493
925.064	5334
925.172	5277
925.279	5360
925.387	5368
925.494	5292
925.602	5471
925.709	5345
925.816	5265
925.924	5330
926.031	5341
926.138	5311
926.245	5326
926.352	5220
926.459	5280
926.566	5296
926.673	5178
926.779	5140
926.886	5166
926.993	4976
927.099	4991
927.206	5010
927.312	4946
927.419	5045
927.525	4953
927.631	4968
927.737	4866
927.843	4854
927.95	4835
928.056	4835
928.162	4797
928.267	4831
928.373	5288
928.479	4843
928.585	4698
928.69	4759
928.796	4759
928.901	4691
929.007	4546
929.112	4664
929.218	4554
929.323	4596
929.428	4626
929.533	4698
929.638	4504
929.743	4531
929.848	4569
929.953	4485
930.058	4447
930.163	4295
930.267	4318
930.372	4466
930.477	4295
930.581	4504
930.685	4371
930.79	4303
930.894	4268
930.998	4230
931.103	4386
931.207	4078
931.311	4044
931.415	4021
931.519	3934
931.623	3960
