Data from glass_V78500241_2254.txt Node
Date: Wed Sep 01 19:30:07 CST 2021
User: usil
Spectrometer: V785-0024
Trigger mode: 0
Integration Time (sec): 4.000000E-1
Scans to average: 1
Nonlinearity correction enabled: false
Boxcar width: 0
Storing dark spectrum: false
XAxis mode: Wavelengths
Number of Pixels in Spectrum: 1024
>>>>>Begin Spectral Data<<<<<
801.071	3740
801.214	3797
801.356	3717
801.499	3736
801.641	3728
801.783	3785
801.926	3892
802.068	3789
802.211	3850
802.353	3884
802.496	3823
802.638	3880
802.78	3899
802.923	3945
803.065	3857
803.208	3823
803.35	3892
803.492	3876
803.635	3915
803.777	3770
803.919	3960
804.061	4150
804.204	3960
804.346	3930
804.488	3896
804.63	3994
804.773	3991
804.915	4032
805.057	4097
805.199	4044
805.341	4078
805.483	4124
805.626	4074
805.768	4128
805.91	4188
806.052	4219
806.194	4230
806.336	4344
806.478	4211
806.62	4150
806.762	4177
806.904	4211
807.046	4322
807.188	4169
807.33	4185
807.472	4234
807.614	4215
807.756	4268
807.898	4219
808.04	4227
808.182	4219
808.324	4310
808.465	4356
808.607	4459
808.749	4440
808.891	4436
809.033	4535
809.174	4398
809.316	4280
809.458	4257
809.6	4177
809.741	4135
809.883	4128
810.025	4204
810.166	4204
810.308	4211
810.45	4223
810.591	4242
810.733	4287
810.875	4542
811.016	4877
811.158	5109
811.299	5296
811.441	5231
811.582	5098
811.724	4714
811.865	4481
812.007	4455
812.148	4432
812.29	4440
812.431	4428
812.573	4360
812.714	4352
812.855	4405
812.997	4428
813.138	4489
813.279	4428
813.421	4344
813.562	4348
813.703	4325
813.845	4322
813.986	4272
814.127	4188
814.268	4291
814.41	4310
814.551	4265
814.692	4310
814.833	4242
814.974	4287
815.115	4325
815.256	4280
815.397	4207
815.539	4299
815.68	4135
815.821	4215
815.962	4360
816.103	4287
816.244	4268
816.385	4227
816.526	4291
816.666	4169
816.807	4086
816.948	4185
817.089	4177
817.23	4112
817.371	4021
817.512	3994
817.653	4071
817.793	4036
817.934	4032
818.075	4097
818.216	4074
818.356	4112
818.497	4006
818.638	3941
818.778	3899
818.919	3857
819.06	3842
819.2	3857
819.341	3850
819.481	3800
819.622	3899
819.762	4025
819.903	3960
820.043	3869
820.184	3812
820.324	3778
820.465	3827
820.605	3800
820.746	3888
820.886	3838
821.026	3896
821.167	3896
821.307	3949
821.447	3975
821.588	3930
821.728	3956
821.868	3907
822.008	3846
822.149	3930
822.289	3945
822.429	3797
822.569	3747
822.709	3759
822.849	3694
822.99	3720
823.13	3747
823.27	3766
823.41	3679
823.55	3740
823.69	3701
823.83	3728
823.97	3679
824.11	3625
824.25	3576
824.389	3648
824.529	3675
824.669	3618
824.809	3743
824.949	3720
825.089	3766
825.228	3667
825.368	3591
825.508	3599
825.648	3568
825.787	3637
825.927	3618
826.067	3591
826.206	3679
826.346	3709
826.485	3846
826.625	3857
826.765	3896
826.904	3835
827.044	3629
827.183	3504
827.323	3420
827.462	3454
827.601	3374
827.741	3439
827.88	3412
828.02	3370
828.159	3412
828.298	3477
828.437	3561
828.577	3462
828.716	3561
828.855	3469
828.994	3359
829.134	3393
829.273	3344
829.412	3306
829.551	3310
829.69	3393
829.829	3409
829.968	3500
830.107	3389
830.246	3466
830.385	3382
830.524	3370
830.663	3287
830.802	3264
830.941	3192
831.08	3192
831.219	3249
831.357	3245
831.496	3359
831.635	3230
831.774	3157
831.913	3218
832.051	3100
832.19	3123
832.329	3188
832.467	3173
832.606	3104
832.744	3169
832.883	3199
833.022	3192
833.16	3291
833.299	3283
833.437	3336
833.576	3351
833.714	3401
833.852	3405
833.991	3409
834.129	3492
834.267	3428
834.406	3435
834.544	3409
834.682	3397
834.821	3401
834.959	3576
835.097	3420
835.235	3519
835.373	3485
835.511	3462
835.65	3439
835.788	3500
835.926	3382
836.064	3351
836.202	3458
836.34	3599
836.478	3606
836.615	3568
836.753	3576
836.891	3595
837.029	3595
837.167	3564
837.305	3603
837.443	3507
837.58	3466
837.718	3599
837.856	3553
837.993	3515
838.131	3610
838.269	3561
838.406	3568
838.544	3557
838.681	3447
838.819	3435
838.956	3336
839.094	3382
839.231	3447
839.369	3496
839.506	3663
839.643	3610
839.781	3492
839.918	3481
840.055	3530
840.193	3530
840.33	3496
840.467	3549
840.604	3584
840.742	3812
840.879	3530
841.016	3545
841.153	3542
841.29	3774
841.427	3682
841.564	3743
841.701	3732
841.838	3720
841.975	3682
842.112	3705
842.249	3633
842.385	3648
842.522	3797
842.659	3698
842.796	3660
842.933	3720
843.069	3698
843.206	3686
843.343	3816
843.479	3759
843.616	3816
843.752	3663
843.889	3652
844.025	3797
844.162	3698
844.298	3850
844.435	3770
844.571	3747
844.708	3888
844.844	3998
844.98	4017
845.117	4021
845.253	3926
845.389	3903
845.525	4002
845.661	3956
845.798	3903
845.934	4025
846.07	3998
846.206	4048
846.342	4093
846.478	4021
846.614	3941
846.75	3915
846.886	3926
847.022	4002
847.158	3930
847.294	3968
847.429	4002
847.565	4017
847.701	4219
847.837	3880
847.972	3873
848.108	3975
848.244	3975
848.379	3838
848.515	3808
848.65	3816
848.786	3793
848.921	3861
849.057	3953
849.192	3899
849.328	3865
849.463	3922
849.598	3865
849.734	3857
849.869	3823
850.004	3804
850.14	3823
850.275	3816
850.41	3694
850.545	3774
850.68	3793
850.815	3793
850.95	3770
851.085	3941
851.22	3850
851.355	3797
851.49	3800
851.625	3728
851.76	3785
851.895	3698
852.03	3736
852.165	3770
852.299	3842
852.434	3865
852.569	3892
852.703	3846
852.838	3934
852.973	3960
853.107	3991
853.242	3937
853.376	3915
853.511	3781
853.645	3838
853.78	3972
853.914	3888
854.048	3903
854.183	3899
854.317	3888
854.451	4013
854.585	3953
854.72	3941
854.854	4059
854.988	3964
855.122	4013
855.256	3934
855.39	4017
855.524	4090
855.658	4093
855.792	4105
855.926	4120
856.06	4158
856.194	4211
856.327	4120
856.461	4097
856.595	4154
856.729	4139
856.862	4249
856.996	4215
857.13	4284
857.263	4291
857.397	4337
857.53	4227
857.664	4352
857.797	4379
857.931	4455
858.064	4367
858.197	4436
858.331	4367
858.464	4383
858.597	4371
858.731	4462
858.864	4436
858.997	4451
859.13	4459
859.263	4466
859.396	4569
859.529	4519
859.662	4527
859.795	4538
859.928	4550
860.061	4691
860.194	4717
860.327	4622
860.46	4656
860.592	4702
860.725	4755
860.858	4759
860.99	4694
861.123	4683
861.256	4634
861.388	4763
861.521	5292
861.653	4714
861.786	4683
861.918	4706
862.05	4767
862.183	4831
862.315	4847
862.447	4934
862.58	4942
862.712	4809
862.844	4831
862.976	4900
863.108	4919
863.24	5166
863.372	4820
863.504	4862
863.636	4854
863.768	4972
863.9	4972
864.032	4911
864.164	4908
864.296	5014
864.428	5090
864.559	5086
864.691	5124
864.823	5140
864.954	5075
865.086	5143
865.217	5132
865.349	5155
865.48	5155
865.612	5197
865.743	5258
865.875	5189
866.006	5185
866.137	5235
866.269	5178
866.4	5254
866.531	5223
866.662	5254
866.793	5265
866.924	5273
867.055	5318
867.186	5318
867.317	5307
867.448	5349
867.579	5357
867.71	5353
867.841	5414
867.972	5448
868.103	5444
868.233	5493
868.364	5455
868.495	5524
868.625	5668
868.756	5733
868.886	5638
869.017	5726
869.147	5878
869.278	5847
869.408	5790
869.539	5817
869.669	5889
869.799	5870
869.929	5950
870.06	5965
870.19	6251
870.32	6144
870.45	6281
870.58	6323
870.71	6445
870.84	6460
870.97	6410
871.1	6399
871.23	6559
871.36	6700
871.489	6639
871.619	6681
871.749	6757
871.879	6901
872.008	6943
872.138	6909
872.267	6966
872.397	6993
872.526	7015
872.656	7171
872.785	7232
872.915	7343
873.044	7514
873.173	7552
873.303	7639
873.432	7757
873.561	7852
873.69	7887
873.819	7997
873.948	8119
874.077	8309
874.206	8290
874.335	8419
874.464	8587
874.593	8891
874.722	8883
874.851	9150
874.979	9199
875.108	9351
875.237	9408
875.365	9496
875.494	9625
875.623	9781
875.751	9812
875.88	9907
876.008	10124
876.136	10318
876.265	10455
876.393	10767
876.521	10725
876.65	10858
876.778	10862
876.906	10927
877.034	10987
877.162	11060
877.29	11235
877.418	11246
877.546	11303
877.674	11410
877.802	11425
877.93	11528
878.058	11501
878.185	11486
878.313	11649
878.441	11798
878.568	11703
878.696	11824
878.824	11779
878.951	11912
879.079	11969
879.206	12136
879.333	12026
879.461	11977
879.588	12098
879.715	12041
879.842	12292
879.97	12102
880.097	11843
880.224	11737
880.351	11870
880.478	11863
880.605	11737
880.732	11760
880.859	12003
880.986	11821
881.112	11885
881.239	11748
881.366	11665
881.493	11638
881.619	11577
881.746	11600
881.872	11490
881.999	11410
882.125	11509
882.252	11535
882.378	11497
882.505	11596
882.631	11398
882.757	11383
882.883	11303
883.01	11277
883.136	11261
883.262	11162
883.388	11022
883.514	11231
883.64	11170
883.766	11037
883.892	11071
884.018	10961
884.143	11056
884.269	11136
884.395	10854
884.52	10740
884.646	10820
884.772	10660
884.897	10717
885.023	10691
885.148	10744
885.274	10656
885.399	10618
885.524	10618
885.65	10637
885.775	10588
885.9	10558
886.025	10637
886.15	10569
886.275	10470
886.4	10413
886.525	10375
886.65	10360
886.775	10310
886.9	10417
887.025	10500
887.149	10363
887.274	10276
887.399	10173
887.523	10143
887.648	10150
887.773	10139
887.897	10249
888.021	10177
888.146	10071
888.27	10185
888.395	10227
888.519	10128
888.643	10143
888.767	10234
888.891	10097
889.015	9953
889.139	10013
889.263	9979
889.387	10002
889.511	10162
889.635	10029
889.759	9960
889.883	9972
890.006	9972
890.13	10120
890.254	9956
890.377	9987
890.501	9880
890.624	9831
890.748	9884
890.871	9884
890.995	9759
891.118	9717
891.241	9789
891.364	9751
891.488	9770
891.611	9698
891.734	9728
891.857	9770
891.98	9682
892.103	9755
892.226	9656
892.349	9717
892.471	9515
892.594	9553
892.717	9534
892.839	9511
892.962	9694
893.085	9713
893.207	9557
893.33	9507
893.452	9549
893.575	9591
893.697	9534
893.819	9526
893.941	9625
894.064	9561
894.186	9416
894.308	9382
894.43	9553
894.552	9492
894.674	9557
894.796	9367
894.918	9367
895.04	9386
895.161	9363
895.283	9325
895.405	9260
895.526	9283
895.648	9233
895.769	9268
895.891	9222
896.012	9264
896.134	9268
896.255	9135
896.376	9154
896.498	9116
896.619	9131
896.74	9017
896.861	9157
896.982	9256
897.103	9332
897.224	9066
897.345	8994
897.466	8975
897.587	8960
897.708	9104
897.828	9039
897.949	8899
898.07	8834
898.19	8895
898.311	9009
898.431	8910
898.552	8906
898.672	8941
898.792	9017
898.913	8975
899.033	8811
899.153	8762
899.273	8594
899.393	8659
899.513	8720
899.633	8697
899.753	8701
899.873	8670
899.993	8754
900.113	8629
900.232	8739
900.352	8659
900.472	8594
900.591	8610
900.711	8560
900.83	8537
900.95	8674
901.069	8629
901.189	8598
901.308	8473
901.427	8358
901.546	8423
901.665	8473
901.784	8434
901.904	8351
902.023	8328
902.141	8153
902.26	8142
902.379	8290
902.498	8275
902.617	8187
902.735	8282
902.854	8275
902.973	8225
903.091	8134
903.21	8111
903.328	8172
903.446	8027
903.565	8024
903.683	8111
903.801	8088
903.919	8046
904.038	8084
904.156	7974
904.274	8115
904.392	8016
904.51	8058
904.627	8062
904.745	8073
904.863	8073
904.981	7940
905.098	7868
905.216	7864
905.334	7921
905.451	7902
905.569	7864
905.686	7902
905.803	7928
905.921	7738
906.038	7845
906.155	7833
906.272	7636
906.389	7727
906.506	7632
906.623	7586
906.74	7563
906.857	7567
906.974	7552
907.091	7670
907.208	7685
907.324	7616
907.441	7624
907.557	7441
907.674	7464
907.79	7411
907.907	7358
908.023	7449
908.139	7518
908.256	7400
908.372	7301
908.488	7354
908.604	7209
908.72	7274
908.836	7266
908.952	7209
909.068	7263
909.184	7316
909.3	7270
909.415	7263
909.531	7320
909.647	7145
909.762	7095
909.878	7076
909.993	7160
910.108	7061
910.224	7038
910.339	7084
910.454	7004
910.57	6996
910.685	6932
910.8	7156
910.915	7023
911.03	7008
911.145	6871
911.259	6821
911.374	6894
911.489	6844
911.604	6768
911.718	6741
911.833	6749
911.947	6681
912.062	6547
912.176	6719
912.291	6703
912.405	6711
912.519	6810
912.633	6840
912.748	6738
912.862	6665
912.976	6631
913.09	6506
913.204	6536
913.318	6593
913.431	6715
913.545	6684
913.659	6669
913.772	6635
913.886	6544
914	6551
914.113	6639
914.226	6578
914.34	6620
914.453	6490
914.566	6616
914.68	6544
914.793	6502
914.906	6452
915.019	6391
915.132	6422
915.245	6376
915.358	6437
915.47	6391
915.583	6426
915.696	6563
915.809	6551
915.921	6532
916.034	6403
916.146	6437
916.259	6376
916.371	6475
916.483	6464
916.595	6361
916.708	6403
916.82	6376
916.932	6372
917.044	6395
917.156	6410
917.268	6331
917.38	6395
917.491	6323
917.603	6319
917.715	6342
917.826	6372
917.938	6346
918.049	6235
918.161	6342
918.272	6429
918.384	6448
918.495	6296
918.606	6254
918.717	6251
918.828	6277
918.939	6262
919.05	6197
919.161	6201
919.272	6106
919.383	6175
919.494	6266
919.604	6399
919.715	6308
919.826	6201
919.936	6216
920.047	6323
920.157	6308
920.267	6471
920.378	6331
920.488	6251
920.598	6475
920.708	6608
920.818	6410
920.928	6429
921.038	6563
921.148	6593
921.258	6319
921.368	6289
921.477	6155
921.587	6155
921.697	6045
921.806	6152
921.916	6098
922.025	5950
922.134	5893
922.244	5912
922.353	5950
922.462	5821
922.571	5805
922.68	5714
922.789	5668
922.898	5718
923.007	5638
923.116	5661
923.224	5661
923.333	5615
923.442	5608
923.55	5600
923.659	5608
923.767	5600
923.876	5551
923.984	5596
924.092	5440
924.201	5589
924.309	5543
924.417	5547
924.525	5509
924.633	5452
924.741	6235
924.849	5372
924.956	5421
925.064	5349
925.172	5337
925.279	5261
925.387	5330
925.494	5326
925.602	5383
925.709	5368
925.816	5258
925.924	5277
926.031	5357
926.138	5364
926.245	5311
926.352	5155
926.459	5353
926.566	5341
926.673	5166
926.779	5166
926.886	5102
926.993	5018
927.099	4987
927.206	5003
927.312	4968
927.419	4995
927.525	5033
927.631	4957
927.737	4900
927.843	4847
927.95	4767
928.056	4786
928.162	4816
928.267	4858
928.373	5311
928.479	4835
928.585	4691
928.69	4828
928.796	4763
928.901	4660
929.007	4626
929.112	4664
929.218	4611
929.323	4584
929.428	4565
929.533	4698
929.638	4558
929.743	4561
929.848	4500
929.953	4466
930.058	4428
930.163	4341
930.267	4341
930.372	4413
930.477	4318
930.581	4485
930.685	4360
930.79	4242
930.894	4299
930.998	4215
931.103	4363
931.207	4112
931.311	4112
931.415	4002
931.519	3937
931.623	3968
