Data from glass_V78500241_1070.txt Node
Date: Wed Sep 01 19:21:55 CST 2021
User: usil
Spectrometer: V785-0024
Trigger mode: 0
Integration Time (sec): 4.000000E-1
Scans to average: 1
Nonlinearity correction enabled: false
Boxcar width: 0
Storing dark spectrum: false
XAxis mode: Wavelengths
Number of Pixels in Spectrum: 1024
>>>>>Begin Spectral Data<<<<<
801.071	3751
801.214	3736
801.356	3724
801.499	3751
801.641	3720
801.783	3812
801.926	3884
802.068	3865
802.211	3880
802.353	3884
802.496	3850
802.638	3884
802.78	3892
802.923	3956
803.065	3873
803.208	3854
803.35	3884
803.492	3880
803.635	3930
803.777	3842
803.919	3922
804.061	4196
804.204	3934
804.346	3960
804.488	3953
804.63	4055
804.773	3979
804.915	3991
805.057	4139
805.199	4059
805.341	4097
805.483	4131
805.626	4131
805.768	4090
805.91	4219
806.052	4215
806.194	4242
806.336	4356
806.478	4246
806.62	4204
806.762	4215
806.904	4249
807.046	4344
807.188	4207
807.33	4166
807.472	4200
807.614	4200
807.756	4242
807.898	4219
808.04	4219
808.182	4314
808.324	4337
808.465	4402
808.607	4421
808.749	4474
808.891	4481
809.033	4561
809.174	4443
809.316	4284
809.458	4276
809.6	4150
809.741	4131
809.883	4177
810.025	4200
810.166	4188
810.308	4207
810.45	4223
810.591	4207
810.733	4268
810.875	4561
811.016	4797
811.158	5147
811.299	5299
811.441	5269
811.582	5079
811.724	4714
811.865	4489
812.007	4516
812.148	4409
812.29	4417
812.431	4405
812.573	4428
812.714	4466
812.855	4481
812.997	4432
813.138	4497
813.279	4417
813.421	4363
813.562	4348
813.703	4360
813.845	4356
813.986	4246
814.127	4223
814.268	4253
814.41	4299
814.551	4268
814.692	4337
814.833	4284
814.974	4352
815.115	4352
815.256	4246
815.397	4257
815.539	4253
815.68	4215
815.821	4227
815.962	4363
816.103	4276
816.244	4246
816.385	4291
816.526	4287
816.666	4230
816.807	4093
816.948	4158
817.089	4223
817.23	4135
817.371	4090
817.512	4090
817.653	4040
817.793	4013
817.934	4040
818.075	4086
818.216	4093
818.356	4090
818.497	4032
818.638	3911
818.778	3922
818.919	3926
819.06	3918
819.2	3983
819.341	3896
819.481	3865
819.622	3918
819.762	4048
819.903	4006
820.043	3854
820.184	3838
820.324	3808
820.465	3899
820.605	3888
820.746	3903
820.886	3770
821.026	3922
821.167	3918
821.307	4010
821.447	4010
821.588	3968
821.728	3983
821.868	3918
822.008	3896
822.149	3930
822.289	3911
822.429	3797
822.569	3778
822.709	3770
822.849	3724
822.99	3747
823.13	3800
823.27	3774
823.41	3740
823.55	3785
823.69	3724
823.83	3740
823.97	3663
824.11	3587
824.25	3599
824.389	3667
824.529	3694
824.669	3652
824.809	3743
824.949	3778
825.089	3690
825.228	3751
825.368	3633
825.508	3576
825.648	3595
825.787	3622
825.927	3686
826.067	3625
826.206	3679
826.346	3846
826.485	3854
826.625	3854
826.765	3918
826.904	3804
827.044	3625
827.183	3534
827.323	3458
827.462	3515
827.601	3466
827.741	3386
827.88	3447
828.02	3401
828.159	3462
828.298	3466
828.437	3549
828.577	3496
828.716	3629
828.855	3534
828.994	3389
829.134	3416
829.273	3382
829.412	3348
829.551	3340
829.69	3386
829.829	3428
829.968	3542
830.107	3450
830.246	3488
830.385	3409
830.524	3409
830.663	3321
830.802	3268
830.941	3249
831.08	3161
831.219	3218
831.357	3245
831.496	3424
831.635	3222
831.774	3192
831.913	3237
832.051	3135
832.19	3157
832.329	3211
832.467	3142
832.606	3138
832.744	3161
832.883	3233
833.022	3226
833.16	3214
833.299	3302
833.437	3313
833.576	3389
833.714	3424
833.852	3473
833.991	3466
834.129	3511
834.267	3428
834.406	3393
834.544	3416
834.682	3416
834.821	3412
834.959	3519
835.097	3439
835.235	3561
835.373	3488
835.511	3492
835.65	3466
835.788	3466
835.926	3359
836.064	3397
836.202	3386
836.34	3599
836.478	3587
836.615	3557
836.753	3580
836.891	3644
837.029	3625
837.167	3603
837.305	3584
837.443	3606
837.58	3538
837.718	3618
837.856	3538
837.993	3584
838.131	3599
838.269	3576
838.406	3584
838.544	3553
838.681	3511
838.819	3443
838.956	3409
839.094	3393
839.231	3462
839.369	3545
839.506	3740
839.643	3656
839.781	3523
839.918	3466
840.055	3542
840.193	3530
840.33	3530
840.467	3557
840.604	3622
840.742	3808
840.879	3545
841.016	3587
841.153	3629
841.29	3766
841.427	3694
841.564	3717
841.701	3755
841.838	3736
841.975	3686
842.112	3720
842.249	3667
842.385	3656
842.522	3816
842.659	3705
842.796	3682
842.933	3728
843.069	3698
843.206	3705
843.343	3781
843.479	3774
843.616	3846
843.752	3644
843.889	3698
844.025	3819
844.162	3690
844.298	3850
844.435	3789
844.571	3781
844.708	3918
844.844	4006
844.98	4006
845.117	4044
845.253	3960
845.389	3884
845.525	3998
845.661	3975
845.798	3941
845.934	3998
846.07	3975
846.206	4093
846.342	4128
846.478	4109
846.614	4017
846.75	3911
846.886	3922
847.022	4055
847.158	4036
847.294	3998
847.429	4021
847.565	3983
847.701	4230
847.837	3896
847.972	3865
848.108	3979
848.244	3972
848.379	3819
848.515	3804
848.65	3835
848.786	3850
848.921	3861
849.057	3911
849.192	3937
849.328	3888
849.463	3930
849.598	3899
849.734	3869
849.869	3846
850.004	3819
850.14	3808
850.275	3789
850.41	3759
850.545	3759
850.68	3797
850.815	3781
850.95	3789
851.085	3907
851.22	3915
851.355	3838
851.49	3808
851.625	3762
851.76	3766
851.895	3709
852.03	3736
852.165	3789
852.299	3831
852.434	3926
852.569	3915
852.703	3854
852.838	3892
852.973	4017
853.107	3968
853.242	3930
853.376	3838
853.511	3781
853.645	3804
853.78	3968
853.914	3953
854.048	3930
854.183	3861
854.317	3930
854.451	4124
854.585	3991
854.72	3956
854.854	4051
854.988	3983
855.122	4036
855.256	3934
855.39	4048
855.524	4063
855.658	4082
855.792	4143
855.926	4147
856.06	4158
856.194	4238
856.327	4181
856.461	4150
856.595	4143
856.729	4181
856.862	4272
856.996	4276
857.13	4303
857.263	4363
857.397	4363
857.53	4238
857.664	4360
857.797	4424
857.931	4443
858.064	4398
858.197	4451
858.331	4379
858.464	4386
858.597	4329
858.731	4455
858.864	4451
858.997	4459
859.13	4542
859.263	4531
859.396	4611
859.529	4577
859.662	4512
859.795	4561
859.928	4618
860.061	4748
860.194	4729
860.327	4672
860.46	4687
860.592	4755
860.725	4771
860.858	4790
860.99	4702
861.123	4717
861.256	4721
861.388	4828
861.521	5417
861.653	4725
861.786	4710
861.918	4706
862.05	4839
862.183	4835
862.315	4915
862.447	4949
862.58	4870
862.712	4782
862.844	4744
862.976	4843
863.108	4892
863.24	5242
863.372	4866
863.504	4942
863.636	4938
863.768	4972
863.9	4961
864.032	4942
864.164	4980
864.296	5060
864.428	5079
864.559	5128
864.691	5102
864.823	5052
864.954	5128
865.086	5166
865.217	5124
865.349	5178
865.48	5189
865.612	5231
865.743	5254
865.875	5193
866.006	5174
866.137	5265
866.269	5239
866.4	5280
866.531	5216
866.662	5223
866.793	5254
866.924	5303
867.055	5353
867.186	5349
867.317	5357
867.448	5402
867.579	5414
867.71	5406
867.841	5376
867.972	5452
868.103	5478
868.233	5478
868.364	5509
868.495	5566
868.625	5611
868.756	5790
868.886	5680
869.017	5726
869.147	5882
869.278	5866
869.408	5821
869.539	5847
869.669	5908
869.799	5885
869.929	5969
870.06	5969
870.19	6197
870.32	6186
870.45	6239
870.58	6311
870.71	6414
870.84	6506
870.97	6441
871.1	6403
871.23	6635
871.36	6696
871.489	6700
871.619	6760
871.749	6810
871.879	6882
872.008	7038
872.138	6962
872.267	7050
872.397	7023
872.526	7099
872.656	7046
872.785	7221
872.915	7411
873.044	7544
873.173	7609
873.303	7696
873.432	7784
873.561	7856
873.69	7894
873.819	8016
873.948	8134
874.077	8267
874.206	8282
874.335	8396
874.464	8648
874.593	8887
874.722	8986
874.851	9123
874.979	9249
875.108	9367
875.237	9428
875.365	9534
875.494	9717
875.623	9819
875.751	9835
875.88	9968
876.008	10116
876.136	10310
876.265	10516
876.393	10763
876.521	10679
876.65	10835
876.778	10816
876.906	10942
877.034	10972
877.162	11128
877.29	11155
877.418	11280
877.546	11364
877.674	11539
877.802	11512
877.93	11554
878.058	11551
878.185	11577
878.313	11608
878.441	11764
878.568	11592
878.696	11786
878.824	11908
878.951	11927
879.079	11954
879.206	12243
879.333	12030
879.461	12034
879.588	12041
879.715	11988
879.842	12228
879.97	12030
880.097	11893
880.224	11927
880.351	11855
880.478	11893
880.605	11836
880.732	11847
880.859	12022
880.986	11752
881.112	11912
881.239	11748
881.366	11688
881.493	11642
881.619	11535
881.746	11592
881.872	11528
881.999	11467
882.125	11551
882.252	11623
882.378	11486
882.505	11611
882.631	11391
882.757	11311
882.883	11395
883.01	11296
883.136	11178
883.262	11124
883.388	11052
883.514	11181
883.64	11162
883.766	11064
883.892	10972
884.018	11003
884.143	11151
884.269	11124
884.395	10816
884.52	10809
884.646	10797
884.772	10702
884.897	10645
885.023	10691
885.148	10710
885.274	10691
885.399	10717
885.524	10702
885.65	10554
885.775	10588
885.9	10577
886.025	10641
886.15	10603
886.275	10428
886.4	10367
886.525	10428
886.65	10363
886.775	10409
886.9	10519
887.025	10554
887.149	10394
887.274	10196
887.399	10154
887.523	10147
887.648	10207
887.773	10192
887.897	10284
888.021	10344
888.146	10154
888.27	10230
888.395	10143
888.519	10230
888.643	10154
888.767	10192
888.891	10128
889.015	10044
889.139	10029
889.263	9934
889.387	10143
889.511	10090
889.635	10112
889.759	9987
889.883	9991
890.006	10032
890.13	10090
890.254	9876
890.377	9930
890.501	9842
890.624	9907
890.748	9998
890.871	9804
890.995	9720
891.118	9743
891.241	9789
891.364	9759
891.488	9922
891.611	9740
891.734	9705
891.857	9831
891.98	9713
892.103	9778
892.226	9762
892.349	9736
892.471	9564
892.594	9656
892.717	9603
892.839	9561
892.962	9663
893.085	9637
893.207	9606
893.33	9496
893.452	9606
893.575	9587
893.697	9519
893.819	9633
893.941	9629
894.064	9644
894.186	9386
894.308	9401
894.43	9561
894.552	9587
894.674	9557
894.796	9344
894.918	9405
895.04	9359
895.161	9435
895.283	9351
895.405	9241
895.526	9222
895.648	9264
895.769	9253
895.891	9241
896.012	9272
896.134	9283
896.255	9245
896.376	9077
896.498	9119
896.619	9131
896.74	9097
896.861	9135
896.982	9302
897.103	9351
897.224	9222
897.345	9051
897.466	9062
897.587	8971
897.708	9123
897.828	9028
897.949	8986
898.07	8910
898.19	8872
898.311	9032
898.431	8929
898.552	8975
898.672	9039
898.792	8982
898.913	8990
899.033	8758
899.153	8701
899.273	8716
899.393	8758
899.513	8766
899.633	8746
899.753	8701
899.873	8678
899.993	8697
900.113	8659
900.232	8746
900.352	8667
900.472	8598
900.591	8568
900.711	8598
900.83	8492
900.95	8663
901.069	8682
901.189	8606
901.308	8415
901.427	8454
901.546	8476
901.665	8393
901.784	8503
901.904	8370
902.023	8328
902.141	8187
902.26	8172
902.379	8290
902.498	8183
902.617	8145
902.735	8290
902.854	8267
902.973	8332
903.091	8088
903.21	8119
903.328	8062
903.446	8065
903.565	8123
903.683	8084
903.801	8115
903.919	8123
904.038	8119
904.156	8092
904.274	8077
904.392	8130
904.51	8005
904.627	8111
904.745	8123
904.863	8069
904.981	7936
905.098	7917
905.216	7852
905.334	7936
905.451	7864
905.569	7871
905.686	7909
905.803	7963
905.921	7788
906.038	7902
906.155	7818
906.272	7734
906.389	7693
906.506	7590
906.623	7662
906.74	7655
906.857	7495
906.974	7582
907.091	7666
907.208	7746
907.324	7658
907.441	7639
907.557	7518
907.674	7480
907.79	7445
907.907	7396
908.023	7407
908.139	7525
908.256	7426
908.372	7419
908.488	7327
908.604	7305
908.72	7289
908.836	7232
908.952	7236
909.068	7225
909.184	7331
909.3	7335
909.415	7266
909.531	7308
909.647	7122
909.762	7145
909.878	7080
909.993	7183
910.108	7126
910.224	7110
910.339	7107
910.454	7088
910.57	6973
910.685	6958
910.8	7171
910.915	7122
911.03	7034
911.145	6916
911.259	6897
911.374	6905
911.489	6848
911.604	6783
911.718	6703
911.833	6821
911.947	6650
912.062	6585
912.176	6749
912.291	6684
912.405	6681
912.519	6871
912.633	6776
912.748	6760
912.862	6669
912.976	6608
913.09	6578
913.204	6604
913.318	6631
913.431	6688
913.545	6707
913.659	6741
913.772	6700
913.886	6585
914	6528
914.113	6616
914.226	6627
914.34	6566
914.453	6506
914.566	6681
914.68	6521
914.793	6593
914.906	6452
915.019	6372
915.132	6365
915.245	6376
915.358	6414
915.47	6441
915.583	6429
915.696	6536
915.809	6532
915.921	6578
916.034	6464
916.146	6433
916.259	6399
916.371	6521
916.483	6521
916.595	6407
916.708	6467
916.82	6410
916.932	6414
917.044	6445
917.156	6391
917.268	6357
917.38	6311
917.491	6308
917.603	6407
917.715	6369
917.826	6353
917.938	6292
918.049	6300
918.161	6365
918.272	6441
918.384	6429
918.495	6376
918.606	6254
918.717	6220
918.828	6296
918.939	6281
919.05	6239
919.161	6281
919.272	6186
919.383	6167
919.494	6327
919.604	6399
919.715	6308
919.826	6213
919.936	6319
920.047	6327
920.157	6311
920.267	6414
920.378	6357
920.488	6232
920.598	6483
920.708	6582
920.818	6502
920.928	6448
921.038	6620
921.148	6566
921.258	6372
921.368	6311
921.477	6251
921.587	6220
921.697	6083
921.806	6136
921.916	6110
922.025	5969
922.134	5920
922.244	5931
922.353	5950
922.462	5863
922.571	5866
922.68	5703
922.789	5714
922.898	5729
923.007	5691
923.116	5722
923.224	5710
923.333	5722
923.442	5581
923.55	5547
923.659	5623
923.767	5630
923.876	5547
923.984	5570
924.092	5497
924.201	5539
924.309	5535
924.417	5539
924.525	5551
924.633	5471
924.741	6273
924.849	5379
924.956	5497
925.064	5398
925.172	5292
925.279	5326
925.387	5376
925.494	5307
925.602	5471
925.709	5429
925.816	5277
925.924	5318
926.031	5368
926.138	5330
926.245	5296
926.352	5227
926.459	5417
926.566	5349
926.673	5231
926.779	5151
926.886	5098
926.993	5052
927.099	4972
927.206	4984
927.312	4965
927.419	5003
927.525	4999
927.631	4946
927.737	4904
927.843	4896
927.95	4809
928.056	4816
928.162	4820
928.267	4835
928.373	5326
928.479	4904
928.585	4698
928.69	4809
928.796	4797
928.901	4672
929.007	4611
929.112	4649
929.218	4626
929.323	4596
929.428	4577
929.533	4653
929.638	4527
929.743	4550
929.848	4580
929.953	4538
930.058	4436
930.163	4268
930.267	4314
930.372	4462
930.477	4322
930.581	4489
930.685	4356
930.79	4280
930.894	4295
930.998	4265
931.103	4409
931.207	4181
931.311	4036
931.415	4051
931.519	3922
931.623	3937
