Data from glass_V78500241_2425.txt Node
Date: Wed Sep 01 19:31:18 CST 2021
User: usil
Spectrometer: V785-0024
Trigger mode: 0
Integration Time (sec): 4.000000E-1
Scans to average: 1
Nonlinearity correction enabled: false
Boxcar width: 0
Storing dark spectrum: false
XAxis mode: Wavelengths
Number of Pixels in Spectrum: 1024
>>>>>Begin Spectral Data<<<<<
801.071	3751
801.214	3728
801.356	3686
801.499	3751
801.641	3747
801.783	3740
801.926	3854
802.068	3819
802.211	3842
802.353	3873
802.496	3861
802.638	3861
802.78	3949
802.923	3945
803.065	3884
803.208	3793
803.35	3838
803.492	3911
803.635	3918
803.777	3778
803.919	3926
804.061	4109
804.204	3960
804.346	3922
804.488	3831
804.63	4032
804.773	3926
804.915	3983
805.057	4101
805.199	4010
805.341	4090
805.483	4135
805.626	4139
805.768	4105
805.91	4219
806.052	4215
806.194	4227
806.336	4318
806.478	4196
806.62	4177
806.762	4173
806.904	4215
807.046	4295
807.188	4188
807.33	4158
807.472	4268
807.614	4173
807.756	4276
807.898	4204
808.04	4207
808.182	4257
808.324	4303
808.465	4337
808.607	4485
808.749	4440
808.891	4440
809.033	4478
809.174	4371
809.316	4261
809.458	4211
809.6	4150
809.741	4105
809.883	4135
810.025	4211
810.166	4223
810.308	4215
810.45	4230
810.591	4207
810.733	4291
810.875	4516
811.016	4854
811.158	5079
811.299	5261
811.441	5227
811.582	5083
811.724	4702
811.865	4432
812.007	4443
812.148	4344
812.29	4417
812.431	4379
812.573	4402
812.714	4333
812.855	4390
812.997	4447
813.138	4493
813.279	4417
813.421	4390
813.562	4333
813.703	4344
813.845	4344
813.986	4215
814.127	4181
814.268	4246
814.41	4280
814.551	4230
814.692	4318
814.833	4268
814.974	4318
815.115	4325
815.256	4249
815.397	4230
815.539	4284
815.68	4188
815.821	4192
815.962	4265
816.103	4344
816.244	4249
816.385	4227
816.526	4242
816.666	4215
816.807	4059
816.948	4200
817.089	4162
817.23	4150
817.371	4067
817.512	4032
817.653	4078
817.793	3983
817.934	3987
818.075	4093
818.216	4048
818.356	4021
818.497	3994
818.638	3892
818.778	3915
818.919	3884
819.06	3835
819.2	3937
819.341	3854
819.481	3869
819.622	3899
819.762	4017
819.903	3960
820.043	3823
820.184	3808
820.324	3838
820.465	3835
820.605	3869
820.746	3861
820.886	3781
821.026	3968
821.167	3884
821.307	3983
821.447	3972
821.588	3972
821.728	3896
821.868	3907
822.008	3793
822.149	3873
822.289	3922
822.429	3785
822.569	3766
822.709	3766
822.849	3698
822.99	3709
823.13	3747
823.27	3827
823.41	3724
823.55	3736
823.69	3713
823.83	3713
823.97	3656
824.11	3599
824.25	3614
824.389	3606
824.529	3660
824.669	3622
824.809	3709
824.949	3732
825.089	3720
825.228	3743
825.368	3580
825.508	3549
825.648	3568
825.787	3561
825.927	3618
826.067	3572
826.206	3641
826.346	3823
826.485	3778
826.625	3827
826.765	3956
826.904	3781
827.044	3641
827.183	3515
827.323	3462
827.462	3458
827.601	3428
827.741	3405
827.88	3454
828.02	3359
828.159	3420
828.298	3469
828.437	3530
828.577	3466
828.716	3587
828.855	3473
828.994	3344
829.134	3329
829.273	3351
829.412	3321
829.551	3317
829.69	3370
829.829	3420
829.968	3507
830.107	3435
830.246	3454
830.385	3351
830.524	3359
830.663	3306
830.802	3256
830.941	3195
831.08	3180
831.219	3253
831.357	3268
831.496	3389
831.635	3237
831.774	3161
831.913	3218
832.051	3138
832.19	3165
832.329	3173
832.467	3135
832.606	3100
832.744	3112
832.883	3192
833.022	3165
833.16	3260
833.299	3302
833.437	3332
833.576	3389
833.714	3416
833.852	3405
833.991	3462
834.129	3496
834.267	3431
834.406	3412
834.544	3450
834.682	3477
834.821	3416
834.959	3587
835.097	3374
835.235	3511
835.373	3469
835.511	3492
835.65	3439
835.788	3473
835.926	3374
836.064	3351
836.202	3397
836.34	3576
836.478	3629
836.615	3515
836.753	3610
836.891	3614
837.029	3591
837.167	3580
837.305	3523
837.443	3534
837.58	3526
837.718	3587
837.856	3504
837.993	3515
838.131	3580
838.269	3561
838.406	3568
838.544	3564
838.681	3477
838.819	3393
838.956	3367
839.094	3401
839.231	3405
839.369	3477
839.506	3720
839.643	3622
839.781	3450
839.918	3469
840.055	3526
840.193	3526
840.33	3515
840.467	3561
840.604	3564
840.742	3751
840.879	3534
841.016	3557
841.153	3553
841.29	3755
841.427	3690
841.564	3641
841.701	3743
841.838	3660
841.975	3671
842.112	3701
842.249	3637
842.385	3648
842.522	3846
842.659	3652
842.796	3667
842.933	3709
843.069	3675
843.206	3720
843.343	3797
843.479	3785
843.616	3781
843.752	3667
843.889	3656
844.025	3812
844.162	3717
844.298	3812
844.435	3747
844.571	3789
844.708	3876
844.844	3949
844.98	3983
845.117	3968
845.253	3915
845.389	3876
845.525	3956
845.661	3972
845.798	3903
845.934	4006
846.07	3964
846.206	4101
846.342	4150
846.478	4048
846.614	3975
846.75	3975
846.886	3915
847.022	4032
847.158	3937
847.294	3975
847.429	4017
847.565	3964
847.701	4227
847.837	3850
847.972	3861
848.108	3926
848.244	3998
848.379	3873
848.515	3781
848.65	3819
848.786	3861
848.921	3842
849.057	3911
849.192	3903
849.328	3873
849.463	3873
849.598	3869
849.734	3865
849.869	3850
850.004	3774
850.14	3800
850.275	3774
850.41	3694
850.545	3755
850.68	3778
850.815	3774
850.95	3793
851.085	3918
851.22	3854
851.355	3812
851.49	3800
851.625	3789
851.76	3808
851.895	3686
852.03	3751
852.165	3759
852.299	3827
852.434	3869
852.569	3876
852.703	3884
852.838	3937
852.973	4044
853.107	3956
853.242	3880
853.376	3857
853.511	3740
853.645	3876
853.78	4017
853.914	3880
854.048	3903
854.183	3857
854.317	3922
854.451	4071
854.585	3892
854.72	3945
854.854	4010
854.988	3945
855.122	3987
855.256	3850
855.39	4044
855.524	4074
855.658	4071
855.792	4093
855.926	4120
856.06	4177
856.194	4188
856.327	4135
856.461	4143
856.595	4188
856.729	4181
856.862	4238
856.996	4242
857.13	4303
857.263	4306
857.397	4348
857.53	4291
857.664	4329
857.797	4379
857.931	4413
858.064	4413
858.197	4451
858.331	4440
858.464	4352
858.597	4386
858.731	4428
858.864	4436
858.997	4493
859.13	4478
859.263	4523
859.396	4596
859.529	4508
859.662	4546
859.795	4504
859.928	4611
860.061	4683
860.194	4694
860.327	4645
860.46	4603
860.592	4729
860.725	4710
860.858	4774
860.99	4683
861.123	4622
861.256	4706
861.388	4744
861.521	5516
861.653	4706
861.786	4721
861.918	4771
862.05	4786
862.183	4850
862.315	4908
862.447	4915
862.58	4809
862.712	4782
862.844	4748
862.976	4812
863.108	4862
863.24	5151
863.372	4824
863.504	4881
863.636	4862
863.768	4949
863.9	4961
864.032	4938
864.164	4965
864.296	4976
864.428	5010
864.559	5079
864.691	5132
864.823	5140
864.954	5143
865.086	5166
865.217	5090
865.349	5090
865.48	5140
865.612	5166
865.743	5265
865.875	5159
866.006	5185
866.137	5220
866.269	5208
866.4	5269
866.531	5273
866.662	5208
866.793	5231
866.924	5292
867.055	5337
867.186	5258
867.317	5315
867.448	5303
867.579	5421
867.71	5410
867.841	5383
867.972	5444
868.103	5421
868.233	5448
868.364	5497
868.495	5573
868.625	5646
868.756	5737
868.886	5665
869.017	5691
869.147	5855
869.278	5824
869.408	5809
869.539	5805
869.669	5901
869.799	5851
869.929	6015
870.06	6015
870.19	6167
870.32	6209
870.45	6254
870.58	6338
870.71	6391
870.84	6483
870.97	6426
871.1	6372
871.23	6673
871.36	6642
871.489	6623
871.619	6760
871.749	6783
871.879	6791
872.008	6989
872.138	6916
872.267	6996
872.397	6928
872.526	7061
872.656	7088
872.785	7164
872.915	7331
873.044	7441
873.173	7540
873.303	7578
873.432	7708
873.561	7818
873.69	7898
873.819	7967
873.948	8164
874.077	8248
874.206	8423
874.335	8495
874.464	8663
874.593	8868
874.722	8906
874.851	9085
874.979	9291
875.108	9279
875.237	9389
875.365	9435
875.494	9622
875.623	9827
875.751	9857
875.88	10013
876.008	10158
876.136	10287
876.265	10538
876.393	10691
876.521	10752
876.65	10790
876.778	10771
876.906	10896
877.034	10991
877.162	11048
877.29	11098
877.418	11250
877.546	11288
877.674	11391
877.802	11459
877.93	11440
878.058	11509
878.185	11581
878.313	11657
878.441	11733
878.568	11615
878.696	11703
878.824	11836
878.951	12011
879.079	12045
879.206	12110
879.333	12049
879.461	11950
879.588	12022
879.715	12041
879.842	12300
879.97	12045
880.097	11912
880.224	11916
880.351	11870
880.478	11836
880.605	11809
880.732	11786
880.859	12015
880.986	11836
881.112	11828
881.239	11691
881.366	11684
881.493	11535
881.619	11505
881.746	11524
881.872	11486
881.999	11440
882.125	11474
882.252	11520
882.378	11493
882.505	11551
882.631	11330
882.757	11258
882.883	11311
883.01	11223
883.136	11265
883.262	11083
883.388	11064
883.514	11189
883.64	11113
883.766	11124
883.892	11029
884.018	10927
884.143	11014
884.269	11060
884.395	10790
884.52	10786
884.646	10706
884.772	10668
884.897	10527
885.023	10694
885.148	10607
885.274	10702
885.399	10653
885.524	10573
885.65	10599
885.775	10592
885.9	10512
886.025	10618
886.15	10459
886.275	10481
886.4	10322
886.525	10379
886.65	10371
886.775	10424
886.9	10512
887.025	10512
887.149	10341
887.274	10268
887.399	10177
887.523	10074
887.648	10128
887.773	10093
887.897	10173
888.021	10185
888.146	10166
888.27	10181
888.395	10219
888.519	10162
888.643	10173
888.767	10185
888.891	10044
889.015	10055
889.139	10040
889.263	9972
889.387	10078
889.511	10150
889.635	10063
889.759	9979
889.883	9945
890.006	9941
890.13	10101
890.254	9945
890.377	9994
890.501	9800
890.624	9823
890.748	9884
890.871	9861
890.995	9675
891.118	9724
891.241	9736
891.364	9713
891.488	9770
891.611	9755
891.734	9762
891.857	9717
891.98	9751
892.103	9770
892.226	9717
892.349	9686
892.471	9530
892.594	9622
892.717	9622
892.839	9610
892.962	9644
893.085	9644
893.207	9576
893.33	9561
893.452	9507
893.575	9591
893.697	9523
893.819	9587
893.941	9614
894.064	9485
894.186	9450
894.308	9431
894.43	9492
894.552	9492
894.674	9481
894.796	9469
894.918	9348
895.04	9363
895.161	9325
895.283	9355
895.405	9279
895.526	9275
895.648	9157
895.769	9245
895.891	9222
896.012	9287
896.134	9214
896.255	9169
896.376	9062
896.498	9123
896.619	9154
896.74	9074
896.861	9070
896.982	9176
897.103	9253
897.224	9077
897.345	9070
897.466	9058
897.587	9051
897.708	9039
897.828	9085
897.949	8979
898.07	8830
898.19	8864
898.311	9036
898.431	8876
898.552	8933
898.672	8956
898.792	8952
898.913	8876
899.033	8735
899.153	8785
899.273	8663
899.393	8629
899.513	8727
899.633	8708
899.753	8724
899.873	8739
899.993	8743
900.113	8670
900.232	8693
900.352	8590
900.472	8625
900.591	8583
900.711	8598
900.83	8514
900.95	8629
901.069	8708
901.189	8549
901.308	8415
901.427	8415
901.546	8442
901.665	8480
901.784	8522
901.904	8355
902.023	8351
902.141	8256
902.26	8176
902.379	8191
902.498	8225
902.617	8199
902.735	8286
902.854	8286
902.973	8240
903.091	8123
903.21	8096
903.328	8123
903.446	8065
903.565	8062
903.683	8081
903.801	8043
903.919	8107
904.038	8107
904.156	7951
904.274	8111
904.392	8043
904.51	8027
904.627	7978
904.745	8043
904.863	8100
904.981	7909
905.098	7860
905.216	7921
905.334	7898
905.451	7902
905.569	7928
905.686	7879
905.803	7879
905.921	7833
906.038	7849
906.155	7715
906.272	7681
906.389	7727
906.506	7582
906.623	7613
906.74	7624
906.857	7506
906.974	7563
907.091	7632
907.208	7685
907.324	7674
907.441	7582
907.557	7434
907.674	7438
907.79	7392
907.907	7381
908.023	7457
908.139	7491
908.256	7335
908.372	7438
908.488	7293
908.604	7301
908.72	7149
908.836	7171
908.952	7259
909.068	7259
909.184	7293
909.3	7293
909.415	7259
909.531	7244
909.647	7141
909.762	7057
909.878	7133
909.993	7122
910.108	7107
910.224	7099
910.339	7126
910.454	7038
910.57	6954
910.685	6932
910.8	7103
910.915	7107
911.03	7069
911.145	6935
911.259	6867
911.374	6856
911.489	6837
911.604	6852
911.718	6692
911.833	6757
911.947	6620
912.062	6616
912.176	6669
912.291	6757
912.405	6738
912.519	6810
912.633	6837
912.748	6722
912.862	6627
912.976	6654
913.09	6490
913.204	6551
913.318	6578
913.431	6692
913.545	6677
913.659	6715
913.772	6673
913.886	6555
914	6532
914.113	6570
914.226	6627
914.34	6570
914.453	6506
914.566	6570
914.68	6532
914.793	6502
914.906	6407
915.019	6384
915.132	6372
915.245	6460
915.358	6426
915.47	6395
915.583	6448
915.696	6445
915.809	6528
915.921	6494
916.034	6437
916.146	6403
916.259	6380
916.371	6464
916.483	6448
916.595	6372
916.708	6369
916.82	6346
916.932	6334
917.044	6380
917.156	6350
917.268	6315
917.38	6357
917.491	6270
917.603	6334
917.715	6395
917.826	6422
917.938	6334
918.049	6235
918.161	6319
918.272	6414
918.384	6403
918.495	6304
918.606	6277
918.717	6247
918.828	6270
918.939	6289
919.05	6194
919.161	6201
919.272	6110
919.383	6228
919.494	6247
919.604	6369
919.715	6247
919.826	6216
919.936	6232
920.047	6319
920.157	6277
920.267	6460
920.378	6308
920.488	6247
920.598	6429
920.708	6502
920.818	6483
920.928	6448
921.038	6601
921.148	6551
921.258	6407
921.368	6353
921.477	6220
921.587	6095
921.697	6163
921.806	6114
921.916	6053
922.025	5889
922.134	5897
922.244	5916
922.353	5908
922.462	5824
922.571	5802
922.68	5710
922.789	5699
922.898	5676
923.007	5657
923.116	5695
923.224	5630
923.333	5684
923.442	5581
923.55	5562
923.659	5532
923.767	5600
923.876	5562
923.984	5661
924.092	5524
924.201	5566
924.309	5543
924.417	5528
924.525	5433
924.633	5520
924.741	6266
924.849	5387
924.956	5414
925.064	5353
925.172	5292
925.279	5250
925.387	5349
925.494	5326
925.602	5444
925.709	5322
925.816	5258
925.924	5307
926.031	5337
926.138	5322
926.245	5303
926.352	5189
926.459	5326
926.566	5265
926.673	5235
926.779	5124
926.886	5094
926.993	5025
927.099	5037
927.206	4968
927.312	4972
927.419	5025
927.525	4961
927.631	4984
927.737	4908
927.843	4889
927.95	4759
928.056	4805
928.162	4801
928.267	4824
928.373	5273
928.479	4816
928.585	4672
928.69	4755
928.796	4828
928.901	4660
929.007	4618
929.112	4717
929.218	4637
929.323	4592
929.428	4565
929.533	4618
929.638	4519
929.743	4546
929.848	4512
929.953	4493
930.058	4428
930.163	4318
930.267	4325
930.372	4443
930.477	4344
930.581	4440
930.685	4352
930.79	4249
930.894	4253
930.998	4287
931.103	4363
931.207	4139
931.311	4074
931.415	4055
931.519	3915
931.623	3937
