Data from glass_V78500241_1262.txt Node
Date: Wed Sep 01 19:23:14 CST 2021
User: usil
Spectrometer: V785-0024
Trigger mode: 0
Integration Time (sec): 4.000000E-1
Scans to average: 1
Nonlinearity correction enabled: false
Boxcar width: 0
Storing dark spectrum: false
XAxis mode: Wavelengths
Number of Pixels in Spectrum: 1024
>>>>>Begin Spectral Data<<<<<
801.071	3736
801.214	3755
801.356	3766
801.499	3724
801.641	3751
801.783	3762
801.926	3850
802.068	3854
802.211	3873
802.353	3861
802.496	3812
802.638	3888
802.78	3926
802.923	3903
803.065	3903
803.208	3861
803.35	3888
803.492	3903
803.635	3934
803.777	3800
803.919	3922
804.061	4188
804.204	3979
804.346	3926
804.488	3922
804.63	3991
804.773	3979
804.915	4013
805.057	4120
805.199	4013
805.341	4139
805.483	4150
805.626	4158
805.768	4090
805.91	4223
806.052	4211
806.194	4196
806.336	4272
806.478	4238
806.62	4188
806.762	4185
806.904	4242
807.046	4348
807.188	4200
807.33	4173
807.472	4200
807.614	4211
807.756	4261
807.898	4219
808.04	4219
808.182	4318
808.324	4352
808.465	4352
808.607	4436
808.749	4493
808.891	4462
809.033	4459
809.174	4421
809.316	4261
809.458	4265
809.6	4116
809.741	4150
809.883	4166
810.025	4276
810.166	4207
810.308	4230
810.45	4253
810.591	4257
810.733	4306
810.875	4535
811.016	4854
811.158	5109
811.299	5303
811.441	5273
811.582	5045
811.724	4694
811.865	4485
812.007	4500
812.148	4413
812.29	4447
812.431	4367
812.573	4436
812.714	4386
812.855	4405
812.997	4421
813.138	4493
813.279	4405
813.421	4413
813.562	4386
813.703	4348
813.845	4329
813.986	4238
814.127	4204
814.268	4234
814.41	4325
814.551	4272
814.692	4306
814.833	4257
814.974	4333
815.115	4344
815.256	4253
815.397	4276
815.539	4265
815.68	4215
815.821	4211
815.962	4356
816.103	4230
816.244	4238
816.385	4227
816.526	4329
816.666	4219
816.807	4120
816.948	4158
817.089	4169
817.23	4147
817.371	4059
817.512	4078
817.653	4109
817.793	4048
817.934	3991
818.075	4109
818.216	4086
818.356	4120
818.497	4036
818.638	3930
818.778	3979
818.919	3922
819.06	3899
819.2	3934
819.341	3865
819.481	3876
819.622	3926
819.762	4021
819.903	3926
820.043	3884
820.184	3838
820.324	3835
820.465	3899
820.605	3857
820.746	3846
820.886	3819
821.026	3972
821.167	3888
821.307	4002
821.447	4010
821.588	4006
821.728	3945
821.868	3964
822.008	3873
822.149	3930
822.289	3911
822.429	3800
822.569	3781
822.709	3808
822.849	3705
822.99	3724
823.13	3736
823.27	3816
823.41	3736
823.55	3778
823.69	3713
823.83	3751
823.97	3705
824.11	3614
824.25	3587
824.389	3667
824.529	3656
824.669	3637
824.809	3694
824.949	3759
825.089	3762
825.228	3663
825.368	3603
825.508	3553
825.648	3580
825.787	3629
825.927	3644
826.067	3652
826.206	3652
826.346	3808
826.485	3880
826.625	3861
826.765	3903
826.904	3854
827.044	3625
827.183	3549
827.323	3477
827.462	3477
827.601	3431
827.741	3428
827.88	3462
828.02	3386
828.159	3450
828.298	3481
828.437	3519
828.577	3485
828.716	3599
828.855	3564
828.994	3416
829.134	3378
829.273	3374
829.412	3393
829.551	3332
829.69	3401
829.829	3412
829.968	3534
830.107	3473
830.246	3416
830.385	3401
830.524	3359
830.663	3313
830.802	3260
830.941	3222
831.08	3226
831.219	3275
831.357	3264
831.496	3412
831.635	3253
831.774	3180
831.913	3218
832.051	3135
832.19	3142
832.329	3222
832.467	3173
832.606	3116
832.744	3169
832.883	3176
833.022	3169
833.16	3233
833.299	3332
833.437	3344
833.576	3397
833.714	3397
833.852	3466
833.991	3477
834.129	3530
834.267	3450
834.406	3454
834.544	3454
834.682	3428
834.821	3428
834.959	3580
835.097	3412
835.235	3557
835.373	3485
835.511	3523
835.65	3462
835.788	3496
835.926	3412
836.064	3351
836.202	3428
836.34	3587
836.478	3599
836.615	3534
836.753	3599
836.891	3629
837.029	3610
837.167	3576
837.305	3545
837.443	3572
837.58	3492
837.718	3572
837.856	3591
837.993	3523
838.131	3587
838.269	3580
838.406	3557
838.544	3564
838.681	3496
838.819	3447
838.956	3409
839.094	3382
839.231	3405
839.369	3523
839.506	3755
839.643	3622
839.781	3530
839.918	3473
840.055	3530
840.193	3523
840.33	3542
840.467	3572
840.604	3587
840.742	3854
840.879	3561
841.016	3603
841.153	3622
841.29	3774
841.427	3736
841.564	3732
841.701	3755
841.838	3682
841.975	3671
842.112	3717
842.249	3641
842.385	3614
842.522	3819
842.659	3740
842.796	3709
842.933	3705
843.069	3717
843.206	3755
843.343	3785
843.479	3800
843.616	3819
843.752	3682
843.889	3671
844.025	3823
844.162	3686
844.298	3835
844.435	3781
844.571	3827
844.708	3918
844.844	3991
844.98	4025
845.117	4010
845.253	3945
845.389	3896
845.525	3994
845.661	3949
845.798	3930
845.934	4040
846.07	3937
846.206	4036
846.342	4131
846.478	4032
846.614	3991
846.75	3983
846.886	3873
847.022	4051
847.158	3945
847.294	4051
847.429	3987
847.565	3994
847.701	4287
847.837	3911
847.972	3850
848.108	3983
848.244	3975
848.379	3842
848.515	3800
848.65	3812
848.786	3827
848.921	3850
849.057	3926
849.192	3964
849.328	3899
849.463	3915
849.598	3865
849.734	3854
849.869	3827
850.004	3797
850.14	3880
850.275	3819
850.41	3762
850.545	3751
850.68	3816
850.815	3831
850.95	3827
851.085	3915
851.22	3869
851.355	3850
851.49	3774
851.625	3819
851.76	3854
851.895	3740
852.03	3774
852.165	3800
852.299	3816
852.434	3888
852.569	3896
852.703	3911
852.838	3911
852.973	3998
853.107	3987
853.242	3903
853.376	3846
853.511	3774
853.645	3880
853.78	3949
853.914	3907
854.048	3884
854.183	3888
854.317	3926
854.451	4032
854.585	3911
854.72	3953
854.854	4078
854.988	3903
855.122	4036
855.256	3899
855.39	4040
855.524	4082
855.658	4078
855.792	4105
855.926	4169
856.06	4154
856.194	4181
856.327	4101
856.461	4181
856.595	4150
856.729	4196
856.862	4261
856.996	4291
857.13	4325
857.263	4360
857.397	4386
857.53	4322
857.664	4386
857.797	4394
857.931	4478
858.064	4363
858.197	4459
858.331	4383
858.464	4417
858.597	4371
858.731	4485
858.864	4440
858.997	4478
859.13	4523
859.263	4561
859.396	4569
859.529	4508
859.662	4588
859.795	4554
859.928	4618
860.061	4710
860.194	4733
860.327	4664
860.46	4660
860.592	4717
860.725	4706
860.858	4774
860.99	4698
861.123	4660
861.256	4698
861.388	4790
861.521	5402
861.653	4714
861.786	4717
861.918	4729
862.05	4809
862.183	4839
862.315	4877
862.447	4908
862.58	4942
862.712	4801
862.844	4771
862.976	4824
863.108	4892
863.24	5185
863.372	4896
863.504	4934
863.636	4915
863.768	4927
863.9	4984
864.032	4900
864.164	4911
864.296	5022
864.428	5090
864.559	5102
864.691	5136
864.823	5109
864.954	5117
865.086	5109
865.217	5155
865.349	5121
865.48	5178
865.612	5208
865.743	5299
865.875	5223
866.006	5162
866.137	5288
866.269	5235
866.4	5299
866.531	5178
866.662	5216
866.793	5280
866.924	5269
867.055	5326
867.186	5341
867.317	5315
867.448	5280
867.579	5372
867.71	5360
867.841	5444
867.972	5459
868.103	5501
868.233	5543
868.364	5501
868.495	5589
868.625	5718
868.756	5802
868.886	5665
869.017	5760
869.147	5916
869.278	5870
869.408	5855
869.539	5855
869.669	5923
869.799	5893
869.929	6007
870.06	6026
870.19	6194
870.32	6213
870.45	6251
870.58	6372
870.71	6407
870.84	6494
870.97	6422
871.1	6407
871.23	6658
871.36	6681
871.489	6700
871.619	6768
871.749	6840
871.879	6882
872.008	6989
872.138	6996
872.267	7103
872.397	7034
872.526	7012
872.656	7107
872.785	7213
872.915	7369
873.044	7582
873.173	7529
873.303	7628
873.432	7784
873.561	7841
873.69	7936
873.819	8031
873.948	8202
874.077	8233
874.206	8355
874.335	8499
874.464	8644
874.593	8872
874.722	8921
874.851	9108
874.979	9268
875.108	9359
875.237	9416
875.365	9492
875.494	9701
875.623	9789
875.751	9835
875.88	9975
876.008	10173
876.136	10215
876.265	10542
876.393	10740
876.521	10744
876.65	10839
876.778	10919
876.906	10892
877.034	11033
877.162	11124
877.29	11178
877.418	11292
877.546	11299
877.674	11444
877.802	11467
877.93	11554
878.058	11512
878.185	11577
878.313	11722
878.441	11726
878.568	11707
878.696	11824
878.824	11874
878.951	11980
879.079	11973
879.206	12167
879.333	12110
879.461	11939
879.588	12114
879.715	12053
879.842	12243
879.97	12129
880.097	11916
880.224	11878
880.351	11920
880.478	11878
880.605	11783
880.732	11760
880.859	11996
880.986	11889
881.112	11805
881.239	11695
881.366	11729
881.493	11627
881.619	11592
881.746	11577
881.872	11486
881.999	11391
882.125	11391
882.252	11474
882.378	11509
882.505	11554
882.631	11349
882.757	11311
882.883	11349
883.01	11356
883.136	11193
883.262	11109
883.388	11094
883.514	11242
883.64	11201
883.766	11121
883.892	11037
884.018	10965
884.143	11102
884.269	11117
884.395	10873
884.52	10824
884.646	10683
884.772	10733
884.897	10630
885.023	10672
885.148	10733
885.274	10759
885.399	10675
885.524	10672
885.65	10622
885.775	10615
885.9	10561
886.025	10653
886.15	10489
886.275	10424
886.4	10447
886.525	10409
886.65	10436
886.775	10394
886.9	10516
887.025	10504
887.149	10306
887.274	10291
887.399	10196
887.523	10227
887.648	10128
887.773	10147
887.897	10295
888.021	10181
888.146	10131
888.27	10276
888.395	10242
888.519	10143
888.643	10162
888.767	10154
888.891	10097
889.015	10055
889.139	10025
889.263	10067
889.387	10143
889.511	10078
889.635	10071
889.759	9972
889.883	9998
890.006	10040
890.13	10128
890.254	9926
890.377	9960
890.501	9907
890.624	9930
890.748	9876
890.871	9835
890.995	9724
891.118	9751
891.241	9770
891.364	9789
891.488	9846
891.611	9724
891.734	9720
891.857	9759
891.98	9736
892.103	9816
892.226	9690
892.349	9656
892.471	9553
892.594	9610
892.717	9591
892.839	9564
892.962	9549
893.085	9618
893.207	9553
893.33	9462
893.452	9477
893.575	9633
893.697	9511
893.819	9553
893.941	9595
894.064	9629
894.186	9447
894.308	9511
894.43	9534
894.552	9595
894.674	9519
894.796	9382
894.918	9454
895.04	9431
895.161	9420
895.283	9386
895.405	9253
895.526	9226
895.648	9199
895.769	9249
895.891	9237
896.012	9279
896.134	9249
896.255	9184
896.376	9138
896.498	9161
896.619	9173
896.74	9066
896.861	9116
896.982	9306
897.103	9348
897.224	9188
897.345	9051
897.466	9017
897.587	9051
897.708	9108
897.828	8975
897.949	9051
898.07	8842
898.19	8876
898.311	8979
898.431	8861
898.552	8921
898.672	8952
898.792	8944
898.913	8918
899.033	8758
899.153	8834
899.273	8659
899.393	8716
899.513	8830
899.633	8800
899.753	8785
899.873	8796
899.993	8857
900.113	8693
900.232	8754
900.352	8625
900.472	8499
900.591	8545
900.711	8575
900.83	8476
900.95	8636
901.069	8651
901.189	8590
901.308	8457
901.427	8377
901.546	8412
901.665	8457
901.784	8492
901.904	8366
902.023	8332
902.141	8290
902.26	8267
902.379	8256
902.498	8199
902.617	8252
902.735	8218
902.854	8301
902.973	8309
903.091	8199
903.21	8161
903.328	8199
903.446	8092
903.565	8111
903.683	8088
903.801	8016
903.919	8103
904.038	8145
904.156	8035
904.274	8096
904.392	7963
904.51	8027
904.627	8077
904.745	8115
904.863	8084
904.981	7978
905.098	7822
905.216	7868
905.334	7883
905.451	7898
905.569	7894
905.686	7955
905.803	7852
905.921	7833
906.038	7814
906.155	7860
906.272	7723
906.389	7776
906.506	7670
906.623	7658
906.74	7662
906.857	7571
906.974	7597
907.091	7677
907.208	7643
907.324	7685
907.441	7601
907.557	7426
907.674	7419
907.79	7415
907.907	7480
908.023	7422
908.139	7445
908.256	7350
908.372	7396
908.488	7354
908.604	7259
908.72	7289
908.836	7270
908.952	7240
909.068	7270
909.184	7297
909.3	7297
909.415	7274
909.531	7259
909.647	7145
909.762	7110
909.878	7118
909.993	7133
910.108	7107
910.224	7107
910.339	7152
910.454	7038
910.57	7015
910.685	6996
910.8	7103
910.915	7171
911.03	7034
911.145	6859
911.259	6859
911.374	6901
911.489	6863
911.604	6825
911.718	6734
911.833	6715
911.947	6665
912.062	6639
912.176	6700
912.291	6692
912.405	6681
912.519	6798
912.633	6840
912.748	6738
912.862	6741
912.976	6639
913.09	6536
913.204	6570
913.318	6570
913.431	6707
913.545	6684
913.659	6760
913.772	6654
913.886	6608
914	6570
914.113	6570
914.226	6650
914.34	6612
914.453	6555
914.566	6650
914.68	6559
914.793	6574
914.906	6403
915.019	6448
915.132	6403
915.245	6437
915.358	6475
915.47	6471
915.583	6467
915.696	6452
915.809	6540
915.921	6521
916.034	6388
916.146	6395
916.259	6407
916.371	6456
916.483	6467
916.595	6350
916.708	6448
916.82	6429
916.932	6384
917.044	6403
917.156	6452
917.268	6365
917.38	6350
917.491	6319
917.603	6357
917.715	6365
917.826	6475
917.938	6289
918.049	6262
918.161	6350
918.272	6433
918.384	6437
918.495	6353
918.606	6262
918.717	6209
918.828	6270
918.939	6239
919.05	6201
919.161	6285
919.272	6133
919.383	6178
919.494	6273
919.604	6388
919.715	6270
919.826	6190
919.936	6216
920.047	6319
920.157	6289
920.267	6483
920.378	6426
920.488	6262
920.598	6506
920.708	6578
920.818	6433
920.928	6513
921.038	6513
921.148	6608
921.258	6407
921.368	6308
921.477	6247
921.587	6190
921.697	6079
921.806	6220
921.916	6087
922.025	6019
922.134	5927
922.244	5908
922.353	5942
922.462	5870
922.571	5794
922.68	5729
922.789	5661
922.898	5726
923.007	5653
923.116	5680
923.224	5661
923.333	5672
923.442	5615
923.55	5562
923.659	5566
923.767	5619
923.876	5589
923.984	5646
924.092	5512
924.201	5516
924.309	5516
924.417	5570
924.525	5474
924.633	5474
924.741	6266
924.849	5330
924.956	5520
925.064	5326
925.172	5341
925.279	5307
925.387	5368
925.494	5368
925.602	5433
925.709	5364
925.816	5288
925.924	5383
926.031	5349
926.138	5334
926.245	5334
926.352	5178
926.459	5288
926.566	5330
926.673	5166
926.779	5124
926.886	5102
926.993	5102
927.099	5029
927.206	4995
927.312	4919
927.419	4987
927.525	4949
927.631	4987
927.737	4885
927.843	4835
927.95	4729
928.056	4793
928.162	4843
928.267	4850
928.373	5345
928.479	4911
928.585	4649
928.69	4729
928.796	4847
928.901	4706
929.007	4611
929.112	4679
929.218	4577
929.323	4630
929.428	4554
929.533	4725
929.638	4523
929.743	4542
929.848	4554
929.953	4508
930.058	4466
930.163	4303
930.267	4333
930.372	4485
930.477	4322
930.581	4424
930.685	4356
930.79	4280
930.894	4272
930.998	4246
931.103	4375
931.207	4097
931.311	4074
931.415	4067
931.519	3941
931.623	3975
