Data from glass_V78500241_1909.txt Node
Date: Wed Sep 01 19:27:44 CST 2021
User: usil
Spectrometer: V785-0024
Trigger mode: 0
Integration Time (sec): 4.000000E-1
Scans to average: 1
Nonlinearity correction enabled: false
Boxcar width: 0
Storing dark spectrum: false
XAxis mode: Wavelengths
Number of Pixels in Spectrum: 1024
>>>>>Begin Spectral Data<<<<<
801.071	3732
801.214	3762
801.356	3690
801.499	3740
801.641	3690
801.783	3762
801.926	3873
802.068	3812
802.211	3884
802.353	3888
802.496	3781
802.638	3876
802.78	3873
802.923	3896
803.065	3823
803.208	3854
803.35	3854
803.492	3888
803.635	3911
803.777	3869
803.919	3880
804.061	4150
804.204	3956
804.346	3949
804.488	3960
804.63	4021
804.773	4002
804.915	4048
805.057	4112
805.199	4071
805.341	4032
805.483	4135
805.626	4120
805.768	4086
805.91	4200
806.052	4238
806.194	4211
806.336	4314
806.478	4230
806.62	4158
806.762	4162
806.904	4211
807.046	4356
807.188	4177
807.33	4185
807.472	4246
807.614	4215
807.756	4223
807.898	4177
808.04	4154
808.182	4284
808.324	4291
808.465	4371
808.607	4500
808.749	4485
808.891	4455
809.033	4466
809.174	4386
809.316	4196
809.458	4242
809.6	4196
809.741	4185
809.883	4112
810.025	4200
810.166	4192
810.308	4261
810.45	4268
810.591	4246
810.733	4310
810.875	4508
811.016	4854
811.158	5170
811.299	5220
811.441	5357
811.582	5098
811.724	4717
811.865	4459
812.007	4504
812.148	4436
812.29	4409
812.431	4402
812.573	4413
812.714	4394
812.855	4424
812.997	4394
813.138	4516
813.279	4394
813.421	4398
813.562	4443
813.703	4303
813.845	4344
813.986	4265
814.127	4249
814.268	4253
814.41	4276
814.551	4227
814.692	4306
814.833	4268
814.974	4299
815.115	4284
815.256	4268
815.397	4249
815.539	4238
815.68	4207
815.821	4158
815.962	4306
816.103	4299
816.244	4257
816.385	4204
816.526	4257
816.666	4204
816.807	4086
816.948	4192
817.089	4158
817.23	4124
817.371	4051
817.512	4086
817.653	4063
817.793	4086
817.934	4048
818.075	4071
818.216	4071
818.356	4093
818.497	4002
818.638	3941
818.778	3884
818.919	3838
819.06	3854
819.2	3915
819.341	3869
819.481	3838
819.622	3869
819.762	4002
819.903	3975
820.043	3880
820.184	3804
820.324	3827
820.465	3869
820.605	3827
820.746	3827
820.886	3812
821.026	3945
821.167	3876
821.307	3960
821.447	3934
821.588	3987
821.728	3960
821.868	3918
822.008	3880
822.149	3903
822.289	3915
822.429	3724
822.569	3778
822.709	3774
822.849	3648
822.99	3682
823.13	3759
823.27	3770
823.41	3728
823.55	3755
823.69	3682
823.83	3732
823.97	3679
824.11	3580
824.25	3618
824.389	3599
824.529	3671
824.669	3614
824.809	3713
824.949	3743
825.089	3724
825.228	3656
825.368	3572
825.508	3526
825.648	3538
825.787	3580
825.927	3625
826.067	3614
826.206	3641
826.346	3770
826.485	3842
826.625	3869
826.765	3945
826.904	3838
827.044	3663
827.183	3523
827.323	3447
827.462	3481
827.601	3405
827.741	3416
827.88	3424
828.02	3393
828.159	3409
828.298	3481
828.437	3507
828.577	3454
828.716	3568
828.855	3458
828.994	3401
829.134	3363
829.273	3409
829.412	3374
829.551	3359
829.69	3359
829.829	3401
829.968	3523
830.107	3469
830.246	3466
830.385	3374
830.524	3351
830.663	3291
830.802	3256
830.941	3207
831.08	3161
831.219	3241
831.357	3283
831.496	3382
831.635	3207
831.774	3180
831.913	3218
832.051	3112
832.19	3135
832.329	3173
832.467	3150
832.606	3104
832.744	3165
832.883	3169
833.022	3176
833.16	3230
833.299	3264
833.437	3351
833.576	3370
833.714	3363
833.852	3431
833.991	3435
834.129	3443
834.267	3412
834.406	3374
834.544	3420
834.682	3389
834.821	3420
834.959	3584
835.097	3401
835.235	3477
835.373	3462
835.511	3492
835.65	3443
835.788	3469
835.926	3401
836.064	3389
836.202	3374
836.34	3584
836.478	3614
836.615	3549
836.753	3576
836.891	3641
837.029	3599
837.167	3629
837.305	3481
837.443	3564
837.58	3507
837.718	3622
837.856	3542
837.993	3549
838.131	3580
838.269	3568
838.406	3549
838.544	3591
838.681	3443
838.819	3386
838.956	3401
839.094	3374
839.231	3443
839.369	3511
839.506	3751
839.643	3652
839.781	3485
839.918	3443
840.055	3500
840.193	3549
840.33	3523
840.467	3545
840.604	3584
840.742	3800
840.879	3564
841.016	3587
841.153	3599
841.29	3774
841.427	3694
841.564	3694
841.701	3747
841.838	3698
841.975	3675
842.112	3724
842.249	3603
842.385	3603
842.522	3846
842.659	3660
842.796	3663
842.933	3713
843.069	3686
843.206	3675
843.343	3850
843.479	3774
843.616	3793
843.752	3686
843.889	3694
844.025	3888
844.162	3686
844.298	3880
844.435	3762
844.571	3751
844.708	3911
844.844	3975
844.98	4032
845.117	4055
845.253	3911
845.389	3846
845.525	3934
845.661	3960
845.798	3945
845.934	3922
846.07	3922
846.206	4097
846.342	4055
846.478	4040
846.614	3979
846.75	3934
846.886	3899
847.022	4029
847.158	3945
847.294	4055
847.429	4055
847.565	4013
847.701	4230
847.837	3838
847.972	3831
848.108	4032
848.244	3979
848.379	3835
848.515	3831
848.65	3854
848.786	3835
848.921	3827
849.057	3937
849.192	3941
849.328	3903
849.463	3918
849.598	3857
849.734	3846
849.869	3831
850.004	3778
850.14	3812
850.275	3785
850.41	3732
850.545	3743
850.68	3751
850.815	3778
850.95	3789
851.085	3915
851.22	3915
851.355	3857
851.49	3789
851.625	3793
851.76	3842
851.895	3728
852.03	3740
852.165	3781
852.299	3812
852.434	3892
852.569	3873
852.703	3838
852.838	3934
852.973	3991
853.107	4010
853.242	3918
853.376	3835
853.511	3766
853.645	3846
853.78	3953
853.914	3873
854.048	3884
854.183	3876
854.317	3953
854.451	4074
854.585	3968
854.72	3949
854.854	3991
854.988	3892
855.122	4021
855.256	3911
855.39	4025
855.524	4086
855.658	4101
855.792	4124
855.926	4143
856.06	4120
856.194	4192
856.327	4150
856.461	4090
856.595	4105
856.729	4154
856.862	4291
856.996	4234
857.13	4287
857.263	4325
857.397	4363
857.53	4276
857.664	4333
857.797	4371
857.931	4375
858.064	4383
858.197	4417
858.331	4402
858.464	4379
858.597	4329
858.731	4459
858.864	4474
858.997	4470
859.13	4489
859.263	4516
859.396	4588
859.529	4500
859.662	4466
859.795	4519
859.928	4641
860.061	4649
860.194	4752
860.327	4698
860.46	4649
860.592	4702
860.725	4771
860.858	4831
860.99	4740
861.123	4706
861.256	4649
861.388	4774
861.521	5402
861.653	4733
861.786	4641
861.918	4744
862.05	4816
862.183	4877
862.315	4885
862.447	4908
862.58	4892
862.712	4809
862.844	4797
862.976	4862
863.108	4812
863.24	5201
863.372	4809
863.504	4934
863.636	4892
863.768	4938
863.9	4938
864.032	4904
864.164	4987
864.296	5045
864.428	5136
864.559	5098
864.691	5090
864.823	5117
864.954	5041
865.086	5132
865.217	5136
865.349	5140
865.48	5174
865.612	5178
865.743	5246
865.875	5174
866.006	5162
866.137	5174
866.269	5216
866.4	5277
866.531	5227
866.662	5277
866.793	5246
866.924	5288
867.055	5364
867.186	5288
867.317	5330
867.448	5334
867.579	5326
867.71	5368
867.841	5376
867.972	5459
868.103	5448
868.233	5463
868.364	5490
868.495	5532
868.625	5718
868.756	5752
868.886	5688
869.017	5714
869.147	5859
869.278	5901
869.408	5866
869.539	5809
869.669	5935
869.799	5935
869.929	5988
870.06	6060
870.19	6190
870.32	6155
870.45	6251
870.58	6346
870.71	6448
870.84	6445
870.97	6422
871.1	6502
871.23	6593
871.36	6700
871.489	6623
871.619	6696
871.749	6760
871.879	6859
872.008	6943
872.138	6924
872.267	6996
872.397	6973
872.526	7008
872.656	7152
872.785	7217
872.915	7392
873.044	7548
873.173	7548
873.303	7632
873.432	7696
873.561	7833
873.69	7951
873.819	8039
873.948	8199
874.077	8279
874.206	8377
874.335	8568
874.464	8590
874.593	8872
874.722	8956
874.851	9138
874.979	9222
875.108	9329
875.237	9412
875.365	9492
875.494	9633
875.623	9781
875.751	9827
875.88	10055
876.008	10112
876.136	10257
876.265	10508
876.393	10748
876.521	10710
876.65	10831
876.778	10881
876.906	10873
877.034	10900
877.162	11159
877.29	11128
877.418	11307
877.546	11406
877.674	11421
877.802	11512
877.93	11539
878.058	11547
878.185	11535
878.313	11634
878.441	11771
878.568	11684
878.696	11745
878.824	11805
878.951	11931
879.079	11984
879.206	12110
879.333	12034
879.461	11961
879.588	12102
879.715	12030
879.842	12209
879.97	12064
880.097	11813
880.224	11965
880.351	11901
880.478	11878
880.605	11851
880.732	11878
880.859	12019
880.986	11832
881.112	11836
881.239	11741
881.366	11707
881.493	11596
881.619	11558
881.746	11577
881.872	11547
881.999	11543
882.125	11387
882.252	11627
882.378	11463
882.505	11497
882.631	11383
882.757	11330
882.883	11292
883.01	11231
883.136	11132
883.262	11147
883.388	11041
883.514	11170
883.64	11231
883.766	11067
883.892	10949
884.018	10961
884.143	11033
884.269	11105
884.395	10847
884.52	10744
884.646	10752
884.772	10656
884.897	10615
885.023	10694
885.148	10752
885.274	10774
885.399	10710
885.524	10577
885.65	10653
885.775	10535
885.9	10596
886.025	10546
886.15	10558
886.275	10474
886.4	10481
886.525	10478
886.65	10284
886.775	10413
886.9	10478
887.025	10573
887.149	10360
887.274	10280
887.399	10211
887.523	10227
887.648	10169
887.773	10135
887.897	10280
888.021	10196
888.146	10150
888.27	10101
888.395	10234
888.519	10162
888.643	10166
888.767	10173
888.891	10006
889.015	10029
889.139	10120
889.263	9956
889.387	10124
889.511	10109
889.635	10093
889.759	9922
889.883	9915
890.006	10032
890.13	10150
890.254	9888
890.377	9937
890.501	9846
890.624	9854
890.748	9812
890.871	9812
890.995	9762
891.118	9789
891.241	9698
891.364	9755
891.488	9785
891.611	9755
891.734	9701
891.857	9648
891.98	9743
892.103	9720
892.226	9766
892.349	9656
892.471	9549
892.594	9618
892.717	9667
892.839	9660
892.962	9542
893.085	9591
893.207	9561
893.33	9473
893.452	9481
893.575	9534
893.697	9496
893.819	9595
893.941	9625
894.064	9595
894.186	9515
894.308	9393
894.43	9553
894.552	9587
894.674	9538
894.796	9416
894.918	9397
895.04	9317
895.161	9351
895.283	9283
895.405	9264
895.526	9264
895.648	9180
895.769	9249
895.891	9226
896.012	9287
896.134	9268
896.255	9199
896.376	9142
896.498	9169
896.619	9108
896.74	9081
896.861	9108
896.982	9176
897.103	9294
897.224	9146
897.345	8990
897.466	9017
897.587	8910
897.708	9135
897.828	8994
897.949	8967
898.07	8899
898.19	8872
898.311	8925
898.431	8857
898.552	8941
898.672	8948
898.792	8899
898.913	8895
899.033	8762
899.153	8708
899.273	8613
899.393	8731
899.513	8716
899.633	8743
899.753	8724
899.873	8689
899.993	8731
900.113	8693
900.232	8678
900.352	8644
900.472	8629
900.591	8526
900.711	8625
900.83	8568
900.95	8674
901.069	8655
901.189	8560
901.308	8404
901.427	8434
901.546	8450
901.665	8427
901.784	8545
901.904	8389
902.023	8275
902.141	8256
902.26	8233
902.379	8282
902.498	8210
902.617	8180
902.735	8298
902.854	8332
902.973	8187
903.091	8096
903.21	8123
903.328	8180
903.446	8077
903.565	8092
903.683	8069
903.801	8100
903.919	8084
904.038	8142
904.156	8084
904.274	8084
904.392	8008
904.51	8039
904.627	8069
904.745	8176
904.863	8077
904.981	7883
905.098	7833
905.216	7833
905.334	7849
905.451	7894
905.569	7932
905.686	7887
905.803	7917
905.921	7811
906.038	7917
906.155	7753
906.272	7723
906.389	7689
906.506	7601
906.623	7643
906.74	7651
906.857	7563
906.974	7571
907.091	7590
907.208	7750
907.324	7601
907.441	7582
907.557	7506
907.674	7434
907.79	7346
907.907	7346
908.023	7430
908.139	7400
908.256	7396
908.372	7403
908.488	7251
908.604	7213
908.72	7263
908.836	7320
908.952	7240
909.068	7255
909.184	7274
909.3	7251
909.415	7266
909.531	7247
909.647	7080
909.762	7133
909.878	7122
909.993	7114
910.108	7069
910.224	7042
910.339	7145
910.454	7031
910.57	7031
910.685	6947
910.8	7152
910.915	7061
911.03	7031
911.145	6966
911.259	6878
911.374	6875
911.489	6886
911.604	6810
911.718	6692
911.833	6760
911.947	6658
912.062	6623
912.176	6722
912.291	6692
912.405	6707
912.519	6871
912.633	6795
912.748	6700
912.862	6662
912.976	6555
913.09	6570
913.204	6532
913.318	6642
913.431	6662
913.545	6696
913.659	6642
913.772	6623
913.886	6566
914	6509
914.113	6612
914.226	6604
914.34	6616
914.453	6506
914.566	6612
914.68	6475
914.793	6627
914.906	6433
915.019	6391
915.132	6380
915.245	6437
915.358	6372
915.47	6467
915.583	6418
915.696	6418
915.809	6509
915.921	6563
916.034	6429
916.146	6365
916.259	6334
916.371	6372
916.483	6429
916.595	6311
916.708	6338
916.82	6399
916.932	6376
917.044	6365
917.156	6353
917.268	6346
917.38	6391
917.491	6315
917.603	6350
917.715	6346
917.826	6384
917.938	6308
918.049	6251
918.161	6319
918.272	6445
918.384	6494
918.495	6311
918.606	6266
918.717	6205
918.828	6338
918.939	6323
919.05	6194
919.161	6262
919.272	6133
919.383	6201
919.494	6285
919.604	6448
919.715	6232
919.826	6190
919.936	6285
920.047	6338
920.157	6262
920.267	6445
920.378	6315
920.488	6315
920.598	6410
920.708	6525
920.818	6426
920.928	6460
921.038	6616
921.148	6528
921.258	6334
921.368	6239
921.477	6232
921.587	6155
921.697	6072
921.806	6186
921.916	6125
922.025	5958
922.134	5939
922.244	5889
922.353	5950
922.462	5836
922.571	5783
922.68	5783
922.789	5646
922.898	5714
923.007	5630
923.116	5733
923.224	5688
923.333	5661
923.442	5619
923.55	5512
923.659	5596
923.767	5699
923.876	5543
923.984	5577
924.092	5474
924.201	5539
924.309	5497
924.417	5566
924.525	5455
924.633	5455
924.741	6262
924.849	5398
924.956	5497
925.064	5364
925.172	5315
925.279	5280
925.387	5345
925.494	5364
925.602	5436
925.709	5345
925.816	5216
925.924	5288
926.031	5357
926.138	5265
926.245	5345
926.352	5223
926.459	5349
926.566	5292
926.673	5189
926.779	5124
926.886	5102
926.993	5056
927.099	5033
927.206	4934
927.312	4961
927.419	4987
927.525	4999
927.631	4968
927.737	4919
927.843	4904
927.95	4771
928.056	4748
928.162	4797
928.267	4843
928.373	5265
928.479	4824
928.585	4687
928.69	4744
928.796	4774
928.901	4634
929.007	4588
929.112	4710
929.218	4656
929.323	4554
929.428	4569
929.533	4630
929.638	4500
929.743	4577
929.848	4519
929.953	4462
930.058	4409
930.163	4280
930.267	4337
930.372	4424
930.477	4306
930.581	4462
930.685	4379
930.79	4242
930.894	4284
930.998	4299
931.103	4363
931.207	4154
931.311	4097
931.415	4036
931.519	3903
931.623	3937
