Data from glass_V78500241_36.txt Node
Date: Wed Sep 01 19:14:44 CST 2021
User: usil
Spectrometer: V785-0024
Trigger mode: 0
Integration Time (sec): 4.000000E-1
Scans to average: 1
Nonlinearity correction enabled: false
Boxcar width: 0
Storing dark spectrum: false
XAxis mode: Wavelengths
Number of Pixels in Spectrum: 1024
>>>>>Begin Spectral Data<<<<<
801.071	3736
801.214	3781
801.356	3709
801.499	3755
801.641	3720
801.783	3800
801.926	3888
802.068	3835
802.211	3888
802.353	3865
802.496	3850
802.638	3899
802.78	3857
802.923	3926
803.065	3915
803.208	3892
803.35	3896
803.492	3892
803.635	3918
803.777	3819
803.919	3899
804.061	4192
804.204	3964
804.346	4017
804.488	3937
804.63	4086
804.773	4010
804.915	4036
805.057	4154
805.199	4059
805.341	4093
805.483	4124
805.626	4169
805.768	4112
805.91	4268
806.052	4230
806.194	4215
806.336	4363
806.478	4215
806.62	4173
806.762	4188
806.904	4253
807.046	4394
807.188	4207
807.33	4185
807.472	4287
807.614	4158
807.756	4299
807.898	4242
808.04	4200
808.182	4287
808.324	4337
808.465	4390
808.607	4455
808.749	4478
808.891	4500
809.033	4512
809.174	4443
809.316	4257
809.458	4234
809.6	4196
809.741	4158
809.883	4154
810.025	4249
810.166	4238
810.308	4246
810.45	4295
810.591	4257
810.733	4325
810.875	4523
811.016	4812
811.158	5147
811.299	5334
811.441	5353
811.582	5117
811.724	4653
811.865	4485
812.007	4478
812.148	4447
812.29	4470
812.431	4386
812.573	4428
812.714	4386
812.855	4455
812.997	4405
813.138	4489
813.279	4455
813.421	4417
813.562	4386
813.703	4322
813.845	4360
813.986	4272
814.127	4234
814.268	4325
814.41	4287
814.551	4249
814.692	4329
814.833	4272
814.974	4322
815.115	4341
815.256	4299
815.397	4253
815.539	4234
815.68	4200
815.821	4204
815.962	4329
816.103	4284
816.244	4242
816.385	4230
816.526	4291
816.666	4223
816.807	4131
816.948	4162
817.089	4131
817.23	4135
817.371	4074
817.512	4025
817.653	4078
817.793	4059
817.934	4021
818.075	4116
818.216	4063
818.356	4150
818.497	3998
818.638	3945
818.778	3926
818.919	3873
819.06	3869
819.2	3918
819.341	3896
819.481	3876
819.622	3899
819.762	4017
819.903	3987
820.043	3896
820.184	3835
820.324	3873
820.465	3846
820.605	3907
820.746	3857
820.886	3793
821.026	3960
821.167	3918
821.307	3941
821.447	3994
821.588	4006
821.728	3960
821.868	3937
822.008	3918
822.149	3945
822.289	3911
822.429	3778
822.569	3789
822.709	3804
822.849	3728
822.99	3728
823.13	3755
823.27	3808
823.41	3720
823.55	3747
823.69	3755
823.83	3774
823.97	3694
824.11	3610
824.25	3633
824.389	3648
824.529	3675
824.669	3622
824.809	3713
824.949	3797
825.089	3732
825.228	3698
825.368	3576
825.508	3584
825.648	3614
825.787	3625
825.927	3625
826.067	3656
826.206	3694
826.346	3800
826.485	3892
826.625	3865
826.765	3949
826.904	3816
827.044	3652
827.183	3534
827.323	3447
827.462	3488
827.601	3431
827.741	3443
827.88	3481
828.02	3386
828.159	3458
828.298	3488
828.437	3526
828.577	3458
828.716	3622
828.855	3530
828.994	3386
829.134	3405
829.273	3382
829.412	3389
829.551	3336
829.69	3370
829.829	3488
829.968	3553
830.107	3477
830.246	3454
830.385	3389
830.524	3405
830.663	3294
830.802	3275
830.941	3207
831.08	3176
831.219	3253
831.357	3253
831.496	3412
831.635	3268
831.774	3218
831.913	3192
832.051	3161
832.19	3161
832.329	3226
832.467	3146
832.606	3150
832.744	3192
832.883	3188
833.022	3207
833.16	3283
833.299	3329
833.437	3325
833.576	3378
833.714	3409
833.852	3439
833.991	3428
834.129	3511
834.267	3469
834.406	3424
834.544	3439
834.682	3393
834.821	3416
834.959	3591
835.097	3443
835.235	3576
835.373	3545
835.511	3496
835.65	3485
835.788	3549
835.926	3359
836.064	3435
836.202	3458
836.34	3561
836.478	3599
836.615	3523
836.753	3587
836.891	3675
837.029	3591
837.167	3584
837.305	3576
837.443	3553
837.58	3538
837.718	3633
837.856	3614
837.993	3542
838.131	3606
838.269	3587
838.406	3545
838.544	3561
838.681	3435
838.819	3450
838.956	3405
839.094	3401
839.231	3473
839.369	3511
839.506	3743
839.643	3641
839.781	3542
839.918	3519
840.055	3572
840.193	3568
840.33	3504
840.467	3584
840.604	3644
840.742	3857
840.879	3572
841.016	3584
841.153	3648
841.29	3789
841.427	3785
841.564	3770
841.701	3770
841.838	3717
841.975	3690
842.112	3732
842.249	3656
842.385	3618
842.522	3850
842.659	3698
842.796	3698
842.933	3736
843.069	3740
843.206	3698
843.343	3869
843.479	3778
843.616	3842
843.752	3667
843.889	3717
844.025	3880
844.162	3724
844.298	3812
844.435	3819
844.571	3812
844.708	3907
844.844	4006
844.98	4063
845.117	4036
845.253	3964
845.389	3926
845.525	3968
845.661	4029
845.798	3915
845.934	4013
846.07	3953
846.206	4074
846.342	4177
846.478	4086
846.614	4010
846.75	3903
846.886	3937
847.022	4078
847.158	3956
847.294	3998
847.429	4078
847.565	4006
847.701	4265
847.837	3930
847.972	3896
848.108	3998
848.244	3975
848.379	3831
848.515	3819
848.65	3816
848.786	3842
848.921	3888
849.057	3926
849.192	3922
849.328	3960
849.463	3945
849.598	3930
849.734	3911
849.869	3876
850.004	3793
850.14	3797
850.275	3770
850.41	3732
850.545	3766
850.68	3778
850.815	3804
850.95	3804
851.085	3915
851.22	3892
851.355	3797
851.49	3770
851.625	3835
851.76	3842
851.895	3766
852.03	3736
852.165	3819
852.299	3861
852.434	3945
852.569	3850
852.703	3949
852.838	3972
852.973	4017
853.107	3945
853.242	3888
853.376	3896
853.511	3793
853.645	3861
853.78	3964
853.914	3922
854.048	3907
854.183	3892
854.317	3998
854.451	4090
854.585	4010
854.72	3949
854.854	4051
854.988	3918
855.122	3968
855.256	3953
855.39	4063
855.524	4082
855.658	4029
855.792	4116
855.926	4128
856.06	4162
856.194	4219
856.327	4158
856.461	4181
856.595	4169
856.729	4188
856.862	4325
856.996	4249
857.13	4310
857.263	4344
857.397	4413
857.53	4360
857.664	4356
857.797	4398
857.931	4447
858.064	4424
858.197	4516
858.331	4417
858.464	4398
858.597	4367
858.731	4447
858.864	4489
858.997	4447
859.13	4478
859.263	4592
859.396	4611
859.529	4561
859.662	4599
859.795	4554
859.928	4649
860.061	4755
860.194	4729
860.327	4649
860.46	4668
860.592	4786
860.725	4725
860.858	4816
860.99	4752
861.123	4736
861.256	4725
861.388	4771
861.521	5383
861.653	4717
861.786	4748
861.918	4790
862.05	4828
862.183	4873
862.315	4862
862.447	4930
862.58	4873
862.712	4801
862.844	4835
862.976	4870
863.108	4904
863.24	5223
863.372	4835
863.504	4900
863.636	4889
863.768	4946
863.9	4976
864.032	4972
864.164	4892
864.296	5048
864.428	5079
864.559	5086
864.691	5166
864.823	5136
864.954	5105
865.086	5185
865.217	5151
865.349	5102
865.48	5155
865.612	5208
865.743	5296
865.875	5212
866.006	5223
866.137	5239
866.269	5280
866.4	5258
866.531	5189
866.662	5288
866.793	5231
866.924	5326
867.055	5322
867.186	5311
867.317	5337
867.448	5372
867.579	5410
867.71	5364
867.841	5387
867.972	5474
868.103	5493
868.233	5436
868.364	5543
868.495	5524
868.625	5619
868.756	5764
868.886	5722
869.017	5680
869.147	5847
869.278	5908
869.408	5832
869.539	5859
869.669	5923
869.799	5931
869.929	5958
870.06	6091
870.19	6258
870.32	6213
870.45	6232
870.58	6350
870.71	6433
870.84	6452
870.97	6426
871.1	6475
871.23	6642
871.36	6757
871.489	6673
871.619	6726
871.749	6837
871.879	6867
872.008	6954
872.138	7008
872.267	7057
872.397	7019
872.526	7038
872.656	7137
872.785	7263
872.915	7381
873.044	7563
873.173	7601
873.303	7639
873.432	7788
873.561	7913
873.69	7944
873.819	8069
873.948	8233
874.077	8263
874.206	8328
874.335	8423
874.464	8644
874.593	8880
874.722	8914
874.851	9165
874.979	9310
875.108	9386
875.237	9450
875.365	9473
875.494	9736
875.623	9846
875.751	9869
875.88	10021
876.008	10188
876.136	10299
876.265	10466
876.393	10702
876.521	10740
876.65	10778
876.778	10900
876.906	10896
877.034	10946
877.162	11075
877.29	11204
877.418	11296
877.546	11372
877.674	11448
877.802	11459
877.93	11558
878.058	11592
878.185	11543
878.313	11688
878.441	11760
878.568	11741
878.696	11748
878.824	11897
878.951	11965
879.079	11942
879.206	12178
879.333	12053
879.461	12038
879.588	12079
879.715	12148
879.842	12197
879.97	12053
880.097	11824
880.224	11908
880.351	11874
880.478	11874
880.605	11821
880.732	11832
880.859	11939
880.986	11790
881.112	11798
881.239	11779
881.366	11619
881.493	11547
881.619	11573
881.746	11516
881.872	11615
881.999	11528
882.125	11493
882.252	11596
882.378	11581
882.505	11532
882.631	11326
882.757	11292
882.883	11330
883.01	11273
883.136	11201
883.262	11140
883.388	11094
883.514	11174
883.64	11277
883.766	11094
883.892	11014
884.018	10991
884.143	11109
884.269	11189
884.395	10828
884.52	10782
884.646	10797
884.772	10714
884.897	10641
885.023	10748
885.148	10755
885.274	10812
885.399	10767
885.524	10607
885.65	10611
885.775	10596
885.9	10508
886.025	10664
886.15	10550
886.275	10493
886.4	10375
886.525	10451
886.65	10386
886.775	10329
886.9	10512
887.025	10588
887.149	10386
887.274	10287
887.399	10219
887.523	10223
887.648	10181
887.773	10181
887.897	10219
888.021	10284
888.146	10143
888.27	10314
888.395	10227
888.519	10219
888.643	10154
888.767	10147
888.891	10120
889.015	10090
889.139	10032
889.263	9975
889.387	10071
889.511	10116
889.635	10090
889.759	9991
889.883	10021
890.006	10013
890.13	10131
890.254	9949
890.377	9998
890.501	9800
890.624	9903
890.748	9831
890.871	9812
890.995	9755
891.118	9633
891.241	9751
891.364	9698
891.488	9827
891.611	9808
891.734	9789
891.857	9766
891.98	9766
892.103	9800
892.226	9690
892.349	9663
892.471	9500
892.594	9644
892.717	9679
892.839	9515
892.962	9568
893.085	9641
893.207	9599
893.33	9511
893.452	9572
893.575	9629
893.697	9507
893.819	9652
893.941	9603
894.064	9633
894.186	9431
894.308	9435
894.43	9485
894.552	9603
894.674	9542
894.796	9344
894.918	9397
895.04	9386
895.161	9424
895.283	9351
895.405	9146
895.526	9287
895.648	9321
895.769	9218
895.891	9218
896.012	9287
896.134	9211
896.255	9188
896.376	9157
896.498	9180
896.619	9150
896.74	9055
896.861	9074
896.982	9268
897.103	9355
897.224	9173
897.345	9119
897.466	9013
897.587	9051
897.708	9051
897.828	9077
897.949	8986
898.07	8864
898.19	8880
898.311	9104
898.431	8849
898.552	8902
898.672	8990
898.792	8937
898.913	8899
899.033	8823
899.153	8785
899.273	8724
899.393	8727
899.513	8750
899.633	8716
899.753	8716
899.873	8667
899.993	8811
900.113	8682
900.232	8697
900.352	8655
900.472	8621
900.591	8587
900.711	8659
900.83	8549
900.95	8598
901.069	8648
901.189	8598
901.308	8503
901.427	8427
901.546	8438
901.665	8541
901.784	8533
901.904	8355
902.023	8438
902.141	8282
902.26	8225
902.379	8252
902.498	8263
902.617	8233
902.735	8275
902.854	8385
902.973	8279
903.091	8149
903.21	8145
903.328	8206
903.446	8134
903.565	8096
903.683	8126
903.801	8084
903.919	8134
904.038	8115
904.156	8046
904.274	8043
904.392	7997
904.51	8050
904.627	8035
904.745	8065
904.863	8103
904.981	7913
905.098	7898
905.216	7913
905.334	7940
905.451	7928
905.569	7887
905.686	7974
905.803	7902
905.921	7818
906.038	7928
906.155	7845
906.272	7765
906.389	7799
906.506	7651
906.623	7632
906.74	7651
906.857	7544
906.974	7575
907.091	7715
907.208	7643
907.324	7674
907.441	7601
907.557	7369
907.674	7540
907.79	7335
907.907	7365
908.023	7415
908.139	7411
908.256	7400
908.372	7384
908.488	7362
908.604	7305
908.72	7171
908.836	7270
908.952	7247
909.068	7236
909.184	7369
909.3	7274
909.415	7278
909.531	7369
909.647	7118
909.762	7091
909.878	7209
909.993	7194
910.108	7099
910.224	7095
910.339	7137
910.454	7038
910.57	7057
910.685	7015
910.8	7225
910.915	7126
911.03	7046
911.145	6939
911.259	6901
911.374	6905
911.489	6844
911.604	6829
911.718	6825
911.833	6749
911.947	6669
912.062	6620
912.176	6722
912.291	6768
912.405	6677
912.519	6844
912.633	6837
912.748	6738
912.862	6696
912.976	6616
913.09	6521
913.204	6551
913.318	6631
913.431	6684
913.545	6700
913.659	6673
913.772	6662
913.886	6578
914	6555
914.113	6620
914.226	6673
914.34	6593
914.453	6494
914.566	6646
914.68	6544
914.793	6536
914.906	6414
915.019	6429
915.132	6395
915.245	6410
915.358	6486
915.47	6494
915.583	6490
915.696	6460
915.809	6513
915.921	6506
916.034	6418
916.146	6426
916.259	6426
916.371	6464
916.483	6399
916.595	6437
916.708	6346
916.82	6407
916.932	6437
917.044	6403
917.156	6418
917.268	6365
917.38	6365
917.491	6289
917.603	6399
917.715	6422
917.826	6407
917.938	6334
918.049	6277
918.161	6391
918.272	6437
918.384	6433
918.495	6361
918.606	6331
918.717	6224
918.828	6258
918.939	6289
919.05	6235
919.161	6266
919.272	6171
919.383	6201
919.494	6273
919.604	6433
919.715	6304
919.826	6216
919.936	6220
920.047	6395
920.157	6262
920.267	6445
920.378	6327
920.488	6247
920.598	6429
920.708	6608
920.818	6486
920.928	6483
921.038	6642
921.148	6673
921.258	6388
921.368	6281
921.477	6178
921.587	6209
921.697	6152
921.806	6235
921.916	6095
922.025	5893
922.134	5965
922.244	5927
922.353	5980
922.462	5859
922.571	5790
922.68	5726
922.789	5668
922.898	5718
923.007	5676
923.116	5714
923.224	5676
923.333	5649
923.442	5608
923.55	5627
923.659	5619
923.767	5649
923.876	5608
923.984	5627
924.092	5471
924.201	5581
924.309	5551
924.417	5562
924.525	5452
924.633	5486
924.741	6277
924.849	5364
924.956	5448
925.064	5387
925.172	5372
925.279	5292
925.387	5421
925.494	5326
925.602	5505
925.709	5410
925.816	5284
925.924	5303
926.031	5398
926.138	5349
926.245	5299
926.352	5239
926.459	5334
926.566	5326
926.673	5231
926.779	5162
926.886	5170
926.993	5079
927.099	5022
927.206	4980
927.312	4946
927.419	5060
927.525	4980
927.631	5010
927.737	4900
927.843	4873
927.95	4847
928.056	4831
928.162	4873
928.267	4908
928.373	5357
928.479	4915
928.585	4649
928.69	4812
928.796	4782
928.901	4702
929.007	4599
929.112	4691
929.218	4637
929.323	4607
929.428	4550
929.533	4668
929.638	4512
929.743	4558
929.848	4626
929.953	4527
930.058	4432
930.163	4322
930.267	4329
930.372	4417
930.477	4310
930.581	4508
930.685	4383
930.79	4253
930.894	4295
930.998	4284
931.103	4371
931.207	4116
931.311	4097
931.415	4036
931.519	3937
931.623	4021
