Data from glass_V78500241_2463.txt Node
Date: Wed Sep 01 19:31:34 CST 2021
User: usil
Spectrometer: V785-0024
Trigger mode: 0
Integration Time (sec): 4.000000E-1
Scans to average: 1
Nonlinearity correction enabled: false
Boxcar width: 0
Storing dark spectrum: false
XAxis mode: Wavelengths
Number of Pixels in Spectrum: 1024
>>>>>Begin Spectral Data<<<<<
801.071	3709
801.214	3759
801.356	3682
801.499	3713
801.641	3736
801.783	3736
801.926	3831
802.068	3827
802.211	3827
802.353	3838
802.496	3804
802.638	3854
802.78	3869
802.923	3941
803.065	3945
803.208	3865
803.35	3873
803.492	3899
803.635	3918
803.777	3804
803.919	3865
804.061	4124
804.204	3960
804.346	3899
804.488	3907
804.63	4021
804.773	3972
804.915	4040
805.057	4147
805.199	4029
805.341	4074
805.483	4120
805.626	4109
805.768	4147
805.91	4181
806.052	4227
806.194	4192
806.336	4337
806.478	4196
806.62	4181
806.762	4185
806.904	4166
807.046	4337
807.188	4177
807.33	4185
807.472	4253
807.614	4169
807.756	4249
807.898	4242
808.04	4219
808.182	4272
808.324	4268
808.465	4371
808.607	4466
808.749	4459
808.891	4462
809.033	4508
809.174	4428
809.316	4268
809.458	4230
809.6	4147
809.741	4154
809.883	4124
810.025	4211
810.166	4173
810.308	4219
810.45	4261
810.591	4200
810.733	4268
810.875	4489
811.016	4828
811.158	5124
811.299	5231
811.441	5284
811.582	5048
811.724	4672
811.865	4405
812.007	4481
812.148	4398
812.29	4375
812.431	4390
812.573	4417
812.714	4383
812.855	4405
812.997	4398
813.138	4474
813.279	4379
813.421	4379
813.562	4371
813.703	4295
813.845	4295
813.986	4257
814.127	4219
814.268	4219
814.41	4284
814.551	4253
814.692	4314
814.833	4284
814.974	4249
815.115	4344
815.256	4242
815.397	4219
815.539	4261
815.68	4177
815.821	4215
815.962	4310
816.103	4310
816.244	4207
816.385	4223
816.526	4284
816.666	4215
816.807	4120
816.948	4166
817.089	4207
817.23	4055
817.371	4010
817.512	4040
817.653	4063
817.793	3983
817.934	4006
818.075	4124
818.216	4025
818.356	4040
818.497	3979
818.638	3861
818.778	3899
818.919	3888
819.06	3857
819.2	3896
819.341	3869
819.481	3846
819.622	3926
819.762	4010
819.903	3918
820.043	3831
820.184	3838
820.324	3793
820.465	3884
820.605	3835
820.746	3888
820.886	3800
821.026	3949
821.167	3915
821.307	3979
821.447	3991
821.588	3918
821.728	3934
821.868	3930
822.008	3865
822.149	3918
822.289	3899
822.429	3751
822.569	3751
822.709	3823
822.849	3709
822.99	3698
823.13	3751
823.27	3743
823.41	3698
823.55	3736
823.69	3675
823.83	3747
823.97	3686
824.11	3610
824.25	3622
824.389	3595
824.529	3641
824.669	3644
824.809	3709
824.949	3759
825.089	3762
825.228	3690
825.368	3564
825.508	3564
825.648	3507
825.787	3599
825.927	3637
826.067	3629
826.206	3667
826.346	3778
826.485	3876
826.625	3823
826.765	3915
826.904	3835
827.044	3622
827.183	3511
827.323	3416
827.462	3488
827.601	3401
827.741	3416
827.88	3447
828.02	3355
828.159	3416
828.298	3481
828.437	3538
828.577	3431
828.716	3572
828.855	3462
828.994	3348
829.134	3378
829.273	3397
829.412	3348
829.551	3344
829.69	3336
829.829	3439
829.968	3515
830.107	3443
830.246	3397
830.385	3401
830.524	3344
830.663	3317
830.802	3264
830.941	3173
831.08	3195
831.219	3275
831.357	3222
831.496	3355
831.635	3253
831.774	3184
831.913	3195
832.051	3119
832.19	3154
832.329	3207
832.467	3119
832.606	3112
832.744	3188
832.883	3188
833.022	3230
833.16	3272
833.299	3264
833.437	3336
833.576	3359
833.714	3393
833.852	3405
833.991	3420
834.129	3469
834.267	3420
834.406	3378
834.544	3424
834.682	3374
834.821	3363
834.959	3542
835.097	3420
835.235	3496
835.373	3492
835.511	3466
835.65	3447
835.788	3500
835.926	3397
836.064	3340
836.202	3420
836.34	3523
836.478	3663
836.615	3553
836.753	3580
836.891	3606
837.029	3564
837.167	3542
837.305	3549
837.443	3538
837.58	3488
837.718	3557
837.856	3564
837.993	3538
838.131	3564
838.269	3568
838.406	3542
838.544	3542
838.681	3458
838.819	3420
838.956	3393
839.094	3397
839.231	3450
839.369	3534
839.506	3717
839.643	3603
839.781	3515
839.918	3428
840.055	3515
840.193	3485
840.33	3477
840.467	3580
840.604	3587
840.742	3808
840.879	3481
841.016	3549
841.153	3568
841.29	3717
841.427	3713
841.564	3728
841.701	3736
841.838	3720
841.975	3667
842.112	3724
842.249	3606
842.385	3584
842.522	3835
842.659	3690
842.796	3610
842.933	3690
843.069	3694
843.206	3701
843.343	3808
843.479	3740
843.616	3808
843.752	3694
843.889	3686
844.025	3857
844.162	3762
844.298	3819
844.435	3797
844.571	3759
844.708	3873
844.844	3972
844.98	3998
845.117	4002
845.253	3915
845.389	3896
845.525	3968
845.661	4013
845.798	3899
845.934	4017
846.07	4010
846.206	4013
846.342	4090
846.478	4017
846.614	3960
846.75	3960
846.886	3918
847.022	3975
847.158	3991
847.294	3972
847.429	4002
847.565	3991
847.701	4204
847.837	3884
847.972	3857
848.108	3926
848.244	3949
848.379	3850
848.515	3819
848.65	3846
848.786	3827
848.921	3865
849.057	3922
849.192	3937
849.328	3846
849.463	3922
849.598	3926
849.734	3869
849.869	3819
850.004	3808
850.14	3816
850.275	3785
850.41	3732
850.545	3751
850.68	3778
850.815	3781
850.95	3793
851.085	3956
851.22	3835
851.355	3812
851.49	3762
851.625	3797
851.76	3770
851.895	3705
852.03	3694
852.165	3781
852.299	3808
852.434	3876
852.569	3816
852.703	3850
852.838	3899
852.973	4025
853.107	4006
853.242	3854
853.376	3827
853.511	3766
853.645	3793
853.78	3960
853.914	3896
854.048	3861
854.183	3869
854.317	3953
854.451	4055
854.585	3926
854.72	3930
854.854	4063
854.988	3945
855.122	4002
855.256	3937
855.39	4021
855.524	4078
855.658	4120
855.792	4048
855.926	4158
856.06	4185
856.194	4200
856.327	4116
856.461	4074
856.595	4150
856.729	4139
856.862	4299
856.996	4234
857.13	4280
857.263	4291
857.397	4333
857.53	4299
857.664	4306
857.797	4325
857.931	4447
858.064	4379
858.197	4485
858.331	4398
858.464	4356
858.597	4341
858.731	4424
858.864	4428
858.997	4436
859.13	4531
859.263	4500
859.396	4554
859.529	4550
859.662	4546
859.795	4512
859.928	4542
860.061	4687
860.194	4793
860.327	4630
860.46	4603
860.592	4694
860.725	4752
860.858	4767
860.99	4660
861.123	4714
861.256	4687
861.388	4774
861.521	5490
861.653	4702
861.786	4759
861.918	4752
862.05	4801
862.183	4847
862.315	4835
862.447	4953
862.58	4892
862.712	4809
862.844	4778
862.976	4816
863.108	4900
863.24	5261
863.372	4786
863.504	4892
863.636	4949
863.768	4972
863.9	4968
864.032	4919
864.164	4923
864.296	5014
864.428	5079
864.559	5029
864.691	5079
864.823	5128
864.954	5143
865.086	5185
865.217	5178
865.349	5090
865.48	5117
865.612	5201
865.743	5261
865.875	5189
866.006	5261
866.137	5258
866.269	5254
866.4	5239
866.531	5292
866.662	5204
866.793	5258
866.924	5231
867.055	5330
867.186	5273
867.317	5318
867.448	5341
867.579	5326
867.71	5368
867.841	5406
867.972	5471
868.103	5455
868.233	5512
868.364	5482
868.495	5478
868.625	5672
868.756	5790
868.886	5634
869.017	5722
869.147	5859
869.278	5897
869.408	5874
869.539	5832
869.669	5844
869.799	5855
869.929	6003
870.06	5984
870.19	6186
870.32	6194
870.45	6216
870.58	6327
870.71	6452
870.84	6426
870.97	6460
871.1	6418
871.23	6616
871.36	6722
871.489	6696
871.619	6764
871.749	6829
871.879	6886
872.008	6943
872.138	6977
872.267	6981
872.397	6977
872.526	7065
872.656	7027
872.785	7179
872.915	7362
873.044	7476
873.173	7487
873.303	7639
873.432	7742
873.561	7830
873.69	7906
873.819	8016
873.948	8107
874.077	8252
874.206	8279
874.335	8427
874.464	8682
874.593	8899
874.722	8902
874.851	9157
874.979	9264
875.108	9317
875.237	9412
875.365	9477
875.494	9629
875.623	9888
875.751	9831
875.88	9949
876.008	10131
876.136	10207
876.265	10519
876.393	10668
876.521	10698
876.65	10774
876.778	10816
876.906	10828
877.034	10896
877.162	11117
877.29	11151
877.418	11391
877.546	11345
877.674	11402
877.802	11482
877.93	11436
878.058	11471
878.185	11596
878.313	11630
878.441	11779
878.568	11745
878.696	11790
878.824	11836
878.951	11908
879.079	12041
879.206	12167
879.333	12095
879.461	11969
879.588	12022
879.715	12079
879.842	12232
879.97	12076
880.097	11855
880.224	11798
880.351	11931
880.478	11843
880.605	11684
880.732	11817
880.859	11977
880.986	11843
881.112	11817
881.239	11775
881.366	11623
881.493	11615
881.619	11547
881.746	11573
881.872	11505
881.999	11444
882.125	11459
882.252	11490
882.378	11448
882.505	11577
882.631	11414
882.757	11303
882.883	11235
883.01	11197
883.136	11140
883.262	11121
883.388	11124
883.514	11189
883.64	11193
883.766	11071
883.892	10968
884.018	11029
884.143	11121
884.269	11124
884.395	10816
884.52	10767
884.646	10843
884.772	10668
884.897	10626
885.023	10664
885.148	10733
885.274	10706
885.399	10736
885.524	10664
885.65	10603
885.775	10554
885.9	10485
886.025	10626
886.15	10607
886.275	10386
886.4	10314
886.525	10424
886.65	10318
886.775	10329
886.9	10459
887.025	10485
887.149	10344
887.274	10158
887.399	10242
887.523	10200
887.648	10105
887.773	10105
887.897	10249
888.021	10181
888.146	10154
888.27	10204
888.395	10223
888.519	10173
888.643	10166
888.767	10150
888.891	10029
889.015	9991
889.139	10029
889.263	10013
889.387	10063
889.511	10105
889.635	10051
889.759	9937
889.883	9979
890.006	9930
890.13	10032
890.254	9994
890.377	9926
890.501	9812
890.624	9842
890.748	9907
890.871	9865
890.995	9724
891.118	9705
891.241	9770
891.364	9755
891.488	9804
891.611	9682
891.734	9709
891.857	9747
891.98	9717
892.103	9705
892.226	9766
892.349	9633
892.471	9504
892.594	9564
892.717	9625
892.839	9603
892.962	9561
893.085	9576
893.207	9584
893.33	9526
893.452	9545
893.575	9618
893.697	9576
893.819	9542
893.941	9622
894.064	9591
894.186	9420
894.308	9336
894.43	9545
894.552	9553
894.674	9481
894.796	9382
894.918	9332
895.04	9313
895.161	9420
895.283	9370
895.405	9329
895.526	9260
895.648	9245
895.769	9188
895.891	9207
896.012	9268
896.134	9264
896.255	9211
896.376	9154
896.498	9165
896.619	9085
896.74	9062
896.861	9116
896.982	9291
897.103	9283
897.224	9104
897.345	9097
897.466	8918
897.587	9062
897.708	9043
897.828	9020
897.949	8952
898.07	8910
898.19	8876
898.311	9005
898.431	8826
898.552	8948
898.672	9013
898.792	8963
898.913	8864
899.033	8727
899.153	8766
899.273	8590
899.393	8670
899.513	8754
899.633	8697
899.753	8750
899.873	8701
899.993	8735
900.113	8731
900.232	8705
900.352	8735
900.472	8598
900.591	8526
900.711	8522
900.83	8511
900.95	8651
901.069	8678
901.189	8598
901.308	8446
901.427	8393
901.546	8313
901.665	8400
901.784	8537
901.904	8389
902.023	8328
902.141	8218
902.26	8206
902.379	8259
902.498	8161
902.617	8168
902.735	8279
902.854	8305
902.973	8233
903.091	8096
903.21	8138
903.328	8126
903.446	8164
903.565	8084
903.683	8084
903.801	8043
903.919	8164
904.038	8130
904.156	8077
904.274	8065
904.392	7982
904.51	8012
904.627	8016
904.745	8031
904.863	8043
904.981	7978
905.098	7803
905.216	7845
905.334	7928
905.451	7849
905.569	7811
905.686	7909
905.803	7955
905.921	7738
906.038	7814
906.155	7811
906.272	7723
906.389	7696
906.506	7685
906.623	7666
906.74	7556
906.857	7491
906.974	7578
907.091	7666
907.208	7738
907.324	7594
907.441	7563
907.557	7388
907.674	7441
907.79	7377
907.907	7388
908.023	7415
908.139	7369
908.256	7358
908.372	7407
908.488	7270
908.604	7236
908.72	7247
908.836	7228
908.952	7263
909.068	7202
909.184	7350
909.3	7289
909.415	7266
909.531	7297
909.647	7114
909.762	7110
909.878	7061
909.993	7103
910.108	7072
910.224	7080
910.339	7095
910.454	7050
910.57	6985
910.685	6985
910.8	7175
910.915	7114
911.03	7012
911.145	6882
911.259	6882
911.374	6882
911.489	6848
911.604	6734
911.718	6734
911.833	6696
911.947	6623
912.062	6597
912.176	6703
912.291	6646
912.405	6673
912.519	6833
912.633	6829
912.748	6703
912.862	6684
912.976	6631
913.09	6498
913.204	6597
913.318	6593
913.431	6665
913.545	6753
913.659	6707
913.772	6662
913.886	6563
914	6525
914.113	6589
914.226	6585
914.34	6627
914.453	6525
914.566	6604
914.68	6589
914.793	6540
914.906	6391
915.019	6422
915.132	6388
915.245	6460
915.358	6414
915.47	6437
915.583	6441
915.696	6475
915.809	6513
915.921	6528
916.034	6448
916.146	6418
916.259	6338
916.371	6441
916.483	6433
916.595	6353
916.708	6403
916.82	6407
916.932	6342
917.044	6441
917.156	6429
917.268	6357
917.38	6342
917.491	6315
917.603	6308
917.715	6407
917.826	6407
917.938	6319
918.049	6197
918.161	6338
918.272	6410
918.384	6346
918.495	6350
918.606	6182
918.717	6163
918.828	6247
918.939	6262
919.05	6201
919.161	6270
919.272	6125
919.383	6106
919.494	6285
919.604	6429
919.715	6258
919.826	6209
919.936	6254
920.047	6353
920.157	6251
920.267	6479
920.378	6338
920.488	6228
920.598	6399
920.708	6471
920.818	6460
920.928	6403
921.038	6555
921.148	6540
921.258	6300
921.368	6254
921.477	6232
921.587	6140
921.697	6083
921.806	6186
921.916	6072
922.025	5920
922.134	5901
922.244	5916
922.353	5965
922.462	5786
922.571	5748
922.68	5680
922.789	5676
922.898	5748
923.007	5668
923.116	5691
923.224	5634
923.333	5661
923.442	5638
923.55	5585
923.659	5558
923.767	5634
923.876	5604
923.984	5634
924.092	5459
924.201	5566
924.309	5547
924.417	5562
924.525	5440
924.633	5516
924.741	6125
924.849	5334
924.956	5452
925.064	5353
925.172	5360
925.279	5315
925.387	5330
925.494	5303
925.602	5417
925.709	5334
925.816	5250
925.924	5284
926.031	5334
926.138	5318
926.245	5326
926.352	5258
926.459	5307
926.566	5303
926.673	5220
926.779	5178
926.886	5098
926.993	5022
927.099	4984
927.206	5014
927.312	4965
927.419	5064
927.525	4946
927.631	4976
927.737	4919
927.843	4835
927.95	4816
928.056	4786
928.162	4866
928.267	4816
928.373	5242
928.479	4831
928.585	4634
928.69	4748
928.796	4736
928.901	4752
929.007	4580
929.112	4664
929.218	4641
929.323	4615
929.428	4584
929.533	4702
929.638	4504
929.743	4462
929.848	4523
929.953	4447
930.058	4402
930.163	4318
930.267	4367
930.372	4409
930.477	4314
930.581	4455
930.685	4394
930.79	4276
930.894	4280
930.998	4303
931.103	4367
931.207	4067
931.311	4036
931.415	4048
931.519	3937
931.623	3968
