Data from glass_V78500241_53.txt Node
Date: Wed Sep 01 19:14:52 CST 2021
User: usil
Spectrometer: V785-0024
Trigger mode: 0
Integration Time (sec): 4.000000E-1
Scans to average: 1
Nonlinearity correction enabled: false
Boxcar width: 0
Storing dark spectrum: false
XAxis mode: Wavelengths
Number of Pixels in Spectrum: 1024
>>>>>Begin Spectral Data<<<<<
801.071	3755
801.214	3751
801.356	3755
801.499	3774
801.641	3774
801.783	3747
801.926	3915
802.068	3831
802.211	3869
802.353	3876
802.496	3888
802.638	3949
802.78	3903
802.923	3949
803.065	3953
803.208	3865
803.35	3880
803.492	3922
803.635	3903
803.777	3850
803.919	3903
804.061	4188
804.204	3983
804.346	3934
804.488	3937
804.63	4032
804.773	3998
804.915	4036
805.057	4204
805.199	4074
805.341	4143
805.483	4188
805.626	4192
805.768	4154
805.91	4173
806.052	4253
806.194	4200
806.336	4344
806.478	4234
806.62	4211
806.762	4192
806.904	4299
807.046	4363
807.188	4246
807.33	4177
807.472	4246
807.614	4204
807.756	4265
807.898	4261
808.04	4242
808.182	4299
808.324	4333
808.465	4375
808.607	4504
808.749	4474
808.891	4485
809.033	4531
809.174	4405
809.316	4261
809.458	4268
809.6	4177
809.741	4135
809.883	4143
810.025	4227
810.166	4246
810.308	4242
810.45	4249
810.591	4249
810.733	4284
810.875	4535
811.016	4831
811.158	5132
811.299	5242
811.441	5265
811.582	5052
811.724	4740
811.865	4466
812.007	4523
812.148	4485
812.29	4367
812.431	4436
812.573	4428
812.714	4383
812.855	4421
812.997	4409
813.138	4512
813.279	4432
813.421	4417
813.562	4386
813.703	4333
813.845	4360
813.986	4242
814.127	4227
814.268	4261
814.41	4318
814.551	4310
814.692	4360
814.833	4303
814.974	4318
815.115	4337
815.256	4280
815.397	4242
815.539	4261
815.68	4204
815.821	4169
815.962	4314
816.103	4261
816.244	4253
816.385	4234
816.526	4337
816.666	4253
816.807	4093
816.948	4230
817.089	4238
817.23	4120
817.371	4101
817.512	4074
817.653	4090
817.793	4029
817.934	4051
818.075	4093
818.216	4086
818.356	4086
818.497	3972
818.638	3926
818.778	3941
818.919	3930
819.06	3888
819.2	3903
819.341	3915
819.481	3861
819.622	3956
819.762	4040
819.903	3983
820.043	3896
820.184	3854
820.324	3819
820.465	3884
820.605	3907
820.746	3854
820.886	3865
821.026	3960
821.167	3937
821.307	4010
821.447	3991
821.588	3964
821.728	3998
821.868	3991
822.008	3888
822.149	3956
822.289	3956
822.429	3842
822.569	3774
822.709	3808
822.849	3709
822.99	3720
823.13	3774
823.27	3781
823.41	3713
823.55	3724
823.69	3732
823.83	3720
823.97	3705
824.11	3606
824.25	3606
824.389	3652
824.529	3675
824.669	3656
824.809	3728
824.949	3781
825.089	3717
825.228	3705
825.368	3610
825.508	3564
825.648	3584
825.787	3667
825.927	3701
826.067	3660
826.206	3709
826.346	3785
826.485	3831
826.625	3899
826.765	3968
826.904	3850
827.044	3656
827.183	3545
827.323	3435
827.462	3504
827.601	3458
827.741	3454
827.88	3450
828.02	3401
828.159	3477
828.298	3511
828.437	3526
828.577	3507
828.716	3603
828.855	3538
828.994	3409
829.134	3397
829.273	3397
829.412	3393
829.551	3355
829.69	3363
829.829	3439
829.968	3496
830.107	3435
830.246	3439
830.385	3405
830.524	3386
830.663	3348
830.802	3260
830.941	3237
831.08	3188
831.219	3302
831.357	3260
831.496	3424
831.635	3256
831.774	3184
831.913	3218
832.051	3161
832.19	3173
832.329	3222
832.467	3142
832.606	3138
832.744	3192
832.883	3192
833.022	3233
833.16	3302
833.299	3359
833.437	3313
833.576	3397
833.714	3386
833.852	3504
833.991	3428
834.129	3485
834.267	3466
834.406	3409
834.544	3485
834.682	3447
834.821	3447
834.959	3576
835.097	3435
835.235	3515
835.373	3485
835.511	3515
835.65	3458
835.788	3477
835.926	3458
836.064	3386
836.202	3447
836.34	3561
836.478	3622
836.615	3526
836.753	3603
836.891	3633
837.029	3656
837.167	3599
837.305	3587
837.443	3519
837.58	3523
837.718	3652
837.856	3530
837.993	3561
838.131	3633
838.269	3580
838.406	3587
838.544	3584
838.681	3500
838.819	3443
838.956	3378
839.094	3393
839.231	3416
839.369	3507
839.506	3766
839.643	3625
839.781	3496
839.918	3515
840.055	3557
840.193	3542
840.33	3561
840.467	3595
840.604	3610
840.742	3793
840.879	3553
841.016	3549
841.153	3618
841.29	3762
841.427	3705
841.564	3694
841.701	3804
841.838	3682
841.975	3728
842.112	3728
842.249	3648
842.385	3656
842.522	3850
842.659	3682
842.796	3679
842.933	3690
843.069	3675
843.206	3732
843.343	3827
843.479	3808
843.616	3838
843.752	3660
843.889	3720
844.025	3857
844.162	3743
844.298	3838
844.435	3808
844.571	3797
844.708	3915
844.844	4032
844.98	4040
845.117	4017
845.253	3926
845.389	3899
845.525	4010
845.661	4002
845.798	3949
845.934	4006
846.07	3937
846.206	4097
846.342	4147
846.478	4032
846.614	3983
846.75	3922
846.886	3953
847.022	4074
847.158	4029
847.294	4029
847.429	4067
847.565	4025
847.701	4272
847.837	3873
847.972	3911
848.108	4002
848.244	4010
848.379	3880
848.515	3846
848.65	3831
848.786	3835
848.921	3884
849.057	3949
849.192	3994
849.328	3941
849.463	3953
849.598	3903
849.734	3888
849.869	3850
850.004	3808
850.14	3816
850.275	3770
850.41	3747
850.545	3778
850.68	3797
850.815	3816
850.95	3808
851.085	3968
851.22	3926
851.355	3835
851.49	3789
851.625	3812
851.76	3816
851.895	3766
852.03	3751
852.165	3793
852.299	3865
852.434	3899
852.569	3896
852.703	3922
852.838	3937
852.973	4029
853.107	3994
853.242	3903
853.376	3876
853.511	3846
853.645	3876
853.78	4002
853.914	3930
854.048	3937
854.183	3907
854.317	3953
854.451	4074
854.585	3968
854.72	3911
854.854	4074
854.988	3926
855.122	4048
855.256	3926
855.39	4040
855.524	4143
855.658	4082
855.792	4131
855.926	4143
856.06	4116
856.194	4219
856.327	4147
856.461	4135
856.595	4135
856.729	4192
856.862	4318
856.996	4230
857.13	4325
857.263	4386
857.397	4356
857.53	4329
857.664	4337
857.797	4428
857.931	4432
858.064	4390
858.197	4546
858.331	4436
858.464	4424
858.597	4371
858.731	4478
858.864	4455
858.997	4440
859.13	4542
859.263	4561
859.396	4622
859.529	4554
859.662	4531
859.795	4531
859.928	4634
860.061	4706
860.194	4752
860.327	4653
860.46	4660
860.592	4748
860.725	4797
860.858	4694
860.99	4717
861.123	4698
861.256	4698
861.388	4816
861.521	5417
861.653	4694
861.786	4691
861.918	4748
862.05	4809
862.183	4866
862.315	4873
862.447	4957
862.58	4881
862.712	4824
862.844	4809
862.976	4889
863.108	4957
863.24	5269
863.372	4900
863.504	4942
863.636	4900
863.768	4980
863.9	4949
864.032	4919
864.164	4972
864.296	5006
864.428	5079
864.559	5124
864.691	5105
864.823	5166
864.954	5155
865.086	5143
865.217	5102
865.349	5102
865.48	5170
865.612	5208
865.743	5288
865.875	5181
866.006	5147
866.137	5273
866.269	5254
866.4	5288
866.531	5277
866.662	5296
866.793	5280
866.924	5334
867.055	5357
867.186	5334
867.317	5322
867.448	5326
867.579	5440
867.71	5417
867.841	5410
867.972	5493
868.103	5478
868.233	5505
868.364	5482
868.495	5551
868.625	5680
868.756	5767
868.886	5665
869.017	5756
869.147	5790
869.278	5893
869.408	5790
869.539	5794
869.669	5923
869.799	5912
869.929	5996
870.06	6045
870.19	6190
870.32	6216
870.45	6266
870.58	6338
870.71	6475
870.84	6460
870.97	6502
871.1	6441
871.23	6631
871.36	6650
871.489	6681
871.619	6757
871.749	6833
871.879	6859
872.008	7034
872.138	6981
872.267	6958
872.397	6970
872.526	7076
872.656	7126
872.785	7171
872.915	7324
873.044	7533
873.173	7567
873.303	7628
873.432	7750
873.561	7902
873.69	7921
873.819	7982
873.948	8221
874.077	8225
874.206	8332
874.335	8446
874.464	8621
874.593	8929
874.722	8883
874.851	9127
874.979	9294
875.108	9374
875.237	9435
875.365	9469
875.494	9648
875.623	9861
875.751	9808
875.88	10017
876.008	10143
876.136	10265
876.265	10523
876.393	10580
876.521	10717
876.65	10824
876.778	10816
876.906	10896
877.034	11075
877.162	11079
877.29	11159
877.418	11265
877.546	11326
877.674	11490
877.802	11493
877.93	11490
878.058	11589
878.185	11528
878.313	11615
878.441	11733
878.568	11699
878.696	11817
878.824	11935
878.951	11939
879.079	11996
879.206	12121
879.333	12049
879.461	11984
879.588	12133
879.715	12155
879.842	12182
879.97	12041
880.097	11885
880.224	11935
880.351	11870
880.478	11927
880.605	11897
880.732	11840
880.859	12015
880.986	11779
881.112	11893
881.239	11729
881.366	11714
881.493	11596
881.619	11547
881.746	11551
881.872	11547
881.999	11512
882.125	11474
882.252	11627
882.378	11459
882.505	11528
882.631	11341
882.757	11269
882.883	11303
883.01	11296
883.136	11094
883.262	11075
883.388	11124
883.514	11227
883.64	11223
883.766	11155
883.892	11003
884.018	11056
884.143	11052
884.269	11132
884.395	10828
884.52	10778
884.646	10828
884.772	10733
884.897	10634
885.023	10786
885.148	10771
885.274	10850
885.399	10653
885.524	10672
885.65	10615
885.775	10573
885.9	10611
886.025	10649
886.15	10554
886.275	10489
886.4	10382
886.525	10424
886.65	10421
886.775	10344
886.9	10489
887.025	10474
887.149	10341
887.274	10185
887.399	10227
887.523	10265
887.648	10150
887.773	10128
887.897	10272
888.021	10234
888.146	10147
888.27	10200
888.395	10227
888.519	10204
888.643	10177
888.767	10215
888.891	10074
889.015	10055
889.139	10048
889.263	10002
889.387	10097
889.511	10093
889.635	10097
889.759	9960
889.883	9983
890.006	9972
890.13	10097
890.254	9953
890.377	9930
890.501	9873
890.624	9926
890.748	9823
890.871	9861
890.995	9797
891.118	9869
891.241	9774
891.364	9789
891.488	9854
891.611	9808
891.734	9755
891.857	9789
891.98	9781
892.103	9778
892.226	9720
892.349	9701
892.471	9576
892.594	9610
892.717	9660
892.839	9576
892.962	9625
893.085	9648
893.207	9580
893.33	9481
893.452	9564
893.575	9580
893.697	9519
893.819	9629
893.941	9629
894.064	9618
894.186	9393
894.308	9397
894.43	9496
894.552	9587
894.674	9507
894.796	9378
894.918	9401
895.04	9359
895.161	9408
895.283	9321
895.405	9245
895.526	9291
895.648	9233
895.769	9233
895.891	9310
896.012	9287
896.134	9211
896.255	9146
896.376	9108
896.498	9108
896.619	9184
896.74	9093
896.861	9123
896.982	9253
897.103	9348
897.224	9146
897.345	9028
897.466	9077
897.587	9142
897.708	9161
897.828	9028
897.949	9024
898.07	8914
898.19	8975
898.311	8975
898.431	8883
898.552	8963
898.672	8925
898.792	8918
898.913	8929
899.033	8758
899.153	8743
899.273	8686
899.393	8705
899.513	8773
899.633	8686
899.753	8853
899.873	8724
899.993	8838
900.113	8697
900.232	8708
900.352	8640
900.472	8651
900.591	8533
900.711	8564
900.83	8507
900.95	8689
901.069	8693
901.189	8545
901.308	8476
901.427	8400
901.546	8423
901.665	8465
901.784	8507
901.904	8488
902.023	8339
902.141	8206
902.26	8233
902.379	8286
902.498	8225
902.617	8328
902.735	8210
902.854	8294
902.973	8259
903.091	8119
903.21	8176
903.328	8130
903.446	8168
903.565	8100
903.683	8103
903.801	8062
903.919	8172
904.038	8149
904.156	8024
904.274	8103
904.392	8107
904.51	8077
904.627	8046
904.745	8077
904.863	8149
904.981	7947
905.098	7902
905.216	7860
905.334	7871
905.451	7997
905.569	7913
905.686	7936
905.803	7902
905.921	7807
906.038	7837
906.155	7780
906.272	7738
906.389	7700
906.506	7712
906.623	7624
906.74	7647
906.857	7559
906.974	7609
907.091	7689
907.208	7795
907.324	7632
907.441	7548
907.557	7491
907.674	7422
907.79	7362
907.907	7400
908.023	7457
908.139	7453
908.256	7324
908.372	7400
908.488	7289
908.604	7255
908.72	7221
908.836	7289
908.952	7259
909.068	7293
909.184	7308
909.3	7255
909.415	7358
909.531	7324
909.647	7171
909.762	7103
909.878	7091
909.993	7156
910.108	7076
910.224	7080
910.339	7141
910.454	7004
910.57	7031
910.685	6913
910.8	7221
910.915	7129
911.03	7008
911.145	6932
911.259	6890
911.374	6909
911.489	6856
911.604	6825
911.718	6707
911.833	6760
911.947	6673
912.062	6616
912.176	6673
912.291	6719
912.405	6711
912.519	6878
912.633	6856
912.748	6715
912.862	6768
912.976	6597
913.09	6574
913.204	6631
913.318	6616
913.431	6700
913.545	6715
913.659	6764
913.772	6646
913.886	6563
914	6517
914.113	6563
914.226	6631
914.34	6585
914.453	6517
914.566	6623
914.68	6616
914.793	6544
914.906	6437
915.019	6460
915.132	6426
915.245	6433
915.358	6502
915.47	6445
915.583	6452
915.696	6467
915.809	6585
915.921	6540
916.034	6429
916.146	6448
916.259	6350
916.371	6452
916.483	6525
916.595	6376
916.708	6372
916.82	6407
916.932	6388
917.044	6429
917.156	6391
917.268	6331
917.38	6384
917.491	6308
917.603	6418
917.715	6372
917.826	6410
917.938	6304
918.049	6270
918.161	6365
918.272	6380
918.384	6460
918.495	6369
918.606	6251
918.717	6262
918.828	6285
918.939	6285
919.05	6220
919.161	6277
919.272	6098
919.383	6129
919.494	6270
919.604	6456
919.715	6327
919.826	6220
919.936	6289
920.047	6350
920.157	6361
920.267	6464
920.378	6315
920.488	6292
920.598	6460
920.708	6601
920.818	6407
920.928	6475
921.038	6642
921.148	6559
921.258	6357
921.368	6338
921.477	6235
921.587	6186
921.697	6140
921.806	6186
921.916	6038
922.025	5931
922.134	5954
922.244	5946
922.353	5920
922.462	5832
922.571	5794
922.68	5767
922.789	5710
922.898	5680
923.007	5653
923.116	5714
923.224	5642
923.333	5703
923.442	5589
923.55	5619
923.659	5581
923.767	5608
923.876	5592
923.984	5547
924.092	5520
924.201	5520
924.309	5554
924.417	5570
924.525	5532
924.633	5528
924.741	6311
924.849	5383
924.956	5459
925.064	5357
925.172	5345
925.279	5307
925.387	5349
925.494	5357
925.602	5425
925.709	5406
925.816	5307
925.924	5345
926.031	5387
926.138	5322
926.245	5318
926.352	5235
926.459	5311
926.566	5345
926.673	5235
926.779	5201
926.886	5098
926.993	5014
927.099	5010
927.206	5010
927.312	4999
927.419	5056
927.525	4953
927.631	5029
927.737	4942
927.843	4900
927.95	4797
928.056	4870
928.162	4870
928.267	4847
928.373	5357
928.479	4854
928.585	4710
928.69	4809
928.796	4774
928.901	4710
929.007	4615
929.112	4706
929.218	4603
929.323	4580
929.428	4603
929.533	4691
929.638	4592
929.743	4584
929.848	4558
929.953	4512
930.058	4470
930.163	4390
930.267	4352
930.372	4451
930.477	4318
930.581	4451
930.685	4363
930.79	4299
930.894	4314
930.998	4295
931.103	4428
931.207	4143
931.311	4112
931.415	4063
931.519	3937
931.623	3949
