Data from glass_V78500241_1195.txt Node
Date: Wed Sep 01 19:22:47 CST 2021
User: usil
Spectrometer: V785-0024
Trigger mode: 0
Integration Time (sec): 4.000000E-1
Scans to average: 1
Nonlinearity correction enabled: false
Boxcar width: 0
Storing dark spectrum: false
XAxis mode: Wavelengths
Number of Pixels in Spectrum: 1024
>>>>>Begin Spectral Data<<<<<
801.071	3732
801.214	3743
801.356	3747
801.499	3724
801.641	3720
801.783	3778
801.926	3854
802.068	3812
802.211	3869
802.353	3873
802.496	3842
802.638	3896
802.78	3884
802.923	3911
803.065	3953
803.208	3869
803.35	3861
803.492	3945
803.635	3915
803.777	3755
803.919	3884
804.061	4135
804.204	3964
804.346	3975
804.488	3945
804.63	4006
804.773	3987
804.915	4021
805.057	4150
805.199	4063
805.341	4082
805.483	4158
805.626	4093
805.768	4101
805.91	4215
806.052	4238
806.194	4200
806.336	4341
806.478	4272
806.62	4185
806.762	4177
806.904	4268
807.046	4314
807.188	4215
807.33	4181
807.472	4242
807.614	4177
807.756	4265
807.898	4211
808.04	4227
808.182	4257
808.324	4322
808.465	4451
808.607	4470
808.749	4504
808.891	4459
809.033	4527
809.174	4409
809.316	4227
809.458	4261
809.6	4181
809.741	4185
809.883	4154
810.025	4238
810.166	4215
810.308	4230
810.45	4242
810.591	4280
810.733	4356
810.875	4523
811.016	4870
811.158	5155
811.299	5258
811.441	5303
811.582	5071
811.724	4702
811.865	4443
812.007	4451
812.148	4443
812.29	4440
812.431	4466
812.573	4432
812.714	4394
812.855	4424
812.997	4383
813.138	4527
813.279	4394
813.421	4405
813.562	4363
813.703	4291
813.845	4363
813.986	4303
814.127	4272
814.268	4272
814.41	4337
814.551	4257
814.692	4318
814.833	4287
814.974	4306
815.115	4371
815.256	4299
815.397	4223
815.539	4272
815.68	4196
815.821	4169
815.962	4333
816.103	4295
816.244	4238
816.385	4227
816.526	4280
816.666	4207
816.807	4101
816.948	4154
817.089	4166
817.23	4112
817.371	4048
817.512	4025
817.653	4071
817.793	4032
817.934	4029
818.075	4101
818.216	4090
818.356	4067
818.497	3994
818.638	3941
818.778	3949
818.919	3915
819.06	3838
819.2	3892
819.341	3838
819.481	3857
819.622	3884
819.762	4048
819.903	3964
820.043	3857
820.184	3854
820.324	3873
820.465	3884
820.605	3907
820.746	3888
820.886	3812
821.026	3945
821.167	3911
821.307	4002
821.447	3945
821.588	3926
821.728	3945
821.868	3956
822.008	3876
822.149	3915
822.289	3945
822.429	3759
822.569	3816
822.709	3842
822.849	3762
822.99	3709
823.13	3766
823.27	3774
823.41	3713
823.55	3774
823.69	3713
823.83	3781
823.97	3705
824.11	3599
824.25	3622
824.389	3648
824.529	3660
824.669	3671
824.809	3709
824.949	3785
825.089	3728
825.228	3701
825.368	3614
825.508	3542
825.648	3633
825.787	3644
825.927	3618
826.067	3652
826.206	3709
826.346	3819
826.485	3865
826.625	3835
826.765	3945
826.904	3869
827.044	3584
827.183	3564
827.323	3416
827.462	3496
827.601	3439
827.741	3447
827.88	3477
828.02	3351
828.159	3439
828.298	3496
828.437	3534
828.577	3469
828.716	3644
828.855	3507
828.994	3389
829.134	3378
829.273	3378
829.412	3332
829.551	3389
829.69	3359
829.829	3435
829.968	3477
830.107	3435
830.246	3443
830.385	3397
830.524	3359
830.663	3287
830.802	3249
830.941	3195
831.08	3214
831.219	3249
831.357	3253
831.496	3412
831.635	3272
831.774	3207
831.913	3176
832.051	3188
832.19	3173
832.329	3233
832.467	3135
832.606	3085
832.744	3173
832.883	3195
833.022	3195
833.16	3272
833.299	3317
833.437	3340
833.576	3348
833.714	3401
833.852	3435
833.991	3473
834.129	3481
834.267	3447
834.406	3416
834.544	3412
834.682	3447
834.821	3454
834.959	3553
835.097	3420
835.235	3557
835.373	3504
835.511	3511
835.65	3473
835.788	3492
835.926	3397
836.064	3405
836.202	3439
836.34	3572
836.478	3591
836.615	3545
836.753	3606
836.891	3663
837.029	3587
837.167	3595
837.305	3599
837.443	3538
837.58	3504
837.718	3644
837.856	3599
837.993	3564
838.131	3625
838.269	3603
838.406	3572
838.544	3572
838.681	3469
838.819	3466
838.956	3374
839.094	3393
839.231	3454
839.369	3500
839.506	3724
839.643	3637
839.781	3485
839.918	3473
840.055	3530
840.193	3545
840.33	3504
840.467	3568
840.604	3629
840.742	3816
840.879	3545
841.016	3564
841.153	3591
841.29	3740
841.427	3720
841.564	3740
841.701	3717
841.838	3690
841.975	3698
842.112	3728
842.249	3625
842.385	3633
842.522	3831
842.659	3663
842.796	3671
842.933	3751
843.069	3690
843.206	3656
843.343	3812
843.479	3800
843.616	3827
843.752	3641
843.889	3648
844.025	3819
844.162	3713
844.298	3892
844.435	3816
844.571	3789
844.708	3918
844.844	4013
844.98	4059
845.117	4032
845.253	3937
845.389	3880
845.525	3968
845.661	3968
845.798	3956
845.934	3979
846.07	3994
846.206	4067
846.342	4150
846.478	4071
846.614	3994
846.75	3926
846.886	3922
847.022	4082
847.158	3987
847.294	4055
847.429	4032
847.565	3975
847.701	4230
847.837	3899
847.972	3838
848.108	3972
848.244	4021
848.379	3903
848.515	3835
848.65	3804
848.786	3846
848.921	3857
849.057	3972
849.192	3972
849.328	3865
849.463	3972
849.598	3850
849.734	3869
849.869	3835
850.004	3793
850.14	3800
850.275	3797
850.41	3728
850.545	3743
850.68	3793
850.815	3861
850.95	3812
851.085	3945
851.22	3842
851.355	3854
851.49	3816
851.625	3789
851.76	3819
851.895	3740
852.03	3694
852.165	3808
852.299	3899
852.434	3956
852.569	3896
852.703	3888
852.838	3934
852.973	3956
853.107	3987
853.242	3918
853.376	3899
853.511	3759
853.645	3823
853.78	3949
853.914	3926
854.048	3896
854.183	3876
854.317	3937
854.451	4090
854.585	3956
854.72	3983
854.854	4090
854.988	3956
855.122	4017
855.256	3911
855.39	4036
855.524	4131
855.658	4071
855.792	4082
855.926	4109
856.06	4173
856.194	4177
856.327	4143
856.461	4135
856.595	4211
856.729	4162
856.862	4238
856.996	4215
857.13	4291
857.263	4306
857.397	4363
857.53	4276
857.664	4348
857.797	4409
857.931	4394
858.064	4409
858.197	4417
858.331	4409
858.464	4428
858.597	4325
858.731	4405
858.864	4436
858.997	4421
859.13	4599
859.263	4542
859.396	4573
859.529	4497
859.662	4558
859.795	4546
859.928	4599
860.061	4679
860.194	4763
860.327	4626
860.46	4660
860.592	4729
860.725	4782
860.858	4755
860.99	4714
861.123	4656
861.256	4721
861.388	4771
861.521	5425
861.653	4786
861.786	4714
861.918	4752
862.05	4767
862.183	4900
862.315	4915
862.447	4953
862.58	4938
862.712	4782
862.844	4797
862.976	4885
863.108	4835
863.24	5189
863.372	4839
863.504	4900
863.636	4915
863.768	5018
863.9	4957
864.032	4957
864.164	4976
864.296	5052
864.428	5060
864.559	5067
864.691	5083
864.823	5185
864.954	5079
865.086	5162
865.217	5124
865.349	5128
865.48	5166
865.612	5212
865.743	5307
865.875	5201
866.006	5201
866.137	5212
866.269	5231
866.4	5280
866.531	5258
866.662	5269
866.793	5315
866.924	5288
867.055	5360
867.186	5341
867.317	5349
867.448	5318
867.579	5376
867.71	5360
867.841	5357
867.972	5478
868.103	5493
868.233	5467
868.364	5528
868.495	5528
868.625	5668
868.756	5779
868.886	5649
869.017	5756
869.147	5866
869.278	5851
869.408	5824
869.539	5901
869.669	5866
869.799	5965
869.929	5973
870.06	6045
870.19	6232
870.32	6220
870.45	6220
870.58	6353
870.71	6448
870.84	6426
870.97	6452
871.1	6452
871.23	6715
871.36	6696
871.489	6673
871.619	6798
871.749	6802
871.879	6825
872.008	7000
872.138	6973
872.267	7023
872.397	6947
872.526	7053
872.656	7080
872.785	7244
872.915	7320
873.044	7544
873.173	7582
873.303	7597
873.432	7757
873.561	7868
873.69	7947
873.819	7974
873.948	8161
874.077	8305
874.206	8366
874.335	8434
874.464	8667
874.593	8815
874.722	8937
874.851	9146
874.979	9245
875.108	9382
875.237	9431
875.365	9557
875.494	9652
875.623	9842
875.751	9831
875.88	10059
876.008	10215
876.136	10303
876.265	10508
876.393	10702
876.521	10694
876.65	10809
876.778	10930
876.906	10976
877.034	10995
877.162	11083
877.29	11098
877.418	11356
877.546	11330
877.674	11417
877.802	11509
877.93	11516
878.058	11539
878.185	11585
878.313	11680
878.441	11764
878.568	11672
878.696	11836
878.824	11843
878.951	11980
879.079	12060
879.206	12186
879.333	12022
879.461	11901
879.588	12034
879.715	12049
879.842	12235
879.97	12079
880.097	11973
880.224	11882
880.351	11832
880.478	11882
880.605	11885
880.732	11843
880.859	11996
880.986	11843
881.112	11859
881.239	11802
881.366	11718
881.493	11596
881.619	11570
881.746	11474
881.872	11543
881.999	11551
882.125	11459
882.252	11490
882.378	11592
882.505	11646
882.631	11292
882.757	11231
882.883	11280
883.01	11246
883.136	11166
883.262	11140
883.388	11109
883.514	11242
883.64	11102
883.766	11143
883.892	10965
884.018	10957
884.143	11151
884.269	11128
884.395	10805
884.52	10801
884.646	10714
884.772	10675
884.897	10634
885.023	10687
885.148	10786
885.274	10740
885.399	10702
885.524	10596
885.65	10630
885.775	10607
885.9	10561
886.025	10596
886.15	10531
886.275	10527
886.4	10306
886.525	10325
886.65	10386
886.775	10329
886.9	10504
887.025	10485
887.149	10356
887.274	10242
887.399	10158
887.523	10215
887.648	10169
887.773	10147
887.897	10261
888.021	10219
888.146	10219
888.27	10135
888.395	10196
888.519	10219
888.643	10181
888.767	10211
888.891	10169
889.015	10017
889.139	10112
889.263	10006
889.387	10013
889.511	10097
889.635	10059
889.759	10025
889.883	10013
890.006	10029
890.13	10120
890.254	9960
890.377	9991
890.501	9861
890.624	9915
890.748	9915
890.871	9774
890.995	9736
891.118	9698
891.241	9857
891.364	9717
891.488	9778
891.611	9770
891.734	9812
891.857	9740
891.98	9713
892.103	9766
892.226	9743
892.349	9705
892.471	9511
892.594	9545
892.717	9633
892.839	9572
892.962	9587
893.085	9629
893.207	9466
893.33	9538
893.452	9599
893.575	9682
893.697	9481
893.819	9671
893.941	9663
894.064	9587
894.186	9485
894.308	9424
894.43	9481
894.552	9526
894.674	9591
894.796	9317
894.918	9332
895.04	9317
895.161	9386
895.283	9370
895.405	9264
895.526	9298
895.648	9211
895.769	9241
895.891	9275
896.012	9332
896.134	9237
896.255	9154
896.376	9180
896.498	9173
896.619	9089
896.74	9104
896.861	9081
896.982	9233
897.103	9359
897.224	9165
897.345	9036
897.466	9043
897.587	8967
897.708	9100
897.828	9036
897.949	8948
898.07	8868
898.19	8918
898.311	9028
898.431	8895
898.552	8998
898.672	8948
898.792	8967
898.913	8933
899.033	8807
899.153	8773
899.273	8674
899.393	8746
899.513	8670
899.633	8838
899.753	8819
899.873	8644
899.993	8708
900.113	8708
900.232	8743
900.352	8674
900.472	8644
900.591	8571
900.711	8545
900.83	8579
900.95	8644
901.069	8724
901.189	8552
901.308	8431
901.427	8431
901.546	8476
901.665	8465
901.784	8564
901.904	8423
902.023	8358
902.141	8172
902.26	8176
902.379	8301
902.498	8199
902.617	8271
902.735	8271
902.854	8309
902.973	8248
903.091	8149
903.21	8092
903.328	8168
903.446	8191
903.565	8031
903.683	8123
903.801	8065
903.919	8149
904.038	8130
904.156	8046
904.274	8107
904.392	8008
904.51	8035
904.627	8020
904.745	8145
904.863	8145
904.981	7959
905.098	7852
905.216	7921
905.334	7936
905.451	8020
905.569	7928
905.686	7925
905.803	7925
905.921	7799
906.038	7864
906.155	7818
906.272	7761
906.389	7708
906.506	7681
906.623	7693
906.74	7624
906.857	7586
906.974	7575
907.091	7651
907.208	7731
907.324	7624
907.441	7552
907.557	7480
907.674	7449
907.79	7400
907.907	7373
908.023	7388
908.139	7453
908.256	7388
908.372	7354
908.488	7343
908.604	7274
908.72	7236
908.836	7278
908.952	7312
909.068	7297
909.184	7350
909.3	7232
909.415	7266
909.531	7274
909.647	7190
909.762	7076
909.878	7110
909.993	7122
910.108	7088
910.224	7065
910.339	7099
910.454	7072
910.57	7019
910.685	7008
910.8	7110
910.915	7107
911.03	7012
911.145	6886
911.259	6894
911.374	6878
911.489	6859
911.604	6787
911.718	6764
911.833	6753
911.947	6669
912.062	6597
912.176	6722
912.291	6730
912.405	6658
912.519	6878
912.633	6856
912.748	6768
912.862	6734
912.976	6688
913.09	6471
913.204	6589
913.318	6620
913.431	6696
913.545	6696
913.659	6677
913.772	6623
913.886	6570
914	6593
914.113	6612
914.226	6696
914.34	6597
914.453	6494
914.566	6654
914.68	6490
914.793	6498
914.906	6448
915.019	6395
915.132	6372
915.245	6456
915.358	6486
915.47	6445
915.583	6471
915.696	6448
915.809	6498
915.921	6528
916.034	6384
916.146	6429
916.259	6384
916.371	6456
916.483	6407
916.595	6422
916.708	6384
916.82	6357
916.932	6410
917.044	6395
917.156	6460
917.268	6372
917.38	6350
917.491	6369
917.603	6331
917.715	6380
917.826	6464
917.938	6331
918.049	6258
918.161	6338
918.272	6407
918.384	6414
918.495	6369
918.606	6266
918.717	6190
918.828	6228
918.939	6300
919.05	6216
919.161	6270
919.272	6155
919.383	6148
919.494	6262
919.604	6460
919.715	6334
919.826	6266
919.936	6262
920.047	6292
920.157	6266
920.267	6464
920.378	6342
920.488	6251
920.598	6483
920.708	6525
920.818	6426
920.928	6464
921.038	6639
921.148	6589
921.258	6350
921.368	6361
921.477	6216
921.587	6178
921.697	6095
921.806	6186
921.916	6060
922.025	6003
922.134	5923
922.244	5935
922.353	5939
922.462	5802
922.571	5836
922.68	5783
922.789	5646
922.898	5722
923.007	5661
923.116	5676
923.224	5733
923.333	5657
923.442	5608
923.55	5554
923.659	5577
923.767	5630
923.876	5581
923.984	5638
924.092	5551
924.201	5608
924.309	5558
924.417	5547
924.525	5486
924.633	5543
924.741	6296
924.849	5406
924.956	5516
925.064	5383
925.172	5273
925.279	5299
925.387	5322
925.494	5368
925.602	5398
925.709	5379
925.816	5330
925.924	5307
926.031	5357
926.138	5322
926.245	5337
926.352	5280
926.459	5345
926.566	5307
926.673	5227
926.779	5147
926.886	5102
926.993	5033
927.099	5105
927.206	4987
927.312	4927
927.419	5029
927.525	4908
927.631	5010
927.737	4892
927.843	4927
927.95	4778
928.056	4793
928.162	4835
928.267	4862
928.373	5337
928.479	4862
928.585	4702
928.69	4778
928.796	4778
928.901	4710
929.007	4645
929.112	4679
929.218	4611
929.323	4588
929.428	4573
929.533	4683
929.638	4554
929.743	4535
929.848	4584
929.953	4478
930.058	4462
930.163	4352
930.267	4348
930.372	4417
930.477	4363
930.581	4512
930.685	4360
930.79	4238
930.894	4299
930.998	4207
931.103	4417
931.207	4097
931.311	4074
931.415	4032
931.519	3968
931.623	3937
