Data from glass_V78500241_2235.txt Node
Date: Wed Sep 01 19:29:59 CST 2021
User: usil
Spectrometer: V785-0024
Trigger mode: 0
Integration Time (sec): 4.000000E-1
Scans to average: 1
Nonlinearity correction enabled: false
Boxcar width: 0
Storing dark spectrum: false
XAxis mode: Wavelengths
Number of Pixels in Spectrum: 1024
>>>>>Begin Spectral Data<<<<<
801.071	3709
801.214	3724
801.356	3698
801.499	3720
801.641	3701
801.783	3797
801.926	3873
802.068	3842
802.211	3831
802.353	3903
802.496	3854
802.638	3831
802.78	3903
802.923	3918
803.065	3865
803.208	3827
803.35	3876
803.492	3918
803.635	3918
803.777	3759
803.919	3884
804.061	4166
804.204	3953
804.346	3934
804.488	3896
804.63	4032
804.773	3968
804.915	3975
805.057	4124
805.199	4059
805.341	4109
805.483	4131
805.626	4120
805.768	4086
805.91	4211
806.052	4173
806.194	4227
806.336	4383
806.478	4200
806.62	4173
806.762	4188
806.904	4242
807.046	4314
807.188	4246
807.33	4177
807.472	4249
807.614	4223
807.756	4303
807.898	4185
808.04	4173
808.182	4276
808.324	4341
808.465	4348
808.607	4462
808.749	4436
808.891	4398
809.033	4504
809.174	4379
809.316	4234
809.458	4219
809.6	4139
809.741	4131
809.883	4147
810.025	4242
810.166	4147
810.308	4215
810.45	4257
810.591	4162
810.733	4299
810.875	4519
811.016	4828
811.158	5147
811.299	5223
811.441	5269
811.582	5052
811.724	4683
811.865	4455
812.007	4455
812.148	4371
812.29	4417
812.431	4417
812.573	4447
812.714	4371
812.855	4440
812.997	4417
813.138	4527
813.279	4413
813.421	4379
813.562	4398
813.703	4318
813.845	4341
813.986	4253
814.127	4192
814.268	4246
814.41	4322
814.551	4257
814.692	4348
814.833	4204
814.974	4295
815.115	4329
815.256	4230
815.397	4261
815.539	4265
815.68	4158
815.821	4177
815.962	4341
816.103	4238
816.244	4249
816.385	4215
816.526	4287
816.666	4196
816.807	4082
816.948	4188
817.089	4124
817.23	4135
817.371	4006
817.512	4074
817.653	4055
817.793	4051
817.934	4067
818.075	4093
818.216	4032
818.356	4040
818.497	3964
818.638	3930
818.778	3903
818.919	3873
819.06	3869
819.2	3907
819.341	3812
819.481	3869
819.622	3918
819.762	4032
819.903	3949
820.043	3835
820.184	3778
820.324	3808
820.465	3850
820.605	3831
820.746	3831
820.886	3800
821.026	3903
821.167	3907
821.307	3991
821.447	3987
821.588	3896
821.728	3960
821.868	3899
822.008	3865
822.149	3896
822.289	3930
822.429	3770
822.569	3743
822.709	3770
822.849	3656
822.99	3724
823.13	3740
823.27	3774
823.41	3717
823.55	3720
823.69	3751
823.83	3724
823.97	3698
824.11	3595
824.25	3568
824.389	3610
824.529	3644
824.669	3633
824.809	3747
824.949	3751
825.089	3740
825.228	3705
825.368	3587
825.508	3500
825.648	3534
825.787	3595
825.927	3648
826.067	3633
826.206	3637
826.346	3812
826.485	3850
826.625	3861
826.765	3941
826.904	3846
827.044	3595
827.183	3507
827.323	3435
827.462	3466
827.601	3412
827.741	3359
827.88	3462
828.02	3363
828.159	3439
828.298	3462
828.437	3545
828.577	3416
828.716	3622
828.855	3504
828.994	3412
829.134	3332
829.273	3370
829.412	3393
829.551	3359
829.69	3332
829.829	3416
829.968	3500
830.107	3416
830.246	3416
830.385	3386
830.524	3340
830.663	3272
830.802	3237
830.941	3207
831.08	3214
831.219	3249
831.357	3272
831.496	3428
831.635	3218
831.774	3207
831.913	3173
832.051	3081
832.19	3119
832.329	3207
832.467	3154
832.606	3062
832.744	3161
832.883	3184
833.022	3188
833.16	3241
833.299	3279
833.437	3313
833.576	3382
833.714	3405
833.852	3431
833.991	3469
834.129	3466
834.267	3378
834.406	3348
834.544	3424
834.682	3401
834.821	3409
834.959	3580
835.097	3431
835.235	3488
835.373	3473
835.511	3481
835.65	3473
835.788	3481
835.926	3340
836.064	3386
836.202	3397
836.34	3526
836.478	3614
836.615	3523
836.753	3587
836.891	3633
837.029	3599
837.167	3584
837.305	3538
837.443	3515
837.58	3519
837.718	3557
837.856	3580
837.993	3538
838.131	3614
838.269	3595
838.406	3591
838.544	3595
838.681	3439
838.819	3458
838.956	3367
839.094	3351
839.231	3428
839.369	3511
839.506	3740
839.643	3595
839.781	3481
839.918	3458
840.055	3553
840.193	3496
840.33	3530
840.467	3534
840.604	3606
840.742	3823
840.879	3515
841.016	3618
841.153	3561
841.29	3732
841.427	3682
841.564	3728
841.701	3736
841.838	3732
841.975	3633
842.112	3709
842.249	3629
842.385	3614
842.522	3823
842.659	3679
842.796	3656
842.933	3648
843.069	3656
843.206	3736
843.343	3766
843.479	3747
843.616	3808
843.752	3675
843.889	3671
844.025	3835
844.162	3675
844.298	3819
844.435	3755
844.571	3785
844.708	3911
844.844	3979
844.98	3994
845.117	3979
845.253	3918
845.389	3907
845.525	3975
845.661	3983
845.798	3915
845.934	3983
846.07	3972
846.206	4032
846.342	4120
846.478	4032
846.614	3979
846.75	3865
846.886	3930
847.022	4002
847.158	3960
847.294	3998
847.429	4006
847.565	4010
847.701	4249
847.837	3861
847.972	3842
848.108	3949
848.244	3975
848.379	3861
848.515	3835
848.65	3789
848.786	3835
848.921	3816
849.057	3926
849.192	3930
849.328	3884
849.463	3941
849.598	3903
849.734	3869
849.869	3854
850.004	3793
850.14	3842
850.275	3743
850.41	3709
850.545	3747
850.68	3785
850.815	3766
850.95	3785
851.085	3926
851.22	3854
851.355	3842
851.49	3819
851.625	3766
851.76	3766
851.895	3724
852.03	3698
852.165	3793
852.299	3800
852.434	3907
852.569	3808
852.703	3846
852.838	3934
852.973	4002
853.107	3998
853.242	3888
853.376	3907
853.511	3743
853.645	3804
853.78	3972
853.914	3876
854.048	3854
854.183	3827
854.317	3945
854.451	4025
854.585	3930
854.72	3941
854.854	4090
854.988	3964
855.122	4013
855.256	3926
855.39	4017
855.524	4097
855.658	4074
855.792	4124
855.926	4101
856.06	4109
856.194	4158
856.327	4158
856.461	4150
856.595	4105
856.729	4177
856.862	4287
856.996	4234
857.13	4295
857.263	4325
857.397	4348
857.53	4280
857.664	4367
857.797	4436
857.931	4417
858.064	4379
858.197	4455
858.331	4394
858.464	4386
858.597	4344
858.731	4459
858.864	4424
858.997	4432
859.13	4516
859.263	4527
859.396	4592
859.529	4497
859.662	4519
859.795	4527
859.928	4630
860.061	4706
860.194	4687
860.327	4660
860.46	4634
860.592	4733
860.725	4717
860.858	4721
860.99	4668
861.123	4637
861.256	4675
861.388	4767
861.521	5433
861.653	4706
861.786	4660
861.918	4721
862.05	4771
862.183	4778
862.315	4870
862.447	4889
862.58	4885
862.712	4820
862.844	4763
862.976	4854
863.108	4854
863.24	5204
863.372	4790
863.504	4911
863.636	4870
863.768	4968
863.9	4919
864.032	4908
864.164	4980
864.296	4968
864.428	5109
864.559	5098
864.691	5094
864.823	5086
864.954	5079
865.086	5151
865.217	5102
865.349	5147
865.48	5178
865.612	5189
865.743	5288
865.875	5201
866.006	5136
866.137	5197
866.269	5197
866.4	5208
866.531	5197
866.662	5204
866.793	5296
866.924	5261
867.055	5345
867.186	5303
867.317	5277
867.448	5250
867.579	5318
867.71	5334
867.841	5372
867.972	5467
868.103	5497
868.233	5452
868.364	5512
868.495	5455
868.625	5680
868.756	5764
868.886	5714
869.017	5703
869.147	5863
869.278	5870
869.408	5794
869.539	5790
869.669	5912
869.799	5878
869.929	5935
870.06	5984
870.19	6171
870.32	6133
870.45	6247
870.58	6331
870.71	6509
870.84	6475
870.97	6342
871.1	6452
871.23	6608
871.36	6684
871.489	6677
871.619	6722
871.749	6810
871.879	6890
872.008	7034
872.138	6985
872.267	7050
872.397	6985
872.526	7034
872.656	7057
872.785	7270
872.915	7362
873.044	7468
873.173	7506
873.303	7613
873.432	7772
873.561	7814
873.69	7898
873.819	8054
873.948	8130
874.077	8252
874.206	8317
874.335	8465
874.464	8636
874.593	8864
874.722	8963
874.851	9146
874.979	9294
875.108	9332
875.237	9378
875.365	9439
875.494	9641
875.623	9869
875.751	9800
875.88	9895
876.008	10173
876.136	10238
876.265	10542
876.393	10714
876.521	10729
876.65	10702
876.778	10793
876.906	10835
877.034	10961
877.162	11071
877.29	11197
877.418	11292
877.546	11299
877.674	11425
877.802	11402
877.93	11444
878.058	11551
878.185	11570
878.313	11676
878.441	11748
878.568	11608
878.696	11771
878.824	11821
878.951	12057
879.079	11954
879.206	12098
879.333	12019
879.461	11923
879.588	12102
879.715	12106
879.842	12243
879.97	12064
880.097	11851
880.224	11859
880.351	11843
880.478	11927
880.605	11821
880.732	11878
880.859	12019
880.986	11790
881.112	11840
881.239	11707
881.366	11676
881.493	11562
881.619	11493
881.746	11528
881.872	11501
881.999	11528
882.125	11486
882.252	11490
882.378	11551
882.505	11543
882.631	11318
882.757	11311
882.883	11299
883.01	11212
883.136	11170
883.262	11151
883.388	11060
883.514	11098
883.64	11273
883.766	11041
883.892	11052
884.018	10953
884.143	11121
884.269	11086
884.395	10828
884.52	10733
884.646	10786
884.772	10759
884.897	10634
885.023	10675
885.148	10698
885.274	10774
885.399	10721
885.524	10542
885.65	10573
885.775	10615
885.9	10527
886.025	10542
886.15	10535
886.275	10367
886.4	10375
886.525	10409
886.65	10314
886.775	10375
886.9	10478
887.025	10561
887.149	10333
887.274	10310
887.399	10154
887.523	10158
887.648	10150
887.773	10097
887.897	10227
888.021	10196
888.146	10063
888.27	10207
888.395	10154
888.519	10086
888.643	10158
888.767	10150
888.891	10143
889.015	9998
889.139	10029
889.263	9960
889.387	10086
889.511	10097
889.635	10135
889.759	9918
889.883	9994
890.006	9998
890.13	10074
890.254	9979
890.377	9956
890.501	9850
890.624	9846
890.748	9892
890.871	9846
890.995	9736
891.118	9690
891.241	9698
891.364	9671
891.488	9770
891.611	9682
891.734	9747
891.857	9861
891.98	9740
892.103	9797
892.226	9694
892.349	9618
892.471	9538
892.594	9584
892.717	9644
892.839	9625
892.962	9557
893.085	9675
893.207	9511
893.33	9462
893.452	9500
893.575	9523
893.697	9428
893.819	9675
893.941	9633
894.064	9538
894.186	9420
894.308	9412
894.43	9492
894.552	9614
894.674	9568
894.796	9351
894.918	9405
895.04	9241
895.161	9378
895.283	9325
895.405	9230
895.526	9260
895.648	9211
895.769	9233
895.891	9176
896.012	9310
896.134	9218
896.255	9218
896.376	9093
896.498	9173
896.619	9173
896.74	9055
896.861	9047
896.982	9256
897.103	9272
897.224	9165
897.345	9028
897.466	9024
897.587	9089
897.708	9047
897.828	9043
897.949	9009
898.07	8868
898.19	8880
898.311	9028
898.431	8902
898.552	8910
898.672	9009
898.792	8960
898.913	8963
899.033	8750
899.153	8735
899.273	8663
899.393	8712
899.513	8743
899.633	8708
899.753	8773
899.873	8667
899.993	8712
900.113	8659
900.232	8678
900.352	8644
900.472	8583
900.591	8488
900.711	8651
900.83	8495
900.95	8621
901.069	8663
901.189	8552
901.308	8415
901.427	8389
901.546	8404
901.665	8446
901.784	8549
901.904	8366
902.023	8248
902.141	8248
902.26	8275
902.379	8195
902.498	8218
902.617	8206
902.735	8298
902.854	8229
902.973	8218
903.091	8145
903.21	8096
903.328	8225
903.446	8077
903.565	8088
903.683	8088
903.801	8062
903.919	8153
904.038	8134
904.156	8005
904.274	8081
904.392	7986
904.51	8027
904.627	7978
904.745	8126
904.863	8065
904.981	7932
905.098	7871
905.216	7932
905.334	7906
905.451	7871
905.569	7906
905.686	7921
905.803	7974
905.921	7715
906.038	7898
906.155	7811
906.272	7734
906.389	7681
906.506	7723
906.623	7613
906.74	7586
906.857	7518
906.974	7548
907.091	7734
907.208	7723
907.324	7613
907.441	7578
907.557	7434
907.674	7491
907.79	7335
907.907	7362
908.023	7434
908.139	7419
908.256	7460
908.372	7400
908.488	7354
908.604	7263
908.72	7221
908.836	7240
908.952	7232
909.068	7228
909.184	7388
909.3	7350
909.415	7274
909.531	7285
909.647	7099
909.762	7095
909.878	7038
909.993	7114
910.108	7099
910.224	7133
910.339	7080
910.454	7012
910.57	7004
910.685	6958
910.8	7129
910.915	7164
911.03	6962
911.145	6920
911.259	6878
911.374	6844
911.489	6787
911.604	6810
911.718	6703
911.833	6791
911.947	6681
912.062	6650
912.176	6707
912.291	6703
912.405	6722
912.519	6829
912.633	6833
912.748	6741
912.862	6646
912.976	6574
913.09	6582
913.204	6532
913.318	6646
913.431	6688
913.545	6677
913.659	6650
913.772	6631
913.886	6532
914	6563
914.113	6578
914.226	6627
914.34	6616
914.453	6471
914.566	6604
914.68	6483
914.793	6502
914.906	6376
915.019	6380
915.132	6342
915.245	6475
915.358	6399
915.47	6460
915.583	6486
915.696	6429
915.809	6460
915.921	6506
916.034	6395
916.146	6410
916.259	6353
916.371	6475
916.483	6445
916.595	6369
916.708	6334
916.82	6361
916.932	6372
917.044	6350
917.156	6376
917.268	6391
917.38	6372
917.491	6311
917.603	6361
917.715	6414
917.826	6395
917.938	6311
918.049	6311
918.161	6334
918.272	6391
918.384	6369
918.495	6342
918.606	6209
918.717	6224
918.828	6220
918.939	6338
919.05	6186
919.161	6194
919.272	6129
919.383	6144
919.494	6251
919.604	6441
919.715	6258
919.826	6251
919.936	6194
920.047	6334
920.157	6243
920.267	6460
920.378	6357
920.488	6216
920.598	6445
920.708	6521
920.818	6460
920.928	6525
921.038	6589
921.148	6544
921.258	6300
921.368	6308
921.477	6182
921.587	6186
921.697	6110
921.806	6136
921.916	6045
922.025	5942
922.134	5889
922.244	5923
922.353	5935
922.462	5840
922.571	5760
922.68	5646
922.789	5695
922.898	5703
923.007	5600
923.116	5710
923.224	5714
923.333	5638
923.442	5638
923.55	5535
923.659	5554
923.767	5589
923.876	5543
923.984	5543
924.092	5505
924.201	5554
924.309	5554
924.417	5551
924.525	5493
924.633	5493
924.741	6273
924.849	5372
924.956	5471
925.064	5368
925.172	5311
925.279	5334
925.387	5368
925.494	5311
925.602	5406
925.709	5379
925.816	5246
925.924	5265
926.031	5326
926.138	5292
926.245	5337
926.352	5258
926.459	5299
926.566	5322
926.673	5159
926.779	5151
926.886	5166
926.993	5033
927.099	4984
927.206	4949
927.312	4991
927.419	5006
927.525	4961
927.631	5003
927.737	4843
927.843	4889
927.95	4748
928.056	4812
928.162	4797
928.267	4843
928.373	5341
928.479	4847
928.585	4687
928.69	4740
928.796	4755
928.901	4637
929.007	4569
929.112	4615
929.218	4573
929.323	4599
929.428	4538
929.533	4744
929.638	4519
929.743	4573
929.848	4535
929.953	4512
930.058	4379
930.163	4356
930.267	4325
930.372	4398
930.477	4287
930.581	4409
930.685	4333
930.79	4249
930.894	4257
930.998	4265
931.103	4386
931.207	4082
931.311	4093
931.415	4063
931.519	3907
931.623	3930
