Data from glass_V78500241_2655.txt Node
Date: Wed Sep 01 19:32:54 CST 2021
User: usil
Spectrometer: V785-0024
Trigger mode: 0
Integration Time (sec): 4.000000E-1
Scans to average: 1
Nonlinearity correction enabled: false
Boxcar width: 0
Storing dark spectrum: false
XAxis mode: Wavelengths
Number of Pixels in Spectrum: 1024
>>>>>Begin Spectral Data<<<<<
801.071	3682
801.214	3694
801.356	3705
801.499	3774
801.641	3701
801.783	3823
801.926	3903
802.068	3808
802.211	3838
802.353	3892
802.496	3823
802.638	3865
802.78	3873
802.923	3949
803.065	3854
803.208	3835
803.35	3854
803.492	3861
803.635	3934
803.777	3751
803.919	3869
804.061	4116
804.204	3972
804.346	3953
804.488	3903
804.63	4013
804.773	3979
804.915	3987
805.057	4131
805.199	4048
805.341	4071
805.483	4112
805.626	4101
805.768	4097
805.91	4204
806.052	4227
806.194	4169
806.336	4303
806.478	4204
806.62	4181
806.762	4120
806.904	4230
807.046	4306
807.188	4169
807.33	4135
807.472	4200
807.614	4162
807.756	4265
807.898	4219
808.04	4200
808.182	4284
808.324	4299
808.465	4360
808.607	4432
808.749	4440
808.891	4485
809.033	4500
809.174	4386
809.316	4238
809.458	4295
809.6	4154
809.741	4090
809.883	4143
810.025	4204
810.166	4185
810.308	4200
810.45	4207
810.591	4230
810.733	4284
810.875	4493
811.016	4797
811.158	5098
811.299	5227
811.441	5246
811.582	5071
811.724	4683
811.865	4470
812.007	4474
812.148	4421
812.29	4409
812.431	4371
812.573	4371
812.714	4375
812.855	4383
812.997	4417
813.138	4493
813.279	4386
813.421	4348
813.562	4363
813.703	4314
813.845	4329
813.986	4265
814.127	4185
814.268	4268
814.41	4276
814.551	4230
814.692	4310
814.833	4325
814.974	4291
815.115	4337
815.256	4234
815.397	4204
815.539	4291
815.68	4150
815.821	4223
815.962	4310
816.103	4291
816.244	4249
816.385	4207
816.526	4253
816.666	4196
816.807	4112
816.948	4169
817.089	4128
817.23	4105
817.371	4055
817.512	4021
817.653	4036
817.793	4025
817.934	4051
818.075	4101
818.216	4036
818.356	4109
818.497	3960
818.638	3903
818.778	3888
818.919	3842
819.06	3846
819.2	3907
819.341	3869
819.481	3831
819.622	3918
819.762	3994
819.903	3968
820.043	3850
820.184	3823
820.324	3770
820.465	3880
820.605	3865
820.746	3865
820.886	3804
821.026	3934
821.167	3926
821.307	3934
821.447	3972
821.588	3941
821.728	3945
821.868	3915
822.008	3854
822.149	3907
822.289	3934
822.429	3759
822.569	3743
822.709	3823
822.849	3648
822.99	3701
823.13	3694
823.27	3751
823.41	3724
823.55	3705
823.69	3709
823.83	3732
823.97	3679
824.11	3572
824.25	3576
824.389	3622
824.529	3682
824.669	3633
824.809	3682
824.949	3728
825.089	3679
825.228	3705
825.368	3545
825.508	3545
825.648	3526
825.787	3622
825.927	3576
826.067	3606
826.206	3637
826.346	3755
826.485	3819
826.625	3854
826.765	3937
826.904	3800
827.044	3553
827.183	3538
827.323	3409
827.462	3485
827.601	3428
827.741	3409
827.88	3409
828.02	3355
828.159	3428
828.298	3496
828.437	3526
828.577	3409
828.716	3576
828.855	3485
828.994	3416
829.134	3351
829.273	3389
829.412	3348
829.551	3340
829.69	3378
829.829	3416
829.968	3507
830.107	3424
830.246	3428
830.385	3363
830.524	3317
830.663	3264
830.802	3211
830.941	3195
831.08	3218
831.219	3245
831.357	3249
831.496	3370
831.635	3230
831.774	3173
831.913	3161
832.051	3127
832.19	3146
832.329	3207
832.467	3108
832.606	3108
832.744	3138
832.883	3188
833.022	3165
833.16	3226
833.299	3283
833.437	3279
833.576	3374
833.714	3454
833.852	3450
833.991	3416
834.129	3450
834.267	3409
834.406	3424
834.544	3435
834.682	3431
834.821	3393
834.959	3587
835.097	3409
835.235	3515
835.373	3469
835.511	3458
835.65	3435
835.788	3496
835.926	3359
836.064	3340
836.202	3393
836.34	3584
836.478	3568
836.615	3572
836.753	3564
836.891	3618
837.029	3633
837.167	3580
837.305	3538
837.443	3576
837.58	3458
837.718	3622
837.856	3542
837.993	3549
838.131	3545
838.269	3587
838.406	3587
838.544	3576
838.681	3466
838.819	3424
838.956	3374
839.094	3393
839.231	3401
839.369	3538
839.506	3713
839.643	3618
839.781	3477
839.918	3428
840.055	3473
840.193	3523
840.33	3488
840.467	3564
840.604	3572
840.742	3766
840.879	3545
841.016	3599
841.153	3580
841.29	3751
841.427	3701
841.564	3667
841.701	3736
841.838	3656
841.975	3694
842.112	3671
842.249	3633
842.385	3606
842.522	3800
842.659	3660
842.796	3637
842.933	3663
843.069	3686
843.206	3709
843.343	3842
843.479	3743
843.616	3831
843.752	3633
843.889	3663
844.025	3808
844.162	3720
844.298	3793
844.435	3747
844.571	3785
844.708	3888
844.844	3949
844.98	3975
845.117	3983
845.253	3964
845.389	3865
845.525	3979
845.661	3968
845.798	3918
845.934	3991
846.07	3922
846.206	4044
846.342	4093
846.478	4090
846.614	3941
846.75	3926
846.886	3903
847.022	4013
847.158	3937
847.294	3968
847.429	3964
847.565	3972
847.701	4215
847.837	3854
847.972	3800
848.108	3964
848.244	3937
848.379	3861
848.515	3793
848.65	3785
848.786	3816
848.921	3865
849.057	3945
849.192	3949
849.328	3907
849.463	3907
849.598	3896
849.734	3804
849.869	3823
850.004	3819
850.14	3800
850.275	3781
850.41	3705
850.545	3770
850.68	3793
850.815	3819
850.95	3785
851.085	3911
851.22	3880
851.355	3831
851.49	3797
851.625	3759
851.76	3781
851.895	3713
852.03	3720
852.165	3785
852.299	3888
852.434	3865
852.569	3850
852.703	3884
852.838	3911
852.973	3991
853.107	3960
853.242	3857
853.376	3816
853.511	3774
853.645	3831
853.78	3972
853.914	3876
854.048	3861
854.183	3861
854.317	3998
854.451	4063
854.585	3926
854.72	3953
854.854	4036
854.988	3892
855.122	4002
855.256	3937
855.39	4017
855.524	4086
855.658	4078
855.792	4048
855.926	4093
856.06	4158
856.194	4169
856.327	4071
856.461	4112
856.595	4139
856.729	4177
856.862	4280
856.996	4249
857.13	4291
857.263	4318
857.397	4329
857.53	4284
857.664	4390
857.797	4428
857.931	4424
858.064	4398
858.197	4424
858.331	4386
858.464	4341
858.597	4337
858.731	4443
858.864	4436
858.997	4466
859.13	4424
859.263	4531
859.396	4550
859.529	4512
859.662	4531
859.795	4497
859.928	4558
860.061	4687
860.194	4725
860.327	4607
860.46	4672
860.592	4698
860.725	4744
860.858	4786
860.99	4683
861.123	4679
861.256	4733
861.388	4778
861.521	5364
861.653	4706
861.786	4736
861.918	4736
862.05	4782
862.183	4759
862.315	4858
862.447	4934
862.58	4870
862.712	4782
862.844	4744
862.976	4877
863.108	4896
863.24	5239
863.372	4812
863.504	4900
863.636	4870
863.768	4965
863.9	4930
864.032	4923
864.164	4976
864.296	4984
864.428	5098
864.559	5109
864.691	5132
864.823	5086
864.954	5105
865.086	5098
865.217	5147
865.349	5060
865.48	5113
865.612	5227
865.743	5288
865.875	5193
866.006	5121
866.137	5212
866.269	5216
866.4	5201
866.531	5185
866.662	5235
866.793	5216
866.924	5265
867.055	5376
867.186	5284
867.317	5334
867.448	5322
867.579	5330
867.71	5318
867.841	5357
867.972	5429
868.103	5467
868.233	5482
868.364	5493
868.495	5562
868.625	5695
868.756	5783
868.886	5668
869.017	5714
869.147	5863
869.278	5844
869.408	5752
869.539	5786
869.669	5874
869.799	5931
869.929	5988
870.06	6049
870.19	6201
870.32	6163
870.45	6277
870.58	6304
870.71	6414
870.84	6445
870.97	6384
871.1	6456
871.23	6650
871.36	6726
871.489	6589
871.619	6673
871.749	6757
871.879	6829
872.008	6954
872.138	7027
872.267	6943
872.397	6981
872.526	7065
872.656	7110
872.785	7103
872.915	7350
873.044	7499
873.173	7563
873.303	7597
873.432	7746
873.561	7879
873.69	7856
873.819	7951
873.948	8157
874.077	8248
874.206	8271
874.335	8450
874.464	8583
874.593	8853
874.722	8876
874.851	9131
874.979	9176
875.108	9332
875.237	9336
875.365	9488
875.494	9603
875.623	9800
875.751	9899
875.88	9975
876.008	10162
876.136	10280
876.265	10523
876.393	10748
876.521	10653
876.65	10778
876.778	10908
876.906	10908
877.034	10934
877.162	11151
877.29	11136
877.418	11254
877.546	11341
877.674	11440
877.802	11467
877.93	11486
878.058	11596
878.185	11570
878.313	11596
878.441	11802
878.568	11676
878.696	11859
878.824	11802
878.951	11889
879.079	11950
879.206	12079
879.333	12019
879.461	12019
879.588	12030
879.715	12129
879.842	12273
879.97	12060
880.097	11866
880.224	11969
880.351	11802
880.478	11931
880.605	11927
880.732	11836
880.859	11946
880.986	11874
881.112	11859
881.239	11718
881.366	11695
881.493	11642
881.619	11539
881.746	11596
881.872	11520
881.999	11547
882.125	11490
882.252	11497
882.378	11478
882.505	11543
882.631	11372
882.757	11269
882.883	11376
883.01	11273
883.136	11220
883.262	11113
883.388	11094
883.514	11204
883.64	11132
883.766	11143
883.892	10919
884.018	10911
884.143	11052
884.269	11109
884.395	10858
884.52	10755
884.646	10736
884.772	10687
884.897	10599
885.023	10714
885.148	10729
885.274	10683
885.399	10656
885.524	10588
885.65	10603
885.775	10558
885.9	10497
886.025	10558
886.15	10546
886.275	10421
886.4	10379
886.525	10390
886.65	10348
886.775	10287
886.9	10451
887.025	10542
887.149	10356
887.274	10234
887.399	10173
887.523	10185
887.648	10086
887.773	10112
887.897	10257
888.021	10291
888.146	10147
888.27	10325
888.395	10207
888.519	10139
888.643	10192
888.767	10166
888.891	10051
889.015	10051
889.139	10048
889.263	10036
889.387	10071
889.511	10097
889.635	10055
889.759	9945
889.883	9998
890.006	9987
890.13	10101
890.254	9960
890.377	9960
890.501	9838
890.624	9869
890.748	9869
890.871	9778
890.995	9724
891.118	9709
891.241	9747
891.364	9720
891.488	9835
891.611	9705
891.734	9728
891.857	9740
891.98	9705
892.103	9743
892.226	9762
892.349	9694
892.471	9469
892.594	9572
892.717	9568
892.839	9557
892.962	9660
893.085	9580
893.207	9564
893.33	9526
893.452	9610
893.575	9599
893.697	9462
893.819	9599
893.941	9618
894.064	9553
894.186	9466
894.308	9382
894.43	9492
894.552	9500
894.674	9542
894.796	9382
894.918	9374
895.04	9340
895.161	9370
895.283	9336
895.405	9264
895.526	9260
895.648	9226
895.769	9264
895.891	9279
896.012	9249
896.134	9135
896.255	9150
896.376	9123
896.498	9089
896.619	9123
896.74	9039
896.861	9093
896.982	9260
897.103	9287
897.224	9211
897.345	9005
897.466	8971
897.587	9024
897.708	9066
897.828	9005
897.949	8982
898.07	8864
898.19	8948
898.311	9024
898.431	8921
898.552	8941
898.672	8994
898.792	8929
898.913	8902
899.033	8815
899.153	8727
899.273	8648
899.393	8754
899.513	8693
899.633	8762
899.753	8708
899.873	8758
899.993	8735
900.113	8636
900.232	8697
900.352	8583
900.472	8594
900.591	8526
900.711	8621
900.83	8503
900.95	8632
901.069	8648
901.189	8549
901.308	8358
901.427	8419
901.546	8408
901.665	8473
901.784	8488
901.904	8347
902.023	8358
902.141	8229
902.26	8202
902.379	8286
902.498	8199
902.617	8267
902.735	8309
902.854	8210
902.973	8248
903.091	8119
903.21	8107
903.328	8096
903.446	8172
903.565	8046
903.683	8134
903.801	8001
903.919	8161
904.038	8153
904.156	7986
904.274	8088
904.392	8046
904.51	8027
904.627	8050
904.745	8107
904.863	8024
904.981	7883
905.098	7879
905.216	7852
905.334	7887
905.451	7875
905.569	7887
905.686	7909
905.803	7959
905.921	7792
906.038	7830
906.155	7803
906.272	7712
906.389	7685
906.506	7601
906.623	7616
906.74	7578
906.857	7487
906.974	7559
907.091	7662
907.208	7693
907.324	7681
907.441	7506
907.557	7453
907.674	7373
907.79	7415
907.907	7400
908.023	7434
908.139	7365
908.256	7396
908.372	7381
908.488	7293
908.604	7278
908.72	7198
908.836	7259
908.952	7190
909.068	7209
909.184	7255
909.3	7236
909.415	7263
909.531	7289
909.647	7095
909.762	7069
909.878	7072
909.993	7065
910.108	7069
910.224	7072
910.339	7103
910.454	6989
910.57	7050
910.685	7015
910.8	7129
910.915	7114
911.03	7000
911.145	6878
911.259	6859
911.374	6837
911.489	6821
911.604	6863
911.718	6692
911.833	6760
911.947	6646
912.062	6639
912.176	6688
912.291	6719
912.405	6692
912.519	6825
912.633	6787
912.748	6745
912.862	6688
912.976	6578
913.09	6559
913.204	6574
913.318	6639
913.431	6662
913.545	6658
913.659	6719
913.772	6627
913.886	6563
914	6540
914.113	6631
914.226	6650
914.34	6627
914.453	6437
914.566	6559
914.68	6494
914.793	6479
914.906	6441
915.019	6346
915.132	6342
915.245	6426
915.358	6437
915.47	6441
915.583	6464
915.696	6437
915.809	6506
915.921	6509
916.034	6380
916.146	6399
916.259	6365
916.371	6471
916.483	6437
916.595	6380
916.708	6422
916.82	6353
916.932	6384
917.044	6376
917.156	6346
917.268	6270
917.38	6323
917.491	6300
917.603	6346
917.715	6365
917.826	6388
917.938	6369
918.049	6258
918.161	6285
918.272	6403
918.384	6479
918.495	6277
918.606	6285
918.717	6224
918.828	6247
918.939	6270
919.05	6224
919.161	6194
919.272	6125
919.383	6144
919.494	6292
919.604	6437
919.715	6308
919.826	6205
919.936	6228
920.047	6311
920.157	6266
920.267	6422
920.378	6357
920.488	6266
920.598	6471
920.708	6521
920.818	6422
920.928	6475
921.038	6570
921.148	6604
921.258	6331
921.368	6308
921.477	6178
921.587	6194
921.697	6064
921.806	6159
921.916	6019
922.025	5961
922.134	5832
922.244	5844
922.353	5950
922.462	5821
922.571	5786
922.68	5634
922.789	5668
922.898	5688
923.007	5672
923.116	5691
923.224	5661
923.333	5676
923.442	5539
923.55	5516
923.659	5562
923.767	5573
923.876	5592
923.984	5585
924.092	5482
924.201	5558
924.309	5547
924.417	5558
924.525	5471
924.633	5490
924.741	6251
924.849	5379
924.956	5452
925.064	5277
925.172	5318
925.279	5349
925.387	5318
925.494	5353
925.602	5383
925.709	5376
925.816	5273
925.924	5311
926.031	5349
926.138	5246
926.245	5334
926.352	5235
926.459	5318
926.566	5322
926.673	5170
926.779	5113
926.886	5071
926.993	4938
927.099	4991
927.206	4995
927.312	4946
927.419	5041
927.525	4987
927.631	5014
927.737	4942
927.843	4870
927.95	4729
928.056	4782
928.162	4805
928.267	4824
928.373	5357
928.479	4854
928.585	4653
928.69	4763
928.796	4767
928.901	4672
929.007	4596
929.112	4694
929.218	4668
929.323	4584
929.428	4599
929.533	4615
929.638	4531
929.743	4508
929.848	4550
929.953	4497
930.058	4443
930.163	4314
930.267	4314
930.372	4398
930.477	4306
930.581	4409
930.685	4333
930.79	4287
930.894	4242
930.998	4207
931.103	4386
931.207	4147
931.311	4074
931.415	4074
931.519	3907
931.623	3892
