Data from glass_V78500241_2240.txt Node
Date: Wed Sep 01 19:30:01 CST 2021
User: usil
Spectrometer: V785-0024
Trigger mode: 0
Integration Time (sec): 4.000000E-1
Scans to average: 1
Nonlinearity correction enabled: false
Boxcar width: 0
Storing dark spectrum: false
XAxis mode: Wavelengths
Number of Pixels in Spectrum: 1024
>>>>>Begin Spectral Data<<<<<
801.071	3755
801.214	3759
801.356	3705
801.499	3774
801.641	3724
801.783	3720
801.926	3861
802.068	3812
802.211	3873
802.353	3865
802.496	3854
802.638	3888
802.78	3876
802.923	3934
803.065	3907
803.208	3884
803.35	3861
803.492	3873
803.635	3892
803.777	3842
803.919	3907
804.061	4135
804.204	3960
804.346	3907
804.488	3918
804.63	4055
804.773	3941
804.915	4063
805.057	4139
805.199	4078
805.341	4116
805.483	4120
805.626	4086
805.768	4086
805.91	4196
806.052	4227
806.194	4181
806.336	4341
806.478	4211
806.62	4147
806.762	4143
806.904	4265
807.046	4306
807.188	4242
807.33	4166
807.472	4238
807.614	4150
807.756	4238
807.898	4242
808.04	4181
808.182	4276
808.324	4287
808.465	4386
808.607	4474
808.749	4493
808.891	4455
809.033	4489
809.174	4413
809.316	4261
809.458	4207
809.6	4147
809.741	4150
809.883	4154
810.025	4181
810.166	4227
810.308	4162
810.45	4238
810.591	4223
810.733	4276
810.875	4519
811.016	4752
811.158	5094
811.299	5231
811.441	5265
811.582	5048
811.724	4672
811.865	4474
812.007	4428
812.148	4451
812.29	4413
812.431	4405
812.573	4386
812.714	4386
812.855	4375
812.997	4413
813.138	4466
813.279	4413
813.421	4329
813.562	4356
813.703	4333
813.845	4322
813.986	4238
814.127	4200
814.268	4276
814.41	4242
814.551	4276
814.692	4341
814.833	4276
814.974	4272
815.115	4325
815.256	4219
815.397	4253
815.539	4196
815.68	4192
815.821	4215
815.962	4272
816.103	4303
816.244	4238
816.385	4253
816.526	4280
816.666	4227
816.807	4109
816.948	4181
817.089	4150
817.23	4086
817.371	4021
817.512	4048
817.653	4086
817.793	4025
817.934	4048
818.075	4074
818.216	4074
818.356	4021
818.497	3941
818.638	3876
818.778	3899
818.919	3850
819.06	3876
819.2	3899
819.341	3880
819.481	3857
819.622	3915
819.762	4013
819.903	3918
820.043	3842
820.184	3819
820.324	3785
820.465	3896
820.605	3857
820.746	3876
820.886	3751
821.026	3941
821.167	3972
821.307	3998
821.447	3956
821.588	3968
821.728	3937
821.868	3915
822.008	3861
822.149	3926
822.289	3922
822.429	3759
822.569	3800
822.709	3751
822.849	3694
822.99	3713
823.13	3743
823.27	3778
823.41	3709
823.55	3755
823.69	3690
823.83	3713
823.97	3698
824.11	3606
824.25	3595
824.389	3606
824.529	3652
824.669	3698
824.809	3690
824.949	3766
825.089	3728
825.228	3671
825.368	3572
825.508	3580
825.648	3534
825.787	3660
825.927	3648
826.067	3614
826.206	3637
826.346	3804
826.485	3781
826.625	3819
826.765	3953
826.904	3804
827.044	3572
827.183	3504
827.323	3424
827.462	3473
827.601	3431
827.741	3439
827.88	3412
828.02	3367
828.159	3447
828.298	3496
828.437	3511
828.577	3481
828.716	3580
828.855	3496
828.994	3348
829.134	3367
829.273	3386
829.412	3332
829.551	3329
829.69	3389
829.829	3412
829.968	3469
830.107	3435
830.246	3412
830.385	3378
830.524	3351
830.663	3294
830.802	3218
830.941	3211
831.08	3173
831.219	3253
831.357	3249
831.496	3386
831.635	3253
831.774	3214
831.913	3188
832.051	3161
832.19	3142
832.329	3230
832.467	3104
832.606	3123
832.744	3146
832.883	3180
833.022	3154
833.16	3279
833.299	3287
833.437	3321
833.576	3374
833.714	3401
833.852	3420
833.991	3431
834.129	3454
834.267	3420
834.406	3374
834.544	3439
834.682	3405
834.821	3428
834.959	3572
835.097	3420
835.235	3534
835.373	3511
835.511	3481
835.65	3431
835.788	3443
835.926	3386
836.064	3359
836.202	3416
836.34	3545
836.478	3572
836.615	3481
836.753	3572
836.891	3644
837.029	3622
837.167	3568
837.305	3576
837.443	3557
837.58	3496
837.718	3561
837.856	3561
837.993	3500
838.131	3595
838.269	3580
838.406	3557
838.544	3553
838.681	3443
838.819	3443
838.956	3348
839.094	3367
839.231	3428
839.369	3511
839.506	3736
839.643	3603
839.781	3488
839.918	3485
840.055	3538
840.193	3519
840.33	3507
840.467	3515
840.604	3587
840.742	3785
840.879	3591
841.016	3603
841.153	3587
841.29	3720
841.427	3724
841.564	3694
841.701	3732
841.838	3679
841.975	3633
842.112	3778
842.249	3648
842.385	3648
842.522	3857
842.659	3694
842.796	3648
842.933	3694
843.069	3743
843.206	3698
843.343	3816
843.479	3774
843.616	3793
843.752	3667
843.889	3660
844.025	3827
844.162	3690
844.298	3838
844.435	3759
844.571	3804
844.708	3884
844.844	3956
844.98	3972
845.117	4002
845.253	3918
845.389	3899
845.525	3987
845.661	3937
845.798	3907
845.934	4002
846.07	3941
846.206	4059
846.342	4116
846.478	4078
846.614	3979
846.75	3937
846.886	3960
847.022	4036
847.158	3953
847.294	3998
847.429	4010
847.565	4029
847.701	4219
847.837	3861
847.972	3816
848.108	3934
848.244	3953
848.379	3842
848.515	3793
848.65	3827
848.786	3823
848.921	3888
849.057	3930
849.192	3983
849.328	3869
849.463	3937
849.598	3892
849.734	3865
849.869	3785
850.004	3743
850.14	3838
850.275	3793
850.41	3705
850.545	3774
850.68	3762
850.815	3831
850.95	3804
851.085	3915
851.22	3876
851.355	3823
851.49	3793
851.625	3766
851.76	3785
851.895	3720
852.03	3701
852.165	3766
852.299	3861
852.434	3857
852.569	3854
852.703	3865
852.838	3922
852.973	3960
853.107	3972
853.242	3861
853.376	3873
853.511	3762
853.645	3857
853.78	3968
853.914	3876
854.048	3884
854.183	3903
854.317	3956
854.451	4090
854.585	3983
854.72	3945
854.854	3998
854.988	3934
855.122	3979
855.256	3907
855.39	4048
855.524	4101
855.658	4078
855.792	4105
855.926	4109
856.06	4139
856.194	4204
856.327	4139
856.461	4105
856.595	4181
856.729	4150
856.862	4276
856.996	4207
857.13	4280
857.263	4272
857.397	4333
857.53	4253
857.664	4348
857.797	4344
857.931	4424
858.064	4394
858.197	4481
858.331	4360
858.464	4363
858.597	4371
858.731	4424
858.864	4428
858.997	4417
859.13	4527
859.263	4481
859.396	4523
859.529	4516
859.662	4527
859.795	4516
859.928	4611
860.061	4634
860.194	4763
860.327	4668
860.46	4649
860.592	4706
860.725	4752
860.858	4774
860.99	4706
861.123	4656
861.256	4694
861.388	4797
861.521	5307
861.653	4725
861.786	4706
861.918	4744
862.05	4831
862.183	4824
862.315	4900
862.447	4889
862.58	4850
862.712	4790
862.844	4778
862.976	4854
863.108	4900
863.24	5162
863.372	4835
863.504	4919
863.636	4854
863.768	4934
863.9	4976
864.032	4934
864.164	4938
864.296	5022
864.428	5113
864.559	5075
864.691	5140
864.823	5105
864.954	5086
865.086	5113
865.217	5067
865.349	5094
865.48	5098
865.612	5162
865.743	5261
865.875	5178
866.006	5185
866.137	5220
866.269	5231
866.4	5235
866.531	5269
866.662	5235
866.793	5296
866.924	5303
867.055	5318
867.186	5357
867.317	5292
867.448	5292
867.579	5376
867.71	5357
867.841	5379
867.972	5448
868.103	5410
868.233	5486
868.364	5486
868.495	5570
868.625	5676
868.756	5863
868.886	5627
869.017	5676
869.147	5824
869.278	5836
869.408	5832
869.539	5836
869.669	5916
869.799	5882
869.929	5939
870.06	6030
870.19	6159
870.32	6213
870.45	6232
870.58	6292
870.71	6395
870.84	6441
870.97	6403
871.1	6471
871.23	6703
871.36	6673
871.489	6681
871.619	6760
871.749	6806
871.879	6901
872.008	6958
872.138	6935
872.267	6973
872.397	6989
872.526	7027
872.656	7080
872.785	7171
872.915	7346
873.044	7468
873.173	7544
873.303	7620
873.432	7788
873.561	7852
873.69	7898
873.819	8043
873.948	8149
874.077	8206
874.206	8336
874.335	8457
874.464	8701
874.593	8857
874.722	8899
874.851	9112
874.979	9233
875.108	9378
875.237	9393
875.365	9477
875.494	9591
875.623	9880
875.751	9895
875.88	9998
876.008	10116
876.136	10306
876.265	10459
876.393	10649
876.521	10675
876.65	10816
876.778	10839
876.906	10957
877.034	11014
877.162	11098
877.29	11151
877.418	11258
877.546	11395
877.674	11436
877.802	11501
877.93	11497
878.058	11532
878.185	11638
878.313	11649
878.441	11748
878.568	11646
878.696	11779
878.824	11863
878.951	11855
879.079	12003
879.206	12060
879.333	12011
879.461	11996
879.588	12045
879.715	12041
879.842	12251
879.97	12007
880.097	11843
880.224	11859
880.351	11832
880.478	11958
880.605	11878
880.732	11771
880.859	12030
880.986	11843
881.112	11824
881.239	11699
881.366	11577
881.493	11547
881.619	11539
881.746	11573
881.872	11554
881.999	11520
882.125	11505
882.252	11474
882.378	11547
882.505	11577
882.631	11292
882.757	11284
882.883	11288
883.01	11292
883.136	11258
883.262	11117
883.388	11094
883.514	11201
883.64	11109
883.766	11083
883.892	11014
884.018	10953
884.143	11075
884.269	11147
884.395	10889
884.52	10797
884.646	10694
884.772	10702
884.897	10714
885.023	10687
885.148	10641
885.274	10710
885.399	10584
885.524	10592
885.65	10569
885.775	10580
885.9	10527
886.025	10645
886.15	10561
886.275	10440
886.4	10443
886.525	10402
886.65	10394
886.775	10280
886.9	10485
887.025	10538
887.149	10436
887.274	10227
887.399	10272
887.523	10177
887.648	10131
887.773	10162
887.897	10211
888.021	10253
888.146	10097
888.27	10261
888.395	10268
888.519	10116
888.643	10215
888.767	10166
888.891	10090
889.015	10017
889.139	10071
889.263	10029
889.387	10124
889.511	10131
889.635	9991
889.759	9945
889.883	9968
890.006	9987
890.13	10169
890.254	9922
890.377	9930
890.501	9819
890.624	9842
890.748	9857
890.871	9751
890.995	9732
891.118	9724
891.241	9720
891.364	9793
891.488	9781
891.611	9728
891.734	9808
891.857	9732
891.98	9694
892.103	9713
892.226	9679
892.349	9675
892.471	9572
892.594	9538
892.717	9644
892.839	9644
892.962	9584
893.085	9603
893.207	9580
893.33	9488
893.452	9492
893.575	9606
893.697	9469
893.819	9610
893.941	9591
894.064	9530
894.186	9473
894.308	9363
894.43	9481
894.552	9458
894.674	9526
894.796	9355
894.918	9367
895.04	9359
895.161	9447
895.283	9302
895.405	9268
895.526	9256
895.648	9256
895.769	9302
895.891	9306
896.012	9272
896.134	9302
896.255	9066
896.376	9062
896.498	9157
896.619	9085
896.74	9138
896.861	9100
896.982	9226
897.103	9310
897.224	9154
897.345	9058
897.466	9001
897.587	9020
897.708	9127
897.828	8975
897.949	8872
898.07	8899
898.19	8975
898.311	9028
898.431	8914
898.552	8975
898.672	9051
898.792	8941
898.913	8918
899.033	8845
899.153	8674
899.273	8594
899.393	8750
899.513	8689
899.633	8697
899.753	8644
899.873	8712
899.993	8754
900.113	8651
900.232	8731
900.352	8663
900.472	8613
900.591	8537
900.711	8579
900.83	8499
900.95	8686
901.069	8648
901.189	8495
901.308	8408
901.427	8374
901.546	8396
901.665	8488
901.784	8438
901.904	8271
902.023	8267
902.141	8206
902.26	8221
902.379	8275
902.498	8237
902.617	8202
902.735	8271
902.854	8229
902.973	8275
903.091	8164
903.21	8088
903.328	8126
903.446	8088
903.565	8035
903.683	8069
903.801	8031
903.919	8168
904.038	8130
904.156	7993
904.274	8084
904.392	7997
904.51	8024
904.627	8035
904.745	8062
904.863	8115
904.981	7978
905.098	7849
905.216	7841
905.334	7811
905.451	7890
905.569	7898
905.686	7947
905.803	7871
905.921	7765
906.038	7811
906.155	7769
906.272	7708
906.389	7761
906.506	7620
906.623	7548
906.74	7628
906.857	7571
906.974	7597
907.091	7636
907.208	7757
907.324	7624
907.441	7609
907.557	7449
907.674	7464
907.79	7388
907.907	7415
908.023	7468
908.139	7396
908.256	7369
908.372	7381
908.488	7354
908.604	7255
908.72	7259
908.836	7274
908.952	7240
909.068	7274
909.184	7297
909.3	7236
909.415	7209
909.531	7255
909.647	7019
909.762	7065
909.878	7103
909.993	7122
910.108	7110
910.224	7004
910.339	7137
910.454	7034
910.57	6958
910.685	6932
910.8	7179
910.915	7133
911.03	7008
911.145	6920
911.259	6886
911.374	6833
911.489	6829
911.604	6814
911.718	6684
911.833	6688
911.947	6631
912.062	6570
912.176	6700
912.291	6738
912.405	6639
912.519	6791
912.633	6772
912.748	6791
912.862	6639
912.976	6578
913.09	6502
913.204	6551
913.318	6574
913.431	6654
913.545	6665
913.659	6722
913.772	6665
913.886	6517
914	6604
914.113	6551
914.226	6627
914.34	6597
914.453	6479
914.566	6563
914.68	6528
914.793	6555
914.906	6471
915.019	6483
915.132	6334
915.245	6429
915.358	6437
915.47	6490
915.583	6426
915.696	6570
915.809	6483
915.921	6589
916.034	6422
916.146	6460
916.259	6410
916.371	6422
916.483	6452
916.595	6429
916.708	6441
916.82	6410
916.932	6372
917.044	6456
917.156	6380
917.268	6273
917.38	6334
917.491	6251
917.603	6342
917.715	6426
917.826	6391
917.938	6273
918.049	6209
918.161	6357
918.272	6418
918.384	6372
918.495	6388
918.606	6213
918.717	6163
918.828	6273
918.939	6338
919.05	6121
919.161	6315
919.272	6060
919.383	6106
919.494	6235
919.604	6460
919.715	6273
919.826	6190
919.936	6209
920.047	6334
920.157	6319
920.267	6437
920.378	6308
920.488	6289
920.598	6395
920.708	6479
920.818	6426
920.928	6490
921.038	6604
921.148	6585
921.258	6323
921.368	6266
921.477	6186
921.587	6209
921.697	6114
921.806	6194
921.916	6030
922.025	5920
922.134	5893
922.244	5908
922.353	5931
922.462	5844
922.571	5798
922.68	5737
922.789	5642
922.898	5691
923.007	5619
923.116	5699
923.224	5649
923.333	5657
923.442	5543
923.55	5566
923.659	5577
923.767	5592
923.876	5554
923.984	5634
924.092	5509
924.201	5558
924.309	5577
924.417	5528
924.525	5539
924.633	5471
924.741	6247
924.849	5372
924.956	5482
925.064	5368
925.172	5337
925.279	5364
925.387	5360
925.494	5299
925.602	5387
925.709	5357
925.816	5273
925.924	5299
926.031	5341
926.138	5311
926.245	5288
926.352	5181
926.459	5330
926.566	5357
926.673	5170
926.779	5140
926.886	5113
926.993	5041
927.099	4984
927.206	4976
927.312	4984
927.419	4999
927.525	4957
927.631	4953
927.737	4858
927.843	4930
927.95	4782
928.056	4812
928.162	4839
928.267	4839
928.373	5318
928.479	4835
928.585	4679
928.69	4763
928.796	4725
928.901	4694
929.007	4607
929.112	4611
929.218	4618
929.323	4637
929.428	4542
929.533	4656
929.638	4535
929.743	4535
929.848	4538
929.953	4535
930.058	4440
930.163	4287
930.267	4276
930.372	4421
930.477	4314
930.581	4436
930.685	4291
930.79	4234
930.894	4268
930.998	4192
931.103	4386
931.207	4128
931.311	4105
931.415	4059
931.519	3960
931.623	3987
