Data from glass_V78500241_68.txt Node
Date: Wed Sep 01 19:14:58 CST 2021
User: usil
Spectrometer: V785-0024
Trigger mode: 0
Integration Time (sec): 4.000000E-1
Scans to average: 1
Nonlinearity correction enabled: false
Boxcar width: 0
Storing dark spectrum: false
XAxis mode: Wavelengths
Number of Pixels in Spectrum: 1024
>>>>>Begin Spectral Data<<<<<
801.071	3781
801.214	3743
801.356	3755
801.499	3797
801.641	3728
801.783	3770
801.926	3888
802.068	3876
802.211	3873
802.353	3865
802.496	3835
802.638	3903
802.78	3899
802.923	3892
803.065	3873
803.208	3903
803.35	3880
803.492	3888
803.635	3915
803.777	3778
803.919	3907
804.061	4200
804.204	3960
804.346	3953
804.488	3930
804.63	4063
804.773	3991
804.915	4040
805.057	4158
805.199	4074
805.341	4101
805.483	4158
805.626	4135
805.768	4169
805.91	4223
806.052	4291
806.194	4211
806.336	4375
806.478	4177
806.62	4185
806.762	4192
806.904	4261
807.046	4386
807.188	4242
807.33	4196
807.472	4242
807.614	4219
807.756	4303
807.898	4238
808.04	4230
808.182	4284
808.324	4303
808.465	4348
808.607	4485
808.749	4470
808.891	4466
809.033	4508
809.174	4428
809.316	4249
809.458	4238
809.6	4177
809.741	4188
809.883	4173
810.025	4280
810.166	4238
810.308	4200
810.45	4234
810.591	4249
810.733	4310
810.875	4535
811.016	4835
811.158	5143
811.299	5292
811.441	5242
811.582	5048
811.724	4702
811.865	4500
812.007	4466
812.148	4451
812.29	4489
812.431	4459
812.573	4417
812.714	4341
812.855	4432
812.997	4398
813.138	4516
813.279	4459
813.421	4409
813.562	4375
813.703	4322
813.845	4341
813.986	4306
814.127	4272
814.268	4310
814.41	4268
814.551	4306
814.692	4325
814.833	4246
814.974	4314
815.115	4402
815.256	4276
815.397	4253
815.539	4276
815.68	4188
815.821	4211
815.962	4329
816.103	4253
816.244	4295
816.385	4207
816.526	4325
816.666	4238
816.807	4105
816.948	4162
817.089	4192
817.23	4105
817.371	4048
817.512	4055
817.653	4074
817.793	4093
817.934	4063
818.075	4116
818.216	4086
818.356	4055
818.497	3979
818.638	3918
818.778	3922
818.919	3880
819.06	3876
819.2	3934
819.341	3857
819.481	3835
819.622	3911
819.762	4044
819.903	3975
820.043	3857
820.184	3903
820.324	3846
820.465	3865
820.605	3907
820.746	3876
820.886	3823
821.026	3926
821.167	3918
821.307	3998
821.447	3972
821.588	3972
821.728	3983
821.868	3987
822.008	3896
822.149	3903
822.289	3956
822.429	3785
822.569	3778
822.709	3823
822.849	3736
822.99	3736
823.13	3720
823.27	3808
823.41	3694
823.55	3751
823.69	3732
823.83	3759
823.97	3682
824.11	3614
824.25	3622
824.389	3637
824.529	3709
824.669	3698
824.809	3747
824.949	3759
825.089	3755
825.228	3724
825.368	3610
825.508	3568
825.648	3564
825.787	3622
825.927	3656
826.067	3610
826.206	3682
826.346	3781
826.485	3869
826.625	3865
826.765	3930
826.904	3831
827.044	3595
827.183	3519
827.323	3439
827.462	3534
827.601	3439
827.741	3428
827.88	3492
828.02	3424
828.159	3428
828.298	3481
828.437	3553
828.577	3473
828.716	3622
828.855	3507
828.994	3409
829.134	3401
829.273	3401
829.412	3393
829.551	3344
829.69	3389
829.829	3420
829.968	3538
830.107	3420
830.246	3496
830.385	3393
830.524	3374
830.663	3287
830.802	3279
830.941	3230
831.08	3192
831.219	3237
831.357	3253
831.496	3412
831.635	3237
831.774	3207
831.913	3207
832.051	3135
832.19	3154
832.329	3230
832.467	3135
832.606	3123
832.744	3154
832.883	3184
833.022	3192
833.16	3317
833.299	3336
833.437	3374
833.576	3409
833.714	3386
833.852	3477
833.991	3450
834.129	3507
834.267	3450
834.406	3431
834.544	3458
834.682	3435
834.821	3431
834.959	3599
835.097	3405
835.235	3572
835.373	3473
835.511	3553
835.65	3447
835.788	3462
835.926	3416
836.064	3424
836.202	3416
836.34	3587
836.478	3622
836.615	3576
836.753	3606
836.891	3652
837.029	3595
837.167	3633
837.305	3561
837.443	3564
837.58	3515
837.718	3679
837.856	3587
837.993	3542
838.131	3660
838.269	3618
838.406	3648
838.544	3606
838.681	3473
838.819	3454
838.956	3424
839.094	3450
839.231	3466
839.369	3500
839.506	3717
839.643	3679
839.781	3511
839.918	3496
840.055	3576
840.193	3530
840.33	3511
840.467	3580
840.604	3641
840.742	3816
840.879	3557
841.016	3557
841.153	3629
841.29	3736
841.427	3736
841.564	3770
841.701	3762
841.838	3701
841.975	3743
842.112	3755
842.249	3663
842.385	3644
842.522	3827
842.659	3743
842.796	3709
842.933	3743
843.069	3717
843.206	3705
843.343	3861
843.479	3797
843.616	3835
843.752	3652
843.889	3698
844.025	3823
844.162	3755
844.298	3857
844.435	3793
844.571	3819
844.708	3934
844.844	3975
844.98	4048
845.117	4036
845.253	3987
845.389	3953
845.525	3994
845.661	4021
845.798	3983
845.934	4040
846.07	3968
846.206	4078
846.342	4128
846.478	4071
846.614	4010
846.75	3892
846.886	3956
847.022	4101
847.158	4021
847.294	4002
847.429	4093
847.565	3991
847.701	4249
847.837	3873
847.972	3831
848.108	4025
848.244	3968
848.379	3846
848.515	3838
848.65	3812
848.786	3842
848.921	3884
849.057	3945
849.192	3994
849.328	3934
849.463	3903
849.598	3873
849.734	3876
849.869	3884
850.004	3800
850.14	3831
850.275	3804
850.41	3743
850.545	3751
850.68	3793
850.815	3816
850.95	3823
851.085	3994
851.22	3869
851.355	3850
851.49	3785
851.625	3831
851.76	3816
851.895	3713
852.03	3694
852.165	3797
852.299	3861
852.434	3907
852.569	3896
852.703	3896
852.838	3934
852.973	4029
853.107	4006
853.242	3880
853.376	3892
853.511	3781
853.645	3835
853.78	3994
853.914	3888
854.048	3903
854.183	3930
854.317	3975
854.451	4044
854.585	3926
854.72	3934
854.854	4063
854.988	3964
855.122	4025
855.256	3937
855.39	4025
855.524	4131
855.658	4105
855.792	4124
855.926	4162
856.06	4215
856.194	4188
856.327	4173
856.461	4116
856.595	4173
856.729	4192
856.862	4272
856.996	4287
857.13	4310
857.263	4329
857.397	4379
857.53	4272
857.664	4428
857.797	4386
857.931	4386
858.064	4405
858.197	4443
858.331	4409
858.464	4402
858.597	4375
858.731	4466
858.864	4489
858.997	4493
859.13	4523
859.263	4569
859.396	4626
859.529	4523
859.662	4527
859.795	4584
859.928	4656
860.061	4721
860.194	4721
860.327	4702
860.46	4668
860.592	4771
860.725	4721
860.858	4805
860.99	4683
861.123	4710
861.256	4698
861.388	4835
861.521	5402
861.653	4755
861.786	4729
861.918	4767
862.05	4854
862.183	4854
862.315	4923
862.447	4995
862.58	4911
862.712	4839
862.844	4793
862.976	4877
863.108	4858
863.24	5280
863.372	4824
863.504	4896
863.636	4877
863.768	4961
863.9	4957
864.032	4938
864.164	4957
864.296	5018
864.428	5079
864.559	5140
864.691	5090
864.823	5155
864.954	5117
865.086	5132
865.217	5216
865.349	5128
865.48	5162
865.612	5269
865.743	5307
865.875	5197
866.006	5208
866.137	5239
866.269	5250
866.4	5250
866.531	5250
866.662	5261
866.793	5296
866.924	5326
867.055	5387
867.186	5334
867.317	5357
867.448	5337
867.579	5387
867.71	5493
867.841	5360
867.972	5463
868.103	5478
868.233	5436
868.364	5516
868.495	5562
868.625	5707
868.756	5821
868.886	5688
869.017	5752
869.147	5878
869.278	5923
869.408	5897
869.539	5885
869.669	5935
869.799	5958
869.929	6015
870.06	5977
870.19	6224
870.32	6216
870.45	6213
870.58	6342
870.71	6445
870.84	6525
870.97	6410
871.1	6452
871.23	6658
871.36	6650
871.489	6688
871.619	6772
871.749	6791
871.879	6897
872.008	7008
872.138	7000
872.267	6989
872.397	7023
872.526	7069
872.656	7076
872.785	7232
872.915	7377
873.044	7575
873.173	7616
873.303	7647
873.432	7753
873.561	7871
873.69	7902
873.819	7989
873.948	8206
874.077	8221
874.206	8320
874.335	8499
874.464	8587
874.593	8788
874.722	8895
874.851	9135
874.979	9150
875.108	9397
875.237	9500
875.365	9466
875.494	9641
875.623	9785
875.751	9823
875.88	9987
876.008	10154
876.136	10227
876.265	10527
876.393	10687
876.521	10649
876.65	10889
876.778	10892
876.906	11018
877.034	11014
877.162	11143
877.29	11113
877.418	11303
877.546	11280
877.674	11467
877.802	11482
877.93	11467
878.058	11532
878.185	11604
878.313	11608
878.441	11752
878.568	11722
878.696	11794
878.824	11874
878.951	11908
879.079	11992
879.206	12022
879.333	12045
879.461	12060
879.588	12060
879.715	12064
879.842	12194
879.97	12117
880.097	11874
880.224	11946
880.351	11832
880.478	11893
880.605	11908
880.732	11760
880.859	12041
880.986	11859
881.112	11946
881.239	11760
881.366	11672
881.493	11566
881.619	11474
881.746	11653
881.872	11566
881.999	11539
882.125	11509
882.252	11551
882.378	11467
882.505	11604
882.631	11353
882.757	11349
882.883	11284
883.01	11280
883.136	11159
883.262	11060
883.388	11079
883.514	11197
883.64	11258
883.766	11132
883.892	11037
884.018	11083
884.143	11090
884.269	11105
884.395	10866
884.52	10740
884.646	10820
884.772	10721
884.897	10698
885.023	10664
885.148	10793
885.274	10763
885.399	10691
885.524	10599
885.65	10649
885.775	10611
885.9	10565
886.025	10630
886.15	10588
886.275	10459
886.4	10398
886.525	10379
886.65	10417
886.775	10363
886.9	10481
887.025	10607
887.149	10417
887.274	10257
887.399	10154
887.523	10109
887.648	10150
887.773	10048
887.897	10246
888.021	10272
888.146	10185
888.27	10261
888.395	10227
888.519	10169
888.643	10173
888.767	10238
888.891	10044
889.015	9994
889.139	10101
889.263	10013
889.387	10074
889.511	10135
889.635	10101
889.759	9934
889.883	9987
890.006	9998
890.13	10192
890.254	10059
890.377	10051
890.501	9865
890.624	9846
890.748	9907
890.871	9857
890.995	9759
891.118	9686
891.241	9732
891.364	9804
891.488	9857
891.611	9709
891.734	9717
891.857	9759
891.98	9724
892.103	9797
892.226	9789
892.349	9679
892.471	9549
892.594	9622
892.717	9618
892.839	9545
892.962	9610
893.085	9629
893.207	9576
893.33	9492
893.452	9496
893.575	9618
893.697	9511
893.819	9580
893.941	9625
894.064	9641
894.186	9473
894.308	9496
894.43	9473
894.552	9610
894.674	9485
894.796	9378
894.918	9367
895.04	9351
895.161	9458
895.283	9313
895.405	9211
895.526	9279
895.648	9237
895.769	9344
895.891	9298
896.012	9237
896.134	9260
896.255	9195
896.376	9169
896.498	9192
896.619	9108
896.74	9051
896.861	9150
896.982	9340
897.103	9454
897.224	9135
897.345	9123
897.466	8960
897.587	9001
897.708	9131
897.828	9062
897.949	9028
898.07	8895
898.19	8887
898.311	9051
898.431	8891
898.552	8868
898.672	8944
898.792	8956
898.913	8986
899.033	8857
899.153	8754
899.273	8705
899.393	8712
899.513	8758
899.633	8735
899.753	8788
899.873	8689
899.993	8762
900.113	8667
900.232	8716
900.352	8644
900.472	8590
900.591	8552
900.711	8556
900.83	8579
900.95	8670
901.069	8705
901.189	8571
901.308	8408
901.427	8362
901.546	8393
901.665	8461
901.784	8530
901.904	8400
902.023	8290
902.141	8195
902.26	8202
902.379	8267
902.498	8279
902.617	8218
902.735	8336
902.854	8279
902.973	8259
903.091	8145
903.21	8126
903.328	8202
903.446	8100
903.565	8050
903.683	8142
903.801	8065
903.919	8103
904.038	8126
904.156	7997
904.274	8138
904.392	8050
904.51	7993
904.627	8077
904.745	8126
904.863	8092
904.981	7913
905.098	7883
905.216	7841
905.334	7894
905.451	7925
905.569	7898
905.686	7940
905.803	7921
905.921	7803
906.038	7822
906.155	7871
906.272	7795
906.389	7696
906.506	7628
906.623	7655
906.74	7639
906.857	7590
906.974	7582
907.091	7700
907.208	7723
907.324	7674
907.441	7609
907.557	7495
907.674	7426
907.79	7419
907.907	7411
908.023	7468
908.139	7415
908.256	7392
908.372	7388
908.488	7377
908.604	7293
908.72	7228
908.836	7255
908.952	7293
909.068	7259
909.184	7377
909.3	7270
909.415	7247
909.531	7331
909.647	7175
909.762	7122
909.878	7183
909.993	7072
910.108	7164
910.224	7118
910.339	7179
910.454	7080
910.57	7031
910.685	6863
910.8	7183
910.915	7114
911.03	7046
911.145	6894
911.259	6844
911.374	6924
911.489	6825
911.604	6798
911.718	6696
911.833	6760
911.947	6642
912.062	6604
912.176	6692
912.291	6791
912.405	6745
912.519	6810
912.633	6833
912.748	6783
912.862	6772
912.976	6593
913.09	6563
913.204	6582
913.318	6677
913.431	6662
913.545	6745
913.659	6730
913.772	6620
913.886	6601
914	6574
914.113	6623
914.226	6593
914.34	6585
914.453	6559
914.566	6631
914.68	6532
914.793	6559
914.906	6414
915.019	6422
915.132	6388
915.245	6441
915.358	6536
915.47	6441
915.583	6494
915.696	6509
915.809	6547
915.921	6570
916.034	6414
916.146	6448
916.259	6388
916.371	6517
916.483	6437
916.595	6464
916.708	6414
916.82	6479
916.932	6456
917.044	6410
917.156	6342
917.268	6300
917.38	6395
917.491	6342
917.603	6384
917.715	6384
917.826	6460
917.938	6357
918.049	6285
918.161	6331
918.272	6464
918.384	6445
918.495	6395
918.606	6224
918.717	6270
918.828	6247
918.939	6239
919.05	6232
919.161	6281
919.272	6087
919.383	6144
919.494	6296
919.604	6460
919.715	6308
919.826	6205
919.936	6289
920.047	6376
920.157	6319
920.267	6464
920.378	6296
920.488	6262
920.598	6464
920.708	6559
920.818	6429
920.928	6422
921.038	6601
921.148	6620
921.258	6376
921.368	6327
921.477	6224
921.587	6197
921.697	6087
921.806	6254
921.916	6053
922.025	5969
922.134	5954
922.244	5935
922.353	5923
922.462	5859
922.571	5813
922.68	5748
922.789	5726
922.898	5748
923.007	5642
923.116	5672
923.224	5710
923.333	5657
923.442	5688
923.55	5619
923.659	5649
923.767	5630
923.876	5585
923.984	5619
924.092	5551
924.201	5528
924.309	5558
924.417	5570
924.525	5497
924.633	5493
924.741	6289
924.849	5368
924.956	5463
925.064	5402
925.172	5337
925.279	5330
925.387	5284
925.494	5337
925.602	5452
925.709	5398
925.816	5261
925.924	5326
926.031	5387
926.138	5292
926.245	5326
926.352	5254
926.459	5265
926.566	5349
926.673	5239
926.779	5166
926.886	5140
926.993	5075
927.099	5079
927.206	5006
927.312	4942
927.419	5094
927.525	5025
927.631	4972
927.737	4896
927.843	4847
927.95	4801
928.056	4866
928.162	4892
928.267	4881
928.373	5376
928.479	4873
928.585	4675
928.69	4793
928.796	4782
928.901	4694
929.007	4630
929.112	4679
929.218	4656
929.323	4607
929.428	4573
929.533	4702
929.638	4550
929.743	4550
929.848	4550
929.953	4516
930.058	4436
930.163	4352
930.267	4390
930.372	4459
930.477	4287
930.581	4462
930.685	4379
930.79	4238
930.894	4314
930.998	4310
931.103	4367
931.207	4147
931.311	4090
931.415	4067
931.519	3956
931.623	3949
