Data from glass_V78500241_868.txt Node
Date: Wed Sep 01 19:20:31 CST 2021
User: usil
Spectrometer: V785-0024
Trigger mode: 0
Integration Time (sec): 4.000000E-1
Scans to average: 1
Nonlinearity correction enabled: false
Boxcar width: 0
Storing dark spectrum: false
XAxis mode: Wavelengths
Number of Pixels in Spectrum: 1024
>>>>>Begin Spectral Data<<<<<
801.071	3720
801.214	3800
801.356	3694
801.499	3789
801.641	3751
801.783	3797
801.926	3854
802.068	3861
802.211	3876
802.353	3934
802.496	3854
802.638	3899
802.78	3949
802.923	3930
803.065	3922
803.208	3857
803.35	3865
803.492	3907
803.635	3941
803.777	3812
803.919	3892
804.061	4116
804.204	4006
804.346	3972
804.488	3915
804.63	4071
804.773	3975
804.915	4044
805.057	4093
805.199	4105
805.341	4093
805.483	4181
805.626	4139
805.768	4128
805.91	4211
806.052	4219
806.194	4219
806.336	4375
806.478	4268
806.62	4143
806.762	4211
806.904	4284
807.046	4371
807.188	4234
807.33	4154
807.472	4268
807.614	4158
807.756	4295
807.898	4242
808.04	4223
808.182	4314
808.324	4367
808.465	4405
808.607	4470
808.749	4466
808.891	4455
809.033	4500
809.174	4348
809.316	4261
809.458	4268
809.6	4185
809.741	4166
809.883	4192
810.025	4219
810.166	4257
810.308	4261
810.45	4261
810.591	4242
810.733	4261
810.875	4573
811.016	4858
811.158	5181
811.299	5235
811.441	5292
811.582	5124
811.724	4733
811.865	4497
812.007	4428
812.148	4440
812.29	4436
812.431	4443
812.573	4451
812.714	4386
812.855	4455
812.997	4421
813.138	4474
813.279	4417
813.421	4379
813.562	4341
813.703	4303
813.845	4367
813.986	4280
814.127	4261
814.268	4318
814.41	4314
814.551	4265
814.692	4322
814.833	4261
814.974	4238
815.115	4371
815.256	4291
815.397	4246
815.539	4284
815.68	4249
815.821	4257
815.962	4322
816.103	4287
816.244	4253
816.385	4215
816.526	4280
816.666	4204
816.807	4147
816.948	4188
817.089	4169
817.23	4147
817.371	4051
817.512	4044
817.653	4109
817.793	4067
817.934	4086
818.075	4112
818.216	4101
818.356	4086
818.497	4002
818.638	3922
818.778	3892
818.919	3903
819.06	3907
819.2	3937
819.341	3922
819.481	3827
819.622	3915
819.762	4006
819.903	3949
820.043	3846
820.184	3846
820.324	3812
820.465	3903
820.605	3903
820.746	3918
820.886	3819
821.026	3953
821.167	3899
821.307	3983
821.447	4013
821.588	3987
821.728	3972
821.868	3945
822.008	3903
822.149	3911
822.289	3949
822.429	3812
822.569	3751
822.709	3838
822.849	3717
822.99	3717
823.13	3766
823.27	3785
823.41	3694
823.55	3770
823.69	3717
823.83	3774
823.97	3701
824.11	3629
824.25	3633
824.389	3663
824.529	3686
824.669	3652
824.809	3679
824.949	3751
825.089	3724
825.228	3686
825.368	3599
825.508	3549
825.648	3587
825.787	3587
825.927	3648
826.067	3663
826.206	3690
826.346	3778
826.485	3808
826.625	3884
826.765	3983
826.904	3804
827.044	3644
827.183	3534
827.323	3389
827.462	3469
827.601	3447
827.741	3462
827.88	3450
828.02	3393
828.159	3473
828.298	3500
828.437	3530
828.577	3462
828.716	3599
828.855	3523
828.994	3393
829.134	3386
829.273	3393
829.412	3340
829.551	3351
829.69	3351
829.829	3458
829.968	3538
830.107	3458
830.246	3477
830.385	3389
830.524	3412
830.663	3298
830.802	3287
830.941	3218
831.08	3230
831.219	3268
831.357	3241
831.496	3435
831.635	3230
831.774	3256
831.913	3237
832.051	3127
832.19	3157
832.329	3237
832.467	3176
832.606	3108
832.744	3188
832.883	3173
833.022	3199
833.16	3306
833.299	3313
833.437	3359
833.576	3393
833.714	3450
833.852	3420
833.991	3450
834.129	3481
834.267	3435
834.406	3424
834.544	3416
834.682	3412
834.821	3416
834.959	3568
835.097	3447
835.235	3515
835.373	3504
835.511	3458
835.65	3473
835.788	3511
835.926	3370
836.064	3367
836.202	3439
836.34	3564
836.478	3652
836.615	3511
836.753	3637
836.891	3656
837.029	3599
837.167	3572
837.305	3572
837.443	3549
837.58	3534
837.718	3622
837.856	3557
837.993	3568
838.131	3576
838.269	3606
838.406	3644
838.544	3622
838.681	3481
838.819	3431
838.956	3378
839.094	3359
839.231	3454
839.369	3526
839.506	3743
839.643	3660
839.781	3515
839.918	3488
840.055	3568
840.193	3504
840.33	3572
840.467	3568
840.604	3595
840.742	3823
840.879	3564
841.016	3564
841.153	3618
841.29	3751
841.427	3766
841.564	3728
841.701	3789
841.838	3705
841.975	3682
842.112	3720
842.249	3667
842.385	3629
842.522	3781
842.659	3743
842.796	3671
842.933	3770
843.069	3728
843.206	3728
843.343	3854
843.479	3781
843.616	3899
843.752	3675
843.889	3724
844.025	3846
844.162	3743
844.298	3873
844.435	3831
844.571	3797
844.708	3945
844.844	4013
844.98	4063
845.117	4021
845.253	3987
845.389	3896
845.525	3930
845.661	3968
845.798	3934
845.934	4029
846.07	3956
846.206	4059
846.342	4192
846.478	4131
846.614	3991
846.75	3949
846.886	3975
847.022	4059
847.158	3979
847.294	4017
847.429	3994
847.565	3998
847.701	4246
847.837	3884
847.972	3854
848.108	3972
848.244	3972
848.379	3865
848.515	3869
848.65	3857
848.786	3880
848.921	3896
849.057	3911
849.192	3937
849.328	3884
849.463	3960
849.598	3899
849.734	3850
849.869	3838
850.004	3816
850.14	3781
850.275	3793
850.41	3751
850.545	3751
850.68	3793
850.815	3808
850.95	3819
851.085	3922
851.22	3903
851.355	3812
851.49	3827
851.625	3827
851.76	3793
851.895	3759
852.03	3804
852.165	3800
852.299	3838
852.434	3918
852.569	3876
852.703	3892
852.838	3926
852.973	4017
853.107	4006
853.242	3934
853.376	3816
853.511	3808
853.645	3846
853.78	3972
853.914	3915
854.048	3903
854.183	3873
854.317	3934
854.451	4063
854.585	4002
854.72	3945
854.854	4044
854.988	3960
855.122	4029
855.256	3937
855.39	4051
855.524	4128
855.658	4120
855.792	4101
855.926	4162
856.06	4181
856.194	4219
856.327	4181
856.461	4105
856.595	4169
856.729	4196
856.862	4306
856.996	4219
857.13	4291
857.263	4371
857.397	4337
857.53	4348
857.664	4371
857.797	4394
857.931	4455
858.064	4402
858.197	4493
858.331	4409
858.464	4360
858.597	4356
858.731	4447
858.864	4474
858.997	4485
859.13	4527
859.263	4527
859.396	4580
859.529	4538
859.662	4523
859.795	4573
859.928	4630
860.061	4672
860.194	4736
860.327	4611
860.46	4660
860.592	4748
860.725	4812
860.858	4774
860.99	4649
861.123	4698
861.256	4702
861.388	4706
861.521	5455
861.653	4755
861.786	4702
861.918	4763
862.05	4786
862.183	4862
862.315	4889
862.447	4980
862.58	4923
862.712	4797
862.844	4786
862.976	4904
863.108	4843
863.24	5292
863.372	4847
863.504	4919
863.636	4930
863.768	4984
863.9	4972
864.032	4942
864.164	4961
864.296	5041
864.428	5086
864.559	5079
864.691	5159
864.823	5128
864.954	5098
865.086	5170
865.217	5170
865.349	5113
865.48	5181
865.612	5231
865.743	5280
865.875	5185
866.006	5193
866.137	5216
866.269	5208
866.4	5265
866.531	5227
866.662	5250
866.793	5235
866.924	5284
867.055	5353
867.186	5337
867.317	5341
867.448	5341
867.579	5410
867.71	5368
867.841	5395
867.972	5493
868.103	5501
868.233	5421
868.364	5501
868.495	5539
868.625	5676
868.756	5790
868.886	5668
869.017	5771
869.147	5908
869.278	5912
869.408	5851
869.539	5805
869.669	5897
869.799	5893
869.929	5999
870.06	6007
870.19	6201
870.32	6175
870.45	6232
870.58	6327
870.71	6441
870.84	6471
870.97	6456
871.1	6475
871.23	6612
871.36	6677
871.489	6703
871.619	6738
871.749	6837
871.879	6856
872.008	7004
872.138	6993
872.267	7000
872.397	7019
872.526	7012
872.656	7091
872.785	7179
872.915	7362
873.044	7540
873.173	7594
873.303	7670
873.432	7738
873.561	7913
873.69	7951
873.819	7993
873.948	8100
874.077	8282
874.206	8328
874.335	8423
874.464	8705
874.593	8842
874.722	8944
874.851	9108
874.979	9184
875.108	9351
875.237	9431
875.365	9462
875.494	9682
875.623	9831
875.751	9800
875.88	10040
876.008	10158
876.136	10280
876.265	10504
876.393	10691
876.521	10748
876.65	10904
876.778	10839
876.906	11056
877.034	10908
877.162	11132
877.29	11105
877.418	11261
877.546	11410
877.674	11467
877.802	11509
877.93	11532
878.058	11589
878.185	11589
878.313	11604
878.441	11661
878.568	11733
878.696	11859
878.824	11866
878.951	11946
879.079	12011
879.206	12129
879.333	11999
879.461	11977
879.588	12117
879.715	12079
879.842	12323
879.97	12060
880.097	11889
880.224	11840
880.351	11874
880.478	11866
880.605	11893
880.732	11817
880.859	12003
880.986	11798
881.112	11851
881.239	11710
881.366	11661
881.493	11532
881.619	11577
881.746	11608
881.872	11467
881.999	11535
882.125	11452
882.252	11600
882.378	11505
882.505	11558
882.631	11368
882.757	11345
882.883	11330
883.01	11269
883.136	11181
883.262	11128
883.388	11121
883.514	11166
883.64	11204
883.766	11117
883.892	10953
884.018	11064
884.143	11067
884.269	11041
884.395	10828
884.52	10820
884.646	10778
884.772	10759
884.897	10691
885.023	10702
885.148	10782
885.274	10694
885.399	10694
885.524	10683
885.65	10622
885.775	10577
885.9	10535
886.025	10656
886.15	10565
886.275	10417
886.4	10478
886.525	10386
886.65	10436
886.775	10318
886.9	10512
887.025	10569
887.149	10284
887.274	10238
887.399	10219
887.523	10284
887.648	10109
887.773	10128
887.897	10227
888.021	10215
888.146	10135
888.27	10242
888.395	10223
888.519	10215
888.643	10188
888.767	10162
888.891	10120
889.015	10002
889.139	10044
889.263	9934
889.387	10124
889.511	10093
889.635	10097
889.759	9895
889.883	9953
890.006	9972
890.13	10055
890.254	9949
890.377	9956
890.501	9930
890.624	9930
890.748	9873
890.871	9804
890.995	9751
891.118	9717
891.241	9732
891.364	9804
891.488	9823
891.611	9759
891.734	9789
891.857	9831
891.98	9720
892.103	9751
892.226	9747
892.349	9720
892.471	9526
892.594	9648
892.717	9622
892.839	9587
892.962	9614
893.085	9652
893.207	9587
893.33	9504
893.452	9614
893.575	9606
893.697	9526
893.819	9633
893.941	9599
894.064	9572
894.186	9500
894.308	9378
894.43	9545
894.552	9538
894.674	9580
894.796	9310
894.918	9393
895.04	9389
895.161	9401
895.283	9325
895.405	9249
895.526	9230
895.648	9340
895.769	9279
895.891	9245
896.012	9264
896.134	9245
896.255	9173
896.376	9207
896.498	9081
896.619	9123
896.74	9116
896.861	9127
896.982	9203
897.103	9298
897.224	9157
897.345	9070
897.466	9013
897.587	9043
897.708	9169
897.828	9085
897.949	8906
898.07	8880
898.19	8857
898.311	9009
898.431	8845
898.552	8941
898.672	8979
898.792	8956
898.913	8899
899.033	8830
899.153	8731
899.273	8663
899.393	8804
899.513	8746
899.633	8743
899.753	8804
899.873	8750
899.993	8758
900.113	8739
900.232	8667
900.352	8712
900.472	8602
900.591	8541
900.711	8648
900.83	8632
900.95	8670
901.069	8716
901.189	8511
901.308	8518
901.427	8438
901.546	8412
901.665	8507
901.784	8492
901.904	8351
902.023	8396
902.141	8252
902.26	8183
902.379	8351
902.498	8225
902.617	8298
902.735	8275
902.854	8263
902.973	8267
903.091	8073
903.21	8084
903.328	8206
903.446	8115
903.565	8027
903.683	8073
903.801	8031
903.919	8103
904.038	8134
904.156	8008
904.274	8050
904.392	8081
904.51	8084
904.627	8058
904.745	8153
904.863	8103
904.981	7932
905.098	7856
905.216	7875
905.334	7989
905.451	7856
905.569	7947
905.686	7936
905.803	7906
905.921	7795
906.038	7879
906.155	7795
906.272	7712
906.389	7746
906.506	7609
906.623	7670
906.74	7613
906.857	7548
906.974	7597
907.091	7723
907.208	7662
907.324	7655
907.441	7578
907.557	7518
907.674	7422
907.79	7430
907.907	7400
908.023	7453
908.139	7400
908.256	7354
908.372	7369
908.488	7354
908.604	7263
908.72	7221
908.836	7278
908.952	7278
909.068	7289
909.184	7331
909.3	7327
909.415	7289
909.531	7285
909.647	7129
909.762	7095
909.878	7088
909.993	7160
910.108	7141
910.224	7072
910.339	7072
910.454	7065
910.57	7008
910.685	6973
910.8	7129
910.915	7095
911.03	7012
911.145	6905
911.259	6962
911.374	6871
911.489	6818
911.604	6859
911.718	6719
911.833	6764
911.947	6665
912.062	6608
912.176	6700
912.291	6684
912.405	6719
912.519	6867
912.633	6859
912.748	6745
912.862	6658
912.976	6578
913.09	6521
913.204	6582
913.318	6620
913.431	6677
913.545	6741
913.659	6700
913.772	6597
913.886	6559
914	6563
914.113	6631
914.226	6692
914.34	6582
914.453	6486
914.566	6612
914.68	6551
914.793	6525
914.906	6433
915.019	6410
915.132	6331
915.245	6471
915.358	6456
915.47	6403
915.583	6460
915.696	6475
915.809	6563
915.921	6555
916.034	6395
916.146	6426
916.259	6464
916.371	6498
916.483	6467
916.595	6407
916.708	6441
916.82	6399
916.932	6445
917.044	6395
917.156	6399
917.268	6270
917.38	6372
917.491	6315
917.603	6388
917.715	6388
917.826	6395
917.938	6289
918.049	6251
918.161	6292
918.272	6433
918.384	6418
918.495	6395
918.606	6273
918.717	6292
918.828	6296
918.939	6277
919.05	6175
919.161	6262
919.272	6216
919.383	6182
919.494	6266
919.604	6391
919.715	6323
919.826	6224
919.936	6254
920.047	6369
920.157	6289
920.267	6441
920.378	6311
920.488	6357
920.598	6467
920.708	6540
920.818	6422
920.928	6486
921.038	6631
921.148	6521
921.258	6331
921.368	6315
921.477	6258
921.587	6163
921.697	6057
921.806	6201
921.916	6076
922.025	5946
922.134	5923
922.244	5885
922.353	5897
922.462	5882
922.571	5863
922.68	5695
922.789	5657
922.898	5714
923.007	5638
923.116	5722
923.224	5729
923.333	5661
923.442	5619
923.55	5554
923.659	5573
923.767	5566
923.876	5535
923.984	5570
924.092	5509
924.201	5562
924.309	5573
924.417	5577
924.525	5520
924.633	5425
924.741	6186
924.849	5398
924.956	5501
925.064	5402
925.172	5326
925.279	5311
925.387	5379
925.494	5307
925.602	5493
925.709	5368
925.816	5284
925.924	5345
926.031	5379
926.138	5284
926.245	5337
926.352	5239
926.459	5311
926.566	5318
926.673	5181
926.779	5117
926.886	5075
926.993	5022
927.099	5041
927.206	5006
927.312	5006
927.419	5022
927.525	5006
927.631	4957
927.737	4927
927.843	4866
927.95	4790
928.056	4847
928.162	4843
928.267	4847
928.373	5402
928.479	4862
928.585	4729
928.69	4843
928.796	4805
928.901	4733
929.007	4653
929.112	4702
929.218	4607
929.323	4626
929.428	4527
929.533	4702
929.638	4538
929.743	4561
929.848	4577
929.953	4500
930.058	4451
930.163	4344
930.267	4356
930.372	4504
930.477	4344
930.581	4447
930.685	4352
930.79	4299
930.894	4295
930.998	4265
931.103	4375
931.207	4150
931.311	4055
931.415	4013
931.519	3907
931.623	3968
