Data from glass_V78500241_2613.txt Node
Date: Wed Sep 01 19:32:36 CST 2021
User: usil
Spectrometer: V785-0024
Trigger mode: 0
Integration Time (sec): 4.000000E-1
Scans to average: 1
Nonlinearity correction enabled: false
Boxcar width: 0
Storing dark spectrum: false
XAxis mode: Wavelengths
Number of Pixels in Spectrum: 1024
>>>>>Begin Spectral Data<<<<<
801.071	3694
801.214	3732
801.356	3679
801.499	3724
801.641	3740
801.783	3762
801.926	3842
802.068	3812
802.211	3850
802.353	3884
802.496	3789
802.638	3896
802.78	3850
802.923	3926
803.065	3907
803.208	3819
803.35	3861
803.492	3873
803.635	3903
803.777	3816
803.919	3899
804.061	4128
804.204	3937
804.346	3941
804.488	3930
804.63	4071
804.773	3934
804.915	4021
805.057	4128
805.199	4021
805.341	4048
805.483	4105
805.626	4135
805.768	4124
805.91	4215
806.052	4185
806.194	4185
806.336	4329
806.478	4219
806.62	4173
806.762	4204
806.904	4261
807.046	4318
807.188	4230
807.33	4238
807.472	4227
807.614	4143
807.756	4272
807.898	4166
808.04	4227
808.182	4318
808.324	4325
808.465	4367
808.607	4421
808.749	4462
808.891	4451
809.033	4489
809.174	4383
809.316	4253
809.458	4265
809.6	4154
809.741	4158
809.883	4105
810.025	4211
810.166	4188
810.308	4169
810.45	4227
810.591	4219
810.733	4295
810.875	4478
811.016	4812
811.158	5079
811.299	5288
811.441	5246
811.582	5060
811.724	4672
811.865	4508
812.007	4455
812.148	4417
812.29	4405
812.431	4398
812.573	4379
812.714	4348
812.855	4405
812.997	4390
813.138	4474
813.279	4379
813.421	4356
813.562	4390
813.703	4337
813.845	4344
813.986	4215
814.127	4211
814.268	4268
814.41	4303
814.551	4306
814.692	4314
814.833	4257
814.974	4287
815.115	4360
815.256	4227
815.397	4207
815.539	4192
815.68	4173
815.821	4204
815.962	4303
816.103	4257
816.244	4257
816.385	4177
816.526	4249
816.666	4207
816.807	4086
816.948	4177
817.089	4207
817.23	4101
817.371	4040
817.512	4044
817.653	4082
817.793	4036
817.934	4025
818.075	4067
818.216	4025
818.356	4131
818.497	3975
818.638	3907
818.778	3915
818.919	3888
819.06	3827
819.2	3892
819.341	3892
819.481	3854
819.622	3922
819.762	3994
819.903	3930
820.043	3838
820.184	3816
820.324	3819
820.465	3850
820.605	3888
820.746	3846
820.886	3838
821.026	3941
821.167	3876
821.307	3926
821.447	3964
821.588	3937
821.728	3994
821.868	3888
822.008	3842
822.149	3888
822.289	3892
822.429	3797
822.569	3762
822.709	3797
822.849	3682
822.99	3663
823.13	3686
823.27	3781
823.41	3701
823.55	3717
823.69	3701
823.83	3686
823.97	3690
824.11	3584
824.25	3557
824.389	3648
824.529	3667
824.669	3660
824.809	3724
824.949	3698
825.089	3694
825.228	3667
825.368	3553
825.508	3572
825.648	3564
825.787	3576
825.927	3610
826.067	3603
826.206	3686
826.346	3789
826.485	3812
826.625	3899
826.765	3949
826.904	3819
827.044	3587
827.183	3549
827.323	3416
827.462	3466
827.601	3454
827.741	3420
827.88	3458
828.02	3367
828.159	3409
828.298	3466
828.437	3504
828.577	3504
828.716	3591
828.855	3485
828.994	3386
829.134	3393
829.273	3409
829.412	3306
829.551	3355
829.69	3386
829.829	3435
829.968	3526
830.107	3401
830.246	3412
830.385	3409
830.524	3355
830.663	3275
830.802	3226
830.941	3203
831.08	3218
831.219	3214
831.357	3241
831.496	3416
831.635	3253
831.774	3165
831.913	3184
832.051	3135
832.19	3150
832.329	3203
832.467	3131
832.606	3089
832.744	3165
832.883	3169
833.022	3211
833.16	3256
833.299	3283
833.437	3336
833.576	3378
833.714	3401
833.852	3405
833.991	3424
834.129	3431
834.267	3367
834.406	3412
834.544	3386
834.682	3424
834.821	3382
834.959	3576
835.097	3428
835.235	3519
835.373	3477
835.511	3515
835.65	3431
835.788	3450
835.926	3378
836.064	3386
836.202	3374
836.34	3553
836.478	3542
836.615	3526
836.753	3587
836.891	3610
837.029	3587
837.167	3591
837.305	3496
837.443	3545
837.58	3496
837.718	3572
837.856	3542
837.993	3530
838.131	3595
838.269	3549
838.406	3591
838.544	3576
838.681	3481
838.819	3412
838.956	3393
839.094	3348
839.231	3424
839.369	3511
839.506	3755
839.643	3614
839.781	3469
839.918	3447
840.055	3488
840.193	3530
840.33	3500
840.467	3538
840.604	3591
840.742	3797
840.879	3530
841.016	3557
841.153	3606
841.29	3747
841.427	3698
841.564	3732
841.701	3747
841.838	3701
841.975	3682
842.112	3682
842.249	3641
842.385	3637
842.522	3789
842.659	3671
842.796	3614
842.933	3675
843.069	3694
843.206	3679
843.343	3766
843.479	3762
843.616	3812
843.752	3629
843.889	3667
844.025	3816
844.162	3705
844.298	3850
844.435	3759
844.571	3732
844.708	3876
844.844	3956
844.98	3987
845.117	4017
845.253	3945
845.389	3854
845.525	3937
845.661	3945
845.798	3930
845.934	3983
846.07	3915
846.206	4036
846.342	4131
846.478	4105
846.614	3972
846.75	3903
846.886	3911
847.022	4036
847.158	3968
847.294	3953
847.429	4002
847.565	3983
847.701	4249
847.837	3857
847.972	3873
848.108	3922
848.244	3937
848.379	3850
848.515	3816
848.65	3831
848.786	3865
848.921	3865
849.057	3964
849.192	3934
849.328	3865
849.463	3926
849.598	3915
849.734	3846
849.869	3831
850.004	3816
850.14	3835
850.275	3778
850.41	3728
850.545	3713
850.68	3789
850.815	3778
850.95	3770
851.085	3896
851.22	3850
851.355	3835
851.49	3755
851.625	3781
851.76	3766
851.895	3705
852.03	3701
852.165	3797
852.299	3823
852.434	3934
852.569	3857
852.703	3838
852.838	3937
852.973	3994
853.107	3964
853.242	3899
853.376	3823
853.511	3781
853.645	3808
853.78	3941
853.914	3842
854.048	3884
854.183	3907
854.317	3956
854.451	4082
854.585	3926
854.72	3918
854.854	4055
854.988	3934
855.122	4021
855.256	3937
855.39	3956
855.524	4105
855.658	4074
855.792	4090
855.926	4105
856.06	4158
856.194	4162
856.327	4093
856.461	4120
856.595	4105
856.729	4158
856.862	4303
856.996	4272
857.13	4318
857.263	4356
857.397	4325
857.53	4306
857.664	4363
857.797	4436
857.931	4417
858.064	4363
858.197	4417
858.331	4383
858.464	4367
858.597	4367
858.731	4421
858.864	4443
858.997	4459
859.13	4493
859.263	4504
859.396	4573
859.529	4561
859.662	4531
859.795	4584
859.928	4584
860.061	4653
860.194	4706
860.327	4645
860.46	4679
860.592	4694
860.725	4736
860.858	4771
860.99	4683
861.123	4687
861.256	4683
861.388	4767
861.521	5288
861.653	4733
861.786	4668
861.918	4717
862.05	4740
862.183	4831
862.315	4881
862.447	4923
862.58	4900
862.712	4771
862.844	4786
862.976	4885
863.108	4892
863.24	5204
863.372	4809
863.504	4900
863.636	4919
863.768	4934
863.9	4987
864.032	4915
864.164	4976
864.296	5052
864.428	5094
864.559	5067
864.691	5113
864.823	5090
864.954	5113
865.086	5155
865.217	5162
865.349	5048
865.48	5143
865.612	5197
865.743	5261
865.875	5170
866.006	5189
866.137	5212
866.269	5239
866.4	5273
866.531	5246
866.662	5246
866.793	5261
866.924	5254
867.055	5296
867.186	5330
867.317	5326
867.448	5349
867.579	5330
867.71	5398
867.841	5322
867.972	5406
868.103	5433
868.233	5444
868.364	5554
868.495	5543
868.625	5608
868.756	5764
868.886	5703
869.017	5722
869.147	5840
869.278	5851
869.408	5779
869.539	5790
869.669	5897
869.799	5908
869.929	5984
870.06	6019
870.19	6114
870.32	6136
870.45	6243
870.58	6346
870.71	6422
870.84	6490
870.97	6395
871.1	6460
871.23	6612
871.36	6665
871.489	6631
871.619	6749
871.749	6818
871.879	6920
872.008	6993
872.138	6966
872.267	6993
872.397	6993
872.526	6996
872.656	7095
872.785	7255
872.915	7377
873.044	7480
873.173	7506
873.303	7662
873.432	7696
873.561	7894
873.69	7833
873.819	7974
873.948	8161
874.077	8279
874.206	8294
874.335	8423
874.464	8583
874.593	8868
874.722	8929
874.851	9142
874.979	9195
875.108	9367
875.237	9382
875.365	9530
875.494	9717
875.623	9831
875.751	9857
875.88	10010
876.008	10181
876.136	10306
876.265	10440
876.393	10706
876.521	10702
876.65	10774
876.778	10896
876.906	10873
877.034	10923
877.162	11067
877.29	11124
877.418	11292
877.546	11376
877.674	11444
877.802	11360
877.93	11627
878.058	11547
878.185	11467
878.313	11630
878.441	11672
878.568	11691
878.696	11821
878.824	11821
878.951	11965
879.079	11904
879.206	12136
879.333	12045
879.461	12057
879.588	12011
879.715	12034
879.842	12209
879.97	12110
880.097	11920
880.224	11847
880.351	11870
880.478	11824
880.605	11828
880.732	11805
880.859	12060
880.986	11851
881.112	11851
881.239	11737
881.366	11604
881.493	11638
881.619	11474
881.746	11482
881.872	11573
881.999	11646
882.125	11501
882.252	11592
882.378	11501
882.505	11551
882.631	11326
882.757	11318
882.883	11280
883.01	11178
883.136	11250
883.262	11128
883.388	11079
883.514	11220
883.64	11113
883.766	11067
883.892	10984
884.018	10961
884.143	11067
884.269	11022
884.395	10889
884.52	10835
884.646	10820
884.772	10691
884.897	10668
885.023	10630
885.148	10748
885.274	10698
885.399	10634
885.524	10660
885.65	10565
885.775	10592
885.9	10519
886.025	10675
886.15	10508
886.275	10417
886.4	10352
886.525	10375
886.65	10379
886.775	10356
886.9	10497
887.025	10462
887.149	10394
887.274	10280
887.399	10143
887.523	10223
887.648	10185
887.773	10124
887.897	10265
888.021	10230
888.146	10188
888.27	10188
888.395	10211
888.519	10192
888.643	10268
888.767	10101
888.891	10017
889.015	10032
889.139	10109
889.263	10048
889.387	10093
889.511	10090
889.635	10093
889.759	9991
889.883	9975
890.006	10021
890.13	10051
890.254	10025
890.377	9998
890.501	9816
890.624	9831
890.748	9888
890.871	9789
890.995	9766
891.118	9774
891.241	9793
891.364	9778
891.488	9778
891.611	9766
891.734	9774
891.857	9759
891.98	9717
892.103	9747
892.226	9606
892.349	9705
892.471	9443
892.594	9538
892.717	9625
892.839	9538
892.962	9599
893.085	9603
893.207	9595
893.33	9496
893.452	9538
893.575	9671
893.697	9568
893.819	9595
893.941	9652
894.064	9584
894.186	9454
894.308	9408
894.43	9500
894.552	9549
894.674	9538
894.796	9313
894.918	9447
895.04	9340
895.161	9329
895.283	9321
895.405	9256
895.526	9264
895.648	9150
895.769	9150
895.891	9184
896.012	9279
896.134	9287
896.255	9150
896.376	9157
896.498	9074
896.619	9119
896.74	9116
896.861	9180
896.982	9275
897.103	9329
897.224	9245
897.345	9043
897.466	8956
897.587	8990
897.708	9036
897.828	9039
897.949	8967
898.07	8849
898.19	8944
898.311	9017
898.431	8925
898.552	8842
898.672	8948
898.792	8880
898.913	8876
899.033	8781
899.153	8689
899.273	8693
899.393	8754
899.513	8731
899.633	8705
899.753	8659
899.873	8640
899.993	8708
900.113	8739
900.232	8663
900.352	8701
900.472	8625
900.591	8575
900.711	8560
900.83	8552
900.95	8716
901.069	8640
901.189	8552
901.308	8446
901.427	8438
901.546	8431
901.665	8412
901.784	8461
901.904	8412
902.023	8370
902.141	8168
902.26	8191
902.379	8324
902.498	8233
902.617	8176
902.735	8309
902.854	8309
902.973	8202
903.091	8180
903.21	8138
903.328	8164
903.446	8092
903.565	8073
903.683	8119
903.801	8065
903.919	8107
904.038	8115
904.156	8024
904.274	8035
904.392	8016
904.51	8039
904.627	8043
904.745	8073
904.863	8130
904.981	7887
905.098	7864
905.216	7890
905.334	7898
905.451	7894
905.569	7944
905.686	7921
905.803	7864
905.921	7689
906.038	7860
906.155	7761
906.272	7658
906.389	7677
906.506	7666
906.623	7643
906.74	7575
906.857	7544
906.974	7518
907.091	7643
907.208	7742
907.324	7544
907.441	7575
907.557	7445
907.674	7502
907.79	7335
907.907	7384
908.023	7430
908.139	7422
908.256	7403
908.372	7324
908.488	7354
908.604	7232
908.72	7213
908.836	7255
908.952	7255
909.068	7236
909.184	7270
909.3	7228
909.415	7240
909.531	7301
909.647	7137
909.762	7171
909.878	7046
909.993	7110
910.108	7107
910.224	7012
910.339	7080
910.454	6985
910.57	6970
910.685	6977
910.8	7152
910.915	6981
911.03	7042
911.145	6882
911.259	6875
911.374	6905
911.489	6867
911.604	6791
911.718	6730
911.833	6711
911.947	6677
912.062	6646
912.176	6722
912.291	6703
912.405	6681
912.519	6795
912.633	6791
912.748	6700
912.862	6654
912.976	6582
913.09	6559
913.204	6601
913.318	6574
913.431	6646
913.545	6669
913.659	6719
913.772	6623
913.886	6604
914	6547
914.113	6620
914.226	6669
914.34	6620
914.453	6521
914.566	6608
914.68	6513
914.793	6528
914.906	6418
915.019	6395
915.132	6426
915.245	6410
915.358	6403
915.47	6490
915.583	6426
915.696	6494
915.809	6502
915.921	6525
916.034	6433
916.146	6456
916.259	6384
916.371	6441
916.483	6403
916.595	6376
916.708	6395
916.82	6388
916.932	6361
917.044	6353
917.156	6380
917.268	6277
917.38	6369
917.491	6273
917.603	6323
917.715	6418
917.826	6414
917.938	6357
918.049	6190
918.161	6346
918.272	6452
918.384	6422
918.495	6410
918.606	6300
918.717	6194
918.828	6315
918.939	6247
919.05	6163
919.161	6213
919.272	6121
919.383	6098
919.494	6273
919.604	6365
919.715	6228
919.826	6171
919.936	6247
920.047	6331
920.157	6277
920.267	6429
920.378	6289
920.488	6315
920.598	6422
920.708	6475
920.818	6452
920.928	6464
921.038	6585
921.148	6589
921.258	6292
921.368	6334
921.477	6194
921.587	6159
921.697	6060
921.806	6163
921.916	6019
922.025	5946
922.134	5946
922.244	5882
922.353	5988
922.462	5847
922.571	5775
922.68	5653
922.789	5638
922.898	5710
923.007	5573
923.116	5733
923.224	5653
923.333	5661
923.442	5619
923.55	5581
923.659	5539
923.767	5619
923.876	5535
923.984	5642
924.092	5524
924.201	5554
924.309	5501
924.417	5554
924.525	5532
924.633	5490
924.741	6277
924.849	5410
924.956	5501
925.064	5360
925.172	5311
925.279	5337
925.387	5364
925.494	5349
925.602	5406
925.709	5372
925.816	5296
925.924	5258
926.031	5326
926.138	5299
926.245	5292
926.352	5220
926.459	5326
926.566	5296
926.673	5181
926.779	5090
926.886	5136
926.993	5041
927.099	5010
927.206	4991
927.312	4938
927.419	5033
927.525	4942
927.631	4957
927.737	4854
927.843	4831
927.95	4786
928.056	4786
928.162	4767
928.267	4862
928.373	5242
928.479	4820
928.585	4733
928.69	4729
928.796	4752
928.901	4694
929.007	4611
929.112	4679
929.218	4675
929.323	4634
929.428	4569
929.533	4683
929.638	4550
929.743	4500
929.848	4558
929.953	4459
930.058	4409
930.163	4295
930.267	4318
930.372	4417
930.477	4295
930.581	4428
930.685	4344
930.79	4223
930.894	4280
930.998	4253
931.103	4356
931.207	4090
931.311	4120
931.415	3994
931.519	3979
931.623	3949
