Data from glass_V78500241_2637.txt Node
Date: Wed Sep 01 19:32:46 CST 2021
User: usil
Spectrometer: V785-0024
Trigger mode: 0
Integration Time (sec): 4.000000E-1
Scans to average: 1
Nonlinearity correction enabled: false
Boxcar width: 0
Storing dark spectrum: false
XAxis mode: Wavelengths
Number of Pixels in Spectrum: 1024
>>>>>Begin Spectral Data<<<<<
801.071	3762
801.214	3755
801.356	3682
801.499	3766
801.641	3736
801.783	3762
801.926	3846
802.068	3793
802.211	3812
802.353	3865
802.496	3793
802.638	3835
802.78	3880
802.923	3930
803.065	3915
803.208	3884
803.35	3857
803.492	3880
803.635	3880
803.777	3793
803.919	3880
804.061	4173
804.204	3930
804.346	3903
804.488	3896
804.63	4040
804.773	3930
804.915	4006
805.057	4105
805.199	4044
805.341	4097
805.483	4093
805.626	4101
805.768	4101
805.91	4154
806.052	4257
806.194	4173
806.336	4322
806.478	4207
806.62	4158
806.762	4188
806.904	4246
807.046	4314
807.188	4177
807.33	4204
807.472	4169
807.614	4162
807.756	4265
807.898	4227
808.04	4230
808.182	4272
808.324	4379
808.465	4386
808.607	4459
808.749	4478
808.891	4436
809.033	4474
809.174	4421
809.316	4261
809.458	4261
809.6	4147
809.741	4090
809.883	4124
810.025	4211
810.166	4219
810.308	4204
810.45	4234
810.591	4215
810.733	4287
810.875	4497
811.016	4831
811.158	5113
811.299	5269
811.441	5296
811.582	5010
811.724	4656
811.865	4421
812.007	4459
812.148	4409
812.29	4413
812.431	4413
812.573	4405
812.714	4341
812.855	4402
812.997	4344
813.138	4489
813.279	4405
813.421	4409
813.562	4363
813.703	4337
813.845	4356
813.986	4253
814.127	4185
814.268	4230
814.41	4242
814.551	4238
814.692	4318
814.833	4265
814.974	4272
815.115	4386
815.256	4227
815.397	4223
815.539	4219
815.68	4207
815.821	4215
815.962	4299
816.103	4227
816.244	4246
816.385	4219
816.526	4253
816.666	4185
816.807	4086
816.948	4154
817.089	4200
817.23	4124
817.371	4025
817.512	3983
817.653	4074
817.793	4025
817.934	4032
818.075	4116
818.216	4093
818.356	4082
818.497	3998
818.638	3892
818.778	3918
818.919	3869
819.06	3850
819.2	3941
819.341	3835
819.481	3827
819.622	3854
819.762	3991
819.903	3972
820.043	3846
820.184	3838
820.324	3838
820.465	3835
820.605	3838
820.746	3861
820.886	3759
821.026	3892
821.167	3888
821.307	3994
821.447	4002
821.588	3964
821.728	3911
821.868	3918
822.008	3850
822.149	3884
822.289	3896
822.429	3800
822.569	3720
822.709	3766
822.849	3652
822.99	3713
823.13	3774
823.27	3778
823.41	3732
823.55	3740
823.69	3690
823.83	3728
823.97	3633
824.11	3625
824.25	3595
824.389	3618
824.529	3698
824.669	3625
824.809	3736
824.949	3740
825.089	3698
825.228	3675
825.368	3568
825.508	3553
825.648	3595
825.787	3625
825.927	3660
826.067	3625
826.206	3656
826.346	3781
826.485	3831
826.625	3838
826.765	3907
826.904	3816
827.044	3587
827.183	3473
827.323	3401
827.462	3515
827.601	3435
827.741	3405
827.88	3458
828.02	3351
828.159	3428
828.298	3424
828.437	3511
828.577	3473
828.716	3587
828.855	3485
828.994	3393
829.134	3351
829.273	3317
829.412	3351
829.551	3367
829.69	3370
829.829	3412
829.968	3504
830.107	3447
830.246	3397
830.385	3374
830.524	3340
830.663	3306
830.802	3245
830.941	3233
831.08	3173
831.219	3241
831.357	3218
831.496	3382
831.635	3245
831.774	3184
831.913	3199
832.051	3112
832.19	3097
832.329	3218
832.467	3146
832.606	3081
832.744	3123
832.883	3161
833.022	3211
833.16	3241
833.299	3332
833.437	3348
833.576	3340
833.714	3382
833.852	3416
833.991	3447
834.129	3477
834.267	3401
834.406	3420
834.544	3397
834.682	3416
834.821	3378
834.959	3603
835.097	3374
835.235	3542
835.373	3485
835.511	3481
835.65	3477
835.788	3485
835.926	3348
836.064	3386
836.202	3405
836.34	3557
836.478	3549
836.615	3538
836.753	3561
836.891	3648
837.029	3603
837.167	3561
837.305	3530
837.443	3538
837.58	3534
837.718	3599
837.856	3553
837.993	3534
838.131	3568
838.269	3580
838.406	3603
838.544	3553
838.681	3462
838.819	3466
838.956	3359
839.094	3397
839.231	3431
839.369	3523
839.506	3724
839.643	3622
839.781	3458
839.918	3450
840.055	3542
840.193	3526
840.33	3534
840.467	3591
840.604	3587
840.742	3808
840.879	3530
841.016	3561
841.153	3545
841.29	3736
841.427	3698
841.564	3717
841.701	3694
841.838	3717
841.975	3709
842.112	3717
842.249	3637
842.385	3599
842.522	3816
842.659	3686
842.796	3694
842.933	3686
843.069	3686
843.206	3732
843.343	3800
843.479	3774
843.616	3778
843.752	3648
843.889	3625
844.025	3819
844.162	3690
844.298	3819
844.435	3785
844.571	3740
844.708	3888
844.844	3983
844.98	3987
845.117	3968
845.253	3907
845.389	3857
845.525	3968
845.661	3979
845.798	3865
845.934	4013
846.07	3949
846.206	4071
846.342	4116
846.478	4067
846.614	3956
846.75	3903
846.886	3911
847.022	4002
847.158	3975
847.294	3956
847.429	4051
847.565	3968
847.701	4196
847.837	3903
847.972	3804
848.108	3998
848.244	3922
848.379	3823
848.515	3816
848.65	3835
848.786	3846
848.921	3838
849.057	3956
849.192	3934
849.328	3869
849.463	3934
849.598	3846
849.734	3823
849.869	3785
850.004	3751
850.14	3766
850.275	3793
850.41	3728
850.545	3751
850.68	3823
850.815	3785
850.95	3808
851.085	3930
851.22	3873
851.355	3823
851.49	3766
851.625	3781
851.76	3800
851.895	3720
852.03	3759
852.165	3800
852.299	3808
852.434	3884
852.569	3831
852.703	3865
852.838	3907
852.973	4017
853.107	4040
853.242	3903
853.376	3838
853.511	3804
853.645	3850
853.78	3964
853.914	3903
854.048	3880
854.183	3884
854.317	3945
854.451	4063
854.585	3964
854.72	3934
854.854	4044
854.988	3907
855.122	3998
855.256	3880
855.39	4021
855.524	4093
855.658	4044
855.792	4086
855.926	4101
856.06	4166
856.194	4150
856.327	4109
856.461	4131
856.595	4166
856.729	4147
856.862	4265
856.996	4215
857.13	4303
857.263	4280
857.397	4348
857.53	4306
857.664	4303
857.797	4402
857.931	4440
858.064	4398
858.197	4432
858.331	4424
858.464	4390
858.597	4348
858.731	4402
858.864	4443
858.997	4413
859.13	4485
859.263	4516
859.396	4573
859.529	4535
859.662	4470
859.795	4538
859.928	4622
860.061	4694
860.194	4691
860.327	4683
860.46	4691
860.592	4694
860.725	4774
860.858	4752
860.99	4687
861.123	4706
861.256	4691
861.388	4733
861.521	5284
861.653	4675
861.786	4702
861.918	4714
862.05	4805
862.183	4850
862.315	4881
862.447	4923
862.58	4824
862.712	4786
862.844	4812
862.976	4877
863.108	4889
863.24	5208
863.372	4873
863.504	4889
863.636	4900
863.768	4934
863.9	4949
864.032	4915
864.164	4984
864.296	5006
864.428	5098
864.559	5064
864.691	5113
864.823	5136
864.954	5079
865.086	5147
865.217	5094
865.349	5105
865.48	5197
865.612	5208
865.743	5307
865.875	5155
866.006	5166
866.137	5216
866.269	5197
866.4	5277
866.531	5250
866.662	5292
866.793	5250
866.924	5250
867.055	5269
867.186	5284
867.317	5307
867.448	5330
867.579	5341
867.71	5318
867.841	5334
867.972	5444
868.103	5482
868.233	5493
868.364	5490
868.495	5524
868.625	5691
868.756	5779
868.886	5657
869.017	5688
869.147	5908
869.278	5832
869.408	5779
869.539	5821
869.669	5832
869.799	5885
869.929	5954
870.06	5992
870.19	6152
870.32	6182
870.45	6251
870.58	6315
870.71	6403
870.84	6410
870.97	6369
871.1	6426
871.23	6627
871.36	6650
871.489	6662
871.619	6730
871.749	6798
871.879	6852
872.008	7004
872.138	6935
872.267	6985
872.397	6951
872.526	7053
872.656	7084
872.785	7149
872.915	7301
873.044	7480
873.173	7537
873.303	7636
873.432	7761
873.561	7890
873.69	7898
873.819	8001
873.948	8058
874.077	8248
874.206	8339
874.335	8465
874.464	8693
874.593	8823
874.722	8933
874.851	9119
874.979	9195
875.108	9389
875.237	9389
875.365	9485
875.494	9667
875.623	9781
875.751	9857
875.88	9991
876.008	10166
876.136	10223
876.265	10554
876.393	10706
876.521	10698
876.65	10850
876.778	10927
876.906	10908
877.034	10919
877.162	11067
877.29	11162
877.418	11326
877.546	11277
877.674	11402
877.802	11478
877.93	11497
878.058	11547
878.185	11570
878.313	11665
878.441	11767
878.568	11691
878.696	11764
878.824	11840
878.951	11901
879.079	11996
879.206	12072
879.333	12038
879.461	11980
879.588	12102
879.715	12079
879.842	12247
879.97	12034
880.097	11889
880.224	11885
880.351	11863
880.478	11901
880.605	11878
880.732	11931
880.859	12041
880.986	11813
881.112	11870
881.239	11680
881.366	11642
881.493	11661
881.619	11512
881.746	11486
881.872	11539
881.999	11562
882.125	11455
882.252	11524
882.378	11547
882.505	11646
882.631	11368
882.757	11345
882.883	11364
883.01	11292
883.136	11189
883.262	11037
883.388	11064
883.514	11235
883.64	11170
883.766	11071
883.892	11006
884.018	10995
884.143	11075
884.269	11136
884.395	10809
884.52	10778
884.646	10706
884.772	10634
884.897	10691
885.023	10748
885.148	10694
885.274	10725
885.399	10721
885.524	10618
885.65	10569
885.775	10577
885.9	10599
886.025	10630
886.15	10508
886.275	10409
886.4	10356
886.525	10386
886.65	10348
886.775	10295
886.9	10535
887.025	10542
887.149	10337
887.274	10344
887.399	10219
887.523	10192
887.648	10112
887.773	10116
887.897	10177
888.021	10238
888.146	10128
888.27	10249
888.395	10173
888.519	10177
888.643	10150
888.767	10169
888.891	10109
889.015	10002
889.139	10078
889.263	10025
889.387	10135
889.511	10097
889.635	10143
889.759	9857
889.883	9975
890.006	10071
890.13	10120
890.254	9949
890.377	10002
890.501	9842
890.624	9892
890.748	9854
890.871	9800
890.995	9804
891.118	9690
891.241	9804
891.364	9785
891.488	9819
891.611	9671
891.734	9766
891.857	9778
891.98	9747
892.103	9797
892.226	9698
892.349	9701
892.471	9523
892.594	9564
892.717	9561
892.839	9637
892.962	9587
893.085	9629
893.207	9629
893.33	9515
893.452	9507
893.575	9606
893.697	9568
893.819	9682
893.941	9591
894.064	9625
894.186	9458
894.308	9408
894.43	9496
894.552	9603
894.674	9553
894.796	9401
894.918	9439
895.04	9306
895.161	9321
895.283	9367
895.405	9275
895.526	9241
895.648	9211
895.769	9313
895.891	9207
896.012	9264
896.134	9241
896.255	9146
896.376	9097
896.498	9176
896.619	9093
896.74	9070
896.861	9161
896.982	9291
897.103	9302
897.224	9199
897.345	9108
897.466	8994
897.587	8994
897.708	9081
897.828	8967
897.949	8902
898.07	8921
898.19	8849
898.311	9020
898.431	8883
898.552	8921
898.672	8971
898.792	8960
898.913	8880
899.033	8781
899.153	8735
899.273	8686
899.393	8708
899.513	8781
899.633	8708
899.753	8777
899.873	8678
899.993	8697
900.113	8693
900.232	8712
900.352	8632
900.472	8583
900.591	8533
900.711	8552
900.83	8564
900.95	8651
901.069	8712
901.189	8545
901.308	8423
901.427	8412
901.546	8427
901.665	8507
901.784	8484
901.904	8366
902.023	8366
902.141	8279
902.26	8206
902.379	8320
902.498	8183
902.617	8202
902.735	8412
902.854	8347
902.973	8259
903.091	8103
903.21	8111
903.328	8119
903.446	8050
903.565	8069
903.683	8069
903.801	8077
903.919	8073
904.038	8077
904.156	8008
904.274	8088
904.392	8031
904.51	8027
904.627	8039
904.745	8046
904.863	8073
904.981	7898
905.098	7830
905.216	7875
905.334	7947
905.451	7944
905.569	7811
905.686	7898
905.803	7940
905.921	7734
906.038	7822
906.155	7811
906.272	7655
906.389	7734
906.506	7643
906.623	7636
906.74	7556
906.857	7514
906.974	7582
907.091	7704
907.208	7681
907.324	7597
907.441	7578
907.557	7453
907.674	7426
907.79	7407
907.907	7384
908.023	7422
908.139	7453
908.256	7384
908.372	7308
908.488	7327
908.604	7274
908.72	7289
908.836	7278
908.952	7213
909.068	7228
909.184	7350
909.3	7221
909.415	7289
909.531	7236
909.647	7152
909.762	7107
909.878	7114
909.993	7137
910.108	7122
910.224	7122
910.339	7149
910.454	7023
910.57	6981
910.685	6966
910.8	7103
910.915	7133
911.03	6977
911.145	6840
911.259	6897
911.374	6909
911.489	6856
911.604	6875
911.718	6665
911.833	6700
911.947	6646
912.062	6612
912.176	6707
912.291	6719
912.405	6711
912.519	6802
912.633	6795
912.748	6764
912.862	6681
912.976	6639
913.09	6574
913.204	6570
913.318	6574
913.431	6639
913.545	6654
913.659	6730
913.772	6722
913.886	6627
914	6494
914.113	6574
914.226	6555
914.34	6574
914.453	6471
914.566	6570
914.68	6509
914.793	6513
914.906	6410
915.019	6410
915.132	6353
915.245	6407
915.358	6426
915.47	6418
915.583	6407
915.696	6479
915.809	6517
915.921	6544
916.034	6403
916.146	6357
916.259	6315
916.371	6498
916.483	6502
916.595	6346
916.708	6346
916.82	6395
916.932	6350
917.044	6395
917.156	6376
917.268	6315
917.38	6338
917.491	6315
917.603	6342
917.715	6361
917.826	6445
917.938	6350
918.049	6254
918.161	6334
918.272	6410
918.384	6426
918.495	6353
918.606	6270
918.717	6251
918.828	6308
918.939	6270
919.05	6106
919.161	6254
919.272	6087
919.383	6171
919.494	6334
919.604	6418
919.715	6315
919.826	6220
919.936	6258
920.047	6334
920.157	6254
920.267	6456
920.378	6334
920.488	6315
920.598	6448
920.708	6490
920.818	6445
920.928	6467
921.038	6582
921.148	6551
921.258	6319
921.368	6300
921.477	6152
921.587	6133
921.697	6072
921.806	6155
921.916	6076
922.025	5958
922.134	5920
922.244	5885
922.353	5946
922.462	5832
922.571	5779
922.68	5710
922.789	5695
922.898	5710
923.007	5657
923.116	5722
923.224	5695
923.333	5657
923.442	5611
923.55	5543
923.659	5589
923.767	5619
923.876	5543
923.984	5592
924.092	5528
924.201	5535
924.309	5532
924.417	5543
924.525	5421
924.633	5512
924.741	6247
924.849	5330
924.956	5429
925.064	5318
925.172	5273
925.279	5280
925.387	5345
925.494	5284
925.602	5395
925.709	5421
925.816	5201
925.924	5261
926.031	5299
926.138	5269
926.245	5326
926.352	5201
926.459	5296
926.566	5288
926.673	5166
926.779	5117
926.886	5147
926.993	5041
927.099	5014
927.206	4984
927.312	4965
927.419	5022
927.525	4987
927.631	4999
927.737	4930
927.843	4843
927.95	4755
928.056	4854
928.162	4752
928.267	4790
928.373	5353
928.479	4828
928.585	4698
928.69	4729
928.796	4824
928.901	4694
929.007	4584
929.112	4664
929.218	4634
929.323	4607
929.428	4516
929.533	4634
929.638	4466
929.743	4542
929.848	4561
929.953	4527
930.058	4440
930.163	4329
930.267	4299
930.372	4428
930.477	4341
930.581	4447
930.685	4322
930.79	4287
930.894	4207
930.998	4238
931.103	4383
931.207	4120
931.311	4074
931.415	4048
931.519	3949
931.623	3983
