Data from glass_V78500241_2862.txt Node
Date: Wed Sep 01 19:34:20 CST 2021
User: usil
Spectrometer: V785-0024
Trigger mode: 0
Integration Time (sec): 4.000000E-1
Scans to average: 1
Nonlinearity correction enabled: false
Boxcar width: 0
Storing dark spectrum: false
XAxis mode: Wavelengths
Number of Pixels in Spectrum: 1024
>>>>>Begin Spectral Data<<<<<
801.071	3686
801.214	3713
801.356	3686
801.499	3740
801.641	3740
801.783	3732
801.926	3857
802.068	3778
802.211	3812
802.353	3831
802.496	3785
802.638	3880
802.78	3907
802.923	3918
803.065	3888
803.208	3823
803.35	3831
803.492	3884
803.635	3869
803.777	3797
803.919	3873
804.061	4150
804.204	3945
804.346	3907
804.488	3911
804.63	4017
804.773	3964
804.915	3998
805.057	4135
805.199	4036
805.341	4063
805.483	4097
805.626	4112
805.768	4082
805.91	4219
806.052	4192
806.194	4162
806.336	4386
806.478	4147
806.62	4177
806.762	4131
806.904	4204
807.046	4261
807.188	4215
807.33	4139
807.472	4207
807.614	4185
807.756	4207
807.898	4223
808.04	4173
808.182	4234
808.324	4303
808.465	4394
808.607	4485
808.749	4394
808.891	4428
809.033	4459
809.174	4413
809.316	4242
809.458	4204
809.6	4093
809.741	4120
809.883	4128
810.025	4211
810.166	4181
810.308	4215
810.45	4211
810.591	4166
810.733	4257
810.875	4489
811.016	4755
811.158	5124
811.299	5227
811.441	5239
811.582	5060
811.724	4679
811.865	4459
812.007	4413
812.148	4432
812.29	4367
812.431	4379
812.573	4405
812.714	4402
812.855	4421
812.997	4367
813.138	4462
813.279	4386
813.421	4390
813.562	4303
813.703	4329
813.845	4341
813.986	4215
814.127	4207
814.268	4234
814.41	4299
814.551	4276
814.692	4303
814.833	4295
814.974	4276
815.115	4295
815.256	4223
815.397	4272
815.539	4219
815.68	4147
815.821	4177
815.962	4325
816.103	4295
816.244	4200
816.385	4188
816.526	4234
816.666	4215
816.807	4093
816.948	4147
817.089	4173
817.23	4074
817.371	4010
817.512	4036
817.653	4055
817.793	3972
817.934	4055
818.075	4086
818.216	4029
818.356	4055
818.497	3991
818.638	3892
818.778	3865
818.919	3846
819.06	3911
819.2	3876
819.341	3850
819.481	3880
819.622	3899
819.762	3964
819.903	3922
820.043	3846
820.184	3778
820.324	3827
820.465	3903
820.605	3884
820.746	3861
820.886	3747
821.026	3880
821.167	3907
821.307	3941
821.447	3956
821.588	3888
821.728	3922
821.868	3884
822.008	3812
822.149	3873
822.289	3911
822.429	3762
822.569	3781
822.709	3774
822.849	3698
822.99	3679
823.13	3755
823.27	3717
823.41	3720
823.55	3717
823.69	3705
823.83	3675
823.97	3682
824.11	3591
824.25	3572
824.389	3572
824.529	3637
824.669	3580
824.809	3686
824.949	3698
825.089	3713
825.228	3690
825.368	3542
825.508	3553
825.648	3568
825.787	3595
825.927	3614
826.067	3629
826.206	3663
826.346	3785
826.485	3785
826.625	3827
826.765	3945
826.904	3827
827.044	3561
827.183	3485
827.323	3428
827.462	3439
827.601	3420
827.741	3443
827.88	3473
828.02	3325
828.159	3458
828.298	3443
828.437	3488
828.577	3458
828.716	3576
828.855	3469
828.994	3428
829.134	3348
829.273	3386
829.412	3355
829.551	3344
829.69	3359
829.829	3447
829.968	3469
830.107	3424
830.246	3424
830.385	3367
830.524	3363
830.663	3287
830.802	3218
830.941	3161
831.08	3165
831.219	3294
831.357	3253
831.496	3367
831.635	3188
831.774	3184
831.913	3173
832.051	3127
832.19	3119
832.329	3203
832.467	3116
832.606	3097
832.744	3104
832.883	3146
833.022	3188
833.16	3268
833.299	3256
833.437	3317
833.576	3336
833.714	3378
833.852	3424
833.991	3405
834.129	3469
834.267	3469
834.406	3374
834.544	3382
834.682	3393
834.821	3409
834.959	3538
835.097	3428
835.235	3511
835.373	3462
835.511	3469
835.65	3409
835.788	3477
835.926	3370
836.064	3355
836.202	3374
836.34	3580
836.478	3572
836.615	3557
836.753	3553
836.891	3641
837.029	3584
837.167	3584
837.305	3580
837.443	3549
837.58	3492
837.718	3591
837.856	3507
837.993	3515
838.131	3572
838.269	3561
838.406	3557
838.544	3545
838.681	3447
838.819	3443
838.956	3348
839.094	3386
839.231	3397
839.369	3481
839.506	3717
839.643	3633
839.781	3462
839.918	3431
840.055	3511
840.193	3500
840.33	3496
840.467	3526
840.604	3599
840.742	3774
840.879	3545
841.016	3519
841.153	3587
841.29	3740
841.427	3682
841.564	3717
841.701	3728
841.838	3663
841.975	3599
842.112	3686
842.249	3580
842.385	3599
842.522	3797
842.659	3614
842.796	3641
842.933	3728
843.069	3679
843.206	3698
843.343	3766
843.479	3755
843.616	3778
843.752	3705
843.889	3644
844.025	3838
844.162	3690
844.298	3823
844.435	3762
844.571	3789
844.708	3842
844.844	3941
844.98	3994
845.117	4013
845.253	3918
845.389	3873
845.525	3987
845.661	3941
845.798	3941
845.934	3968
846.07	3911
846.206	4032
846.342	4101
846.478	4048
846.614	3994
846.75	3934
846.886	3896
847.022	3998
847.158	3937
847.294	4029
847.429	3987
847.565	4032
847.701	4207
847.837	3861
847.972	3903
848.108	3975
848.244	3922
848.379	3880
848.515	3766
848.65	3831
848.786	3823
848.921	3876
849.057	3945
849.192	3903
849.328	3854
849.463	3941
849.598	3850
849.734	3854
849.869	3838
850.004	3740
850.14	3808
850.275	3781
850.41	3694
850.545	3766
850.68	3778
850.815	3770
850.95	3778
851.085	3922
851.22	3827
851.355	3740
851.49	3774
851.625	3793
851.76	3781
851.895	3717
852.03	3724
852.165	3800
852.299	3823
852.434	3884
852.569	3808
852.703	3846
852.838	3903
852.973	3937
853.107	3975
853.242	3865
853.376	3785
853.511	3797
853.645	3793
853.78	3918
853.914	3854
854.048	3835
854.183	3873
854.317	3899
854.451	4044
854.585	3907
854.72	3880
854.854	3994
854.988	3907
855.122	4021
855.256	3873
855.39	4025
855.524	4048
855.658	4074
855.792	4109
855.926	4090
856.06	4150
856.194	4147
856.327	4078
856.461	4128
856.595	4101
856.729	4131
856.862	4246
856.996	4253
857.13	4325
857.263	4265
857.397	4322
857.53	4257
857.664	4341
857.797	4360
857.931	4424
858.064	4367
858.197	4436
858.331	4390
858.464	4379
858.597	4318
858.731	4440
858.864	4428
858.997	4451
859.13	4432
859.263	4516
859.396	4550
859.529	4500
859.662	4493
859.795	4523
859.928	4550
860.061	4683
860.194	4675
860.327	4675
860.46	4630
860.592	4729
860.725	4691
860.858	4725
860.99	4740
861.123	4672
861.256	4637
861.388	4748
861.521	5326
861.653	4668
861.786	4656
861.918	4714
862.05	4778
862.183	4786
862.315	4831
862.447	4904
862.58	4854
862.712	4805
862.844	4782
862.976	4858
863.108	4862
863.24	5185
863.372	4828
863.504	4908
863.636	4896
863.768	4908
863.9	4938
864.032	4870
864.164	4923
864.296	5033
864.428	5014
864.559	5098
864.691	5102
864.823	5113
864.954	5132
865.086	5098
865.217	5105
865.349	5071
865.48	5132
865.612	5166
865.743	5261
865.875	5189
866.006	5124
866.137	5159
866.269	5254
866.4	5273
866.531	5242
866.662	5193
866.793	5265
866.924	5223
867.055	5288
867.186	5322
867.317	5326
867.448	5303
867.579	5376
867.71	5376
867.841	5383
867.972	5429
868.103	5471
868.233	5444
868.364	5505
868.495	5478
868.625	5566
868.756	5764
868.886	5604
869.017	5718
869.147	5863
869.278	5805
869.408	5790
869.539	5851
869.669	5859
869.799	5889
869.929	5984
870.06	5946
870.19	6190
870.32	6201
870.45	6235
870.58	6308
870.71	6426
870.84	6494
870.97	6441
871.1	6429
871.23	6582
871.36	6646
871.489	6601
871.619	6711
871.749	6791
871.879	6802
872.008	6947
872.138	6947
872.267	6947
872.397	6958
872.526	6966
872.656	7091
872.785	7137
872.915	7358
873.044	7483
873.173	7582
873.303	7597
873.432	7784
873.561	7849
873.69	7928
873.819	7894
873.948	8100
874.077	8225
874.206	8393
874.335	8476
874.464	8663
874.593	8819
874.722	8887
874.851	9119
874.979	9180
875.108	9367
875.237	9466
875.365	9420
875.494	9675
875.623	9842
875.751	9804
875.88	9953
876.008	10131
876.136	10287
876.265	10466
876.393	10668
876.521	10660
876.65	10805
876.778	10908
876.906	10915
877.034	10987
877.162	11056
877.29	11140
877.418	11303
877.546	11239
877.674	11383
877.802	11391
877.93	11512
878.058	11592
878.185	11566
878.313	11657
878.441	11668
878.568	11699
878.696	11764
878.824	11813
878.951	12007
879.079	12087
879.206	12114
879.333	12091
879.461	11965
879.588	11988
879.715	12007
879.842	12247
879.97	12068
880.097	11882
880.224	11821
880.351	11901
880.478	11859
880.605	11840
880.732	11775
880.859	12022
880.986	11923
881.112	11794
881.239	11741
881.366	11600
881.493	11657
881.619	11604
881.746	11512
881.872	11486
881.999	11528
882.125	11410
882.252	11585
882.378	11429
882.505	11505
882.631	11269
882.757	11292
882.883	11349
883.01	11181
883.136	11181
883.262	11155
883.388	11128
883.514	11201
883.64	11102
883.766	11018
883.892	10972
884.018	10938
884.143	11094
884.269	11128
884.395	10908
884.52	10717
884.646	10767
884.772	10702
884.897	10702
885.023	10653
885.148	10679
885.274	10782
885.399	10668
885.524	10607
885.65	10538
885.775	10512
885.9	10538
886.025	10550
886.15	10535
886.275	10493
886.4	10417
886.525	10390
886.65	10363
886.775	10306
886.9	10493
887.025	10573
887.149	10272
887.274	10181
887.399	10150
887.523	10154
887.648	10150
887.773	10109
887.897	10143
888.021	10215
888.146	10093
888.27	10207
888.395	10169
888.519	10116
888.643	10112
888.767	10150
888.891	10090
889.015	9994
889.139	9979
889.263	9934
889.387	10067
889.511	10067
889.635	10067
889.759	9873
889.883	9918
890.006	10010
890.13	10051
890.254	9953
890.377	9994
890.501	9850
890.624	9907
890.748	9842
890.871	9781
890.995	9713
891.118	9724
891.241	9785
891.364	9766
891.488	9778
891.611	9770
891.734	9762
891.857	9774
891.98	9690
892.103	9717
892.226	9755
892.349	9584
892.471	9443
892.594	9641
892.717	9561
892.839	9496
892.962	9557
893.085	9580
893.207	9530
893.33	9473
893.452	9469
893.575	9572
893.697	9458
893.819	9641
893.941	9568
894.064	9568
894.186	9412
894.308	9310
894.43	9519
894.552	9580
894.674	9538
894.796	9367
894.918	9397
895.04	9428
895.161	9348
895.283	9382
895.405	9279
895.526	9264
895.648	9230
895.769	9226
895.891	9245
896.012	9233
896.134	9222
896.255	9211
896.376	9127
896.498	9150
896.619	9116
896.74	9024
896.861	9058
896.982	9249
897.103	9272
897.224	9093
897.345	9043
897.466	9028
897.587	9024
897.708	9085
897.828	8929
897.949	8944
898.07	8849
898.19	8861
898.311	8960
898.431	8849
898.552	8902
898.672	8933
898.792	8921
898.913	8826
899.033	8712
899.153	8686
899.273	8636
899.393	8674
899.513	8769
899.633	8708
899.753	8716
899.873	8602
899.993	8640
900.113	8651
900.232	8724
900.352	8674
900.472	8632
900.591	8530
900.711	8533
900.83	8552
900.95	8708
901.069	8636
901.189	8571
901.308	8473
901.427	8396
901.546	8339
901.665	8362
901.784	8476
901.904	8381
902.023	8320
902.141	8237
902.26	8221
902.379	8240
902.498	8142
902.617	8206
902.735	8294
902.854	8237
902.973	8259
903.091	8153
903.21	8107
903.328	8123
903.446	8035
903.565	8092
903.683	8081
903.801	8020
903.919	8119
904.038	8119
904.156	7993
904.274	8062
904.392	7993
904.51	8008
904.627	7997
904.745	8069
904.863	8081
904.981	7890
905.098	7822
905.216	7894
905.334	7894
905.451	7814
905.569	7803
905.686	7928
905.803	7875
905.921	7772
906.038	7849
906.155	7818
906.272	7700
906.389	7677
906.506	7651
906.623	7651
906.74	7537
906.857	7502
906.974	7571
907.091	7662
907.208	7715
907.324	7575
907.441	7518
907.557	7422
907.674	7483
907.79	7396
907.907	7373
908.023	7445
908.139	7403
908.256	7354
908.372	7381
908.488	7320
908.604	7240
908.72	7228
908.836	7259
908.952	7213
909.068	7183
909.184	7255
909.3	7301
909.415	7236
909.531	7232
909.647	7122
909.762	7069
909.878	7110
909.993	7156
910.108	7080
910.224	7133
910.339	7076
910.454	6962
910.57	7012
910.685	6970
910.8	7141
910.915	7084
911.03	6970
911.145	6897
911.259	6844
911.374	6867
911.489	6814
911.604	6802
911.718	6684
911.833	6715
911.947	6616
912.062	6574
912.176	6692
912.291	6654
912.405	6669
912.519	6825
912.633	6779
912.748	6669
912.862	6745
912.976	6627
913.09	6509
913.204	6585
913.318	6593
913.431	6665
913.545	6700
913.659	6646
913.772	6654
913.886	6566
914	6547
914.113	6597
914.226	6574
914.34	6570
914.453	6483
914.566	6616
914.68	6498
914.793	6433
914.906	6353
915.019	6414
915.132	6388
915.245	6395
915.358	6418
915.47	6410
915.583	6403
915.696	6452
915.809	6467
915.921	6506
916.034	6380
916.146	6319
916.259	6388
916.371	6502
916.483	6437
916.595	6422
916.708	6388
916.82	6429
916.932	6323
917.044	6388
917.156	6437
917.268	6285
917.38	6376
917.491	6262
917.603	6388
917.715	6361
917.826	6391
917.938	6292
918.049	6220
918.161	6346
918.272	6395
918.384	6445
918.495	6308
918.606	6266
918.717	6243
918.828	6285
918.939	6251
919.05	6159
919.161	6300
919.272	6102
919.383	6133
919.494	6235
919.604	6452
919.715	6262
919.826	6182
919.936	6213
920.047	6296
920.157	6270
920.267	6441
920.378	6308
920.488	6262
920.598	6452
920.708	6547
920.818	6525
920.928	6456
921.038	6616
921.148	6433
921.258	6304
921.368	6304
921.477	6125
921.587	6171
921.697	6034
921.806	6152
921.916	6053
922.025	5923
922.134	5916
922.244	5859
922.353	5912
922.462	5817
922.571	5836
922.68	5676
922.789	5653
922.898	5714
923.007	5611
923.116	5741
923.224	5676
923.333	5630
923.442	5604
923.55	5604
923.659	5611
923.767	5619
923.876	5570
923.984	5592
924.092	5455
924.201	5524
924.309	5516
924.417	5490
924.525	5429
924.633	5474
924.741	6136
924.849	5337
924.956	5463
925.064	5379
925.172	5258
925.279	5311
925.387	5341
925.494	5349
925.602	5360
925.709	5337
925.816	5326
925.924	5296
926.031	5322
926.138	5227
926.245	5311
926.352	5147
926.459	5284
926.566	5349
926.673	5197
926.779	5147
926.886	5117
926.993	4961
927.099	4972
927.206	4965
927.312	4953
927.419	4915
927.525	4942
927.631	4965
927.737	4877
927.843	4854
927.95	4774
928.056	4771
928.162	4786
928.267	4839
928.373	5261
928.479	4870
928.585	4717
928.69	4767
928.796	4782
928.901	4584
929.007	4527
929.112	4645
929.218	4618
929.323	4561
929.428	4550
929.533	4626
929.638	4504
929.743	4519
929.848	4531
929.953	4565
930.058	4470
930.163	4284
930.267	4375
930.372	4398
930.477	4291
930.581	4402
930.685	4390
930.79	4249
930.894	4287
930.998	4227
931.103	4337
931.207	4112
931.311	4086
931.415	4051
931.519	3911
931.623	3930
