Data from glass_V78500241_2048.txt Node
Date: Wed Sep 01 19:28:41 CST 2021
User: usil
Spectrometer: V785-0024
Trigger mode: 0
Integration Time (sec): 4.000000E-1
Scans to average: 1
Nonlinearity correction enabled: false
Boxcar width: 0
Storing dark spectrum: false
XAxis mode: Wavelengths
Number of Pixels in Spectrum: 1024
>>>>>Begin Spectral Data<<<<<
801.071	3770
801.214	3755
801.356	3701
801.499	3720
801.641	3686
801.783	3804
801.926	3861
802.068	3781
802.211	3808
802.353	3903
802.496	3812
802.638	3903
802.78	3922
802.923	3926
803.065	3884
803.208	3835
803.35	3876
803.492	3907
803.635	3941
803.777	3797
803.919	3915
804.061	4139
804.204	3964
804.346	3945
804.488	3960
804.63	4002
804.773	3979
804.915	4006
805.057	4105
805.199	4036
805.341	4040
805.483	4135
805.626	4131
805.768	4128
805.91	4185
806.052	4268
806.194	4158
806.336	4333
806.478	4234
806.62	4166
806.762	4196
806.904	4227
807.046	4314
807.188	4185
807.33	4169
807.472	4215
807.614	4196
807.756	4227
807.898	4169
808.04	4230
808.182	4268
808.324	4303
808.465	4379
808.607	4459
808.749	4424
808.891	4424
809.033	4512
809.174	4394
809.316	4227
809.458	4249
809.6	4177
809.741	4082
809.883	4150
810.025	4162
810.166	4196
810.308	4234
810.45	4230
810.591	4219
810.733	4280
810.875	4531
811.016	4820
811.158	5162
811.299	5273
811.441	5322
811.582	5018
811.724	4710
811.865	4474
812.007	4466
812.148	4413
812.29	4390
812.431	4405
812.573	4402
812.714	4386
812.855	4379
812.997	4386
813.138	4474
813.279	4409
813.421	4413
813.562	4379
813.703	4310
813.845	4272
813.986	4223
814.127	4185
814.268	4318
814.41	4268
814.551	4242
814.692	4318
814.833	4238
814.974	4299
815.115	4333
815.256	4268
815.397	4204
815.539	4230
815.68	4230
815.821	4223
815.962	4261
816.103	4261
816.244	4238
816.385	4223
816.526	4272
816.666	4215
816.807	4067
816.948	4177
817.089	4192
817.23	4109
817.371	4063
817.512	4059
817.653	4101
817.793	4010
817.934	4059
818.075	4101
818.216	4097
818.356	4055
818.497	3975
818.638	3892
818.778	3896
818.919	3911
819.06	3819
819.2	3911
819.341	3857
819.481	3873
819.622	3880
819.762	4036
819.903	3956
820.043	3850
820.184	3816
820.324	3785
820.465	3854
820.605	3838
820.746	3808
820.886	3812
821.026	3907
821.167	3907
821.307	3983
821.447	3972
821.588	3945
821.728	3968
821.868	3911
822.008	3835
822.149	3903
822.289	3918
822.429	3770
822.569	3785
822.709	3774
822.849	3690
822.99	3709
823.13	3766
823.27	3759
823.41	3736
823.55	3732
823.69	3740
823.83	3698
823.97	3671
824.11	3587
824.25	3610
824.389	3629
824.529	3682
824.669	3637
824.809	3686
824.949	3740
825.089	3686
825.228	3698
825.368	3568
825.508	3523
825.648	3557
825.787	3584
825.927	3633
826.067	3587
826.206	3671
826.346	3755
826.485	3850
826.625	3835
826.765	3918
826.904	3846
827.044	3603
827.183	3526
827.323	3412
827.462	3473
827.601	3409
827.741	3416
827.88	3439
828.02	3393
828.159	3443
828.298	3481
828.437	3504
828.577	3431
828.716	3587
828.855	3481
828.994	3382
829.134	3370
829.273	3393
829.412	3340
829.551	3329
829.69	3367
829.829	3397
829.968	3507
830.107	3435
830.246	3428
830.385	3393
830.524	3382
830.663	3294
830.802	3253
830.941	3195
831.08	3203
831.219	3291
831.357	3268
831.496	3428
831.635	3253
831.774	3180
831.913	3188
832.051	3123
832.19	3157
832.329	3184
832.467	3108
832.606	3100
832.744	3131
832.883	3188
833.022	3188
833.16	3275
833.299	3268
833.437	3306
833.576	3374
833.714	3409
833.852	3439
833.991	3416
834.129	3447
834.267	3439
834.406	3389
834.544	3439
834.682	3428
834.821	3416
834.959	3538
835.097	3447
835.235	3515
835.373	3454
835.511	3492
835.65	3458
835.788	3496
835.926	3405
836.064	3386
836.202	3374
836.34	3538
836.478	3576
836.615	3515
836.753	3603
836.891	3591
837.029	3572
837.167	3584
837.305	3580
837.443	3485
837.58	3492
837.718	3603
837.856	3542
837.993	3523
838.131	3625
838.269	3580
838.406	3618
838.544	3549
838.681	3435
838.819	3447
838.956	3393
839.094	3401
839.231	3439
839.369	3511
839.506	3724
839.643	3614
839.781	3542
839.918	3458
840.055	3511
840.193	3564
840.33	3576
840.467	3519
840.604	3542
840.742	3800
840.879	3545
841.016	3576
841.153	3587
841.29	3743
841.427	3660
841.564	3667
841.701	3793
841.838	3694
841.975	3652
842.112	3728
842.249	3625
842.385	3614
842.522	3823
842.659	3686
842.796	3667
842.933	3652
843.069	3690
843.206	3705
843.343	3785
843.479	3766
843.616	3785
843.752	3652
843.889	3690
844.025	3846
844.162	3682
844.298	3816
844.435	3785
844.571	3797
844.708	3934
844.844	3960
844.98	3960
845.117	4006
845.253	3922
845.389	3899
845.525	3979
845.661	3953
845.798	3903
845.934	3972
846.07	3979
846.206	4006
846.342	4112
846.478	4059
846.614	3979
846.75	3972
846.886	3903
847.022	4010
847.158	3994
847.294	3975
847.429	4051
847.565	3975
847.701	4188
847.837	3846
847.972	3884
848.108	3979
848.244	3987
848.379	3865
848.515	3804
848.65	3808
848.786	3800
848.921	3857
849.057	3972
849.192	3975
849.328	3865
849.463	3907
849.598	3888
849.734	3884
849.869	3816
850.004	3755
850.14	3812
850.275	3793
850.41	3709
850.545	3724
850.68	3755
850.815	3800
850.95	3789
851.085	3937
851.22	3846
851.355	3835
851.49	3766
851.625	3819
851.76	3831
851.895	3724
852.03	3732
852.165	3770
852.299	3861
852.434	3861
852.569	3850
852.703	3865
852.838	3896
852.973	3983
853.107	3975
853.242	3888
853.376	3846
853.511	3778
853.645	3804
853.78	3934
853.914	3892
854.048	3873
854.183	3896
854.317	3911
854.451	4097
854.585	3937
854.72	3918
854.854	4044
854.988	3911
855.122	4036
855.256	3937
855.39	4029
855.524	4097
855.658	4101
855.792	4109
855.926	4109
856.06	4173
856.194	4238
856.327	4147
856.461	4093
856.595	4166
856.729	4109
856.862	4299
856.996	4238
857.13	4265
857.263	4341
857.397	4341
857.53	4325
857.664	4367
857.797	4363
857.931	4470
858.064	4383
858.197	4466
858.331	4371
858.464	4379
858.597	4352
858.731	4421
858.864	4402
858.997	4474
859.13	4497
859.263	4531
859.396	4634
859.529	4535
859.662	4577
859.795	4527
859.928	4580
860.061	4694
860.194	4683
860.327	4660
860.46	4672
860.592	4740
860.725	4759
860.858	4736
860.99	4710
861.123	4714
861.256	4710
861.388	4744
861.521	5345
861.653	4733
861.786	4725
861.918	4702
862.05	4740
862.183	4824
862.315	4877
862.447	4957
862.58	4862
862.712	4790
862.844	4755
862.976	4873
863.108	4854
863.24	5189
863.372	4839
863.504	4923
863.636	4896
863.768	4976
863.9	4927
864.032	4889
864.164	4938
864.296	5041
864.428	5041
864.559	5136
864.691	5086
864.823	5117
864.954	5090
865.086	5189
865.217	5075
865.349	5090
865.48	5159
865.612	5212
865.743	5277
865.875	5185
866.006	5178
866.137	5204
866.269	5254
866.4	5220
866.531	5223
866.662	5189
866.793	5220
866.924	5303
867.055	5269
867.186	5345
867.317	5360
867.448	5311
867.579	5353
867.71	5364
867.841	5349
867.972	5436
868.103	5452
868.233	5463
868.364	5535
868.495	5493
868.625	5638
868.756	5748
868.886	5672
869.017	5710
869.147	5851
869.278	5855
869.408	5805
869.539	5847
869.669	5950
869.799	5923
869.929	5939
870.06	6019
870.19	6167
870.32	6201
870.45	6247
870.58	6334
870.71	6433
870.84	6490
870.97	6399
871.1	6433
871.23	6627
871.36	6662
871.489	6635
871.619	6787
871.749	6798
871.879	6871
872.008	6954
872.138	6951
872.267	6954
872.397	7000
872.526	7072
872.656	7046
872.785	7179
872.915	7373
873.044	7514
873.173	7575
873.303	7613
873.432	7765
873.561	7845
873.69	7917
873.819	7978
873.948	8180
874.077	8263
874.206	8298
874.335	8400
874.464	8735
874.593	8910
874.722	8990
874.851	9116
874.979	9253
875.108	9382
875.237	9428
875.365	9428
875.494	9644
875.623	9884
875.751	9854
875.88	9911
876.008	10173
876.136	10257
876.265	10421
876.393	10725
876.521	10694
876.65	10816
876.778	10797
876.906	10873
877.034	10976
877.162	11151
877.29	11204
877.418	11261
877.546	11326
877.674	11490
877.802	11452
877.93	11516
878.058	11573
878.185	11592
878.313	11665
878.441	11790
878.568	11634
878.696	11809
878.824	11802
878.951	12041
879.079	12106
879.206	12186
879.333	12007
879.461	11954
879.588	12152
879.715	12079
879.842	12190
879.97	12057
880.097	11889
880.224	11988
880.351	11954
880.478	11813
880.605	11904
880.732	11836
880.859	12007
880.986	11786
881.112	11775
881.239	11718
881.366	11638
881.493	11524
881.619	11551
881.746	11528
881.872	11585
881.999	11486
882.125	11467
882.252	11505
882.378	11524
882.505	11554
882.631	11292
882.757	11273
882.883	11349
883.01	11242
883.136	11181
883.262	11143
883.388	11083
883.514	11155
883.64	11159
883.766	11052
883.892	10980
884.018	10972
884.143	11014
884.269	11090
884.395	10858
884.52	10774
884.646	10767
884.772	10740
884.897	10656
885.023	10687
885.148	10740
885.274	10717
885.399	10698
885.524	10660
885.65	10645
885.775	10573
885.9	10535
886.025	10626
886.15	10599
886.275	10538
886.4	10386
886.525	10318
886.65	10371
886.775	10325
886.9	10447
887.025	10538
887.149	10367
887.274	10242
887.399	10207
887.523	10207
887.648	10196
887.773	10112
887.897	10249
888.021	10181
888.146	10131
888.27	10109
888.395	10124
888.519	10090
888.643	10169
888.767	10196
888.891	10097
889.015	10013
889.139	10090
889.263	9979
889.387	10067
889.511	10116
889.635	10010
889.759	9987
889.883	9991
890.006	10021
890.13	10071
890.254	9922
890.377	9892
890.501	9876
890.624	9888
890.748	9956
890.871	9785
890.995	9740
891.118	9652
891.241	9785
891.364	9694
891.488	9808
891.611	9701
891.734	9804
891.857	9823
891.98	9713
892.103	9804
892.226	9644
892.349	9629
892.471	9534
892.594	9545
892.717	9610
892.839	9584
892.962	9614
893.085	9625
893.207	9572
893.33	9496
893.452	9519
893.575	9599
893.697	9439
893.819	9595
893.941	9591
894.064	9622
894.186	9447
894.308	9454
894.43	9523
894.552	9557
894.674	9580
894.796	9329
894.918	9332
895.04	9298
895.161	9294
895.283	9329
895.405	9199
895.526	9329
895.648	9195
895.769	9230
895.891	9256
896.012	9222
896.134	9272
896.255	9119
896.376	9123
896.498	9192
896.619	9070
896.74	9009
896.861	9085
896.982	9192
897.103	9332
897.224	9157
897.345	9127
897.466	8982
897.587	8982
897.708	8998
897.828	9009
897.949	8948
898.07	8880
898.19	8910
898.311	8986
898.431	8823
898.552	8929
898.672	8872
898.792	8944
898.913	8914
899.033	8754
899.153	8800
899.273	8655
899.393	8796
899.513	8769
899.633	8731
899.753	8743
899.873	8686
899.993	8758
900.113	8625
900.232	8686
900.352	8659
900.472	8598
900.591	8575
900.711	8629
900.83	8488
900.95	8731
901.069	8651
901.189	8556
901.308	8438
901.427	8377
901.546	8450
901.665	8457
901.784	8450
901.904	8351
902.023	8374
902.141	8214
902.26	8161
902.379	8282
902.498	8164
902.617	8218
902.735	8305
902.854	8267
902.973	8324
903.091	8149
903.21	8123
903.328	8191
903.446	8157
903.565	8016
903.683	8134
903.801	8050
903.919	8172
904.038	8142
904.156	8065
904.274	8168
904.392	8050
904.51	8065
904.627	8050
904.745	8027
904.863	8092
904.981	7951
905.098	7955
905.216	7807
905.334	7833
905.451	7909
905.569	7871
905.686	7833
905.803	7921
905.921	7784
906.038	7890
906.155	7792
906.272	7681
906.389	7746
906.506	7655
906.623	7666
906.74	7590
906.857	7578
906.974	7597
907.091	7658
907.208	7670
907.324	7685
907.441	7575
907.557	7457
907.674	7502
907.79	7373
907.907	7392
908.023	7464
908.139	7316
908.256	7377
908.372	7362
908.488	7327
908.604	7213
908.72	7221
908.836	7225
908.952	7209
909.068	7221
909.184	7221
909.3	7232
909.415	7301
909.531	7236
909.647	7156
909.762	7133
909.878	7114
909.993	7099
910.108	7152
910.224	7149
910.339	7095
910.454	7023
910.57	6996
910.685	6951
910.8	7187
910.915	7118
911.03	6989
911.145	6890
911.259	6875
911.374	6882
911.489	6840
911.604	6806
911.718	6627
911.833	6722
911.947	6688
912.062	6612
912.176	6654
912.291	6753
912.405	6658
912.519	6787
912.633	6825
912.748	6776
912.862	6711
912.976	6601
913.09	6502
913.204	6563
913.318	6597
913.431	6604
913.545	6658
913.659	6700
913.772	6601
913.886	6563
914	6559
914.113	6604
914.226	6654
914.34	6601
914.453	6490
914.566	6555
914.68	6540
914.793	6483
914.906	6388
915.019	6475
915.132	6365
915.245	6448
915.358	6445
915.47	6418
915.583	6407
915.696	6407
915.809	6532
915.921	6570
916.034	6403
916.146	6414
916.259	6376
916.371	6445
916.483	6422
916.595	6391
916.708	6418
916.82	6407
916.932	6365
917.044	6441
917.156	6342
917.268	6338
917.38	6376
917.491	6418
917.603	6369
917.715	6410
917.826	6452
917.938	6334
918.049	6300
918.161	6388
918.272	6448
918.384	6407
918.495	6319
918.606	6266
918.717	6266
918.828	6262
918.939	6247
919.05	6239
919.161	6201
919.272	6083
919.383	6216
919.494	6296
919.604	6437
919.715	6251
919.826	6167
919.936	6258
920.047	6285
920.157	6235
920.267	6486
920.378	6289
920.488	6262
920.598	6471
920.708	6540
920.818	6441
920.928	6426
921.038	6582
921.148	6563
921.258	6403
921.368	6353
921.477	6186
921.587	6171
921.697	6068
921.806	6148
921.916	6041
922.025	5939
922.134	5923
922.244	5893
922.353	5954
922.462	5847
922.571	5748
922.68	5710
922.789	5672
922.898	5668
923.007	5596
923.116	5741
923.224	5668
923.333	5668
923.442	5615
923.55	5577
923.659	5573
923.767	5558
923.876	5497
923.984	5604
924.092	5524
924.201	5516
924.309	5509
924.417	5505
924.525	5505
924.633	5493
924.741	6281
924.849	5299
924.956	5490
925.064	5360
925.172	5284
925.279	5265
925.387	5326
925.494	5311
925.602	5433
925.709	5368
925.816	5318
925.924	5334
926.031	5337
926.138	5250
926.245	5349
926.352	5197
926.459	5357
926.566	5273
926.673	5227
926.779	5105
926.886	5113
926.993	4972
927.099	4968
927.206	5006
927.312	4896
927.419	5003
927.525	4965
927.631	4972
927.737	4892
927.843	4831
927.95	4790
928.056	4767
928.162	4801
928.267	4801
928.373	5277
928.479	4847
928.585	4687
928.69	4801
928.796	4805
928.901	4603
929.007	4641
929.112	4649
929.218	4649
929.323	4592
929.428	4527
929.533	4637
929.638	4470
929.743	4508
929.848	4558
929.953	4489
930.058	4462
930.163	4291
930.267	4363
930.372	4447
930.477	4318
930.581	4447
930.685	4390
930.79	4257
930.894	4234
930.998	4253
931.103	4402
931.207	4090
931.311	4067
931.415	3983
931.519	3896
931.623	3922
