Data from glass_V78500241_164.txt Node
Date: Wed Sep 01 19:15:38 CST 2021
User: usil
Spectrometer: V785-0024
Trigger mode: 0
Integration Time (sec): 4.000000E-1
Scans to average: 1
Nonlinearity correction enabled: false
Boxcar width: 0
Storing dark spectrum: false
XAxis mode: Wavelengths
Number of Pixels in Spectrum: 1024
>>>>>Begin Spectral Data<<<<<
801.071	3751
801.214	3732
801.356	3751
801.499	3747
801.641	3740
801.783	3800
801.926	3873
802.068	3861
802.211	3850
802.353	3880
802.496	3854
802.638	3899
802.78	3888
802.923	3960
803.065	3922
803.208	3846
803.35	3907
803.492	3873
803.635	3941
803.777	3804
803.919	3972
804.061	4181
804.204	3994
804.346	3945
804.488	3941
804.63	4055
804.773	4002
804.915	4044
805.057	4158
805.199	4021
805.341	4112
805.483	4162
805.626	4116
805.768	4139
805.91	4249
806.052	4261
806.194	4219
806.336	4383
806.478	4169
806.62	4166
806.762	4227
806.904	4268
807.046	4367
807.188	4246
807.33	4188
807.472	4268
807.614	4204
807.756	4325
807.898	4188
808.04	4215
808.182	4306
808.324	4383
808.465	4306
808.607	4489
808.749	4462
808.891	4455
809.033	4519
809.174	4409
809.316	4257
809.458	4234
809.6	4188
809.741	4158
809.883	4147
810.025	4192
810.166	4215
810.308	4272
810.45	4261
810.591	4265
810.733	4333
810.875	4516
811.016	4793
811.158	5124
811.299	5265
811.441	5265
811.582	5033
811.724	4736
811.865	4478
812.007	4443
812.148	4443
812.29	4440
812.431	4421
812.573	4436
812.714	4360
812.855	4417
812.997	4409
813.138	4481
813.279	4413
813.421	4398
813.562	4386
813.703	4363
813.845	4360
813.986	4249
814.127	4200
814.268	4257
814.41	4333
814.551	4268
814.692	4344
814.833	4272
814.974	4367
815.115	4367
815.256	4314
815.397	4265
815.539	4284
815.68	4185
815.821	4223
815.962	4318
816.103	4291
816.244	4242
816.385	4219
816.526	4314
816.666	4234
816.807	4124
816.948	4177
817.089	4200
817.23	4158
817.371	4090
817.512	4071
817.653	4082
817.793	4051
817.934	4116
818.075	4097
818.216	4090
818.356	4074
818.497	4025
818.638	3911
818.778	3960
818.919	3983
819.06	3850
819.2	3953
819.341	3915
819.481	3831
819.622	3960
819.762	4029
819.903	3960
820.043	3892
820.184	3835
820.324	3835
820.465	3884
820.605	3884
820.746	3869
820.886	3838
821.026	3926
821.167	3918
821.307	3949
821.447	3983
821.588	4002
821.728	3991
821.868	3949
822.008	3907
822.149	3896
822.289	3975
822.429	3808
822.569	3812
822.709	3789
822.849	3694
822.99	3736
823.13	3728
823.27	3804
823.41	3724
823.55	3774
823.69	3713
823.83	3774
823.97	3694
824.11	3584
824.25	3591
824.389	3660
824.529	3660
824.669	3637
824.809	3766
824.949	3743
825.089	3751
825.228	3709
825.368	3633
825.508	3603
825.648	3561
825.787	3656
825.927	3694
826.067	3648
826.206	3690
826.346	3838
826.485	3854
826.625	3884
826.765	3934
826.904	3846
827.044	3652
827.183	3576
827.323	3443
827.462	3504
827.601	3424
827.741	3443
827.88	3492
828.02	3370
828.159	3492
828.298	3473
828.437	3561
828.577	3443
828.716	3603
828.855	3523
828.994	3420
829.134	3386
829.273	3389
829.412	3370
829.551	3351
829.69	3389
829.829	3462
829.968	3538
830.107	3469
830.246	3458
830.385	3397
830.524	3378
830.663	3317
830.802	3249
830.941	3214
831.08	3222
831.219	3256
831.357	3294
831.496	3416
831.635	3249
831.774	3230
831.913	3192
832.051	3154
832.19	3150
832.329	3207
832.467	3108
832.606	3097
832.744	3146
832.883	3188
833.022	3218
833.16	3256
833.299	3340
833.437	3348
833.576	3409
833.714	3443
833.852	3462
833.991	3454
834.129	3488
834.267	3454
834.406	3435
834.544	3469
834.682	3450
834.821	3435
834.959	3603
835.097	3424
835.235	3530
835.373	3492
835.511	3572
835.65	3485
835.788	3492
835.926	3439
836.064	3397
836.202	3431
836.34	3625
836.478	3629
836.615	3572
836.753	3625
836.891	3633
837.029	3652
837.167	3587
837.305	3568
837.443	3557
837.58	3507
837.718	3606
837.856	3622
837.993	3545
838.131	3610
838.269	3587
838.406	3599
838.544	3606
838.681	3485
838.819	3450
838.956	3382
839.094	3420
839.231	3466
839.369	3534
839.506	3732
839.643	3633
839.781	3538
839.918	3515
840.055	3545
840.193	3557
840.33	3561
840.467	3587
840.604	3614
840.742	3831
840.879	3587
841.016	3599
841.153	3595
841.29	3762
841.427	3740
841.564	3743
841.701	3713
841.838	3694
841.975	3690
842.112	3736
842.249	3656
842.385	3656
842.522	3827
842.659	3713
842.796	3663
842.933	3690
843.069	3740
843.206	3724
843.343	3793
843.479	3808
843.616	3816
843.752	3656
843.889	3709
844.025	3903
844.162	3743
844.298	3846
844.435	3804
844.571	3808
844.708	3915
844.844	3991
844.98	4029
845.117	4044
845.253	3949
845.389	3907
845.525	3945
845.661	3983
845.798	3899
845.934	4006
846.07	3983
846.206	4044
846.342	4162
846.478	4101
846.614	4017
846.75	3987
846.886	3930
847.022	4067
847.158	3998
847.294	4029
847.429	4029
847.565	4002
847.701	4234
847.837	3892
847.972	3903
848.108	4006
848.244	3941
848.379	3899
848.515	3835
848.65	3816
848.786	3808
848.921	3907
849.057	3934
849.192	3945
849.328	3918
849.463	3899
849.598	3907
849.734	3915
849.869	3873
850.004	3789
850.14	3850
850.275	3800
850.41	3747
850.545	3808
850.68	3804
850.815	3812
850.95	3816
851.085	3934
851.22	3857
851.355	3831
851.49	3842
851.625	3819
851.76	3819
851.895	3720
852.03	3728
852.165	3827
852.299	3854
852.434	3888
852.569	3899
852.703	3907
852.838	3945
852.973	4036
853.107	4036
853.242	3892
853.376	3857
853.511	3808
853.645	3846
853.78	4006
853.914	3949
854.048	3903
854.183	3899
854.317	3998
854.451	4139
854.585	3975
854.72	3956
854.854	4044
854.988	3960
855.122	3991
855.256	3949
855.39	4063
855.524	4090
855.658	4097
855.792	4090
855.926	4116
856.06	4192
856.194	4192
856.327	4154
856.461	4128
856.595	4166
856.729	4211
856.862	4310
856.996	4230
857.13	4322
857.263	4344
857.397	4417
857.53	4303
857.664	4322
857.797	4421
857.931	4409
858.064	4413
858.197	4451
858.331	4417
858.464	4413
858.597	4333
858.731	4470
858.864	4462
858.997	4512
859.13	4512
859.263	4569
859.396	4622
859.529	4550
859.662	4569
859.795	4546
859.928	4603
860.061	4687
860.194	4797
860.327	4630
860.46	4725
860.592	4744
860.725	4801
860.858	4778
860.99	4744
861.123	4691
861.256	4694
861.388	4801
861.521	5444
861.653	4755
861.786	4778
861.918	4774
862.05	4793
862.183	4835
862.315	4904
862.447	4911
862.58	4896
862.712	4786
862.844	4812
862.976	4870
863.108	4889
863.24	5296
863.372	4843
863.504	4889
863.636	4919
863.768	5010
863.9	4938
864.032	4923
864.164	4995
864.296	5010
864.428	5121
864.559	5109
864.691	5105
864.823	5147
864.954	5117
865.086	5159
865.217	5094
865.349	5140
865.48	5216
865.612	5162
865.743	5360
865.875	5143
866.006	5189
866.137	5273
866.269	5235
866.4	5239
866.531	5254
866.662	5220
866.793	5292
866.924	5334
867.055	5376
867.186	5318
867.317	5326
867.448	5376
867.579	5372
867.71	5383
867.841	5402
867.972	5505
868.103	5532
868.233	5474
868.364	5547
868.495	5581
868.625	5657
868.756	5813
868.886	5699
869.017	5729
869.147	5920
869.278	5847
869.408	5824
869.539	5885
869.669	5908
869.799	5901
869.929	6011
870.06	6003
870.19	6243
870.32	6247
870.45	6292
870.58	6346
870.71	6426
870.84	6464
870.97	6460
871.1	6445
871.23	6738
871.36	6719
871.489	6673
871.619	6741
871.749	6856
871.879	6863
872.008	6958
872.138	6985
872.267	7004
872.397	7008
872.526	7122
872.656	7122
872.785	7236
872.915	7434
873.044	7559
873.173	7537
873.303	7696
873.432	7795
873.561	7875
873.69	7902
873.819	8062
873.948	8199
874.077	8301
874.206	8370
874.335	8442
874.464	8632
874.593	8834
874.722	8971
874.851	9165
874.979	9241
875.108	9378
875.237	9443
875.365	9431
875.494	9717
875.623	9838
875.751	9831
875.88	9949
876.008	10143
876.136	10246
876.265	10531
876.393	10767
876.521	10793
876.65	10843
876.778	10828
876.906	10908
877.034	11029
877.162	11033
877.29	11140
877.418	11296
877.546	11410
877.674	11520
877.802	11471
877.93	11516
878.058	11448
878.185	11539
878.313	11668
878.441	11798
878.568	11642
878.696	11771
878.824	11893
878.951	11920
879.079	12041
879.206	12182
879.333	12038
879.461	11973
879.588	12079
879.715	12117
879.842	12243
879.97	11996
880.097	11874
880.224	11916
880.351	11908
880.478	11874
880.605	11832
880.732	11836
880.859	12003
880.986	11729
881.112	11859
881.239	11710
881.366	11608
881.493	11630
881.619	11486
881.746	11638
881.872	11627
881.999	11452
882.125	11455
882.252	11554
882.378	11471
882.505	11627
882.631	11414
882.757	11296
882.883	11303
883.01	11212
883.136	11083
883.262	11132
883.388	11124
883.514	11170
883.64	11208
883.766	11052
883.892	11025
884.018	10911
884.143	11052
884.269	11109
884.395	10908
884.52	10748
884.646	10805
884.772	10767
884.897	10687
885.023	10664
885.148	10691
885.274	10717
885.399	10778
885.524	10675
885.65	10645
885.775	10649
885.9	10584
886.025	10611
886.15	10519
886.275	10481
886.4	10402
886.525	10394
886.65	10402
886.775	10379
886.9	10493
887.025	10596
887.149	10379
887.274	10295
887.399	10265
887.523	10188
887.648	10219
887.773	10124
887.897	10223
888.021	10242
888.146	10116
888.27	10207
888.395	10238
888.519	10150
888.643	10109
888.767	10166
888.891	10048
889.015	10036
889.139	10051
889.263	10101
889.387	10120
889.511	10090
889.635	10078
889.759	10006
889.883	10002
890.006	9998
890.13	10135
890.254	9911
890.377	10013
890.501	9865
890.624	9975
890.748	9888
890.871	9823
890.995	9751
891.118	9743
891.241	9743
891.364	9770
891.488	9793
891.611	9869
891.734	9732
891.857	9823
891.98	9732
892.103	9759
892.226	9724
892.349	9743
892.471	9587
892.594	9576
892.717	9595
892.839	9637
892.962	9671
893.085	9606
893.207	9694
893.33	9534
893.452	9591
893.575	9641
893.697	9545
893.819	9618
893.941	9572
894.064	9523
894.186	9466
894.308	9405
894.43	9519
894.552	9663
894.674	9568
894.796	9382
894.918	9393
895.04	9397
895.161	9332
895.283	9363
895.405	9260
895.526	9241
895.648	9275
895.769	9237
895.891	9310
896.012	9325
896.134	9237
896.255	9218
896.376	9173
896.498	9184
896.619	9119
896.74	9131
896.861	9100
896.982	9310
897.103	9344
897.224	9173
897.345	9116
897.466	9024
897.587	9032
897.708	9085
897.828	9051
897.949	8918
898.07	8887
898.19	8925
898.311	9055
898.431	8937
898.552	8998
898.672	8982
898.792	8994
898.913	8956
899.033	8804
899.153	8834
899.273	8625
899.393	8663
899.513	8739
899.633	8826
899.753	8750
899.873	8682
899.993	8731
900.113	8678
900.232	8712
900.352	8682
900.472	8621
900.591	8568
900.711	8621
900.83	8587
900.95	8716
901.069	8701
901.189	8617
901.308	8503
901.427	8408
901.546	8427
901.665	8434
901.784	8518
901.904	8374
902.023	8385
902.141	8229
902.26	8259
902.379	8237
902.498	8229
902.617	8237
902.735	8248
902.854	8233
902.973	8259
903.091	8145
903.21	8126
903.328	8142
903.446	8065
903.565	8092
903.683	8100
903.801	8058
903.919	8195
904.038	8145
904.156	8012
904.274	8123
904.392	8073
904.51	8123
904.627	8100
904.745	8138
904.863	8111
904.981	7917
905.098	7871
905.216	7906
905.334	7921
905.451	7837
905.569	7890
905.686	7978
905.803	7932
905.921	7753
906.038	7849
906.155	7807
906.272	7734
906.389	7780
906.506	7636
906.623	7601
906.74	7578
906.857	7525
906.974	7616
907.091	7647
907.208	7784
907.324	7647
907.441	7609
907.557	7514
907.674	7457
907.79	7441
907.907	7430
908.023	7369
908.139	7472
908.256	7407
908.372	7320
908.488	7335
908.604	7289
908.72	7312
908.836	7251
908.952	7206
909.068	7232
909.184	7316
909.3	7316
909.415	7285
909.531	7335
909.647	7183
909.762	7122
909.878	7122
909.993	7217
910.108	7050
910.224	7133
910.339	7076
910.454	7065
910.57	7069
910.685	6958
910.8	7217
910.915	7122
911.03	7042
911.145	6928
911.259	6905
911.374	6947
911.489	6859
911.604	6905
911.718	6749
911.833	6772
911.947	6654
912.062	6669
912.176	6654
912.291	6673
912.405	6703
912.519	6814
912.633	6856
912.748	6768
912.862	6768
912.976	6608
913.09	6582
913.204	6555
913.318	6551
913.431	6700
913.545	6749
913.659	6684
913.772	6654
913.886	6585
914	6506
914.113	6627
914.226	6654
914.34	6582
914.453	6467
914.566	6574
914.68	6551
914.793	6585
914.906	6486
915.019	6407
915.132	6384
915.245	6422
915.358	6452
915.47	6471
915.583	6540
915.696	6498
915.809	6532
915.921	6559
916.034	6395
916.146	6414
916.259	6391
916.371	6475
916.483	6490
916.595	6395
916.708	6334
916.82	6414
916.932	6369
917.044	6365
917.156	6365
917.268	6270
917.38	6376
917.491	6334
917.603	6334
917.715	6403
917.826	6426
917.938	6323
918.049	6277
918.161	6338
918.272	6452
918.384	6471
918.495	6369
918.606	6273
918.717	6277
918.828	6239
918.939	6292
919.05	6232
919.161	6251
919.272	6068
919.383	6178
919.494	6289
919.604	6422
919.715	6281
919.826	6258
919.936	6311
920.047	6361
920.157	6292
920.267	6521
920.378	6308
920.488	6304
920.598	6521
920.708	6597
920.818	6426
920.928	6498
921.038	6646
921.148	6616
921.258	6361
921.368	6331
921.477	6270
921.587	6190
921.697	6019
921.806	6201
921.916	6144
922.025	5996
922.134	5927
922.244	5901
922.353	5923
922.462	5874
922.571	5874
922.68	5779
922.789	5737
922.898	5733
923.007	5642
923.116	5726
923.224	5756
923.333	5707
923.442	5634
923.55	5570
923.659	5558
923.767	5634
923.876	5623
923.984	5638
924.092	5497
924.201	5600
924.309	5600
924.417	5596
924.525	5528
924.633	5589
924.741	6136
924.849	5376
924.956	5448
925.064	5322
925.172	5376
925.279	5299
925.387	5341
925.494	5349
925.602	5402
925.709	5379
925.816	5299
925.924	5368
926.031	5402
926.138	5299
926.245	5353
926.352	5220
926.459	5349
926.566	5349
926.673	5216
926.779	5132
926.886	5159
926.993	5041
927.099	5033
927.206	4984
927.312	4968
927.419	5022
927.525	4999
927.631	4995
927.737	4892
927.843	4873
927.95	4782
928.056	4801
928.162	4790
928.267	4889
928.373	5421
928.479	4877
928.585	4656
928.69	4763
928.796	4733
928.901	4721
929.007	4599
929.112	4702
929.218	4649
929.323	4649
929.428	4550
929.533	4691
929.638	4573
929.743	4516
929.848	4531
929.953	4538
930.058	4500
930.163	4325
930.267	4337
930.372	4436
930.477	4329
930.581	4504
930.685	4383
930.79	4318
930.894	4276
930.998	4268
931.103	4383
931.207	4147
931.311	4093
931.415	4044
931.519	3941
931.623	3926
