Data from glass_V78500241_1564.txt Node
Date: Wed Sep 01 19:25:20 CST 2021
User: usil
Spectrometer: V785-0024
Trigger mode: 0
Integration Time (sec): 4.000000E-1
Scans to average: 1
Nonlinearity correction enabled: false
Boxcar width: 0
Storing dark spectrum: false
XAxis mode: Wavelengths
Number of Pixels in Spectrum: 1024
>>>>>Begin Spectral Data<<<<<
801.071	3759
801.214	3720
801.356	3720
801.499	3793
801.641	3709
801.783	3800
801.926	3876
802.068	3808
802.211	3835
802.353	3892
802.496	3812
802.638	3922
802.78	3945
802.923	3899
803.065	3873
803.208	3854
803.35	3857
803.492	3903
803.635	3896
803.777	3766
803.919	3857
804.061	4112
804.204	3964
804.346	3934
804.488	3903
804.63	4032
804.773	3975
804.915	4010
805.057	4143
805.199	4040
805.341	4090
805.483	4116
805.626	4147
805.768	4120
805.91	4204
806.052	4257
806.194	4196
806.336	4367
806.478	4196
806.62	4173
806.762	4177
806.904	4272
807.046	4295
807.188	4238
807.33	4204
807.472	4261
807.614	4181
807.756	4242
807.898	4173
808.04	4230
808.182	4348
808.324	4303
808.465	4409
808.607	4462
808.749	4432
808.891	4447
809.033	4489
809.174	4371
809.316	4261
809.458	4227
809.6	4109
809.741	4169
809.883	4135
810.025	4238
810.166	4238
810.308	4246
810.45	4234
810.591	4207
810.733	4299
810.875	4512
811.016	4820
811.158	5128
811.299	5277
811.441	5280
811.582	5056
811.724	4714
811.865	4489
812.007	4478
812.148	4436
812.29	4390
812.431	4413
812.573	4363
812.714	4394
812.855	4417
812.997	4451
813.138	4421
813.279	4409
813.421	4398
813.562	4405
813.703	4299
813.845	4322
813.986	4291
814.127	4223
814.268	4257
814.41	4268
814.551	4306
814.692	4322
814.833	4246
814.974	4341
815.115	4318
815.256	4276
815.397	4196
815.539	4268
815.68	4219
815.821	4238
815.962	4280
816.103	4325
816.244	4215
816.385	4196
816.526	4257
816.666	4215
816.807	4128
816.948	4185
817.089	4207
817.23	4166
817.371	4063
817.512	4048
817.653	4082
817.793	4044
817.934	4055
818.075	4120
818.216	4067
818.356	4105
818.497	4017
818.638	3949
818.778	3873
818.919	3861
819.06	3896
819.2	3964
819.341	3903
819.481	3838
819.622	3892
819.762	4010
819.903	3941
820.043	3854
820.184	3823
820.324	3831
820.465	3880
820.605	3808
820.746	3838
820.886	3766
821.026	3918
821.167	3857
821.307	3975
821.447	3972
821.588	3983
821.728	3949
821.868	3926
822.008	3892
822.149	3896
822.289	3915
822.429	3816
822.569	3789
822.709	3793
822.849	3633
822.99	3728
823.13	3789
823.27	3793
823.41	3732
823.55	3728
823.69	3732
823.83	3743
823.97	3709
824.11	3606
824.25	3580
824.389	3652
824.529	3713
824.669	3652
824.809	3717
824.949	3766
825.089	3740
825.228	3717
825.368	3557
825.508	3576
825.648	3542
825.787	3618
825.927	3622
826.067	3614
826.206	3671
826.346	3804
826.485	3800
826.625	3884
826.765	3926
826.904	3819
827.044	3603
827.183	3553
827.323	3420
827.462	3439
827.601	3409
827.741	3409
827.88	3462
828.02	3348
828.159	3454
828.298	3496
828.437	3534
828.577	3492
828.716	3603
828.855	3515
828.994	3363
829.134	3351
829.273	3344
829.412	3321
829.551	3325
829.69	3397
829.829	3431
829.968	3488
830.107	3500
830.246	3435
830.385	3386
830.524	3393
830.663	3317
830.802	3230
830.941	3184
831.08	3188
831.219	3241
831.357	3275
831.496	3397
831.635	3237
831.774	3207
831.913	3226
832.051	3112
832.19	3173
832.329	3230
832.467	3142
832.606	3150
832.744	3188
832.883	3146
833.022	3226
833.16	3272
833.299	3306
833.437	3378
833.576	3363
833.714	3443
833.852	3454
833.991	3454
834.129	3466
834.267	3424
834.406	3397
834.544	3389
834.682	3443
834.821	3420
834.959	3587
835.097	3428
835.235	3526
835.373	3485
835.511	3511
835.65	3462
835.788	3485
835.926	3386
836.064	3348
836.202	3393
836.34	3568
836.478	3576
836.615	3523
836.753	3568
836.891	3622
837.029	3637
837.167	3584
837.305	3545
837.443	3496
837.58	3526
837.718	3637
837.856	3523
837.993	3526
838.131	3584
838.269	3606
838.406	3614
838.544	3603
838.681	3496
838.819	3462
838.956	3359
839.094	3382
839.231	3458
839.369	3507
839.506	3724
839.643	3572
839.781	3466
839.918	3473
840.055	3542
840.193	3553
840.33	3526
840.467	3568
840.604	3591
840.742	3808
840.879	3568
841.016	3557
841.153	3576
841.29	3755
841.427	3720
841.564	3705
841.701	3732
841.838	3698
841.975	3663
842.112	3713
842.249	3625
842.385	3633
842.522	3861
842.659	3652
842.796	3652
842.933	3740
843.069	3686
843.206	3663
843.343	3812
843.479	3785
843.616	3827
843.752	3663
843.889	3690
844.025	3842
844.162	3690
844.298	3831
844.435	3808
844.571	3797
844.708	3903
844.844	3956
844.98	3987
845.117	4017
845.253	3934
845.389	3896
845.525	3972
845.661	3968
845.798	3922
845.934	4029
846.07	3926
846.206	4078
846.342	4124
846.478	4055
846.614	4029
846.75	3987
846.886	3873
847.022	4044
847.158	3972
847.294	3983
847.429	3991
847.565	3972
847.701	4215
847.837	3937
847.972	3880
848.108	3991
848.244	3975
848.379	3827
848.515	3755
848.65	3812
848.786	3823
848.921	3861
849.057	3869
849.192	3930
849.328	3918
849.463	3918
849.598	3941
849.734	3865
849.869	3854
850.004	3785
850.14	3835
850.275	3781
850.41	3781
850.545	3740
850.68	3762
850.815	3797
850.95	3781
851.085	3960
851.22	3892
851.355	3816
851.49	3785
851.625	3781
851.76	3827
851.895	3720
852.03	3755
852.165	3789
852.299	3857
852.434	3934
852.569	3869
852.703	3873
852.838	3979
852.973	3968
853.107	3960
853.242	3884
853.376	3835
853.511	3774
853.645	3823
853.78	3945
853.914	3880
854.048	3907
854.183	3854
854.317	3934
854.451	4078
854.585	3956
854.72	3934
854.854	4059
854.988	3953
855.122	3987
855.256	3911
855.39	3994
855.524	4090
855.658	4086
855.792	4093
855.926	4143
856.06	4147
856.194	4215
856.327	4105
856.461	4135
856.595	4177
856.729	4173
856.862	4295
856.996	4200
857.13	4265
857.263	4348
857.397	4360
857.53	4257
857.664	4383
857.797	4402
857.931	4432
858.064	4417
858.197	4440
858.331	4383
858.464	4421
858.597	4333
858.731	4436
858.864	4417
858.997	4508
859.13	4451
859.263	4519
859.396	4569
859.529	4516
859.662	4550
859.795	4516
859.928	4588
860.061	4729
860.194	4725
860.327	4664
860.46	4656
860.592	4717
860.725	4755
860.858	4801
860.99	4675
861.123	4672
861.256	4725
861.388	4767
861.521	5535
861.653	4717
861.786	4668
861.918	4744
862.05	4828
862.183	4850
862.315	4900
862.447	4961
862.58	4843
862.712	4801
862.844	4790
862.976	4866
863.108	4877
863.24	5296
863.372	4816
863.504	4877
863.636	4896
863.768	4946
863.9	4976
864.032	4908
864.164	4946
864.296	5064
864.428	5079
864.559	5105
864.691	5117
864.823	5162
864.954	5147
865.086	5159
865.217	5136
865.349	5159
865.48	5136
865.612	5155
865.743	5261
865.875	5174
866.006	5136
866.137	5246
866.269	5239
866.4	5265
866.531	5246
866.662	5220
866.793	5273
866.924	5265
867.055	5330
867.186	5284
867.317	5345
867.448	5345
867.579	5292
867.71	5383
867.841	5299
867.972	5505
868.103	5471
868.233	5482
868.364	5509
868.495	5474
868.625	5649
868.756	5764
868.886	5630
869.017	5760
869.147	5828
869.278	5870
869.408	5771
869.539	5851
869.669	5889
869.799	5920
869.929	6026
870.06	6015
870.19	6148
870.32	6201
870.45	6216
870.58	6407
870.71	6422
870.84	6467
870.97	6429
871.1	6399
871.23	6631
871.36	6734
871.489	6593
871.619	6749
871.749	6795
871.879	6833
872.008	6962
872.138	7023
872.267	7034
872.397	6989
872.526	7015
872.656	7076
872.785	7175
872.915	7407
873.044	7487
873.173	7594
873.303	7715
873.432	7685
873.561	7913
873.69	7902
873.819	8001
873.948	8172
874.077	8244
874.206	8259
874.335	8454
874.464	8640
874.593	8750
874.722	9039
874.851	9131
874.979	9207
875.108	9401
875.237	9374
875.365	9545
875.494	9717
875.623	9781
875.751	9899
875.88	9918
876.008	10097
876.136	10318
876.265	10622
876.393	10698
876.521	10721
876.65	10919
876.778	10820
876.906	10866
877.034	10896
877.162	11010
877.29	11128
877.418	11303
877.546	11322
877.674	11337
877.802	11459
877.93	11554
878.058	11509
878.185	11589
878.313	11623
878.441	11786
878.568	11627
878.696	11775
878.824	11771
878.951	12038
879.079	11977
879.206	12114
879.333	12072
879.461	11965
879.588	12148
879.715	12064
879.842	12175
879.97	12129
880.097	11904
880.224	11889
880.351	11969
880.478	11980
880.605	11863
880.732	11802
880.859	11965
880.986	11741
881.112	11824
881.239	11764
881.366	11642
881.493	11592
881.619	11558
881.746	11600
881.872	11478
881.999	11577
882.125	11505
882.252	11623
882.378	11478
882.505	11497
882.631	11395
882.757	11242
882.883	11296
883.01	11280
883.136	11254
883.262	11117
883.388	11117
883.514	11166
883.64	11197
883.766	11132
883.892	10965
884.018	10987
884.143	11090
884.269	11090
884.395	10820
884.52	10801
884.646	10812
884.772	10782
884.897	10679
885.023	10683
885.148	10828
885.274	10801
885.399	10683
885.524	10645
885.65	10573
885.775	10584
885.9	10451
886.025	10538
886.15	10535
886.275	10508
886.4	10386
886.525	10344
886.65	10367
886.775	10287
886.9	10440
887.025	10561
887.149	10295
887.274	10272
887.399	10143
887.523	10166
887.648	10192
887.773	10059
887.897	10200
888.021	10200
888.146	10143
888.27	10246
888.395	10207
888.519	10158
888.643	10227
888.767	10169
888.891	10086
889.015	10006
889.139	10044
889.263	9979
889.387	10078
889.511	10169
889.635	10128
889.759	9934
889.883	10002
890.006	9994
890.13	10143
890.254	9953
890.377	9956
890.501	9873
890.624	9922
890.748	9831
890.871	9842
890.995	9774
891.118	9755
891.241	9663
891.364	9766
891.488	9789
891.611	9797
891.734	9762
891.857	9793
891.98	9774
892.103	9755
892.226	9751
892.349	9584
892.471	9511
892.594	9603
892.717	9610
892.839	9587
892.962	9576
893.085	9679
893.207	9561
893.33	9542
893.452	9515
893.575	9584
893.697	9542
893.819	9618
893.941	9633
894.064	9622
894.186	9416
894.308	9450
894.43	9485
894.552	9580
894.674	9530
894.796	9378
894.918	9435
895.04	9359
895.161	9393
895.283	9389
895.405	9184
895.526	9230
895.648	9180
895.769	9233
895.891	9306
896.012	9253
896.134	9241
896.255	9135
896.376	9043
896.498	9085
896.619	9150
896.74	9058
896.861	9051
896.982	9241
897.103	9306
897.224	9085
897.345	8998
897.466	8994
897.587	9085
897.708	9066
897.828	8986
897.949	8902
898.07	8891
898.19	8971
898.311	9043
898.431	8842
898.552	8910
898.672	8963
898.792	9028
898.913	8910
899.033	8815
899.153	8686
899.273	8739
899.393	8777
899.513	8781
899.633	8735
899.753	8731
899.873	8758
899.993	8766
900.113	8716
900.232	8697
900.352	8667
900.472	8556
900.591	8522
900.711	8568
900.83	8621
900.95	8678
901.069	8724
901.189	8568
901.308	8415
901.427	8431
901.546	8427
901.665	8492
901.784	8507
901.904	8381
902.023	8301
902.141	8149
902.26	8142
902.379	8286
902.498	8180
902.617	8195
902.735	8290
902.854	8336
902.973	8240
903.091	8168
903.21	8123
903.328	8172
903.446	8145
903.565	8077
903.683	8130
903.801	8043
903.919	8172
904.038	8130
904.156	7982
904.274	8039
904.392	7986
904.51	8027
904.627	8012
904.745	8027
904.863	8126
904.981	7864
905.098	7883
905.216	7822
905.334	7906
905.451	7887
905.569	7879
905.686	7898
905.803	7856
905.921	7811
906.038	7818
906.155	7837
906.272	7693
906.389	7696
906.506	7674
906.623	7575
906.74	7578
906.857	7518
906.974	7597
907.091	7651
907.208	7753
907.324	7696
907.441	7567
907.557	7529
907.674	7483
907.79	7403
907.907	7358
908.023	7483
908.139	7415
908.256	7331
908.372	7346
908.488	7297
908.604	7255
908.72	7244
908.836	7308
908.952	7217
909.068	7308
909.184	7289
909.3	7282
909.415	7324
909.531	7282
909.647	7145
909.762	7164
909.878	7103
909.993	7091
910.108	7065
910.224	7095
910.339	7084
910.454	7057
910.57	7031
910.685	7000
910.8	7187
910.915	7095
911.03	7038
911.145	6882
911.259	6939
911.374	6882
911.489	6909
911.604	6886
911.718	6726
911.833	6711
911.947	6734
912.062	6612
912.176	6681
912.291	6711
912.405	6662
912.519	6814
912.633	6871
912.748	6764
912.862	6738
912.976	6623
913.09	6551
913.204	6551
913.318	6570
913.431	6635
913.545	6654
913.659	6772
913.772	6627
913.886	6589
914	6582
914.113	6589
914.226	6650
914.34	6574
914.453	6506
914.566	6623
914.68	6517
914.793	6544
914.906	6471
915.019	6342
915.132	6384
915.245	6391
915.358	6494
915.47	6407
915.583	6460
915.696	6433
915.809	6513
915.921	6525
916.034	6388
916.146	6414
916.259	6418
916.371	6536
916.483	6486
916.595	6498
916.708	6346
916.82	6437
916.932	6422
917.044	6384
917.156	6361
917.268	6308
917.38	6357
917.491	6296
917.603	6357
917.715	6471
917.826	6422
917.938	6285
918.049	6239
918.161	6376
918.272	6350
918.384	6486
918.495	6391
918.606	6232
918.717	6247
918.828	6258
918.939	6289
919.05	6228
919.161	6296
919.272	6121
919.383	6175
919.494	6285
919.604	6388
919.715	6254
919.826	6239
919.936	6197
920.047	6296
920.157	6270
920.267	6456
920.378	6308
920.488	6266
920.598	6456
920.708	6494
920.818	6521
920.928	6486
921.038	6536
921.148	6589
921.258	6334
921.368	6277
921.477	6216
921.587	6178
921.697	6083
921.806	6159
921.916	6102
922.025	5935
922.134	5973
922.244	5870
922.353	5958
922.462	5855
922.571	5817
922.68	5767
922.789	5646
922.898	5756
923.007	5672
923.116	5665
923.224	5684
923.333	5653
923.442	5615
923.55	5592
923.659	5558
923.767	5611
923.876	5512
923.984	5611
924.092	5493
924.201	5585
924.309	5509
924.417	5551
924.525	5444
924.633	5421
924.741	6076
924.849	5387
924.956	5463
925.064	5444
925.172	5322
925.279	5326
925.387	5341
925.494	5376
925.602	5429
925.709	5383
925.816	5280
925.924	5277
926.031	5372
926.138	5326
926.245	5315
926.352	5181
926.459	5341
926.566	5345
926.673	5166
926.779	5166
926.886	5151
926.993	5067
927.099	4976
927.206	5041
927.312	4919
927.419	5014
927.525	4968
927.631	4972
927.737	4908
927.843	4870
927.95	4748
928.056	4771
928.162	4790
928.267	4850
928.373	5357
928.479	4835
928.585	4710
928.69	4748
928.796	4748
928.901	4675
929.007	4630
929.112	4679
929.218	4649
929.323	4641
929.428	4546
929.533	4740
929.638	4531
929.743	4519
929.848	4615
929.953	4512
930.058	4459
930.163	4318
930.267	4284
930.372	4451
930.477	4322
930.581	4485
930.685	4333
930.79	4242
930.894	4272
930.998	4257
931.103	4379
931.207	4139
931.311	4029
931.415	4051
931.519	3941
931.623	3937
