Data from glass_V78500241_2751.txt Node
Date: Wed Sep 01 19:33:34 CST 2021
User: usil
Spectrometer: V785-0024
Trigger mode: 0
Integration Time (sec): 4.000000E-1
Scans to average: 1
Nonlinearity correction enabled: false
Boxcar width: 0
Storing dark spectrum: false
XAxis mode: Wavelengths
Number of Pixels in Spectrum: 1024
>>>>>Begin Spectral Data<<<<<
801.071	3694
801.214	3793
801.356	3698
801.499	3751
801.641	3728
801.783	3778
801.926	3854
802.068	3842
802.211	3823
802.353	3869
802.496	3819
802.638	3873
802.78	3888
802.923	3899
803.065	3873
803.208	3819
803.35	3880
803.492	3880
803.635	3922
803.777	3808
803.919	3846
804.061	4086
804.204	3956
804.346	3949
804.488	3937
804.63	4032
804.773	3941
804.915	3975
805.057	4109
805.199	4025
805.341	4059
805.483	4097
805.626	4109
805.768	4105
805.91	4169
806.052	4207
806.194	4211
806.336	4310
806.478	4166
806.62	4150
806.762	4177
806.904	4227
807.046	4287
807.188	4154
807.33	4196
807.472	4238
807.614	4207
807.756	4230
807.898	4162
808.04	4162
808.182	4257
808.324	4363
808.465	4390
808.607	4424
808.749	4402
808.891	4436
809.033	4443
809.174	4375
809.316	4253
809.458	4253
809.6	4131
809.741	4131
809.883	4124
810.025	4196
810.166	4242
810.308	4219
810.45	4230
810.591	4215
810.733	4268
810.875	4512
811.016	4793
811.158	5075
811.299	5292
811.441	5254
811.582	5041
811.724	4694
811.865	4478
812.007	4413
812.148	4421
812.29	4466
812.431	4402
812.573	4352
812.714	4363
812.855	4341
812.997	4360
813.138	4462
813.279	4459
813.421	4371
813.562	4379
813.703	4303
813.845	4333
813.986	4234
814.127	4234
814.268	4230
814.41	4261
814.551	4219
814.692	4325
814.833	4246
814.974	4276
815.115	4348
815.256	4227
815.397	4227
815.539	4272
815.68	4173
815.821	4207
815.962	4261
816.103	4246
816.244	4249
816.385	4227
816.526	4303
816.666	4200
816.807	4112
816.948	4169
817.089	4177
817.23	4093
817.371	4059
817.512	4036
817.653	4078
817.793	4002
817.934	4017
818.075	4139
818.216	4055
818.356	4059
818.497	3979
818.638	3903
818.778	3915
818.919	3903
819.06	3861
819.2	3869
819.341	3865
819.481	3850
819.622	3918
819.762	4017
819.903	3922
820.043	3857
820.184	3842
820.324	3819
820.465	3835
820.605	3854
820.746	3896
820.886	3774
821.026	3960
821.167	3915
821.307	3968
821.447	3941
821.588	3937
821.728	3934
821.868	3880
822.008	3873
822.149	3903
822.289	3907
822.429	3743
822.569	3774
822.709	3778
822.849	3686
822.99	3728
823.13	3759
823.27	3778
823.41	3724
823.55	3690
823.69	3663
823.83	3724
823.97	3679
824.11	3584
824.25	3622
824.389	3644
824.529	3629
824.669	3629
824.809	3648
824.949	3778
825.089	3667
825.228	3686
825.368	3557
825.508	3545
825.648	3530
825.787	3603
825.927	3603
826.067	3595
826.206	3629
826.346	3766
826.485	3831
826.625	3831
826.765	3915
826.904	3797
827.044	3591
827.183	3492
827.323	3431
827.462	3500
827.601	3416
827.741	3401
827.88	3443
828.02	3344
828.159	3458
828.298	3469
828.437	3526
828.577	3488
828.716	3568
828.855	3511
828.994	3363
829.134	3340
829.273	3389
829.412	3287
829.551	3313
829.69	3348
829.829	3409
829.968	3492
830.107	3428
830.246	3393
830.385	3348
830.524	3332
830.663	3283
830.802	3253
830.941	3180
831.08	3203
831.219	3233
831.357	3256
831.496	3382
831.635	3218
831.774	3161
831.913	3176
832.051	3112
832.19	3100
832.329	3203
832.467	3154
832.606	3097
832.744	3176
832.883	3180
833.022	3146
833.16	3218
833.299	3268
833.437	3302
833.576	3336
833.714	3389
833.852	3389
833.991	3439
834.129	3492
834.267	3416
834.406	3370
834.544	3416
834.682	3420
834.821	3412
834.959	3568
835.097	3450
835.235	3511
835.373	3462
835.511	3488
835.65	3428
835.788	3473
835.926	3378
836.064	3374
836.202	3374
836.34	3576
836.478	3584
836.615	3542
836.753	3557
836.891	3671
837.029	3599
837.167	3591
837.305	3542
837.443	3530
837.58	3534
837.718	3603
837.856	3519
837.993	3496
838.131	3584
838.269	3534
838.406	3584
838.544	3519
838.681	3424
838.819	3435
838.956	3363
839.094	3374
839.231	3409
839.369	3492
839.506	3686
839.643	3603
839.781	3492
839.918	3458
840.055	3515
840.193	3507
840.33	3488
840.467	3595
840.604	3614
840.742	3800
840.879	3557
841.016	3561
841.153	3610
841.29	3709
841.427	3705
841.564	3709
841.701	3747
841.838	3671
841.975	3667
842.112	3667
842.249	3557
842.385	3652
842.522	3831
842.659	3682
842.796	3667
842.933	3641
843.069	3652
843.206	3690
843.343	3781
843.479	3778
843.616	3789
843.752	3652
843.889	3682
844.025	3842
844.162	3698
844.298	3838
844.435	3793
844.571	3774
844.708	3876
844.844	3983
844.98	3956
845.117	3972
845.253	3930
845.389	3896
845.525	3941
845.661	3945
845.798	3953
845.934	3983
846.07	3930
846.206	4036
846.342	4120
846.478	4051
846.614	3918
846.75	3918
846.886	3888
847.022	4032
847.158	3937
847.294	4021
847.429	4029
847.565	3987
847.701	4181
847.837	3880
847.972	3888
848.108	3960
848.244	3949
848.379	3823
848.515	3808
848.65	3831
848.786	3838
848.921	3804
849.057	3896
849.192	3918
849.328	3865
849.463	3880
849.598	3831
849.734	3854
849.869	3804
850.004	3720
850.14	3797
850.275	3740
850.41	3736
850.545	3770
850.68	3736
850.815	3781
850.95	3785
851.085	3899
851.22	3838
851.355	3793
851.49	3751
851.625	3770
851.76	3793
851.895	3717
852.03	3759
852.165	3785
852.299	3842
852.434	3854
852.569	3861
852.703	3857
852.838	3937
852.973	3991
853.107	3983
853.242	3865
853.376	3793
853.511	3766
853.645	3823
853.78	3934
853.914	3854
854.048	3899
854.183	3812
854.317	3922
854.451	4044
854.585	3915
854.72	3953
854.854	4040
854.988	3945
855.122	3941
855.256	3873
855.39	3998
855.524	4090
855.658	4116
855.792	4120
855.926	4067
856.06	4154
856.194	4192
856.327	4131
856.461	4109
856.595	4135
856.729	4154
856.862	4246
856.996	4215
857.13	4306
857.263	4227
857.397	4356
857.53	4314
857.664	4375
857.797	4383
857.931	4413
858.064	4421
858.197	4455
858.331	4360
858.464	4405
858.597	4363
858.731	4443
858.864	4466
858.997	4470
859.13	4531
859.263	4519
859.396	4603
859.529	4508
859.662	4500
859.795	4489
859.928	4542
860.061	4687
860.194	4679
860.327	4660
860.46	4653
860.592	4744
860.725	4725
860.858	4736
860.99	4694
861.123	4649
861.256	4653
861.388	4767
861.521	5254
861.653	4725
861.786	4698
861.918	4725
862.05	4801
862.183	4835
862.315	4873
862.447	4930
862.58	4885
862.712	4752
862.844	4752
862.976	4873
863.108	4908
863.24	5223
863.372	4816
863.504	4858
863.636	4870
863.768	5003
863.9	4911
864.032	4911
864.164	4972
864.296	4995
864.428	5071
864.559	5105
864.691	5136
864.823	5090
864.954	5086
865.086	5159
865.217	5086
865.349	5102
865.48	5170
865.612	5193
865.743	5269
865.875	5220
866.006	5189
866.137	5227
866.269	5239
866.4	5246
866.531	5223
866.662	5216
866.793	5242
866.924	5311
867.055	5345
867.186	5337
867.317	5303
867.448	5265
867.579	5353
867.71	5322
867.841	5376
867.972	5414
868.103	5406
868.233	5452
868.364	5490
868.495	5463
868.625	5657
868.756	5771
868.886	5714
869.017	5722
869.147	5889
869.278	5832
869.408	5798
869.539	5821
869.669	5912
869.799	5786
869.929	5977
870.06	6003
870.19	6106
870.32	6171
870.45	6194
870.58	6304
870.71	6338
870.84	6437
870.97	6369
871.1	6456
871.23	6658
871.36	6669
871.489	6669
871.619	6753
871.749	6760
871.879	6825
872.008	6989
872.138	7008
872.267	7004
872.397	6996
872.526	7012
872.656	7072
872.785	7221
872.915	7339
873.044	7521
873.173	7537
873.303	7556
873.432	7776
873.561	7849
873.69	7856
873.819	7997
873.948	8111
874.077	8298
874.206	8309
874.335	8423
874.464	8689
874.593	8838
874.722	8933
874.851	9085
874.979	9218
875.108	9386
875.237	9431
875.365	9458
875.494	9622
875.623	9831
875.751	9857
875.88	9918
876.008	10169
876.136	10303
876.265	10432
876.393	10645
876.521	10736
876.65	10816
876.778	10911
876.906	10881
877.034	11003
877.162	11159
877.29	11071
877.418	11303
877.546	11337
877.674	11391
877.802	11425
877.93	11589
878.058	11532
878.185	11516
878.313	11642
878.441	11710
878.568	11501
878.696	11775
878.824	11828
878.951	11946
879.079	12045
879.206	12068
879.333	12022
879.461	11988
879.588	12007
879.715	12076
879.842	12121
879.97	12057
880.097	11824
880.224	11786
880.351	11866
880.478	11885
880.605	11889
880.732	11783
880.859	11923
880.986	11760
881.112	11851
881.239	11714
881.366	11722
881.493	11634
881.619	11497
881.746	11490
881.872	11463
881.999	11478
882.125	11444
882.252	11528
882.378	11501
882.505	11509
882.631	11406
882.757	11265
882.883	11353
883.01	11250
883.136	11258
883.262	11181
883.388	11071
883.514	11102
883.64	11083
883.766	11098
883.892	10972
884.018	10984
884.143	11094
884.269	11162
884.395	10858
884.52	10752
884.646	10717
884.772	10675
884.897	10622
885.023	10744
885.148	10725
885.274	10691
885.399	10721
885.524	10630
885.65	10523
885.775	10546
885.9	10504
886.025	10596
886.15	10497
886.275	10470
886.4	10398
886.525	10363
886.65	10394
886.775	10291
886.9	10519
887.025	10485
887.149	10371
887.274	10211
887.399	10101
887.523	10200
887.648	10071
887.773	10101
887.897	10188
888.021	10249
888.146	10131
888.27	10196
888.395	10150
888.519	10196
888.643	10188
888.767	10219
888.891	10071
889.015	9949
889.139	10017
889.263	9956
889.387	10025
889.511	10059
889.635	9972
889.759	9945
889.883	9934
890.006	9960
890.13	10078
890.254	9907
890.377	9930
890.501	9793
890.624	9838
890.748	9895
890.871	9736
890.995	9747
891.118	9785
891.241	9774
891.364	9774
891.488	9842
891.611	9720
891.734	9720
891.857	9732
891.98	9690
892.103	9766
892.226	9747
892.349	9671
892.471	9523
892.594	9572
892.717	9606
892.839	9572
892.962	9542
893.085	9686
893.207	9519
893.33	9534
893.452	9595
893.575	9618
893.697	9428
893.819	9622
893.941	9622
894.064	9690
894.186	9408
894.308	9351
894.43	9473
894.552	9500
894.674	9519
894.796	9359
894.918	9355
895.04	9332
895.161	9378
895.283	9317
895.405	9226
895.526	9222
895.648	9264
895.769	9264
895.891	9127
896.012	9268
896.134	9176
896.255	9112
896.376	9150
896.498	9150
896.619	9165
896.74	9066
896.861	9108
896.982	9207
897.103	9313
897.224	9184
897.345	9089
897.466	9028
897.587	9051
897.708	9100
897.828	9013
897.949	8952
898.07	8887
898.19	8895
898.311	8952
898.431	8933
898.552	8815
898.672	8906
898.792	8960
898.913	8902
899.033	8693
899.153	8750
899.273	8651
899.393	8682
899.513	8746
899.633	8693
899.753	8682
899.873	8617
899.993	8731
900.113	8724
900.232	8735
900.352	8632
900.472	8590
900.591	8492
900.711	8575
900.83	8476
900.95	8670
901.069	8701
901.189	8552
901.308	8408
901.427	8355
901.546	8385
901.665	8393
901.784	8511
901.904	8415
902.023	8347
902.141	8206
902.26	8233
902.379	8263
902.498	8214
902.617	8153
902.735	8248
902.854	8309
902.973	8259
903.091	8100
903.21	8145
903.328	8161
903.446	8115
903.565	8069
903.683	8024
903.801	8046
903.919	8153
904.038	8134
904.156	7989
904.274	8073
904.392	7993
904.51	8046
904.627	8016
904.745	8039
904.863	8145
904.981	7906
905.098	7845
905.216	7765
905.334	7925
905.451	7970
905.569	7826
905.686	7898
905.803	7890
905.921	7753
906.038	7883
906.155	7799
906.272	7689
906.389	7655
906.506	7632
906.623	7624
906.74	7556
906.857	7556
906.974	7552
907.091	7666
907.208	7693
907.324	7605
907.441	7571
907.557	7476
907.674	7438
907.79	7400
907.907	7438
908.023	7434
908.139	7384
908.256	7316
908.372	7331
908.488	7365
908.604	7213
908.72	7206
908.836	7247
908.952	7263
909.068	7301
909.184	7289
909.3	7194
909.415	7335
909.531	7263
909.647	7103
909.762	7050
909.878	7072
909.993	7080
910.108	7126
910.224	7080
910.339	7015
910.454	7046
910.57	7004
910.685	7004
910.8	7194
910.915	7110
911.03	7069
911.145	6894
911.259	6840
911.374	6890
911.489	6848
911.604	6818
911.718	6711
911.833	6753
911.947	6677
912.062	6623
912.176	6696
912.291	6631
912.405	6684
912.519	6749
912.633	6802
912.748	6662
912.862	6738
912.976	6563
913.09	6494
913.204	6589
913.318	6578
913.431	6711
913.545	6707
913.659	6760
913.772	6616
913.886	6502
914	6544
914.113	6688
914.226	6593
914.34	6544
914.453	6452
914.566	6555
914.68	6479
914.793	6555
914.906	6426
915.019	6399
915.132	6380
915.245	6414
915.358	6395
915.47	6365
915.583	6460
915.696	6410
915.809	6475
915.921	6551
916.034	6365
916.146	6422
916.259	6353
916.371	6471
916.483	6445
916.595	6369
916.708	6429
916.82	6331
916.932	6353
917.044	6376
917.156	6361
917.268	6361
917.38	6384
917.491	6277
917.603	6311
917.715	6369
917.826	6407
917.938	6331
918.049	6224
918.161	6300
918.272	6369
918.384	6403
918.495	6300
918.606	6201
918.717	6190
918.828	6258
918.939	6258
919.05	6175
919.161	6201
919.272	6053
919.383	6213
919.494	6213
919.604	6357
919.715	6239
919.826	6159
919.936	6270
920.047	6334
920.157	6209
920.267	6418
920.378	6308
920.488	6247
920.598	6429
920.708	6506
920.818	6479
920.928	6521
921.038	6513
921.148	6559
921.258	6315
921.368	6277
921.477	6213
921.587	6140
921.697	6026
921.806	6167
921.916	6049
922.025	5897
922.134	5901
922.244	5878
922.353	5969
922.462	5844
922.571	5855
922.68	5733
922.789	5661
922.898	5699
923.007	5661
923.116	5718
923.224	5672
923.333	5657
923.442	5589
923.55	5535
923.659	5551
923.767	5665
923.876	5554
923.984	5573
924.092	5509
924.201	5554
924.309	5532
924.417	5539
924.525	5463
924.633	5459
924.741	6194
924.849	5379
924.956	5467
925.064	5360
925.172	5299
925.279	5315
925.387	5334
925.494	5303
925.602	5421
925.709	5349
925.816	5235
925.924	5277
926.031	5299
926.138	5235
926.245	5368
926.352	5159
926.459	5311
926.566	5292
926.673	5204
926.779	5090
926.886	5105
926.993	4987
927.099	4984
927.206	4934
927.312	4953
927.419	5010
927.525	4968
927.631	4987
927.737	4843
927.843	4858
927.95	4748
928.056	4786
928.162	4835
928.267	4885
928.373	5337
928.479	4850
928.585	4660
928.69	4778
928.796	4717
928.901	4721
929.007	4508
929.112	4668
929.218	4615
929.323	4573
929.428	4569
929.533	4611
929.638	4493
929.743	4478
929.848	4569
929.953	4516
930.058	4409
930.163	4344
930.267	4299
930.372	4440
930.477	4246
930.581	4497
930.685	4371
930.79	4230
930.894	4306
930.998	4265
931.103	4386
931.207	4109
931.311	4029
931.415	3994
931.519	3884
931.623	3956
