Data from glass_V78500241_2587.txt Node
Date: Wed Sep 01 19:32:26 CST 2021
User: usil
Spectrometer: V785-0024
Trigger mode: 0
Integration Time (sec): 4.000000E-1
Scans to average: 1
Nonlinearity correction enabled: false
Boxcar width: 0
Storing dark spectrum: false
XAxis mode: Wavelengths
Number of Pixels in Spectrum: 1024
>>>>>Begin Spectral Data<<<<<
801.071	3728
801.214	3728
801.356	3720
801.499	3743
801.641	3686
801.783	3774
801.926	3838
802.068	3789
802.211	3846
802.353	3880
802.496	3869
802.638	3869
802.78	3880
802.923	3922
803.065	3918
803.208	3854
803.35	3873
803.492	3915
803.635	3907
803.777	3774
803.919	3876
804.061	4139
804.204	3987
804.346	3983
804.488	3941
804.63	4051
804.773	3979
804.915	4017
805.057	4131
805.199	4044
805.341	4059
805.483	4128
805.626	4116
805.768	4112
805.91	4200
806.052	4223
806.194	4173
806.336	4348
806.478	4188
806.62	4124
806.762	4215
806.904	4196
807.046	4272
807.188	4188
807.33	4131
807.472	4234
807.614	4207
807.756	4280
807.898	4177
808.04	4246
808.182	4268
808.324	4318
808.465	4348
808.607	4409
808.749	4451
808.891	4413
809.033	4478
809.174	4386
809.316	4227
809.458	4242
809.6	4169
809.741	4143
809.883	4105
810.025	4211
810.166	4223
810.308	4181
810.45	4196
810.591	4303
810.733	4280
810.875	4466
811.016	4839
811.158	5155
811.299	5288
811.441	5223
811.582	5086
811.724	4687
811.865	4413
812.007	4436
812.148	4428
812.29	4421
812.431	4436
812.573	4386
812.714	4360
812.855	4363
812.997	4432
813.138	4527
813.279	4428
813.421	4360
813.562	4348
813.703	4268
813.845	4314
813.986	4268
814.127	4166
814.268	4295
814.41	4325
814.551	4249
814.692	4363
814.833	4253
814.974	4329
815.115	4341
815.256	4242
815.397	4207
815.539	4207
815.68	4188
815.821	4188
815.962	4318
816.103	4253
816.244	4249
816.385	4230
816.526	4272
816.666	4196
816.807	4105
816.948	4173
817.089	4139
817.23	4109
817.371	4109
817.512	4063
817.653	4086
817.793	4055
817.934	4040
818.075	4112
818.216	4055
818.356	4097
818.497	3979
818.638	3911
818.778	3896
818.919	3926
819.06	3865
819.2	3892
819.341	3865
819.481	3876
819.622	3884
819.762	4017
819.903	3949
820.043	3876
820.184	3812
820.324	3804
820.465	3865
820.605	3831
820.746	3823
820.886	3835
821.026	3903
821.167	3926
821.307	3937
821.447	3949
821.588	3907
821.728	3903
821.868	3934
822.008	3865
822.149	3937
822.289	3934
822.429	3774
822.569	3717
822.709	3812
822.849	3701
822.99	3690
823.13	3759
823.27	3766
823.41	3679
823.55	3682
823.69	3694
823.83	3713
823.97	3720
824.11	3595
824.25	3572
824.389	3629
824.529	3641
824.669	3629
824.809	3698
824.949	3770
825.089	3720
825.228	3679
825.368	3576
825.508	3576
825.648	3568
825.787	3591
825.927	3580
826.067	3618
826.206	3675
826.346	3831
826.485	3850
826.625	3842
826.765	3884
826.904	3819
827.044	3633
827.183	3504
827.323	3439
827.462	3492
827.601	3431
827.741	3439
827.88	3412
828.02	3359
828.159	3485
828.298	3481
828.437	3500
828.577	3439
828.716	3523
828.855	3447
828.994	3374
829.134	3389
829.273	3382
829.412	3317
829.551	3310
829.69	3355
829.829	3416
829.968	3466
830.107	3462
830.246	3447
830.385	3340
830.524	3313
830.663	3283
830.802	3245
830.941	3188
831.08	3195
831.219	3222
831.357	3283
831.496	3397
831.635	3214
831.774	3180
831.913	3173
832.051	3119
832.19	3123
832.329	3157
832.467	3116
832.606	3089
832.744	3157
832.883	3180
833.022	3199
833.16	3264
833.299	3275
833.437	3313
833.576	3332
833.714	3443
833.852	3431
833.991	3382
834.129	3469
834.267	3409
834.406	3374
834.544	3431
834.682	3397
834.821	3428
834.959	3534
835.097	3416
835.235	3504
835.373	3485
835.511	3473
835.65	3439
835.788	3477
835.926	3412
836.064	3351
836.202	3409
836.34	3538
836.478	3599
836.615	3504
836.753	3603
836.891	3629
837.029	3652
837.167	3599
837.305	3576
837.443	3526
837.58	3519
837.718	3580
837.856	3534
837.993	3507
838.131	3595
838.269	3580
838.406	3568
838.544	3564
838.681	3481
838.819	3424
838.956	3363
839.094	3386
839.231	3447
839.369	3507
839.506	3724
839.643	3652
839.781	3485
839.918	3469
840.055	3561
840.193	3534
840.33	3488
840.467	3542
840.604	3599
840.742	3838
840.879	3553
841.016	3587
841.153	3614
841.29	3701
841.427	3698
841.564	3705
841.701	3717
841.838	3713
841.975	3671
842.112	3698
842.249	3633
842.385	3629
842.522	3823
842.659	3682
842.796	3705
842.933	3705
843.069	3698
843.206	3743
843.343	3781
843.479	3717
843.616	3789
843.752	3686
843.889	3694
844.025	3846
844.162	3694
844.298	3823
844.435	3774
844.571	3759
844.708	3941
844.844	3975
844.98	4002
845.117	3987
845.253	3911
845.389	3907
845.525	3937
845.661	3915
845.798	3960
845.934	4002
846.07	3915
846.206	4059
846.342	4150
846.478	4093
846.614	3960
846.75	3899
846.886	3915
847.022	4029
847.158	3945
847.294	3998
847.429	3998
847.565	3991
847.701	4223
847.837	3884
847.972	3838
848.108	3960
848.244	3956
848.379	3842
848.515	3785
848.65	3755
848.786	3842
848.921	3873
849.057	3903
849.192	3960
849.328	3903
849.463	3953
849.598	3827
849.734	3884
849.869	3819
850.004	3812
850.14	3831
850.275	3785
850.41	3724
850.545	3766
850.68	3766
850.815	3770
850.95	3762
851.085	3903
851.22	3869
851.355	3842
851.49	3751
851.625	3770
851.76	3800
851.895	3698
852.03	3720
852.165	3785
852.299	3838
852.434	3892
852.569	3854
852.703	3903
852.838	3907
852.973	3994
853.107	3979
853.242	3911
853.376	3854
853.511	3789
853.645	3838
853.78	3956
853.914	3857
854.048	3873
854.183	3922
854.317	3888
854.451	4036
854.585	3930
854.72	3911
854.854	4032
854.988	3888
855.122	3968
855.256	3903
855.39	3960
855.524	4131
855.658	4067
855.792	4120
855.926	4131
856.06	4139
856.194	4177
856.327	4124
856.461	4090
856.595	4116
856.729	4154
856.862	4246
856.996	4234
857.13	4299
857.263	4322
857.397	4325
857.53	4261
857.664	4363
857.797	4405
857.931	4379
858.064	4417
858.197	4421
858.331	4386
858.464	4386
858.597	4310
858.731	4417
858.864	4447
858.997	4424
859.13	4474
859.263	4561
859.396	4599
859.529	4527
859.662	4531
859.795	4523
859.928	4538
860.061	4660
860.194	4733
860.327	4645
860.46	4599
860.592	4733
860.725	4752
860.858	4763
860.99	4653
861.123	4694
861.256	4694
861.388	4767
861.521	5258
861.653	4660
861.786	4687
861.918	4694
862.05	4805
862.183	4839
862.315	4892
862.447	4957
862.58	4908
862.712	4748
862.844	4812
862.976	4858
863.108	4835
863.24	5155
863.372	4824
863.504	4854
863.636	4854
863.768	4987
863.9	4972
864.032	4889
864.164	4915
864.296	5033
864.428	5045
864.559	5094
864.691	5064
864.823	5128
864.954	5083
865.086	5170
865.217	5159
865.349	5098
865.48	5109
865.612	5132
865.743	5261
865.875	5155
866.006	5185
866.137	5212
866.269	5204
866.4	5231
866.531	5261
866.662	5216
866.793	5250
866.924	5250
867.055	5353
867.186	5322
867.317	5353
867.448	5372
867.579	5391
867.71	5383
867.841	5353
867.972	5486
868.103	5425
868.233	5455
868.364	5505
868.495	5512
868.625	5653
868.756	5821
868.886	5653
869.017	5729
869.147	5824
869.278	5859
869.408	5844
869.539	5809
869.669	5878
869.799	5904
869.929	6038
870.06	5996
870.19	6220
870.32	6213
870.45	6235
870.58	6384
870.71	6429
870.84	6391
870.97	6433
871.1	6460
871.23	6654
871.36	6635
871.489	6612
871.619	6711
871.749	6802
871.879	6863
872.008	6970
872.138	7012
872.267	6977
872.397	6993
872.526	7027
872.656	7103
872.785	7149
872.915	7305
873.044	7556
873.173	7567
873.303	7632
873.432	7700
873.561	7830
873.69	7898
873.819	7940
873.948	8180
874.077	8225
874.206	8366
874.335	8461
874.464	8712
874.593	8857
874.722	8952
874.851	9116
874.979	9249
875.108	9355
875.237	9348
875.365	9511
875.494	9671
875.623	9747
875.751	9800
875.88	9994
876.008	10177
876.136	10242
876.265	10451
876.393	10679
876.521	10763
876.65	10786
876.778	10908
876.906	10957
877.034	10976
877.162	11132
877.29	11124
877.418	11258
877.546	11360
877.674	11516
877.802	11455
877.93	11497
878.058	11577
878.185	11566
878.313	11646
878.441	11703
878.568	11668
878.696	11874
878.824	11847
878.951	11942
879.079	12068
879.206	12182
879.333	12049
879.461	12038
879.588	12102
879.715	12121
879.842	12167
879.97	12072
880.097	11958
880.224	11889
880.351	11958
880.478	11817
880.605	11863
880.732	11828
880.859	11977
880.986	11851
881.112	11828
881.239	11821
881.366	11623
881.493	11589
881.619	11570
881.746	11539
881.872	11581
881.999	11623
882.125	11337
882.252	11566
882.378	11524
882.505	11520
882.631	11474
882.757	11269
882.883	11296
883.01	11288
883.136	11124
883.262	11102
883.388	11098
883.514	11174
883.64	11174
883.766	11083
883.892	10991
884.018	10919
884.143	11064
884.269	11162
884.395	10843
884.52	10717
884.646	10752
884.772	10710
884.897	10675
885.023	10649
885.148	10668
885.274	10774
885.399	10672
885.524	10611
885.65	10675
885.775	10603
885.9	10542
886.025	10580
886.15	10504
886.275	10417
886.4	10337
886.525	10466
886.65	10371
886.775	10329
886.9	10474
887.025	10531
887.149	10379
887.274	10223
887.399	10147
887.523	10143
887.648	10169
887.773	10169
887.897	10276
888.021	10261
888.146	10128
888.27	10253
888.395	10196
888.519	10097
888.643	10154
888.767	10188
888.891	10036
889.015	10021
889.139	10139
889.263	9945
889.387	10074
889.511	10055
889.635	10051
889.759	9956
889.883	10013
890.006	9994
890.13	10116
890.254	10010
890.377	9968
890.501	9808
890.624	9827
890.748	9888
890.871	9819
890.995	9797
891.118	9789
891.241	9759
891.364	9759
891.488	9816
891.611	9686
891.734	9770
891.857	9774
891.98	9732
892.103	9717
892.226	9686
892.349	9614
892.471	9580
892.594	9633
892.717	9587
892.839	9526
892.962	9633
893.085	9656
893.207	9504
893.33	9496
893.452	9515
893.575	9584
893.697	9485
893.819	9618
893.941	9652
894.064	9625
894.186	9389
894.308	9367
894.43	9481
894.552	9507
894.674	9481
894.796	9386
894.918	9443
895.04	9340
895.161	9359
895.283	9378
895.405	9226
895.526	9264
895.648	9214
895.769	9184
895.891	9272
896.012	9268
896.134	9279
896.255	9165
896.376	9066
896.498	9150
896.619	9100
896.74	9032
896.861	9058
896.982	9241
897.103	9298
897.224	9192
897.345	9039
897.466	9036
897.587	9036
897.708	9058
897.828	9058
897.949	8921
898.07	8842
898.19	8918
898.311	8998
898.431	8868
898.552	8971
898.672	8925
898.792	8906
898.913	8956
899.033	8838
899.153	8693
899.273	8663
899.393	8731
899.513	8720
899.633	8720
899.753	8766
899.873	8663
899.993	8750
900.113	8625
900.232	8686
900.352	8590
900.472	8625
900.591	8598
900.711	8613
900.83	8541
900.95	8625
901.069	8705
901.189	8480
901.308	8446
901.427	8366
901.546	8419
901.665	8450
901.784	8499
901.904	8339
902.023	8279
902.141	8240
902.26	8202
902.379	8259
902.498	8221
902.617	8199
902.735	8271
902.854	8271
902.973	8244
903.091	8073
903.21	8176
903.328	8149
903.446	8088
903.565	8046
903.683	8126
903.801	8065
903.919	8123
904.038	8134
904.156	7986
904.274	8111
904.392	8020
904.51	8027
904.627	8031
904.745	8046
904.863	8069
904.981	7902
905.098	7868
905.216	7833
905.334	7845
905.451	7928
905.569	7909
905.686	7906
905.803	7940
905.921	7753
906.038	7803
906.155	7772
906.272	7712
906.389	7693
906.506	7605
906.623	7647
906.74	7571
906.857	7430
906.974	7582
907.091	7628
907.208	7658
907.324	7708
907.441	7616
907.557	7411
907.674	7518
907.79	7434
907.907	7381
908.023	7377
908.139	7400
908.256	7358
908.372	7316
908.488	7354
908.604	7320
908.72	7255
908.836	7202
908.952	7232
909.068	7255
909.184	7301
909.3	7255
909.415	7221
909.531	7209
909.647	7107
909.762	7122
909.878	7110
909.993	7118
910.108	7050
910.224	7053
910.339	7137
910.454	7034
910.57	6932
910.685	6970
910.8	7183
910.915	7084
911.03	7015
911.145	6939
911.259	6871
911.374	6856
911.489	6802
911.604	6772
911.718	6711
911.833	6726
911.947	6711
912.062	6601
912.176	6662
912.291	6639
912.405	6726
912.519	6837
912.633	6798
912.748	6677
912.862	6764
912.976	6585
913.09	6566
913.204	6593
913.318	6692
913.431	6677
913.545	6623
913.659	6673
913.772	6597
913.886	6540
914	6464
914.113	6612
914.226	6642
914.34	6627
914.453	6490
914.566	6627
914.68	6521
914.793	6574
914.906	6410
915.019	6422
915.132	6357
915.245	6384
915.358	6418
915.47	6483
915.583	6509
915.696	6448
915.809	6536
915.921	6498
916.034	6403
916.146	6361
916.259	6342
916.371	6456
916.483	6388
916.595	6399
916.708	6380
916.82	6426
916.932	6399
917.044	6350
917.156	6391
917.268	6296
917.38	6308
917.491	6292
917.603	6346
917.715	6369
917.826	6441
917.938	6311
918.049	6243
918.161	6300
918.272	6414
918.384	6414
918.495	6292
918.606	6258
918.717	6159
918.828	6194
918.939	6266
919.05	6182
919.161	6258
919.272	6030
919.383	6102
919.494	6277
919.604	6365
919.715	6292
919.826	6194
919.936	6209
920.047	6327
920.157	6235
920.267	6464
920.378	6323
920.488	6273
920.598	6403
920.708	6502
920.818	6486
920.928	6494
921.038	6627
921.148	6544
921.258	6357
921.368	6327
921.477	6136
921.587	6175
921.697	6015
921.806	6144
921.916	6076
922.025	5912
922.134	5870
922.244	5893
922.353	5916
922.462	5828
922.571	5817
922.68	5680
922.789	5707
922.898	5661
923.007	5672
923.116	5676
923.224	5661
923.333	5661
923.442	5604
923.55	5608
923.659	5558
923.767	5611
923.876	5532
923.984	5585
924.092	5516
924.201	5577
924.309	5516
924.417	5520
924.525	5478
924.633	5535
924.741	6209
924.849	5368
924.956	5478
925.064	5357
925.172	5280
925.279	5296
925.387	5322
925.494	5322
925.602	5410
925.709	5398
925.816	5246
925.924	5292
926.031	5326
926.138	5261
926.245	5326
926.352	5227
926.459	5315
926.566	5311
926.673	5204
926.779	5109
926.886	5128
926.993	5010
927.099	5022
927.206	4995
927.312	4915
927.419	5045
927.525	4957
927.631	4949
927.737	4870
927.843	4835
927.95	4733
928.056	4885
928.162	4881
928.267	4824
928.373	5204
928.479	4805
928.585	4672
928.69	4771
928.796	4774
928.901	4679
929.007	4558
929.112	4691
929.218	4592
929.323	4630
929.428	4550
929.533	4721
929.638	4527
929.743	4561
929.848	4516
929.953	4523
930.058	4421
930.163	4276
930.267	4371
930.372	4424
930.477	4276
930.581	4470
930.685	4375
930.79	4238
930.894	4272
930.998	4238
931.103	4394
931.207	4131
931.311	4078
931.415	4017
931.519	3934
931.623	3922
