Data from glass_V78500241_2714.txt Node
Date: Wed Sep 01 19:33:18 CST 2021
User: usil
Spectrometer: V785-0024
Trigger mode: 0
Integration Time (sec): 4.000000E-1
Scans to average: 1
Nonlinearity correction enabled: false
Boxcar width: 0
Storing dark spectrum: false
XAxis mode: Wavelengths
Number of Pixels in Spectrum: 1024
>>>>>Begin Spectral Data<<<<<
801.071	3705
801.214	3751
801.356	3644
801.499	3698
801.641	3686
801.783	3751
801.926	3797
802.068	3797
802.211	3816
802.353	3873
802.496	3850
802.638	3850
802.78	3842
802.923	3926
803.065	3876
803.208	3873
803.35	3854
803.492	3880
803.635	3873
803.777	3797
803.919	3896
804.061	4181
804.204	3922
804.346	3937
804.488	3873
804.63	4013
804.773	3994
804.915	4032
805.057	4124
805.199	4044
805.341	4090
805.483	4131
805.626	4112
805.768	4086
805.91	4200
806.052	4185
806.194	4181
806.336	4329
806.478	4249
806.62	4143
806.762	4139
806.904	4238
807.046	4363
807.188	4253
807.33	4154
807.472	4234
807.614	4188
807.756	4238
807.898	4207
808.04	4211
808.182	4257
808.324	4303
808.465	4333
808.607	4470
808.749	4443
808.891	4413
809.033	4523
809.174	4360
809.316	4265
809.458	4246
809.6	4131
809.741	4158
809.883	4139
810.025	4200
810.166	4192
810.308	4173
810.45	4188
810.591	4223
810.733	4261
810.875	4535
811.016	4778
811.158	5117
811.299	5322
811.441	5258
811.582	5086
811.724	4668
811.865	4493
812.007	4470
812.148	4390
812.29	4398
812.431	4402
812.573	4390
812.714	4325
812.855	4398
812.997	4344
813.138	4478
813.279	4413
813.421	4383
813.562	4379
813.703	4341
813.845	4333
813.986	4242
814.127	4207
814.268	4272
814.41	4265
814.551	4268
814.692	4306
814.833	4268
814.974	4341
815.115	4367
815.256	4196
815.397	4276
815.539	4261
815.68	4219
815.821	4223
815.962	4299
816.103	4299
816.244	4249
816.385	4196
816.526	4242
816.666	4158
816.807	4071
816.948	4166
817.089	4120
817.23	4105
817.371	4051
817.512	4002
817.653	4063
817.793	4017
817.934	4040
818.075	4082
818.216	4036
818.356	4105
818.497	4017
818.638	3903
818.778	3888
818.919	3861
819.06	3842
819.2	3915
819.341	3873
819.481	3857
819.622	3861
819.762	4036
819.903	3937
820.043	3850
820.184	3857
820.324	3819
820.465	3884
820.605	3873
820.746	3854
820.886	3774
821.026	3903
821.167	3865
821.307	3991
821.447	3945
821.588	3968
821.728	3930
821.868	3888
822.008	3831
822.149	3876
822.289	3896
822.429	3751
822.569	3736
822.709	3861
822.849	3732
822.99	3682
823.13	3743
823.27	3762
823.41	3713
823.55	3686
823.69	3694
823.83	3736
823.97	3660
824.11	3568
824.25	3606
824.389	3591
824.529	3667
824.669	3637
824.809	3720
824.949	3743
825.089	3743
825.228	3671
825.368	3580
825.508	3538
825.648	3557
825.787	3584
825.927	3656
826.067	3610
826.206	3644
826.346	3743
826.485	3838
826.625	3857
826.765	3960
826.904	3827
827.044	3576
827.183	3526
827.323	3401
827.462	3466
827.601	3409
827.741	3378
827.88	3435
828.02	3393
828.159	3420
828.298	3435
828.437	3515
828.577	3492
828.716	3603
828.855	3466
828.994	3382
829.134	3367
829.273	3374
829.412	3332
829.551	3344
829.69	3355
829.829	3443
829.968	3477
830.107	3424
830.246	3416
830.385	3378
830.524	3332
830.663	3310
830.802	3226
830.941	3207
831.08	3218
831.219	3245
831.357	3256
831.496	3382
831.635	3199
831.774	3165
831.913	3222
832.051	3116
832.19	3131
832.329	3188
832.467	3131
832.606	3077
832.744	3154
832.883	3192
833.022	3214
833.16	3283
833.299	3294
833.437	3332
833.576	3355
833.714	3416
833.852	3431
833.991	3439
834.129	3439
834.267	3416
834.406	3409
834.544	3370
834.682	3424
834.821	3412
834.959	3561
835.097	3420
835.235	3538
835.373	3447
835.511	3515
835.65	3412
835.788	3450
835.926	3370
836.064	3329
836.202	3409
836.34	3561
836.478	3572
836.615	3511
836.753	3568
836.891	3614
837.029	3633
837.167	3572
837.305	3526
837.443	3523
837.58	3496
837.718	3576
837.856	3549
837.993	3500
838.131	3580
838.269	3538
838.406	3591
838.544	3587
838.681	3428
838.819	3454
838.956	3355
839.094	3409
839.231	3447
839.369	3485
839.506	3690
839.643	3606
839.781	3519
839.918	3405
840.055	3507
840.193	3542
840.33	3507
840.467	3545
840.604	3568
840.742	3797
840.879	3530
841.016	3557
841.153	3584
841.29	3736
841.427	3701
841.564	3690
841.701	3747
841.838	3690
841.975	3705
842.112	3701
842.249	3644
842.385	3637
842.522	3800
842.659	3641
842.796	3641
842.933	3709
843.069	3660
843.206	3713
843.343	3759
843.479	3766
843.616	3747
843.752	3663
843.889	3641
844.025	3835
844.162	3736
844.298	3789
844.435	3793
844.571	3759
844.708	3865
844.844	4010
844.98	4002
845.117	4032
845.253	3892
845.389	3854
845.525	3964
845.661	3941
845.798	3953
845.934	3953
846.07	3926
846.206	4051
846.342	4071
846.478	4036
846.614	3918
846.75	3899
846.886	3907
847.022	4029
847.158	3994
847.294	3979
847.429	3983
847.565	3991
847.701	4227
847.837	3846
847.972	3835
848.108	3960
848.244	3926
848.379	3819
848.515	3831
848.65	3797
848.786	3816
848.921	3854
849.057	3926
849.192	3907
849.328	3857
849.463	3873
849.598	3911
849.734	3846
849.869	3808
850.004	3789
850.14	3812
850.275	3770
850.41	3736
850.545	3724
850.68	3785
850.815	3762
850.95	3732
851.085	3937
851.22	3827
851.355	3850
851.49	3751
851.625	3759
851.76	3751
851.895	3720
852.03	3694
852.165	3766
852.299	3827
852.434	3850
852.569	3808
852.703	3892
852.838	3937
852.973	3964
853.107	3994
853.242	3918
853.376	3831
853.511	3766
853.645	3850
853.78	3911
853.914	3899
854.048	3896
854.183	3842
854.317	3968
854.451	4063
854.585	3918
854.72	3903
854.854	4036
854.988	3888
855.122	3956
855.256	3896
855.39	3991
855.524	4059
855.658	4074
855.792	4093
855.926	4162
856.06	4154
856.194	4143
856.327	4143
856.461	4086
856.595	4124
856.729	4135
856.862	4196
856.996	4242
857.13	4257
857.263	4306
857.397	4379
857.53	4234
857.664	4295
857.797	4394
857.931	4405
858.064	4390
858.197	4417
858.331	4398
858.464	4325
858.597	4303
858.731	4413
858.864	4481
858.997	4440
859.13	4470
859.263	4516
859.396	4630
859.529	4481
859.662	4500
859.795	4504
859.928	4550
860.061	4683
860.194	4683
860.327	4656
860.46	4649
860.592	4694
860.725	4733
860.858	4714
860.99	4717
861.123	4630
861.256	4694
861.388	4744
861.521	5299
861.653	4736
861.786	4714
861.918	4797
862.05	4748
862.183	4831
862.315	4858
862.447	4915
862.58	4858
862.712	4759
862.844	4744
862.976	4866
863.108	4870
863.24	5231
863.372	4816
863.504	4892
863.636	4881
863.768	5041
863.9	4987
864.032	4889
864.164	4953
864.296	4995
864.428	5056
864.559	5067
864.691	5079
864.823	5109
864.954	5121
865.086	5113
865.217	5090
865.349	5121
865.48	5117
865.612	5185
865.743	5288
865.875	5212
866.006	5239
866.137	5231
866.269	5231
866.4	5277
866.531	5250
866.662	5204
866.793	5250
866.924	5284
867.055	5303
867.186	5318
867.317	5307
867.448	5265
867.579	5379
867.71	5318
867.841	5357
867.972	5429
868.103	5414
868.233	5532
868.364	5463
868.495	5512
868.625	5657
868.756	5729
868.886	5668
869.017	5745
869.147	5809
869.278	5828
869.408	5775
869.539	5813
869.669	5885
869.799	5901
869.929	5969
870.06	6026
870.19	6197
870.32	6232
870.45	6247
870.58	6342
870.71	6399
870.84	6460
870.97	6441
871.1	6445
871.23	6585
871.36	6677
871.489	6646
871.619	6715
871.749	6795
871.879	6890
872.008	6943
872.138	6958
872.267	7000
872.397	7012
872.526	6996
872.656	7126
872.785	7198
872.915	7388
873.044	7499
873.173	7540
873.303	7666
873.432	7719
873.561	7826
873.69	7833
873.819	7993
873.948	8183
874.077	8202
874.206	8351
874.335	8427
874.464	8632
874.593	8746
874.722	8864
874.851	9055
874.979	9249
875.108	9340
875.237	9374
875.365	9485
875.494	9690
875.623	9732
875.751	9835
875.88	9998
876.008	10112
876.136	10322
876.265	10588
876.393	10691
876.521	10683
876.65	10839
876.778	10809
876.906	10881
877.034	10999
877.162	11105
877.29	11216
877.418	11292
877.546	11280
877.674	11467
877.802	11501
877.93	11467
878.058	11570
878.185	11562
878.313	11638
878.441	11729
878.568	11642
878.696	11729
878.824	11802
878.951	11916
879.079	12091
879.206	12129
879.333	12083
879.461	11920
879.588	12038
879.715	12095
879.842	12232
879.97	12038
880.097	11802
880.224	11901
880.351	11885
880.478	11935
880.605	11912
880.732	11912
880.859	11996
880.986	11817
881.112	11878
881.239	11733
881.366	11623
881.493	11543
881.619	11490
881.746	11589
881.872	11577
881.999	11482
882.125	11570
882.252	11577
882.378	11459
882.505	11474
882.631	11337
882.757	11235
882.883	11318
883.01	11269
883.136	11208
883.262	11056
883.388	11102
883.514	11204
883.64	11147
883.766	11060
883.892	10946
884.018	11014
884.143	11105
884.269	11025
884.395	10854
884.52	10759
884.646	10820
884.772	10668
884.897	10687
885.023	10698
885.148	10714
885.274	10786
885.399	10611
885.524	10569
885.65	10519
885.775	10569
885.9	10577
886.025	10573
886.15	10428
886.275	10500
886.4	10405
886.525	10402
886.65	10348
886.775	10367
886.9	10447
887.025	10462
887.149	10352
887.274	10246
887.399	10135
887.523	10219
887.648	10196
887.773	10093
887.897	10200
888.021	10238
888.146	10124
888.27	10135
888.395	10268
888.519	10154
888.643	10143
888.767	10219
888.891	10086
889.015	10055
889.139	9998
889.263	9987
889.387	10036
889.511	10032
889.635	10063
889.759	9972
889.883	9987
890.006	9987
890.13	10162
890.254	9884
890.377	9899
890.501	9888
890.624	9846
890.748	9865
890.871	9762
890.995	9720
891.118	9686
891.241	9682
891.364	9781
891.488	9789
891.611	9755
891.734	9759
891.857	9800
891.98	9751
892.103	9740
892.226	9770
892.349	9698
892.471	9561
892.594	9526
892.717	9614
892.839	9587
892.962	9614
893.085	9507
893.207	9576
893.33	9492
893.452	9504
893.575	9561
893.697	9515
893.819	9534
893.941	9584
894.064	9526
894.186	9363
894.308	9397
894.43	9557
894.552	9526
894.674	9466
894.796	9363
894.918	9378
895.04	9363
895.161	9386
895.283	9344
895.405	9192
895.526	9306
895.648	9218
895.769	9279
895.891	9336
896.012	9291
896.134	9192
896.255	9142
896.376	9093
896.498	9142
896.619	9146
896.74	9032
896.861	9104
896.982	9211
897.103	9294
897.224	9119
897.345	9058
897.466	9036
897.587	8933
897.708	9104
897.828	8975
897.949	8975
898.07	8864
898.19	8857
898.311	9043
898.431	8906
898.552	8956
898.672	8963
898.792	8952
898.913	8880
899.033	8762
899.153	8697
899.273	8670
899.393	8674
899.513	8781
899.633	8674
899.753	8731
899.873	8667
899.993	8701
900.113	8777
900.232	8716
900.352	8655
900.472	8640
900.591	8507
900.711	8579
900.83	8507
900.95	8689
901.069	8617
901.189	8564
901.308	8450
901.427	8412
901.546	8423
901.665	8442
901.784	8564
901.904	8309
902.023	8339
902.141	8206
902.26	8187
902.379	8221
902.498	8221
902.617	8237
902.735	8233
902.854	8298
902.973	8294
903.091	8145
903.21	8119
903.328	8221
903.446	8134
903.565	8054
903.683	8092
903.801	7951
903.919	8138
904.038	8096
904.156	8039
904.274	8031
904.392	8062
904.51	8069
904.627	8050
904.745	8092
904.863	8062
904.981	7967
905.098	7849
905.216	7841
905.334	7887
905.451	7902
905.569	7830
905.686	7967
905.803	7898
905.921	7719
906.038	7864
906.155	7761
906.272	7704
906.389	7761
906.506	7655
906.623	7677
906.74	7586
906.857	7529
906.974	7487
907.091	7696
907.208	7696
907.324	7643
907.441	7628
907.557	7438
907.674	7491
907.79	7411
907.907	7377
908.023	7449
908.139	7419
908.256	7350
908.372	7373
908.488	7365
908.604	7240
908.72	7247
908.836	7274
908.952	7244
909.068	7209
909.184	7255
909.3	7259
909.415	7297
909.531	7232
909.647	7095
909.762	7072
909.878	7118
909.993	7168
910.108	7091
910.224	7065
910.339	7110
910.454	7072
910.57	7000
910.685	6905
910.8	7103
910.915	7141
911.03	6973
911.145	6859
911.259	6852
911.374	6875
911.489	6787
911.604	6795
911.718	6734
911.833	6734
911.947	6616
912.062	6555
912.176	6669
912.291	6677
912.405	6703
912.519	6806
912.633	6871
912.748	6684
912.862	6673
912.976	6627
913.09	6559
913.204	6563
913.318	6555
913.431	6673
913.545	6703
913.659	6715
913.772	6601
913.886	6555
914	6528
914.113	6582
914.226	6604
914.34	6601
914.453	6441
914.566	6639
914.68	6528
914.793	6536
914.906	6418
915.019	6422
915.132	6429
915.245	6437
915.358	6437
915.47	6452
915.583	6433
915.696	6471
915.809	6566
915.921	6582
916.034	6407
916.146	6388
916.259	6296
916.371	6464
916.483	6486
916.595	6380
916.708	6350
916.82	6376
916.932	6350
917.044	6384
917.156	6380
917.268	6372
917.38	6357
917.491	6372
917.603	6319
917.715	6410
917.826	6422
917.938	6281
918.049	6289
918.161	6410
918.272	6395
918.384	6388
918.495	6319
918.606	6262
918.717	6213
918.828	6289
918.939	6216
919.05	6239
919.161	6285
919.272	6095
919.383	6114
919.494	6285
919.604	6410
919.715	6262
919.826	6186
919.936	6235
920.047	6334
920.157	6213
920.267	6403
920.378	6327
920.488	6270
920.598	6490
920.708	6532
920.818	6456
920.928	6445
921.038	6566
921.148	6540
921.258	6315
921.368	6304
921.477	6216
921.587	6175
921.697	5996
921.806	6133
921.916	6102
922.025	5961
922.134	5958
922.244	5935
922.353	5931
922.462	5836
922.571	5756
922.68	5691
922.789	5627
922.898	5714
923.007	5649
923.116	5718
923.224	5707
923.333	5676
923.442	5585
923.55	5581
923.659	5566
923.767	5608
923.876	5558
923.984	5566
924.092	5532
924.201	5535
924.309	5474
924.417	5512
924.525	5471
924.633	5474
924.741	6281
924.849	5368
924.956	5505
925.064	5288
925.172	5299
925.279	5307
925.387	5341
925.494	5353
925.602	5383
925.709	5379
925.816	5284
925.924	5341
926.031	5318
926.138	5254
926.245	5357
926.352	5239
926.459	5299
926.566	5258
926.673	5151
926.779	5136
926.886	5083
926.993	5022
927.099	4976
927.206	4984
927.312	4957
927.419	4999
927.525	4965
927.631	4991
927.737	4881
927.843	4786
927.95	4778
928.056	4805
928.162	4816
928.267	4854
928.373	5322
928.479	4809
928.585	4683
928.69	4771
928.796	4774
928.901	4653
929.007	4577
929.112	4694
929.218	4592
929.323	4554
929.428	4546
929.533	4653
929.638	4455
929.743	4497
929.848	4592
929.953	4512
930.058	4421
930.163	4329
930.267	4333
930.372	4440
930.477	4295
930.581	4455
930.685	4371
930.79	4238
930.894	4261
930.998	4249
931.103	4375
931.207	4090
931.311	4063
931.415	4048
931.519	3899
931.623	3896
