Data from glass_V78500241_777.txt Node
Date: Wed Sep 01 19:19:53 CST 2021
User: usil
Spectrometer: V785-0024
Trigger mode: 0
Integration Time (sec): 4.000000E-1
Scans to average: 1
Nonlinearity correction enabled: false
Boxcar width: 0
Storing dark spectrum: false
XAxis mode: Wavelengths
Number of Pixels in Spectrum: 1024
>>>>>Begin Spectral Data<<<<<
801.071	3755
801.214	3759
801.356	3759
801.499	3759
801.641	3774
801.783	3800
801.926	3854
802.068	3808
802.211	3896
802.353	3907
802.496	3850
802.638	3896
802.78	3915
802.923	3953
803.065	3953
803.208	3823
803.35	3827
803.492	3892
803.635	3930
803.777	3835
803.919	3937
804.061	4166
804.204	4040
804.346	3911
804.488	3934
804.63	4044
804.773	4006
804.915	4021
805.057	4173
805.199	4013
805.341	4082
805.483	4116
805.626	4147
805.768	4120
805.91	4169
806.052	4268
806.194	4268
806.336	4367
806.478	4227
806.62	4185
806.762	4223
806.904	4287
807.046	4348
807.188	4223
807.33	4192
807.472	4265
807.614	4188
807.756	4318
807.898	4219
808.04	4169
808.182	4272
808.324	4344
808.465	4390
808.607	4470
808.749	4466
808.891	4428
809.033	4508
809.174	4394
809.316	4261
809.458	4249
809.6	4169
809.741	4188
809.883	4147
810.025	4238
810.166	4272
810.308	4188
810.45	4234
810.591	4261
810.733	4303
810.875	4516
811.016	4828
811.158	5147
811.299	5307
811.441	5292
811.582	5022
811.724	4744
811.865	4462
812.007	4500
812.148	4424
812.29	4455
812.431	4440
812.573	4421
812.714	4417
812.855	4383
812.997	4443
813.138	4493
813.279	4390
813.421	4440
813.562	4405
813.703	4390
813.845	4344
813.986	4246
814.127	4223
814.268	4249
814.41	4306
814.551	4337
814.692	4325
814.833	4280
814.974	4341
815.115	4352
815.256	4261
815.397	4219
815.539	4261
815.68	4238
815.821	4234
815.962	4318
816.103	4295
816.244	4257
816.385	4284
816.526	4299
816.666	4181
816.807	4090
816.948	4181
817.089	4181
817.23	4105
817.371	4067
817.512	4078
817.653	4090
817.793	4025
817.934	4063
818.075	4021
818.216	4105
818.356	4082
818.497	4010
818.638	3926
818.778	3953
818.919	3937
819.06	3876
819.2	3907
819.341	3873
819.481	3850
819.622	3911
819.762	4044
819.903	3949
820.043	3804
820.184	3854
820.324	3854
820.465	3869
820.605	3854
820.746	3846
820.886	3831
821.026	3949
821.167	3960
821.307	3975
821.447	3991
821.588	3987
821.728	3964
821.868	3896
822.008	3865
822.149	3884
822.289	3934
822.429	3793
822.569	3823
822.709	3781
822.849	3705
822.99	3720
823.13	3728
823.27	3827
823.41	3728
823.55	3797
823.69	3717
823.83	3743
823.97	3682
824.11	3599
824.25	3610
824.389	3667
824.529	3701
824.669	3656
824.809	3747
824.949	3732
825.089	3766
825.228	3747
825.368	3599
825.508	3587
825.648	3572
825.787	3595
825.927	3618
826.067	3648
826.206	3694
826.346	3835
826.485	3903
826.625	3896
826.765	3949
826.904	3793
827.044	3633
827.183	3568
827.323	3420
827.462	3496
827.601	3435
827.741	3462
827.88	3462
828.02	3378
828.159	3435
828.298	3504
828.437	3542
828.577	3469
828.716	3633
828.855	3466
828.994	3374
829.134	3405
829.273	3435
829.412	3348
829.551	3370
829.69	3351
829.829	3431
829.968	3545
830.107	3447
830.246	3462
830.385	3363
830.524	3367
830.663	3302
830.802	3245
830.941	3199
831.08	3237
831.219	3302
831.357	3302
831.496	3416
831.635	3180
831.774	3173
831.913	3188
832.051	3173
832.19	3093
832.329	3230
832.467	3188
832.606	3108
832.744	3222
832.883	3192
833.022	3173
833.16	3275
833.299	3298
833.437	3336
833.576	3397
833.714	3393
833.852	3462
833.991	3416
834.129	3473
834.267	3450
834.406	3397
834.544	3401
834.682	3435
834.821	3439
834.959	3542
835.097	3409
835.235	3549
835.373	3477
835.511	3564
835.65	3447
835.788	3485
835.926	3393
836.064	3405
836.202	3389
836.34	3561
836.478	3652
836.615	3576
836.753	3587
836.891	3648
837.029	3576
837.167	3614
837.305	3606
837.443	3564
837.58	3542
837.718	3622
837.856	3576
837.993	3561
838.131	3644
838.269	3576
838.406	3614
838.544	3584
838.681	3488
838.819	3450
838.956	3389
839.094	3420
839.231	3447
839.369	3534
839.506	3755
839.643	3671
839.781	3496
839.918	3462
840.055	3542
840.193	3530
840.33	3572
840.467	3561
840.604	3599
840.742	3812
840.879	3523
841.016	3564
841.153	3580
841.29	3728
841.427	3709
841.564	3728
841.701	3762
841.838	3732
841.975	3701
842.112	3743
842.249	3679
842.385	3641
842.522	3823
842.659	3728
842.796	3679
842.933	3717
843.069	3663
843.206	3736
843.343	3785
843.479	3797
843.616	3823
843.752	3663
843.889	3694
844.025	3869
844.162	3740
844.298	3854
844.435	3789
844.571	3812
844.708	3918
844.844	3994
844.98	4071
845.117	4010
845.253	3960
845.389	3922
845.525	4017
845.661	4002
845.798	3930
845.934	3994
846.07	3964
846.206	4059
846.342	4128
846.478	4051
846.614	4002
846.75	4013
846.886	3899
847.022	4017
847.158	3975
847.294	4021
847.429	4032
847.565	4002
847.701	4268
847.837	3873
847.972	3926
848.108	3964
848.244	3979
848.379	3850
848.515	3819
848.65	3781
848.786	3854
848.921	3888
849.057	3930
849.192	3911
849.328	3888
849.463	3911
849.598	3861
849.734	3861
849.869	3842
850.004	3785
850.14	3831
850.275	3842
850.41	3724
850.545	3751
850.68	3789
850.815	3812
850.95	3800
851.085	3949
851.22	3865
851.355	3838
851.49	3800
851.625	3812
851.76	3838
851.895	3766
852.03	3759
852.165	3819
852.299	3888
852.434	3896
852.569	3880
852.703	3884
852.838	3930
852.973	3994
853.107	4032
853.242	3880
853.376	3876
853.511	3804
853.645	3835
853.78	3979
853.914	3911
854.048	3873
854.183	3857
854.317	3964
854.451	4109
854.585	3918
854.72	3991
854.854	4063
854.988	3941
855.122	4017
855.256	3915
855.39	4010
855.524	4067
855.658	4090
855.792	4162
855.926	4131
856.06	4185
856.194	4223
856.327	4154
856.461	4147
856.595	4166
856.729	4116
856.862	4287
856.996	4284
857.13	4306
857.263	4287
857.397	4409
857.53	4287
857.664	4363
857.797	4390
857.931	4417
858.064	4402
858.197	4478
858.331	4417
858.464	4375
858.597	4371
858.731	4455
858.864	4462
858.997	4451
859.13	4493
859.263	4561
859.396	4615
859.529	4577
859.662	4569
859.795	4497
859.928	4599
860.061	4691
860.194	4759
860.327	4672
860.46	4672
860.592	4698
860.725	4774
860.858	4812
860.99	4706
861.123	4698
861.256	4725
861.388	4831
861.521	5387
861.653	4733
861.786	4733
861.918	4706
862.05	4778
862.183	4908
862.315	4885
862.447	4930
862.58	4930
862.712	4782
862.844	4774
862.976	4908
863.108	4904
863.24	5254
863.372	4854
863.504	4927
863.636	4873
863.768	4972
863.9	4938
864.032	4946
864.164	4953
864.296	5006
864.428	5162
864.559	5102
864.691	5117
864.823	5124
864.954	5159
865.086	5220
865.217	5151
865.349	5098
865.48	5201
865.612	5201
865.743	5303
865.875	5147
866.006	5201
866.137	5292
866.269	5231
866.4	5303
866.531	5250
866.662	5223
866.793	5315
866.924	5303
867.055	5357
867.186	5383
867.317	5303
867.448	5322
867.579	5349
867.71	5345
867.841	5406
867.972	5433
868.103	5467
868.233	5528
868.364	5520
868.495	5570
868.625	5684
868.756	5775
868.886	5699
869.017	5726
869.147	5885
869.278	5874
869.408	5844
869.539	5817
869.669	5927
869.799	5904
869.929	6011
870.06	6034
870.19	6224
870.32	6247
870.45	6239
870.58	6311
870.71	6422
870.84	6525
870.97	6384
871.1	6418
871.23	6616
871.36	6703
871.489	6646
871.619	6798
871.749	6840
871.879	6871
872.008	6962
872.138	7008
872.267	7000
872.397	6985
872.526	7038
872.656	7091
872.785	7225
872.915	7438
873.044	7434
873.173	7632
873.303	7632
873.432	7784
873.561	7875
873.69	7879
873.819	8043
873.948	8206
874.077	8324
874.206	8282
874.335	8412
874.464	8655
874.593	8902
874.722	8937
874.851	9146
874.979	9241
875.108	9325
875.237	9462
875.365	9431
875.494	9728
875.623	9865
875.751	9842
875.88	9968
876.008	10154
876.136	10287
876.265	10554
876.393	10698
876.521	10755
876.65	10805
876.778	10824
876.906	10866
877.034	11105
877.162	11056
877.29	11162
877.418	11273
877.546	11277
877.674	11471
877.802	11532
877.93	11547
878.058	11570
878.185	11547
878.313	11722
878.441	11684
878.568	11691
878.696	11813
878.824	11840
878.951	12003
879.079	12011
879.206	12201
879.333	12106
879.461	11950
879.588	12106
879.715	12098
879.842	12262
879.97	12057
880.097	11878
880.224	11977
880.351	11855
880.478	11897
880.605	11840
880.732	11786
880.859	12022
880.986	11843
881.112	11767
881.239	11748
881.366	11714
881.493	11573
881.619	11497
881.746	11623
881.872	11551
881.999	11444
882.125	11459
882.252	11554
882.378	11554
882.505	11539
882.631	11379
882.757	11326
882.883	11360
883.01	11296
883.136	11201
883.262	11117
883.388	11025
883.514	11189
883.64	11220
883.766	11105
883.892	11018
884.018	10976
884.143	11056
884.269	11121
884.395	10873
884.52	10854
884.646	10793
884.772	10717
884.897	10637
885.023	10672
885.148	10767
885.274	10774
885.399	10717
885.524	10664
885.65	10611
885.775	10531
885.9	10554
886.025	10580
886.15	10523
886.275	10485
886.4	10379
886.525	10405
886.65	10402
886.775	10344
886.9	10474
887.025	10481
887.149	10341
887.274	10272
887.399	10169
887.523	10204
887.648	10143
887.773	10120
887.897	10261
888.021	10200
888.146	10109
888.27	10272
888.395	10173
888.519	10162
888.643	10230
888.767	10162
888.891	10128
889.015	10017
889.139	10128
889.263	10074
889.387	10055
889.511	10128
889.635	10067
889.759	9964
889.883	9899
890.006	10002
890.13	10074
890.254	9956
890.377	9937
890.501	9861
890.624	9880
890.748	9956
890.871	9835
890.995	9675
891.118	9732
891.241	9740
891.364	9747
891.488	9865
891.611	9781
891.734	9789
891.857	9770
891.98	9724
892.103	9759
892.226	9743
892.349	9713
892.471	9564
892.594	9545
892.717	9641
892.839	9614
892.962	9618
893.085	9603
893.207	9564
893.33	9576
893.452	9557
893.575	9675
893.697	9557
893.819	9759
893.941	9603
894.064	9561
894.186	9367
894.308	9310
894.43	9481
894.552	9576
894.674	9526
894.796	9370
894.918	9370
895.04	9302
895.161	9393
895.283	9355
895.405	9279
895.526	9275
895.648	9199
895.769	9268
895.891	9313
896.012	9401
896.134	9253
896.255	9230
896.376	9116
896.498	9176
896.619	9157
896.74	9055
896.861	9146
896.982	9279
897.103	9279
897.224	9195
897.345	9070
897.466	8990
897.587	8986
897.708	9154
897.828	9005
897.949	8982
898.07	8876
898.19	8944
898.311	9028
898.431	8895
898.552	8960
898.672	8994
898.792	8921
898.913	8914
899.033	8796
899.153	8766
899.273	8644
899.393	8727
899.513	8735
899.633	8701
899.753	8754
899.873	8689
899.993	8720
900.113	8705
900.232	8754
900.352	8697
900.472	8659
900.591	8621
900.711	8537
900.83	8579
900.95	8682
901.069	8701
901.189	8583
901.308	8499
901.427	8385
901.546	8431
901.665	8476
901.784	8476
901.904	8412
902.023	8431
902.141	8282
902.26	8237
902.379	8298
902.498	8263
902.617	8244
902.735	8377
902.854	8301
902.973	8176
903.091	8130
903.21	8123
903.328	8180
903.446	8081
903.565	8069
903.683	8096
903.801	8043
903.919	8157
904.038	8149
904.156	8020
904.274	8092
904.392	8024
904.51	8077
904.627	8092
904.745	8065
904.863	8172
904.981	7955
905.098	7967
905.216	7875
905.334	7940
905.451	7883
905.569	7852
905.686	7951
905.803	7970
905.921	7788
906.038	7860
906.155	7833
906.272	7704
906.389	7715
906.506	7651
906.623	7704
906.74	7613
906.857	7499
906.974	7586
907.091	7696
907.208	7780
907.324	7613
907.441	7605
907.557	7476
907.674	7422
907.79	7362
907.907	7438
908.023	7415
908.139	7529
908.256	7422
908.372	7369
908.488	7308
908.604	7259
908.72	7270
908.836	7263
908.952	7251
909.068	7278
909.184	7289
909.3	7293
909.415	7259
909.531	7331
909.647	7133
909.762	7141
909.878	7103
909.993	7137
910.108	7129
910.224	7076
910.339	7137
910.454	7046
910.57	7065
910.685	6920
910.8	7183
910.915	7118
911.03	7034
911.145	6905
911.259	6897
911.374	6901
911.489	6863
911.604	6795
911.718	6768
911.833	6810
911.947	6650
912.062	6585
912.176	6741
912.291	6734
912.405	6776
912.519	6856
912.633	6783
912.748	6719
912.862	6715
912.976	6536
913.09	6513
913.204	6604
913.318	6620
913.431	6719
913.545	6662
913.659	6730
913.772	6684
913.886	6585
914	6566
914.113	6639
914.226	6654
914.34	6578
914.453	6521
914.566	6654
914.68	6563
914.793	6532
914.906	6426
915.019	6452
915.132	6388
915.245	6426
915.358	6456
915.47	6414
915.583	6498
915.696	6528
915.809	6547
915.921	6540
916.034	6441
916.146	6441
916.259	6376
916.371	6486
916.483	6509
916.595	6380
916.708	6422
916.82	6445
916.932	6422
917.044	6433
917.156	6452
917.268	6395
917.38	6319
917.491	6331
917.603	6384
917.715	6372
917.826	6384
917.938	6338
918.049	6277
918.161	6331
918.272	6464
918.384	6445
918.495	6361
918.606	6251
918.717	6232
918.828	6296
918.939	6243
919.05	6235
919.161	6277
919.272	6167
919.383	6186
919.494	6277
919.604	6467
919.715	6319
919.826	6190
919.936	6247
920.047	6323
920.157	6292
920.267	6509
920.378	6308
920.488	6292
920.598	6422
920.708	6547
920.818	6452
920.928	6441
921.038	6601
921.148	6631
921.258	6376
921.368	6300
921.477	6251
921.587	6205
921.697	6114
921.806	6148
921.916	6072
922.025	5958
922.134	5920
922.244	5908
922.353	5939
922.462	5821
922.571	5783
922.68	5741
922.789	5726
922.898	5703
923.007	5653
923.116	5710
923.224	5703
923.333	5703
923.442	5615
923.55	5657
923.659	5600
923.767	5604
923.876	5577
923.984	5661
924.092	5532
924.201	5604
924.309	5566
924.417	5528
924.525	5486
924.633	5455
924.741	6114
924.849	5387
924.956	5482
925.064	5368
925.172	5288
925.279	5326
925.387	5414
925.494	5326
925.602	5410
925.709	5414
925.816	5258
925.924	5357
926.031	5322
926.138	5296
926.245	5330
926.352	5197
926.459	5349
926.566	5345
926.673	5261
926.779	5143
926.886	5151
926.993	5064
927.099	5003
927.206	4946
927.312	4976
927.419	5041
927.525	5048
927.631	5045
927.737	4885
927.843	4873
927.95	4786
928.056	4862
928.162	4873
928.267	4889
928.373	5402
928.479	4843
928.585	4706
928.69	4733
928.796	4790
928.901	4679
929.007	4615
929.112	4656
929.218	4622
929.323	4626
929.428	4592
929.533	4649
929.638	4565
929.743	4584
929.848	4577
929.953	4527
930.058	4459
930.163	4337
930.267	4333
930.372	4440
930.477	4329
930.581	4478
930.685	4341
930.79	4284
930.894	4268
930.998	4238
931.103	4398
931.207	4131
931.311	4128
931.415	4032
931.519	3972
931.623	3960
