Data from glass_V78500241_2008.txt Node
Date: Wed Sep 01 19:28:25 CST 2021
User: usil
Spectrometer: V785-0024
Trigger mode: 0
Integration Time (sec): 4.000000E-1
Scans to average: 1
Nonlinearity correction enabled: false
Boxcar width: 0
Storing dark spectrum: false
XAxis mode: Wavelengths
Number of Pixels in Spectrum: 1024
>>>>>Begin Spectral Data<<<<<
801.071	3713
801.214	3785
801.356	3724
801.499	3770
801.641	3747
801.783	3804
801.926	3865
802.068	3816
802.211	3846
802.353	3918
802.496	3835
802.638	3846
802.78	3899
802.923	3949
803.065	3869
803.208	3846
803.35	3865
803.492	3934
803.635	3945
803.777	3804
803.919	3896
804.061	4124
804.204	4013
804.346	3956
804.488	3915
804.63	4025
804.773	3949
804.915	4021
805.057	4147
805.199	3983
805.341	4086
805.483	4112
805.626	4063
805.768	4067
805.91	4181
806.052	4219
806.194	4227
806.336	4344
806.478	4204
806.62	4177
806.762	4173
806.904	4257
807.046	4318
807.188	4207
807.33	4188
807.472	4249
807.614	4173
807.756	4238
807.898	4200
808.04	4188
808.182	4295
808.324	4341
808.465	4390
808.607	4462
808.749	4455
808.891	4504
809.033	4531
809.174	4405
809.316	4204
809.458	4238
809.6	4150
809.741	4116
809.883	4139
810.025	4234
810.166	4147
810.308	4234
810.45	4230
810.591	4215
810.733	4276
810.875	4485
811.016	4839
811.158	5155
811.299	5223
811.441	5239
811.582	5018
811.724	4702
811.865	4428
812.007	4478
812.148	4436
812.29	4402
812.431	4417
812.573	4417
812.714	4344
812.855	4428
812.997	4379
813.138	4481
813.279	4440
813.421	4375
813.562	4394
813.703	4379
813.845	4363
813.986	4261
814.127	4230
814.268	4249
814.41	4295
814.551	4276
814.692	4322
814.833	4242
814.974	4314
815.115	4348
815.256	4204
815.397	4238
815.539	4234
815.68	4196
815.821	4219
815.962	4299
816.103	4261
816.244	4177
816.385	4246
816.526	4238
816.666	4200
816.807	4078
816.948	4192
817.089	4154
817.23	4135
817.371	4082
817.512	4044
817.653	4067
817.793	4032
817.934	4055
818.075	4101
818.216	4063
818.356	4101
818.497	3975
818.638	3918
818.778	3979
818.919	3869
819.06	3819
819.2	3930
819.341	3884
819.481	3800
819.622	3876
819.762	4063
819.903	3945
820.043	3888
820.184	3827
820.324	3816
820.465	3865
820.605	3880
820.746	3896
820.886	3785
821.026	3934
821.167	3899
821.307	4006
821.447	3979
821.588	3915
821.728	3926
821.868	3991
822.008	3846
822.149	3911
822.289	3911
822.429	3774
822.569	3759
822.709	3812
822.849	3717
822.99	3686
823.13	3728
823.27	3770
823.41	3728
823.55	3724
823.69	3701
823.83	3751
823.97	3675
824.11	3629
824.25	3580
824.389	3614
824.529	3656
824.669	3671
824.809	3690
824.949	3766
825.089	3720
825.228	3690
825.368	3568
825.508	3523
825.648	3545
825.787	3595
825.927	3652
826.067	3614
826.206	3614
826.346	3797
826.485	3854
826.625	3876
826.765	3896
826.904	3819
827.044	3633
827.183	3523
827.323	3412
827.462	3507
827.601	3424
827.741	3420
827.88	3424
828.02	3355
828.159	3412
828.298	3481
828.437	3549
828.577	3458
828.716	3553
828.855	3507
828.994	3378
829.134	3370
829.273	3416
829.412	3344
829.551	3378
829.69	3386
829.829	3431
829.968	3511
830.107	3428
830.246	3481
830.385	3412
830.524	3393
830.663	3329
830.802	3211
830.941	3207
831.08	3180
831.219	3256
831.357	3264
831.496	3416
831.635	3226
831.774	3154
831.913	3195
832.051	3138
832.19	3161
832.329	3233
832.467	3100
832.606	3074
832.744	3123
832.883	3207
833.022	3192
833.16	3241
833.299	3268
833.437	3332
833.576	3378
833.714	3409
833.852	3412
833.991	3485
834.129	3466
834.267	3469
834.406	3420
834.544	3401
834.682	3374
834.821	3397
834.959	3564
835.097	3431
835.235	3542
835.373	3507
835.511	3504
835.65	3466
835.788	3488
835.926	3393
836.064	3340
836.202	3409
836.34	3576
836.478	3610
836.615	3534
836.753	3580
836.891	3606
837.029	3652
837.167	3553
837.305	3530
837.443	3511
837.58	3488
837.718	3576
837.856	3557
837.993	3534
838.131	3576
838.269	3572
838.406	3595
838.544	3568
838.681	3450
838.819	3435
838.956	3367
839.094	3393
839.231	3458
839.369	3507
839.506	3713
839.643	3618
839.781	3496
839.918	3469
840.055	3496
840.193	3542
840.33	3515
840.467	3553
840.604	3644
840.742	3808
840.879	3564
841.016	3595
841.153	3561
841.29	3728
841.427	3740
841.564	3740
841.701	3732
841.838	3732
841.975	3720
842.112	3709
842.249	3603
842.385	3622
842.522	3789
842.659	3713
842.796	3663
842.933	3690
843.069	3705
843.206	3747
843.343	3819
843.479	3762
843.616	3812
843.752	3671
843.889	3652
844.025	3861
844.162	3728
844.298	3842
844.435	3816
844.571	3812
844.708	3880
844.844	3994
844.98	3972
845.117	4002
845.253	3930
845.389	3911
845.525	3994
845.661	3922
845.798	3896
845.934	4025
846.07	3941
846.206	4036
846.342	4097
846.478	4010
846.614	3998
846.75	3941
846.886	3911
847.022	4025
847.158	3941
847.294	3975
847.429	4044
847.565	4017
847.701	4223
847.837	3869
847.972	3880
848.108	3956
848.244	3987
848.379	3835
848.515	3793
848.65	3804
848.786	3819
848.921	3857
849.057	3949
849.192	3899
849.328	3884
849.463	3903
849.598	3915
849.734	3884
849.869	3838
850.004	3800
850.14	3808
850.275	3797
850.41	3682
850.545	3770
850.68	3762
850.815	3766
850.95	3774
851.085	3918
851.22	3842
851.355	3823
851.49	3766
851.625	3789
851.76	3819
851.895	3663
852.03	3732
852.165	3781
852.299	3857
852.434	3903
852.569	3854
852.703	3865
852.838	3930
852.973	4029
853.107	4002
853.242	3903
853.376	3854
853.511	3774
853.645	3812
853.78	3979
853.914	3915
854.048	3873
854.183	3854
854.317	3960
854.451	4040
854.585	3945
854.72	3991
854.854	4036
854.988	3930
855.122	3991
855.256	3949
855.39	4044
855.524	4090
855.658	4063
855.792	4063
855.926	4131
856.06	4169
856.194	4223
856.327	4101
856.461	4150
856.595	4169
856.729	4166
856.862	4295
856.996	4215
857.13	4280
857.263	4303
857.397	4371
857.53	4299
857.664	4325
857.797	4398
857.931	4417
858.064	4360
858.197	4428
858.331	4405
858.464	4413
858.597	4306
858.731	4428
858.864	4455
858.997	4466
859.13	4508
859.263	4561
859.396	4584
859.529	4512
859.662	4584
859.795	4550
859.928	4599
860.061	4706
860.194	4710
860.327	4649
860.46	4637
860.592	4698
860.725	4736
860.858	4797
860.99	4774
861.123	4706
861.256	4683
861.388	4771
861.521	5364
861.653	4664
861.786	4714
861.918	4744
862.05	4828
862.183	4862
862.315	4858
862.447	4892
862.58	4847
862.712	4759
862.844	4710
862.976	4854
863.108	4858
863.24	5159
863.372	4858
863.504	4900
863.636	4904
863.768	5003
863.9	4915
864.032	4908
864.164	4965
864.296	5090
864.428	5079
864.559	5102
864.691	5124
864.823	5102
864.954	5124
865.086	5147
865.217	5136
865.349	5109
865.48	5166
865.612	5216
865.743	5330
865.875	5128
866.006	5178
866.137	5273
866.269	5216
866.4	5254
866.531	5258
866.662	5216
866.793	5254
866.924	5258
867.055	5307
867.186	5368
867.317	5326
867.448	5326
867.579	5376
867.71	5436
867.841	5417
867.972	5452
868.103	5478
868.233	5547
868.364	5566
868.495	5516
868.625	5680
868.756	5798
868.886	5657
869.017	5745
869.147	5809
869.278	5821
869.408	5798
869.539	5832
869.669	5866
869.799	5893
869.929	5969
870.06	6007
870.19	6232
870.32	6186
870.45	6331
870.58	6365
870.71	6395
870.84	6361
870.97	6342
871.1	6460
871.23	6654
871.36	6681
871.489	6650
871.619	6707
871.749	6886
871.879	6844
872.008	6993
872.138	6935
872.267	7023
872.397	7008
872.526	6993
872.656	7110
872.785	7160
872.915	7362
873.044	7480
873.173	7578
873.303	7689
873.432	7776
873.561	7894
873.69	7928
873.819	8043
873.948	8138
874.077	8248
874.206	8423
874.335	8461
874.464	8625
874.593	8792
874.722	8880
874.851	9077
874.979	9169
875.108	9355
875.237	9420
875.365	9420
875.494	9603
875.623	9861
875.751	9797
875.88	10013
876.008	10101
876.136	10219
876.265	10519
876.393	10679
876.521	10615
876.65	10850
876.778	10824
876.906	10835
877.034	11003
877.162	11079
877.29	11162
877.418	11341
877.546	11368
877.674	11417
877.802	11524
877.93	11471
878.058	11547
878.185	11505
878.313	11661
878.441	11847
878.568	11630
878.696	11832
878.824	11954
878.951	11870
879.079	12049
879.206	12076
879.333	12076
879.461	12026
879.588	12155
879.715	12079
879.842	12315
879.97	12072
880.097	11832
880.224	11866
880.351	11866
880.478	11893
880.605	11817
880.732	11840
880.859	11961
880.986	11775
881.112	11866
881.239	11707
881.366	11767
881.493	11589
881.619	11615
881.746	11566
881.872	11554
881.999	11554
882.125	11512
882.252	11581
882.378	11429
882.505	11615
882.631	11421
882.757	11288
882.883	11261
883.01	11284
883.136	11113
883.262	11147
883.388	11113
883.514	11151
883.64	11178
883.766	11067
883.892	11037
884.018	10980
884.143	11067
884.269	11071
884.395	10801
884.52	10850
884.646	10744
884.772	10698
884.897	10607
885.023	10782
885.148	10759
885.274	10725
885.399	10717
885.524	10584
885.65	10603
885.775	10519
885.9	10580
886.025	10580
886.15	10516
886.275	10497
886.4	10386
886.525	10424
886.65	10424
886.775	10390
886.9	10466
887.025	10432
887.149	10337
887.274	10196
887.399	10188
887.523	10082
887.648	10169
887.773	10097
887.897	10325
888.021	10154
888.146	10128
888.27	10242
888.395	10219
888.519	10242
888.643	10147
888.767	10150
888.891	10059
889.015	10051
889.139	9960
889.263	9964
889.387	10048
889.511	10105
889.635	10097
889.759	9953
889.883	9930
890.006	10055
890.13	10074
890.254	9968
890.377	9892
890.501	9846
890.624	9831
890.748	9930
890.871	9816
890.995	9835
891.118	9759
891.241	9774
891.364	9720
891.488	9895
891.611	9743
891.734	9743
891.857	9774
891.98	9644
892.103	9774
892.226	9660
892.349	9660
892.471	9542
892.594	9625
892.717	9622
892.839	9572
892.962	9557
893.085	9633
893.207	9542
893.33	9500
893.452	9447
893.575	9637
893.697	9496
893.819	9545
893.941	9644
894.064	9568
894.186	9439
894.308	9458
894.43	9519
894.552	9580
894.674	9496
894.796	9435
894.918	9431
895.04	9351
895.161	9313
895.283	9344
895.405	9291
895.526	9256
895.648	9218
895.769	9260
895.891	9283
896.012	9340
896.134	9146
896.255	9165
896.376	9093
896.498	9131
896.619	9142
896.74	9039
896.861	9058
896.982	9233
897.103	9325
897.224	9097
897.345	9097
897.466	8967
897.587	9036
897.708	9058
897.828	9066
897.949	8933
898.07	8906
898.19	8929
898.311	8994
898.431	8853
898.552	8895
898.672	8971
898.792	8941
898.913	8864
899.033	8781
899.153	8712
899.273	8617
899.393	8754
899.513	8739
899.633	8693
899.753	8712
899.873	8670
899.993	8743
900.113	8746
900.232	8693
900.352	8644
900.472	8564
900.591	8598
900.711	8484
900.83	8503
900.95	8689
901.069	8708
901.189	8610
901.308	8461
901.427	8362
901.546	8408
901.665	8454
901.784	8400
901.904	8347
902.023	8317
902.141	8244
902.26	8161
902.379	8256
902.498	8305
902.617	8191
902.735	8282
902.854	8358
902.973	8275
903.091	8123
903.21	8157
903.328	8180
903.446	8084
903.565	8024
903.683	8115
903.801	8103
903.919	8092
904.038	8138
904.156	8065
904.274	8103
904.392	8039
904.51	7947
904.627	8031
904.745	8103
904.863	8138
904.981	7913
905.098	7864
905.216	7860
905.334	7890
905.451	7875
905.569	7852
905.686	7902
905.803	7894
905.921	7807
906.038	7864
906.155	7753
906.272	7738
906.389	7700
906.506	7559
906.623	7651
906.74	7556
906.857	7548
906.974	7510
907.091	7674
907.208	7700
907.324	7674
907.441	7510
907.557	7480
907.674	7464
907.79	7354
907.907	7407
908.023	7464
908.139	7396
908.256	7396
908.372	7331
908.488	7346
908.604	7240
908.72	7190
908.836	7285
908.952	7209
909.068	7240
909.184	7312
909.3	7247
909.415	7297
909.531	7285
909.647	7156
909.762	7126
909.878	7103
909.993	7149
910.108	7141
910.224	7065
910.339	7129
910.454	7057
910.57	6951
910.685	6962
910.8	7133
910.915	7137
911.03	6966
911.145	6863
911.259	6814
911.374	6894
911.489	6821
911.604	6760
911.718	6677
911.833	6760
911.947	6604
912.062	6563
912.176	6673
912.291	6707
912.405	6722
912.519	6798
912.633	6886
912.748	6783
912.862	6684
912.976	6601
913.09	6559
913.204	6646
913.318	6639
913.431	6681
913.545	6688
913.659	6730
913.772	6639
913.886	6490
914	6525
914.113	6616
914.226	6612
914.34	6627
914.453	6456
914.566	6559
914.68	6498
914.793	6536
914.906	6410
915.019	6380
915.132	6388
915.245	6388
915.358	6448
915.47	6460
915.583	6437
915.696	6452
915.809	6532
915.921	6563
916.034	6376
916.146	6399
916.259	6384
916.371	6494
916.483	6490
916.595	6384
916.708	6414
916.82	6407
916.932	6327
917.044	6315
917.156	6422
917.268	6323
917.38	6346
917.491	6296
917.603	6365
917.715	6353
917.826	6353
917.938	6285
918.049	6300
918.161	6338
918.272	6407
918.384	6460
918.495	6350
918.606	6220
918.717	6239
918.828	6292
918.939	6258
919.05	6148
919.161	6232
919.272	6136
919.383	6106
919.494	6308
919.604	6372
919.715	6258
919.826	6194
919.936	6273
920.047	6369
920.157	6281
920.267	6407
920.378	6323
920.488	6289
920.598	6433
920.708	6521
920.818	6452
920.928	6426
921.038	6570
921.148	6525
921.258	6353
921.368	6262
921.477	6201
921.587	6155
921.697	6133
921.806	6152
921.916	5992
922.025	5965
922.134	5893
922.244	5946
922.353	5942
922.462	5882
922.571	5771
922.68	5718
922.789	5649
922.898	5714
923.007	5592
923.116	5710
923.224	5718
923.333	5615
923.442	5539
923.55	5581
923.659	5611
923.767	5627
923.876	5516
923.984	5592
924.092	5539
924.201	5589
924.309	5543
924.417	5512
924.525	5444
924.633	5490
924.741	6285
924.849	5376
924.956	5528
925.064	5349
925.172	5326
925.279	5326
925.387	5357
925.494	5296
925.602	5406
925.709	5425
925.816	5254
925.924	5299
926.031	5353
926.138	5277
926.245	5292
926.352	5258
926.459	5349
926.566	5326
926.673	5220
926.779	5147
926.886	5102
926.993	5006
927.099	5010
927.206	4957
927.312	4919
927.419	4991
927.525	4942
927.631	4930
927.737	4885
927.843	4896
927.95	4736
928.056	4790
928.162	4839
928.267	4824
928.373	5231
928.479	4854
928.585	4664
928.69	4733
928.796	4771
928.901	4641
929.007	4569
929.112	4660
929.218	4626
929.323	4588
929.428	4542
929.533	4683
929.638	4512
929.743	4546
929.848	4558
929.953	4481
930.058	4462
930.163	4341
930.267	4341
930.372	4405
930.477	4261
930.581	4421
930.685	4356
930.79	4223
930.894	4303
930.998	4284
931.103	4367
931.207	4116
931.311	4090
931.415	4048
931.519	3922
931.623	3994
