Data from glass_V78500241_499.txt Node
Date: Wed Sep 01 19:17:57 CST 2021
User: usil
Spectrometer: V785-0024
Trigger mode: 0
Integration Time (sec): 4.000000E-1
Scans to average: 1
Nonlinearity correction enabled: false
Boxcar width: 0
Storing dark spectrum: false
XAxis mode: Wavelengths
Number of Pixels in Spectrum: 1024
>>>>>Begin Spectral Data<<<<<
801.071	3740
801.214	3755
801.356	3724
801.499	3709
801.641	3759
801.783	3778
801.926	3854
802.068	3835
802.211	3861
802.353	3869
802.496	3816
802.638	3907
802.78	3915
802.923	3949
803.065	3915
803.208	3861
803.35	3896
803.492	3968
803.635	3918
803.777	3808
803.919	3899
804.061	4139
804.204	3983
804.346	3968
804.488	3899
804.63	4025
804.773	3953
804.915	4082
805.057	4173
805.199	3998
805.341	4097
805.483	4135
805.626	4131
805.768	4147
805.91	4257
806.052	4238
806.194	4242
806.336	4363
806.478	4230
806.62	4188
806.762	4242
806.904	4276
807.046	4390
807.188	4215
807.33	4200
807.472	4265
807.614	4230
807.756	4249
807.898	4215
808.04	4249
808.182	4295
808.324	4333
808.465	4363
808.607	4478
808.749	4474
808.891	4459
809.033	4535
809.174	4405
809.316	4238
809.458	4287
809.6	4143
809.741	4112
809.883	4139
810.025	4253
810.166	4207
810.308	4207
810.45	4253
810.591	4227
810.733	4299
810.875	4497
811.016	4866
811.158	5124
811.299	5246
811.441	5330
811.582	5086
811.724	4759
811.865	4485
812.007	4493
812.148	4440
812.29	4459
812.431	4432
812.573	4428
812.714	4386
812.855	4421
812.997	4383
813.138	4470
813.279	4466
813.421	4455
813.562	4386
813.703	4363
813.845	4333
813.986	4249
814.127	4249
814.268	4295
814.41	4314
814.551	4253
814.692	4318
814.833	4272
814.974	4325
815.115	4360
815.256	4310
815.397	4238
815.539	4242
815.68	4181
815.821	4204
815.962	4352
816.103	4310
816.244	4249
816.385	4284
816.526	4291
816.666	4211
816.807	4097
816.948	4181
817.089	4200
817.23	4154
817.371	4112
817.512	4071
817.653	4093
817.793	4067
817.934	4090
818.075	4128
818.216	4082
818.356	4120
818.497	4021
818.638	3926
818.778	3991
818.919	3896
819.06	3934
819.2	3945
819.341	3857
819.481	3838
819.622	3941
819.762	4036
819.903	4017
820.043	3873
820.184	3804
820.324	3800
820.465	3903
820.605	3888
820.746	3857
820.886	3831
821.026	3922
821.167	3937
821.307	3994
821.447	3975
821.588	3941
821.728	3994
821.868	3960
822.008	3934
822.149	3937
822.289	3899
822.429	3781
822.569	3781
822.709	3793
822.849	3732
822.99	3747
823.13	3831
823.27	3778
823.41	3724
823.55	3713
823.69	3732
823.83	3751
823.97	3671
824.11	3633
824.25	3606
824.389	3660
824.529	3648
824.669	3637
824.809	3740
824.949	3762
825.089	3732
825.228	3686
825.368	3549
825.508	3591
825.648	3587
825.787	3622
825.927	3652
826.067	3622
826.206	3663
826.346	3785
826.485	3850
826.625	3842
826.765	3956
826.904	3823
827.044	3564
827.183	3526
827.323	3454
827.462	3523
827.601	3458
827.741	3454
827.88	3485
828.02	3428
828.159	3443
828.298	3511
828.437	3576
828.577	3469
828.716	3610
828.855	3515
828.994	3405
829.134	3348
829.273	3428
829.412	3363
829.551	3370
829.69	3389
829.829	3439
829.968	3542
830.107	3431
830.246	3447
830.385	3386
830.524	3351
830.663	3298
830.802	3268
830.941	3207
831.08	3241
831.219	3279
831.357	3230
831.496	3401
831.635	3230
831.774	3203
831.913	3241
832.051	3165
832.19	3161
832.329	3199
832.467	3138
832.606	3127
832.744	3188
832.883	3180
833.022	3218
833.16	3294
833.299	3336
833.437	3306
833.576	3405
833.714	3389
833.852	3450
833.991	3447
834.129	3488
834.267	3466
834.406	3431
834.544	3473
834.682	3405
834.821	3450
834.959	3564
835.097	3412
835.235	3572
835.373	3515
835.511	3481
835.65	3458
835.788	3492
835.926	3393
836.064	3389
836.202	3401
836.34	3557
836.478	3599
836.615	3557
836.753	3599
836.891	3675
837.029	3622
837.167	3637
837.305	3584
837.443	3572
837.58	3481
837.718	3591
837.856	3545
837.993	3530
838.131	3614
838.269	3591
838.406	3618
838.544	3568
838.681	3469
838.819	3469
838.956	3382
839.094	3382
839.231	3458
839.369	3523
839.506	3740
839.643	3633
839.781	3488
839.918	3473
840.055	3530
840.193	3523
840.33	3530
840.467	3572
840.604	3682
840.742	3816
840.879	3549
841.016	3595
841.153	3606
841.29	3793
841.427	3732
841.564	3724
841.701	3762
841.838	3705
841.975	3667
842.112	3724
842.249	3641
842.385	3629
842.522	3842
842.659	3720
842.796	3701
842.933	3736
843.069	3724
843.206	3759
843.343	3823
843.479	3835
843.616	3812
843.752	3694
843.889	3694
844.025	3812
844.162	3705
844.298	3846
844.435	3793
844.571	3808
844.708	3930
844.844	3991
844.98	3998
845.117	4040
845.253	3968
845.389	3896
845.525	4025
845.661	3972
845.798	3945
845.934	4032
846.07	3956
846.206	4063
846.342	4116
846.478	4097
846.614	4044
846.75	3918
846.886	3918
847.022	4021
847.158	3964
847.294	4032
847.429	4048
847.565	4006
847.701	4257
847.837	3922
847.972	3892
848.108	3968
848.244	3979
848.379	3854
848.515	3819
848.65	3850
848.786	3838
848.921	3876
849.057	3926
849.192	3941
849.328	3899
849.463	3911
849.598	3915
849.734	3876
849.869	3857
850.004	3755
850.14	3789
850.275	3835
850.41	3732
850.545	3774
850.68	3797
850.815	3816
850.95	3831
851.085	3937
851.22	3896
851.355	3861
851.49	3781
851.625	3778
851.76	3797
851.895	3728
852.03	3732
852.165	3827
852.299	3918
852.434	3934
852.569	3846
852.703	3896
852.838	3911
852.973	4010
853.107	3953
853.242	3892
853.376	3838
853.511	3778
853.645	3854
853.78	3987
853.914	3926
854.048	3945
854.183	3888
854.317	3975
854.451	4074
854.585	3987
854.72	3964
854.854	4048
854.988	3937
855.122	4002
855.256	3953
855.39	4040
855.524	4101
855.658	4097
855.792	4112
855.926	4135
856.06	4200
856.194	4230
856.327	4188
856.461	4143
856.595	4154
856.729	4185
856.862	4310
856.996	4284
857.13	4276
857.263	4314
857.397	4379
857.53	4322
857.664	4363
857.797	4398
857.931	4466
858.064	4421
858.197	4470
858.331	4394
858.464	4394
858.597	4363
858.731	4443
858.864	4466
858.997	4474
859.13	4535
859.263	4538
859.396	4573
859.529	4485
859.662	4584
859.795	4542
859.928	4573
860.061	4736
860.194	4725
860.327	4664
860.46	4641
860.592	4714
860.725	4778
860.858	4740
860.99	4641
861.123	4664
861.256	4714
861.388	4812
861.521	5512
861.653	4729
861.786	4706
861.918	4797
862.05	4824
862.183	4812
862.315	4915
862.447	4968
862.58	4919
862.712	4809
862.844	4801
862.976	4896
863.108	4877
863.24	5178
863.372	4835
863.504	4934
863.636	4923
863.768	4972
863.9	4980
864.032	4915
864.164	4965
864.296	5071
864.428	5079
864.559	5121
864.691	5151
864.823	5155
864.954	5109
865.086	5170
865.217	5155
865.349	5109
865.48	5136
865.612	5216
865.743	5303
865.875	5212
866.006	5189
866.137	5201
866.269	5231
866.4	5269
866.531	5273
866.662	5220
866.793	5292
866.924	5288
867.055	5341
867.186	5345
867.317	5288
867.448	5334
867.579	5387
867.71	5402
867.841	5364
867.972	5493
868.103	5486
868.233	5512
868.364	5501
868.495	5535
868.625	5668
868.756	5786
868.886	5691
869.017	5760
869.147	5847
869.278	5847
869.408	5863
869.539	5866
869.669	5908
869.799	5946
869.929	5980
870.06	6026
870.19	6205
870.32	6258
870.45	6254
870.58	6369
870.71	6426
870.84	6464
870.97	6395
871.1	6467
871.23	6642
871.36	6684
871.489	6692
871.619	6726
871.749	6833
871.879	6871
872.008	6962
872.138	6935
872.267	7031
872.397	7012
872.526	7050
872.656	7168
872.785	7251
872.915	7434
873.044	7506
873.173	7529
873.303	7658
873.432	7830
873.561	7887
873.69	7982
873.819	8005
873.948	8180
874.077	8267
874.206	8404
874.335	8469
874.464	8625
874.593	8861
874.722	8998
874.851	9188
874.979	9268
875.108	9389
875.237	9439
875.365	9458
875.494	9660
875.623	9865
875.751	9865
875.88	9998
876.008	10268
876.136	10291
876.265	10580
876.393	10691
876.521	10744
876.65	10923
876.778	10839
876.906	10892
877.034	11060
877.162	11075
877.29	11124
877.418	11360
877.546	11471
877.674	11448
877.802	11497
877.93	11463
878.058	11482
878.185	11608
878.313	11695
878.441	11737
878.568	11615
878.696	11893
878.824	11855
878.951	12045
879.079	12038
879.206	12163
879.333	11999
879.461	12022
879.588	12136
879.715	12095
879.842	12194
879.97	12060
880.097	11836
880.224	11874
880.351	11855
880.478	11923
880.605	11843
880.732	11836
880.859	12011
880.986	11745
881.112	11802
881.239	11748
881.366	11657
881.493	11646
881.619	11577
881.746	11585
881.872	11512
881.999	11528
882.125	11551
882.252	11539
882.378	11528
882.505	11592
882.631	11440
882.757	11383
882.883	11341
883.01	11246
883.136	11193
883.262	11094
883.388	11102
883.514	11189
883.64	11117
883.766	11143
883.892	11003
884.018	10984
884.143	11037
884.269	11105
884.395	10877
884.52	10820
884.646	10786
884.772	10733
884.897	10672
885.023	10706
885.148	10698
885.274	10805
885.399	10679
885.524	10649
885.65	10535
885.775	10577
885.9	10535
886.025	10603
886.15	10565
886.275	10398
886.4	10379
886.525	10413
886.65	10394
886.775	10333
886.9	10440
887.025	10535
887.149	10299
887.274	10188
887.399	10185
887.523	10238
887.648	10181
887.773	10158
887.897	10257
888.021	10318
888.146	10230
888.27	10211
888.395	10188
888.519	10139
888.643	10131
888.767	10276
888.891	10116
889.015	9934
889.139	9987
889.263	10006
889.387	10173
889.511	10090
889.635	10135
889.759	10059
889.883	10025
890.006	9945
890.13	10147
890.254	9918
890.377	9975
890.501	9850
890.624	9899
890.748	9880
890.871	9869
890.995	9724
891.118	9720
891.241	9797
891.364	9770
891.488	9873
891.611	9682
891.734	9755
891.857	9800
891.98	9762
892.103	9755
892.226	9663
892.349	9694
892.471	9557
892.594	9545
892.717	9599
892.839	9629
892.962	9637
893.085	9671
893.207	9591
893.33	9553
893.452	9595
893.575	9587
893.697	9545
893.819	9584
893.941	9629
894.064	9587
894.186	9359
894.308	9382
894.43	9519
894.552	9561
894.674	9526
894.796	9344
894.918	9378
895.04	9367
895.161	9412
895.283	9428
895.405	9241
895.526	9298
895.648	9226
895.769	9256
895.891	9207
896.012	9260
896.134	9203
896.255	9138
896.376	9157
896.498	9199
896.619	9173
896.74	9074
896.861	9154
896.982	9294
897.103	9325
897.224	9161
897.345	9123
897.466	9032
897.587	9062
897.708	9032
897.828	9066
897.949	8914
898.07	8941
898.19	8963
898.311	9043
898.431	8880
898.552	8933
898.672	8998
898.792	9001
898.913	8895
899.033	8796
899.153	8716
899.273	8667
899.393	8773
899.513	8720
899.633	8853
899.753	8785
899.873	8674
899.993	8781
900.113	8769
900.232	8659
900.352	8693
900.472	8651
900.591	8575
900.711	8629
900.83	8571
900.95	8613
901.069	8720
901.189	8571
901.308	8381
901.427	8377
901.546	8427
901.665	8431
901.784	8457
901.904	8408
902.023	8351
902.141	8180
902.26	8206
902.379	8343
902.498	8233
902.617	8164
902.735	8237
902.854	8229
902.973	8267
903.091	8069
903.21	8092
903.328	8157
903.446	8103
903.565	8134
903.683	8054
903.801	8065
903.919	8149
904.038	8161
904.156	7982
904.274	8134
904.392	8016
904.51	8103
904.627	7993
904.745	8092
904.863	8084
904.981	7879
905.098	7871
905.216	7894
905.334	7925
905.451	7868
905.569	7852
905.686	7894
905.803	7955
905.921	7765
906.038	7879
906.155	7856
906.272	7658
906.389	7696
906.506	7723
906.623	7685
906.74	7571
906.857	7559
906.974	7662
907.091	7715
907.208	7712
907.324	7639
907.441	7582
907.557	7426
907.674	7483
907.79	7419
907.907	7392
908.023	7476
908.139	7411
908.256	7388
908.372	7346
908.488	7350
908.604	7308
908.72	7244
908.836	7331
908.952	7282
909.068	7305
909.184	7301
909.3	7285
909.415	7308
909.531	7293
909.647	7110
909.762	7160
909.878	7107
909.993	7171
910.108	7145
910.224	7023
910.339	7103
910.454	6985
910.57	6993
910.685	6947
910.8	7133
910.915	7122
911.03	6993
911.145	6859
911.259	6882
911.374	6905
911.489	6795
911.604	6783
911.718	6700
911.833	6715
911.947	6620
912.062	6570
912.176	6745
912.291	6688
912.405	6696
912.519	6863
912.633	6844
912.748	6741
912.862	6700
912.976	6646
913.09	6566
913.204	6650
913.318	6665
913.431	6601
913.545	6684
913.659	6738
913.772	6608
913.886	6631
914	6582
914.113	6620
914.226	6608
914.34	6578
914.453	6544
914.566	6585
914.68	6448
914.793	6536
914.906	6467
915.019	6376
915.132	6342
915.245	6429
915.358	6429
915.47	6464
915.583	6429
915.696	6486
915.809	6589
915.921	6551
916.034	6426
916.146	6445
916.259	6433
916.371	6437
916.483	6456
916.595	6391
916.708	6460
916.82	6475
916.932	6391
917.044	6380
917.156	6410
917.268	6251
917.38	6338
917.491	6342
917.603	6331
917.715	6506
917.826	6441
917.938	6338
918.049	6308
918.161	6315
918.272	6437
918.384	6528
918.495	6376
918.606	6216
918.717	6220
918.828	6239
918.939	6251
919.05	6258
919.161	6266
919.272	6178
919.383	6163
919.494	6353
919.604	6426
919.715	6292
919.826	6213
919.936	6209
920.047	6357
920.157	6247
920.267	6479
920.378	6357
920.488	6228
920.598	6445
920.708	6563
920.818	6525
920.928	6509
921.038	6658
921.148	6589
921.258	6331
921.368	6308
921.477	6262
921.587	6159
921.697	6110
921.806	6209
921.916	6144
922.025	5942
922.134	5923
922.244	5954
922.353	5958
922.462	5844
922.571	5802
922.68	5714
922.789	5688
922.898	5729
923.007	5672
923.116	5676
923.224	5691
923.333	5695
923.442	5642
923.55	5611
923.659	5535
923.767	5680
923.876	5566
923.984	5642
924.092	5509
924.201	5535
924.309	5570
924.417	5554
924.525	5474
924.633	5558
924.741	6270
924.849	5406
924.956	5520
925.064	5360
925.172	5307
925.279	5307
925.387	5379
925.494	5337
925.602	5444
925.709	5391
925.816	5315
925.924	5360
926.031	5337
926.138	5280
926.245	5326
926.352	5220
926.459	5322
926.566	5345
926.673	5273
926.779	5128
926.886	5140
926.993	5064
927.099	5064
927.206	4976
927.312	4938
927.419	5010
927.525	5003
927.631	5010
927.737	4938
927.843	4885
927.95	4839
928.056	4877
928.162	4820
928.267	4877
928.373	5261
928.479	4873
928.585	4649
928.69	4759
928.796	4778
928.901	4702
929.007	4599
929.112	4687
929.218	4622
929.323	4599
929.428	4550
929.533	4752
929.638	4535
929.743	4523
929.848	4588
929.953	4500
930.058	4466
930.163	4325
930.267	4383
930.372	4447
930.477	4318
930.581	4470
930.685	4375
930.79	4261
930.894	4280
930.998	4284
931.103	4375
931.207	4128
931.311	4078
931.415	4074
931.519	3945
931.623	3960
