Data from glass_V78500241_1254.txt Node
Date: Wed Sep 01 19:23:11 CST 2021
User: usil
Spectrometer: V785-0024
Trigger mode: 0
Integration Time (sec): 4.000000E-1
Scans to average: 1
Nonlinearity correction enabled: false
Boxcar width: 0
Storing dark spectrum: false
XAxis mode: Wavelengths
Number of Pixels in Spectrum: 1024
>>>>>Begin Spectral Data<<<<<
801.071	3724
801.214	3736
801.356	3701
801.499	3755
801.641	3698
801.783	3774
801.926	3873
802.068	3819
802.211	3899
802.353	3892
802.496	3831
802.638	3876
802.78	3888
802.923	3964
803.065	3922
803.208	3907
803.35	3869
803.492	3884
803.635	3930
803.777	3846
803.919	3850
804.061	4169
804.204	3945
804.346	3896
804.488	3945
804.63	4051
804.773	3964
804.915	4017
805.057	4211
805.199	4036
805.341	4150
805.483	4135
805.626	4143
805.768	4090
805.91	4215
806.052	4227
806.194	4207
806.336	4379
806.478	4192
806.62	4177
806.762	4185
806.904	4219
807.046	4337
807.188	4211
807.33	4192
807.472	4234
807.614	4150
807.756	4284
807.898	4211
808.04	4227
808.182	4291
808.324	4314
808.465	4337
808.607	4466
808.749	4478
808.891	4451
809.033	4512
809.174	4447
809.316	4268
809.458	4272
809.6	4196
809.741	4154
809.883	4097
810.025	4211
810.166	4230
810.308	4192
810.45	4268
810.591	4223
810.733	4310
810.875	4531
811.016	4850
811.158	5128
811.299	5261
811.441	5353
811.582	5022
811.724	4736
811.865	4462
812.007	4447
812.148	4424
812.29	4440
812.431	4440
812.573	4428
812.714	4386
812.855	4417
812.997	4405
813.138	4504
813.279	4421
813.421	4405
813.562	4363
813.703	4344
813.845	4363
813.986	4284
814.127	4230
814.268	4253
814.41	4295
814.551	4306
814.692	4325
814.833	4280
814.974	4303
815.115	4333
815.256	4314
815.397	4303
815.539	4257
815.68	4219
815.821	4188
815.962	4333
816.103	4299
816.244	4204
816.385	4257
816.526	4291
816.666	4188
816.807	4086
816.948	4173
817.089	4154
817.23	4139
817.371	4040
817.512	4059
817.653	4074
817.793	3994
817.934	4059
818.075	4147
818.216	4071
818.356	4082
818.497	4025
818.638	3960
818.778	3934
818.919	3865
819.06	3880
819.2	3888
819.341	3854
819.481	3869
819.622	3888
819.762	4021
819.903	3949
820.043	3838
820.184	3816
820.324	3835
820.465	3846
820.605	3911
820.746	3816
820.886	3827
821.026	3880
821.167	3926
821.307	4002
821.447	3991
821.588	3953
821.728	3899
821.868	3979
822.008	3884
822.149	3918
822.289	3949
822.429	3827
822.569	3785
822.709	3835
822.849	3709
822.99	3709
823.13	3732
823.27	3800
823.41	3728
823.55	3728
823.69	3724
823.83	3766
823.97	3679
824.11	3641
824.25	3568
824.389	3660
824.529	3648
824.669	3656
824.809	3667
824.949	3743
825.089	3759
825.228	3713
825.368	3587
825.508	3564
825.648	3534
825.787	3591
825.927	3641
826.067	3610
826.206	3698
826.346	3800
826.485	3831
826.625	3888
826.765	3964
826.904	3880
827.044	3637
827.183	3542
827.323	3439
827.462	3485
827.601	3447
827.741	3481
827.88	3466
828.02	3370
828.159	3462
828.298	3492
828.437	3538
828.577	3511
828.716	3610
828.855	3523
828.994	3367
829.134	3428
829.273	3397
829.412	3351
829.551	3332
829.69	3405
829.829	3435
829.968	3534
830.107	3458
830.246	3435
830.385	3386
830.524	3336
830.663	3340
830.802	3260
830.941	3195
831.08	3188
831.219	3256
831.357	3275
831.496	3401
831.635	3264
831.774	3230
831.913	3192
832.051	3135
832.19	3146
832.329	3207
832.467	3127
832.606	3161
832.744	3165
832.883	3195
833.022	3203
833.16	3294
833.299	3348
833.437	3374
833.576	3412
833.714	3420
833.852	3454
833.991	3454
834.129	3496
834.267	3420
834.406	3420
834.544	3439
834.682	3412
834.821	3409
834.959	3587
835.097	3439
835.235	3496
835.373	3504
835.511	3500
835.65	3458
835.788	3466
835.926	3370
836.064	3370
836.202	3393
836.34	3587
836.478	3610
836.615	3526
836.753	3610
836.891	3671
837.029	3610
837.167	3591
837.305	3599
837.443	3530
837.58	3515
837.718	3561
837.856	3561
837.993	3523
838.131	3603
838.269	3610
838.406	3587
838.544	3572
838.681	3473
838.819	3447
838.956	3389
839.094	3412
839.231	3462
839.369	3553
839.506	3797
839.643	3610
839.781	3477
839.918	3450
840.055	3519
840.193	3496
840.33	3534
840.467	3561
840.604	3595
840.742	3762
840.879	3507
841.016	3576
841.153	3595
841.29	3785
841.427	3701
841.564	3743
841.701	3778
841.838	3717
841.975	3717
842.112	3724
842.249	3660
842.385	3667
842.522	3816
842.659	3682
842.796	3675
842.933	3675
843.069	3705
843.206	3728
843.343	3804
843.479	3766
843.616	3800
843.752	3652
843.889	3705
844.025	3884
844.162	3709
844.298	3850
844.435	3812
844.571	3800
844.708	3922
844.844	3960
844.98	4025
845.117	4021
845.253	3949
845.389	3934
845.525	3979
845.661	3945
845.798	3930
845.934	3972
846.07	3998
846.206	4051
846.342	4131
846.478	4071
846.614	4029
846.75	3964
846.886	3930
847.022	4036
847.158	4002
847.294	4006
847.429	4032
847.565	3975
847.701	4234
847.837	3892
847.972	3880
848.108	3987
848.244	3953
848.379	3835
848.515	3831
848.65	3850
848.786	3816
848.921	3869
849.057	3956
849.192	3968
849.328	3934
849.463	3915
849.598	3842
849.734	3873
849.869	3827
850.004	3789
850.14	3793
850.275	3819
850.41	3751
850.545	3759
850.68	3762
850.815	3846
850.95	3816
851.085	3964
851.22	3854
851.355	3861
851.49	3778
851.625	3812
851.76	3812
851.895	3743
852.03	3759
852.165	3793
852.299	3884
852.434	3930
852.569	3850
852.703	3911
852.838	3911
852.973	3983
853.107	3994
853.242	3915
853.376	3827
853.511	3743
853.645	3857
853.78	4017
853.914	3964
854.048	3937
854.183	3907
854.317	3956
854.451	4067
854.585	3983
854.72	3972
854.854	4040
854.988	3926
855.122	4040
855.256	3896
855.39	3998
855.524	4128
855.658	4109
855.792	4051
855.926	4162
856.06	4166
856.194	4200
856.327	4158
856.461	4116
856.595	4128
856.729	4116
856.862	4284
856.996	4242
857.13	4310
857.263	4383
857.397	4348
857.53	4299
857.664	4356
857.797	4440
857.931	4436
858.064	4390
858.197	4466
858.331	4424
858.464	4386
858.597	4360
858.731	4462
858.864	4451
858.997	4443
859.13	4546
859.263	4558
859.396	4596
859.529	4493
859.662	4504
859.795	4569
859.928	4649
860.061	4702
860.194	4778
860.327	4599
860.46	4626
860.592	4771
860.725	4828
860.858	4782
860.99	4721
861.123	4702
861.256	4683
861.388	4782
861.521	5395
861.653	4740
861.786	4725
861.918	4801
862.05	4816
862.183	4858
862.315	4889
862.447	4919
862.58	4889
862.712	4850
862.844	4725
862.976	4885
863.108	4896
863.24	5170
863.372	4877
863.504	4908
863.636	4911
863.768	4957
863.9	5014
864.032	4927
864.164	4987
864.296	5052
864.428	5121
864.559	5105
864.691	5090
864.823	5117
864.954	5113
865.086	5136
865.217	5117
865.349	5132
865.48	5147
865.612	5181
865.743	5273
865.875	5181
866.006	5185
866.137	5280
866.269	5189
866.4	5254
866.531	5239
866.662	5235
866.793	5315
866.924	5322
867.055	5334
867.186	5383
867.317	5299
867.448	5299
867.579	5296
867.71	5387
867.841	5417
867.972	5478
868.103	5490
868.233	5429
868.364	5474
868.495	5577
868.625	5627
868.756	5718
868.886	5630
869.017	5745
869.147	5824
869.278	5916
869.408	5821
869.539	5855
869.669	5935
869.799	5863
869.929	5988
870.06	6038
870.19	6186
870.32	6220
870.45	6266
870.58	6342
870.71	6452
870.84	6498
870.97	6384
871.1	6467
871.23	6635
871.36	6768
871.489	6627
871.619	6772
871.749	6768
871.879	6882
872.008	6954
872.138	6939
872.267	7023
872.397	7027
872.526	7031
872.656	7061
872.785	7171
872.915	7362
873.044	7552
873.173	7537
873.303	7658
873.432	7734
873.561	7894
873.69	7883
873.819	8008
873.948	8187
874.077	8195
874.206	8347
874.335	8457
874.464	8712
874.593	8830
874.722	8914
874.851	9165
874.979	9226
875.108	9332
875.237	9447
875.365	9462
875.494	9610
875.623	9789
875.751	9842
875.88	10090
876.008	10143
876.136	10234
876.265	10474
876.393	10729
876.521	10717
876.65	10767
876.778	10873
876.906	10942
877.034	10904
877.162	11151
877.29	11132
877.418	11242
877.546	11326
877.674	11414
877.802	11467
877.93	11596
878.058	11638
878.185	11516
878.313	11665
878.441	11775
878.568	11695
878.696	11832
878.824	11901
878.951	11897
879.079	11969
879.206	12015
879.333	12045
879.461	12015
879.588	12087
879.715	11999
879.842	12258
879.97	12064
880.097	11832
880.224	11863
880.351	11923
880.478	11878
880.605	11817
880.732	11863
880.859	12007
880.986	11760
881.112	11889
881.239	11676
881.366	11623
881.493	11623
881.619	11589
881.746	11524
881.872	11577
881.999	11512
882.125	11505
882.252	11539
882.378	11490
882.505	11532
882.631	11402
882.757	11337
882.883	11307
883.01	11265
883.136	11201
883.262	11102
883.388	11086
883.514	11258
883.64	11193
883.766	11105
883.892	10972
884.018	11033
884.143	11075
884.269	11178
884.395	10881
884.52	10828
884.646	10831
884.772	10752
884.897	10611
885.023	10660
885.148	10763
885.274	10801
885.399	10736
885.524	10698
885.65	10702
885.775	10599
885.9	10573
886.025	10664
886.15	10607
886.275	10466
886.4	10462
886.525	10421
886.65	10333
886.775	10333
886.9	10436
887.025	10474
887.149	10367
887.274	10211
887.399	10128
887.523	10204
887.648	10109
887.773	10131
887.897	10192
888.021	10242
888.146	10120
888.27	10192
888.395	10177
888.519	10185
888.643	10230
888.767	10227
888.891	10082
889.015	10082
889.139	10067
889.263	10044
889.387	10082
889.511	10093
889.635	10040
889.759	9926
889.883	9956
890.006	10017
890.13	10082
890.254	9930
890.377	9937
890.501	9835
890.624	9873
890.748	9869
890.871	9857
890.995	9679
891.118	9690
891.241	9755
891.364	9762
891.488	9812
891.611	9732
891.734	9751
891.857	9812
891.98	9675
892.103	9785
892.226	9720
892.349	9606
892.471	9511
892.594	9591
892.717	9599
892.839	9576
892.962	9576
893.085	9660
893.207	9622
893.33	9496
893.452	9542
893.575	9637
893.697	9500
893.819	9606
893.941	9633
894.064	9633
894.186	9469
894.308	9485
894.43	9500
894.552	9610
894.674	9504
894.796	9389
894.918	9351
895.04	9340
895.161	9382
895.283	9443
895.405	9218
895.526	9226
895.648	9237
895.769	9203
895.891	9306
896.012	9359
896.134	9237
896.255	9188
896.376	9150
896.498	9176
896.619	9226
896.74	9116
896.861	9039
896.982	9313
897.103	9351
897.224	9233
897.345	9051
897.466	8994
897.587	9077
897.708	9058
897.828	9039
897.949	8933
898.07	8819
898.19	8971
898.311	8948
898.431	8941
898.552	8998
898.672	9020
898.792	8914
898.913	8982
899.033	8861
899.153	8785
899.273	8678
899.393	8750
899.513	8739
899.633	8766
899.753	8842
899.873	8689
899.993	8697
900.113	8724
900.232	8693
900.352	8701
900.472	8583
900.591	8526
900.711	8602
900.83	8556
900.95	8735
901.069	8670
901.189	8533
901.308	8518
901.427	8336
901.546	8358
901.665	8408
901.784	8514
901.904	8366
902.023	8320
902.141	8206
902.26	8267
902.379	8320
902.498	8225
902.617	8229
902.735	8381
902.854	8279
902.973	8317
903.091	8123
903.21	8187
903.328	8161
903.446	8111
903.565	8119
903.683	8107
903.801	8005
903.919	8115
904.038	8130
904.156	8062
904.274	8092
904.392	8065
904.51	8016
904.627	8031
904.745	8111
904.863	8126
904.981	7902
905.098	7852
905.216	7902
905.334	7986
905.451	7894
905.569	7902
905.686	7845
905.803	7913
905.921	7772
906.038	7902
906.155	7761
906.272	7757
906.389	7723
906.506	7689
906.623	7594
906.74	7601
906.857	7472
906.974	7571
907.091	7643
907.208	7674
907.324	7681
907.441	7510
907.557	7464
907.674	7464
907.79	7350
907.907	7502
908.023	7419
908.139	7457
908.256	7392
908.372	7384
908.488	7293
908.604	7316
908.72	7266
908.836	7251
908.952	7232
909.068	7362
909.184	7316
909.3	7236
909.415	7377
909.531	7308
909.647	7095
909.762	7107
909.878	7091
909.993	7133
910.108	7118
910.224	7133
910.339	7080
910.454	7012
910.57	7012
910.685	6966
910.8	7164
910.915	7168
911.03	7080
911.145	6886
911.259	6935
911.374	6905
911.489	6833
911.604	6840
911.718	6719
911.833	6848
911.947	6692
912.062	6623
912.176	6692
912.291	6684
912.405	6673
912.519	6852
912.633	6806
912.748	6768
912.862	6669
912.976	6639
913.09	6551
913.204	6601
913.318	6612
913.431	6700
913.545	6677
913.659	6772
913.772	6631
913.886	6525
914	6544
914.113	6608
914.226	6639
914.34	6623
914.453	6540
914.566	6623
914.68	6498
914.793	6532
914.906	6399
915.019	6350
915.132	6380
915.245	6452
915.358	6464
915.47	6498
915.583	6448
915.696	6445
915.809	6544
915.921	6593
916.034	6407
916.146	6403
916.259	6418
916.371	6502
916.483	6509
916.595	6414
916.708	6460
916.82	6403
916.932	6361
917.044	6376
917.156	6460
917.268	6334
917.38	6331
917.491	6342
917.603	6346
917.715	6372
917.826	6452
917.938	6346
918.049	6232
918.161	6395
918.272	6426
918.384	6483
918.495	6350
918.606	6323
918.717	6224
918.828	6247
918.939	6319
919.05	6243
919.161	6270
919.272	6087
919.383	6152
919.494	6372
919.604	6410
919.715	6346
919.826	6247
919.936	6247
920.047	6372
920.157	6224
920.267	6452
920.378	6369
920.488	6270
920.598	6479
920.708	6597
920.818	6479
920.928	6498
921.038	6551
921.148	6582
921.258	6334
921.368	6300
921.477	6205
921.587	6190
921.697	6079
921.806	6224
921.916	6102
922.025	5912
922.134	5851
922.244	5874
922.353	6007
922.462	5844
922.571	5863
922.68	5741
922.789	5581
922.898	5737
923.007	5592
923.116	5684
923.224	5707
923.333	5688
923.442	5657
923.55	5596
923.659	5642
923.767	5596
923.876	5539
923.984	5592
924.092	5520
924.201	5562
924.309	5608
924.417	5539
924.525	5528
924.633	5493
924.741	6205
924.849	5360
924.956	5493
925.064	5318
925.172	5372
925.279	5349
925.387	5357
925.494	5364
925.602	5448
925.709	5372
925.816	5296
925.924	5337
926.031	5410
926.138	5277
926.245	5288
926.352	5330
926.459	5307
926.566	5341
926.673	5220
926.779	5166
926.886	5094
926.993	5045
927.099	5014
927.206	4999
927.312	4995
927.419	5037
927.525	4984
927.631	5006
927.737	4870
927.843	4839
927.95	4778
928.056	4873
928.162	4866
928.267	4862
928.373	5337
928.479	4858
928.585	4702
928.69	4748
928.796	4843
928.901	4717
929.007	4588
929.112	4702
929.218	4634
929.323	4679
929.428	4554
929.533	4630
929.638	4535
929.743	4603
929.848	4508
929.953	4489
930.058	4432
930.163	4325
930.267	4352
930.372	4417
930.477	4329
930.581	4493
930.685	4394
930.79	4272
930.894	4242
930.998	4284
931.103	4394
931.207	4131
931.311	4086
931.415	4044
931.519	3953
931.623	3979
