Data from test_V78500241_1132.txt Node
Date: Fri Mar 25 15:49:38 CST 2022
User: usil
Spectrometer: V785-0024
Trigger mode: 0
Integration Time (sec): 4.000000E-1
Scans to average: 1
Nonlinearity correction enabled: false
Boxcar width: 0
Storing dark spectrum: false
XAxis mode: Wavelengths
Number of Pixels in Spectrum: 1024
>>>>>Begin Spectral Data<<<<<
801.071	28497
801.214	28459
801.356	28314
801.499	28234
801.641	28070
801.783	28116
801.926	28131
802.068	28135
802.211	27983
802.353	28070
802.496	27800
802.638	27747
802.78	27793
802.923	27701
803.065	27698
803.208	27667
803.35	27800
803.492	27972
803.635	27934
803.777	27960
803.919	28044
804.061	28352
804.204	28070
804.346	27960
804.488	27930
804.63	27823
804.773	27960
804.915	28040
805.057	28070
805.199	28032
805.341	28185
805.483	28226
805.626	28029
805.768	28116
805.91	28234
806.052	28128
806.194	28185
806.336	28512
806.478	28246
806.62	28093
806.762	28352
806.904	28424
807.046	28713
807.188	28713
807.33	28702
807.472	28649
807.614	28622
807.756	28535
807.898	28538
808.04	28432
808.182	28443
808.324	28565
808.465	28546
808.607	28771
808.749	28862
808.891	28961
809.033	28995
809.174	28927
809.316	28869
809.458	28797
809.6	28839
809.741	28961
809.883	29037
810.025	29155
810.166	29159
810.308	29166
810.45	29166
810.591	29052
810.733	28755
810.875	28759
811.016	28733
811.158	28900
811.299	28900
811.441	29178
811.582	29075
811.724	28976
811.865	28793
812.007	28801
812.148	28831
812.29	29022
812.431	29136
812.573	29174
812.714	29303
812.855	29349
812.997	29474
813.138	29524
813.279	29619
813.421	29463
813.562	29337
813.703	29155
813.845	29037
813.986	28900
814.127	28850
814.268	28637
814.41	28710
814.551	28474
814.692	28656
814.833	28519
814.974	28569
815.115	28618
815.256	28478
815.397	28618
815.539	28401
815.68	28405
815.821	28306
815.962	28440
816.103	28421
816.244	28333
816.385	28211
816.526	28097
816.666	28006
816.807	27968
816.948	27899
817.089	28067
817.23	27998
817.371	27808
817.512	27987
817.653	27865
817.793	27873
817.934	27907
818.075	27922
818.216	27930
818.356	27831
818.497	27884
818.638	27690
818.778	27641
818.919	27690
819.06	27770
819.2	27732
819.341	27800
819.481	27930
819.622	28006
819.762	28242
819.903	28200
820.043	28097
820.184	28177
820.324	28051
820.465	28040
820.605	28029
820.746	27975
820.886	27914
821.026	28067
821.167	28101
821.307	28192
821.447	27941
821.588	27778
821.728	27751
821.868	27606
822.008	27450
822.149	27473
822.289	27420
822.429	27142
822.569	27058
822.709	27093
822.849	26895
822.99	26906
823.13	26815
823.27	26857
823.41	26674
823.55	26712
823.69	26754
823.83	26773
823.97	26712
824.11	26552
824.25	26431
824.389	26453
824.529	26701
824.669	26568
824.809	26575
824.949	26788
825.089	26648
825.228	26594
825.368	26415
825.508	26427
825.648	26469
825.787	26499
825.927	26575
826.067	26442
826.206	26507
826.346	26480
826.485	26393
826.625	26476
826.765	26511
826.904	26488
827.044	26187
827.183	26073
827.323	26107
827.462	26237
827.601	26202
827.741	26161
827.88	26138
828.02	26221
828.159	26130
828.298	26122
828.437	26225
828.577	26092
828.716	26176
828.855	26012
828.994	25940
829.134	25913
829.273	25871
829.412	25826
829.551	25685
829.69	25879
829.829	26005
829.968	25883
830.107	25845
830.246	25761
830.385	25753
830.524	25700
830.663	25563
830.802	25567
830.941	25464
831.08	25316
831.219	25537
831.357	25552
831.496	25776
831.635	25487
831.774	25430
831.913	25396
832.051	25270
832.19	25327
832.329	25221
832.467	25190
832.606	25114
832.744	25110
832.883	25114
833.022	25088
833.16	25019
833.299	25164
833.437	25137
833.576	25403
833.714	25194
833.852	25259
833.991	25137
834.129	25244
834.267	25297
834.406	25072
834.544	25301
834.682	25160
834.821	25266
834.959	25274
835.097	25019
835.235	25369
835.373	25213
835.511	25145
835.65	25072
835.788	25061
835.926	24985
836.064	24905
836.202	24817
836.34	25004
836.478	25107
836.615	24981
836.753	24989
836.891	25076
837.029	25034
837.167	25012
837.305	24901
837.443	24890
837.58	24844
837.718	24894
837.856	24859
837.993	24829
838.131	24772
838.269	24700
838.406	24791
838.544	24654
838.681	24437
838.819	24429
838.956	24228
839.094	24285
839.231	24357
839.369	24475
839.506	24654
839.643	24479
839.781	24285
839.918	24285
840.055	24350
840.193	24315
840.33	24194
840.467	24353
840.604	24182
840.742	24547
840.879	24072
841.016	24144
841.153	24117
841.29	24247
841.427	24167
841.564	24308
841.701	24182
841.838	24030
841.975	24060
842.112	24194
842.249	24121
842.385	24057
842.522	24178
842.659	24079
842.796	23958
842.933	24011
843.069	23828
843.206	23904
843.343	23992
843.479	24015
843.616	23893
843.752	23756
843.889	23832
844.025	23817
844.162	23695
844.298	23783
844.435	23687
844.571	23699
844.708	23657
844.844	24053
844.98	23828
845.117	23889
845.253	23608
845.389	23554
845.525	23680
845.661	23600
845.798	23512
845.934	23516
846.07	23554
846.206	23471
846.342	23672
846.478	23376
846.614	23204
846.75	23269
846.886	23140
847.022	23208
847.158	23166
847.294	23162
847.429	23220
847.565	23246
847.701	23345
847.837	22900
847.972	22835
848.108	23041
848.244	22908
848.379	22911
848.515	22797
848.65	22801
848.786	22801
848.921	22790
849.057	22843
849.192	22858
849.328	22873
849.463	22820
849.598	22786
849.734	22759
849.869	22588
850.004	22516
850.14	22637
850.275	22557
850.41	22459
850.545	22508
850.68	22516
850.815	22596
850.95	22580
851.085	22679
851.22	22702
851.355	22516
851.49	22382
851.625	22504
851.76	22436
851.895	22382
852.03	22481
852.165	22538
852.299	22527
852.434	22721
852.569	22519
852.703	22508
852.838	22580
852.973	22691
853.107	22626
853.242	22531
853.376	22379
853.511	22223
853.645	22287
853.78	22367
853.914	22447
854.048	22344
854.183	22325
854.317	22348
854.451	22698
854.585	22337
854.72	22280
854.854	22447
854.988	22405
855.122	22303
855.256	22211
855.39	22325
855.524	22447
855.658	22367
855.792	22329
855.926	22295
856.06	22344
856.194	22268
856.327	22204
856.461	22249
856.595	22337
856.729	22276
856.862	22440
856.996	22398
857.13	22371
857.263	22474
857.397	22470
857.53	22394
857.664	22409
857.797	22363
857.931	22455
858.064	22455
858.197	22470
858.331	22280
858.464	22215
858.597	22253
858.731	22341
858.864	22306
858.997	22299
859.13	22329
859.263	22485
859.396	22462
859.529	22322
859.662	22367
859.795	22299
859.928	22295
860.061	22573
860.194	22508
860.327	22421
860.46	22287
860.592	22474
860.725	22542
860.858	22615
860.99	22382
861.123	22303
861.256	22268
861.388	22398
861.521	23010
861.653	22200
861.786	22109
861.918	22257
862.05	22246
862.183	22128
862.315	22333
862.447	22398
862.58	22337
862.712	21964
862.844	22105
862.976	22120
863.108	22051
863.24	22634
863.372	22074
863.504	22002
863.636	22017
863.768	22093
863.9	22055
864.032	21972
864.164	22086
864.296	21972
864.428	22078
864.559	22017
864.691	22101
864.823	22074
864.954	21903
865.086	22017
865.217	21968
865.349	21956
865.48	22036
865.612	21911
865.743	22135
865.875	21869
866.006	21945
866.137	21964
866.269	21915
866.4	21934
866.531	21873
866.662	21762
866.793	21854
866.924	21934
867.055	21991
867.186	21865
867.317	21838
867.448	21641
867.579	21755
867.71	21808
867.841	21808
867.972	21781
868.103	21781
868.233	21835
868.364	21907
868.495	21892
868.625	21979
868.756	22097
868.886	22017
869.017	22101
869.147	22185
869.278	22238
869.408	22105
869.539	22036
869.669	22223
869.799	22249
869.929	22211
870.06	22276
870.19	22512
870.32	22386
870.45	22375
870.58	22493
870.71	22641
870.84	22641
870.97	22550
871.1	22478
871.23	22713
871.36	22679
871.489	22561
871.619	22687
871.749	22771
871.879	22805
872.008	22721
872.138	22584
872.267	22668
872.397	22584
872.526	22466
872.656	22611
872.785	22637
872.915	22721
873.044	22653
873.173	22744
873.303	22755
873.432	22767
873.561	22828
873.69	22725
873.819	22733
873.948	22736
874.077	22660
874.206	22771
874.335	22675
874.464	22694
874.593	22934
874.722	22889
874.851	23052
874.979	22976
875.108	22976
875.237	22908
875.365	22702
875.494	22953
875.623	22957
875.751	22965
875.88	22919
876.008	23128
876.136	23029
876.265	23429
876.393	23429
876.521	23356
876.65	23414
876.778	23368
876.906	23185
877.034	23288
877.162	23284
877.29	23292
877.418	23242
877.546	23258
877.674	23284
877.802	23284
877.93	23349
878.058	23307
878.185	23159
878.313	23132
878.441	23277
878.568	23079
878.696	23231
878.824	23159
878.951	23425
879.079	23444
879.206	23551
879.333	23360
879.461	23315
879.588	23398
879.715	23463
879.842	23505
879.97	23391
880.097	23143
880.224	23083
880.351	23132
880.478	23010
880.605	23079
880.732	23037
880.859	23414
880.986	23121
881.112	23102
881.239	22923
881.366	22896
881.493	22809
881.619	22706
881.746	22683
881.872	22664
881.999	22634
882.125	22523
882.252	22710
882.378	22512
882.505	22694
882.631	22451
882.757	22352
882.883	22470
883.01	22310
883.136	22207
883.262	22200
883.388	22223
883.514	22337
883.64	22348
883.766	22192
883.892	22059
884.018	22143
884.143	22276
884.269	22371
884.395	21926
884.52	21991
884.646	21983
884.772	21781
884.897	21846
885.023	21911
885.148	22082
885.274	22097
885.399	22067
885.524	22029
885.65	22025
885.775	22055
885.9	21956
886.025	22055
886.15	22120
886.275	21915
886.4	21850
886.525	21800
886.65	21899
886.775	21892
886.9	22105
887.025	22196
887.149	21956
887.274	21755
887.399	21724
887.523	21671
887.648	21595
887.773	21595
887.897	21880
888.021	21736
888.146	21591
888.27	21804
888.395	21766
888.519	21808
888.643	21705
888.767	21774
888.891	21606
889.015	21492
889.139	21641
889.263	21519
889.387	21682
889.511	21762
889.635	21633
889.759	21488
889.883	21523
890.006	21389
890.13	21580
890.254	21310
890.377	21317
890.501	21321
890.624	21100
890.748	21275
890.871	21207
890.995	21104
891.118	20960
891.241	21020
891.364	21100
891.488	21142
891.611	21116
891.734	21112
891.857	21165
891.98	21077
892.103	21123
892.226	21146
892.349	20876
892.471	20834
892.594	20956
892.717	21032
892.839	20967
892.962	20998
893.085	21058
893.207	20902
893.33	20952
893.452	20800
893.575	20876
893.697	20906
893.819	21176
893.941	21131
894.064	21055
894.186	20960
894.308	20750
894.43	21039
894.552	21104
894.674	20982
894.796	20750
894.918	20933
895.04	20933
895.161	21017
895.283	21005
895.405	20982
895.526	20861
895.648	20925
895.769	20902
895.891	20857
896.012	21119
896.134	21070
896.255	21043
896.376	20990
896.498	20975
896.619	21009
896.74	20811
896.861	20998
896.982	21306
897.103	21401
897.224	21112
897.345	21116
897.466	21127
897.587	21005
897.708	21260
897.828	21154
897.949	21013
898.07	21047
898.19	21058
898.311	21180
898.431	21085
898.552	21154
898.672	21222
898.792	21055
898.913	21313
899.033	21093
899.153	20864
899.273	20906
899.393	20887
899.513	20967
899.633	20777
899.753	20918
899.873	20857
899.993	20899
900.113	20762
900.232	20834
900.352	20670
900.472	20777
900.591	20556
900.711	20617
900.83	20571
900.95	20834
901.069	20765
901.189	20549
901.308	20446
901.427	20221
901.546	20301
901.665	20313
901.784	20153
901.904	20183
902.023	19989
902.141	19757
902.26	19681
902.379	19788
902.498	19681
902.617	19628
902.735	19852
902.854	19666
902.973	19616
903.091	19343
903.21	19339
903.328	19259
903.446	19244
903.565	19171
903.683	19213
903.801	19126
903.919	19156
904.038	19065
904.156	19008
904.274	19072
904.392	18844
904.51	18996
904.627	18916
904.745	19091
904.863	18954
904.981	18772
905.098	18521
905.216	18604
905.334	18741
905.451	18582
905.569	18646
905.686	18620
905.803	18509
905.921	18350
906.038	18456
906.155	18323
906.272	18190
906.389	18346
906.506	18251
906.623	18106
906.74	18174
906.857	17992
906.974	18007
907.091	18190
907.208	18289
907.324	18091
907.441	18167
907.557	17733
907.674	17859
907.79	17813
907.907	17821
908.023	17954
908.139	17836
908.256	17726
908.372	17764
908.488	17653
908.604	17596
908.72	17642
908.836	17585
908.952	17524
909.068	17493
909.184	17680
909.3	17532
909.415	17535
909.531	17516
909.647	17379
909.762	17239
909.878	17178
909.993	17296
910.108	17197
910.224	17277
910.339	17200
910.454	17155
910.57	17105
910.685	16965
910.8	17334
910.915	17193
911.03	17083
911.145	16885
911.259	16843
911.374	16786
911.489	16801
911.604	16683
911.718	16561
911.833	16546
911.947	16516
912.062	16523
912.176	16573
912.291	16603
912.405	16531
912.519	16850
912.633	16729
912.748	16584
912.862	16535
912.976	16474
913.09	16238
913.204	16265
913.318	16363
913.431	16424
913.545	16466
913.659	16428
913.772	16314
913.886	16211
914	16188
914.113	16238
914.226	16322
914.34	16154
914.453	15994
914.566	16169
914.68	16040
914.793	16059
914.906	15827
915.019	15705
915.132	15686
915.245	15778
915.358	15766
915.47	15686
915.583	15759
915.696	15713
915.809	15880
915.921	15884
916.034	15644
916.146	15648
916.259	15671
916.371	15774
916.483	15724
916.595	15526
916.708	15519
916.82	15595
916.932	15542
917.044	15530
917.156	15515
917.268	15382
917.38	15397
917.491	15325
917.603	15348
917.715	15504
917.826	15469
917.938	15287
918.049	15230
918.161	15325
918.272	15530
918.384	15428
918.495	15340
918.606	15097
918.717	15097
918.828	15081
918.939	15097
919.05	15043
919.161	15089
919.272	14861
919.383	15062
919.494	15161
919.604	15412
919.715	15116
919.826	15131
919.936	14994
920.047	15127
920.157	15085
920.267	15256
920.378	15032
920.488	15058
920.598	15180
920.708	15443
920.818	15214
920.928	15317
921.038	15313
921.148	15275
921.258	14990
921.368	14948
921.477	14887
921.587	14754
921.697	14743
921.806	14762
921.916	14648
922.025	14514
922.134	14503
922.244	14412
922.353	14454
922.462	14408
922.571	14263
922.68	14107
922.789	14084
922.898	14138
923.007	14031
923.116	14229
923.224	14134
923.333	14096
923.442	13947
923.55	13811
923.659	13928
923.767	13967
923.876	13921
923.984	13898
924.092	13788
924.201	13883
924.309	13814
924.417	13788
924.525	13746
924.633	13826
924.741	14568
924.849	13578
924.956	13708
925.064	13480
925.172	13365
925.279	13510
925.387	13548
925.494	13457
925.602	13563
925.709	13518
925.816	13369
925.924	13487
926.031	13491
926.138	13392
926.245	13521
926.352	13362
926.459	13460
926.566	13556
926.673	13373
926.779	13129
926.886	13274
926.993	13088
927.099	13126
927.206	12943
927.312	13034
927.419	13065
927.525	13042
927.631	13019
927.737	12947
927.843	12867
927.95	12806
928.056	12856
928.162	12943
928.267	12825
928.373	13457
928.479	12977
928.585	12745
928.69	12749
928.796	12920
928.901	12753
929.007	12601
929.112	12749
929.218	12669
929.323	12646
929.428	12555
929.533	12563
929.638	12593
929.743	12479
929.848	12623
929.953	12536
930.058	12486
930.163	12319
930.267	12258
930.372	12353
930.477	12197
930.581	12483
930.685	12330
930.79	12121
930.894	12129
930.998	12133
931.103	12289
931.207	11931
931.311	11764
931.415	11722
931.519	11543
931.623	11532
