Data from test_V78500241_3392.txt Node
Date: Fri Mar 25 16:05:17 CST 2022
User: usil
Spectrometer: V785-0024
Trigger mode: 0
Integration Time (sec): 4.000000E-1
Scans to average: 1
Nonlinearity correction enabled: false
Boxcar width: 0
Storing dark spectrum: false
XAxis mode: Wavelengths
Number of Pixels in Spectrum: 1024
>>>>>Begin Spectral Data<<<<<
801.071	28675
801.214	28847
801.356	28516
801.499	28394
801.641	28257
801.783	28223
801.926	28314
802.068	28287
802.211	28185
802.353	28219
802.496	27899
802.638	27987
802.78	27987
802.923	27926
803.065	27804
803.208	28021
803.35	27983
803.492	28093
803.635	28192
803.777	28116
803.919	28246
804.061	28489
804.204	28192
804.346	28048
804.488	28036
804.63	28154
804.773	28219
804.915	28291
805.057	28268
805.199	28207
805.341	28352
805.483	28405
805.626	28344
805.768	28310
805.91	28451
806.052	28211
806.194	28173
806.336	28592
806.478	28394
806.62	28386
806.762	28451
806.904	28599
807.046	28999
807.188	28896
807.33	28763
807.472	28828
807.614	28740
807.756	28828
807.898	28771
808.04	28645
808.182	28603
808.324	28596
808.465	28687
808.607	28809
808.749	29052
808.891	29136
809.033	29311
809.174	29246
809.316	28911
809.458	29231
809.6	29128
809.741	29204
809.883	29136
810.025	29353
810.166	29486
810.308	29330
810.45	29315
810.591	29410
810.733	28999
810.875	29010
811.016	28934
811.158	28995
811.299	29216
811.441	29227
811.582	29277
811.724	29060
811.865	28938
812.007	29098
812.148	29083
812.29	29174
812.431	29239
812.573	29505
812.714	29444
812.855	29577
812.997	29741
813.138	29859
813.279	29714
813.421	29505
813.562	29539
813.703	29501
813.845	29353
813.986	28976
814.127	28911
814.268	28744
814.41	28706
814.551	28812
814.692	28877
814.833	28694
814.974	28752
815.115	28763
815.256	28626
815.397	28596
815.539	28725
815.68	28607
815.821	28596
815.962	28691
816.103	28637
816.244	28428
816.385	28504
816.526	28497
816.666	28177
816.807	28063
816.948	28109
817.089	28226
817.23	28093
817.371	28044
817.512	28249
817.653	28025
817.793	28067
817.934	28063
818.075	28204
818.216	28207
818.356	28010
818.497	28051
818.638	27789
818.778	27926
818.919	27949
819.06	27907
819.2	27953
819.341	28067
819.481	28188
819.622	28246
819.762	28546
819.903	28352
820.043	28356
820.184	28215
820.324	28223
820.465	28253
820.605	28219
820.746	28150
820.886	28051
821.026	28249
821.167	28139
821.307	28226
821.447	28093
821.588	27994
821.728	28025
821.868	27728
822.008	27641
822.149	27587
822.289	27576
822.429	27287
822.569	27325
822.709	27222
822.849	27108
822.99	27077
823.13	27017
823.27	27017
823.41	26979
823.55	26849
823.69	26880
823.83	27001
823.97	26910
824.11	26743
824.25	26777
824.389	26773
824.529	26754
824.669	26701
824.809	26918
824.949	26758
825.089	26853
825.228	26697
825.368	26640
825.508	26568
825.648	26453
825.787	26617
825.927	26716
826.067	26560
826.206	26708
826.346	26670
826.485	26648
826.625	26495
826.765	26754
826.904	26785
827.044	26305
827.183	26450
827.323	26362
827.462	26427
827.601	26290
827.741	26339
827.88	26381
828.02	26244
828.159	26415
828.298	26423
828.437	26465
828.577	26286
828.716	26404
828.855	26370
828.994	26046
829.134	25986
829.273	26134
829.412	25925
829.551	26103
829.69	26012
829.829	26043
829.968	26092
830.107	26115
830.246	26027
830.385	26012
830.524	25849
830.663	25902
830.802	25769
830.941	25742
831.08	25685
831.219	25700
831.357	25761
831.496	25795
831.635	25677
831.774	25575
831.913	25502
832.051	25377
832.19	25510
832.329	25460
832.467	25384
832.606	25304
832.744	25228
832.883	25316
833.022	25285
833.16	25381
833.299	25415
833.437	25202
833.576	25346
833.714	25445
833.852	25434
833.991	25384
834.129	25441
834.267	25411
834.406	25434
834.544	25331
834.682	25438
834.821	25369
834.959	25594
835.097	25324
835.235	25445
835.373	25304
835.511	25441
835.65	25228
835.788	25263
835.926	25015
836.064	25000
836.202	25034
836.34	25190
836.478	25350
836.615	25061
836.753	25137
836.891	25152
837.029	25152
837.167	25156
837.305	25152
837.443	25099
837.58	24977
837.718	25088
837.856	25221
837.993	25023
838.131	24882
838.269	24745
838.406	24977
838.544	24833
838.681	24760
838.819	24532
838.956	24505
839.094	24490
839.231	24525
839.369	24738
839.506	24856
839.643	24681
839.781	24490
839.918	24422
840.055	24555
840.193	24414
840.33	24391
840.467	24350
840.604	24460
840.742	24738
840.879	24243
841.016	24319
841.153	24399
841.29	24448
841.427	24407
841.564	24426
841.701	24350
841.838	24483
841.975	24372
842.112	24232
842.249	24057
842.385	24098
842.522	24445
842.659	24376
842.796	24159
842.933	24064
843.069	24095
843.206	24068
843.343	24277
843.479	24251
843.616	24144
843.752	23954
843.889	24068
844.025	24171
844.162	23870
844.298	24041
844.435	23950
844.571	23863
844.708	23878
844.844	24072
844.98	24038
845.117	24045
845.253	23992
845.389	23798
845.525	23889
845.661	23832
845.798	23707
845.934	23809
846.07	23665
846.206	23813
846.342	23764
846.478	23733
846.614	23444
846.75	23455
846.886	23337
847.022	23410
847.158	23444
847.294	23379
847.429	23436
847.565	23360
847.701	23687
847.837	23227
847.972	22987
848.108	23330
848.244	23273
848.379	23143
848.515	22934
848.65	23033
848.786	23010
848.921	23075
849.057	23143
849.192	23018
849.328	23075
849.463	22904
849.598	22968
849.734	22927
849.869	22805
850.004	22858
850.14	22771
850.275	22782
850.41	22793
850.545	22786
850.68	22839
850.815	22763
850.95	22740
851.085	22877
851.22	22908
851.355	22831
851.49	22744
851.625	22774
851.76	22755
851.895	22702
852.03	22687
852.165	22828
852.299	22835
852.434	22736
852.569	22889
852.703	22729
852.838	22828
852.973	22930
853.107	22873
853.242	22584
853.376	22664
853.511	22599
853.645	22424
853.78	22698
853.914	22546
854.048	22618
854.183	22516
854.317	22653
854.451	22767
854.585	22584
854.72	22599
854.854	22694
854.988	22516
855.122	22565
855.256	22531
855.39	22527
855.524	22607
855.658	22622
855.792	22569
855.926	22573
856.06	22725
856.194	22611
856.327	22599
856.461	22538
856.595	22470
856.729	22455
856.862	22710
856.996	22767
857.13	22710
857.263	22675
857.397	22679
857.53	22588
857.664	22702
857.797	22535
857.931	22782
858.064	22569
858.197	22755
858.331	22634
858.464	22523
858.597	22443
858.731	22512
858.864	22542
858.997	22497
859.13	22561
859.263	22588
859.396	22790
859.529	22428
859.662	22573
859.795	22512
859.928	22577
860.061	22702
860.194	22740
860.327	22645
860.46	22675
860.592	22664
860.725	22706
860.858	22649
860.99	22607
861.123	22459
861.256	22443
861.388	22516
861.521	23379
861.653	22519
861.786	22348
861.918	22523
862.05	22470
862.183	22519
862.315	22588
862.447	22603
862.58	22535
862.712	22280
862.844	22261
862.976	22299
863.108	22394
863.24	22793
863.372	22207
863.504	22333
863.636	22299
863.768	22447
863.9	22204
864.032	22200
864.164	22188
864.296	22211
864.428	22523
864.559	22291
864.691	22318
864.823	22322
864.954	22421
865.086	22192
865.217	22143
865.349	22120
865.48	22139
865.612	22192
865.743	22421
865.875	22211
866.006	22162
866.137	22082
866.269	22109
866.4	22154
866.531	22002
866.662	22120
866.793	22242
866.924	22204
867.055	22036
867.186	22143
867.317	22105
867.448	22017
867.579	21998
867.71	22032
867.841	22059
867.972	22051
868.103	22067
868.233	22139
868.364	22101
868.495	22268
868.625	22337
868.756	22451
868.886	22291
869.017	22314
869.147	22382
869.278	22557
869.408	22466
869.539	22329
869.669	22371
869.799	22375
869.929	22497
870.06	22379
870.19	22577
870.32	22561
870.45	22759
870.58	22740
870.71	22824
870.84	22778
870.97	22767
871.1	22710
871.23	23086
871.36	22843
871.489	22801
871.619	22824
871.749	22976
871.879	22900
872.008	23037
872.138	22972
872.267	22953
872.397	22854
872.526	22862
872.656	22801
872.785	22626
872.915	22984
873.044	23200
873.173	22850
873.303	23003
873.432	22949
873.561	23098
873.69	23075
873.819	22961
873.948	23067
874.077	22946
874.206	22881
874.335	22949
874.464	23022
874.593	23136
874.722	23060
874.851	23254
874.979	23330
875.108	23284
875.237	23048
875.365	23010
875.494	23216
875.623	23303
875.751	23140
875.88	23280
876.008	23326
876.136	23406
876.265	23668
876.393	23619
876.521	23642
876.65	23707
876.778	23589
876.906	23577
877.034	23455
877.162	23638
877.29	23421
877.418	23577
877.546	23467
877.674	23417
877.802	23414
877.93	23448
878.058	23554
878.185	23337
878.313	23353
878.441	23528
878.568	23273
878.696	23376
878.824	23512
878.951	23642
879.079	23748
879.206	23802
879.333	23733
879.461	23619
879.588	23638
879.715	23596
879.842	23767
879.97	23630
880.097	23414
880.224	23376
880.351	23406
880.478	23360
880.605	23216
880.732	23402
880.859	23570
880.986	23261
881.112	23387
881.239	23185
881.366	23136
881.493	22934
881.619	22843
881.746	22999
881.872	22968
881.999	22843
882.125	22793
882.252	22881
882.378	22904
882.505	22984
882.631	22721
882.757	22565
882.883	22660
883.01	22577
883.136	22546
883.262	22523
883.388	22390
883.514	22584
883.64	22599
883.766	22554
883.892	22382
884.018	22356
884.143	22459
884.269	22634
884.395	22333
884.52	22150
884.646	22185
884.772	22143
884.897	22055
885.023	22192
885.148	22211
885.274	22325
885.399	22268
885.524	22215
885.65	22219
885.775	22257
885.9	21937
886.025	22257
886.15	22219
886.275	22215
886.4	22185
886.525	22162
886.65	21972
886.775	22101
886.9	22188
887.025	22348
887.149	22120
887.274	21953
887.399	21949
887.523	21975
887.648	21949
887.773	21915
887.897	22006
888.021	21956
888.146	21838
888.27	21979
888.395	22070
888.519	21975
888.643	22025
888.767	21956
888.891	21903
889.015	21888
889.139	21812
889.263	21618
889.387	21800
889.511	21930
889.635	21895
889.759	21739
889.883	21728
890.006	21781
890.13	21808
890.254	21675
890.377	21614
890.501	21519
890.624	21450
890.748	21629
890.871	21428
890.995	21241
891.118	21313
891.241	21336
891.364	21405
891.488	21397
891.611	21306
891.734	21249
891.857	21302
891.98	21401
892.103	21218
892.226	21317
892.349	21237
892.471	21077
892.594	21108
892.717	21199
892.839	21222
892.962	21203
893.085	21260
893.207	21108
893.33	21070
893.452	21154
893.575	21184
893.697	21180
893.819	21268
893.941	21332
894.064	21306
894.186	21146
894.308	21180
894.43	21230
894.552	21176
894.674	21268
894.796	21188
894.918	21188
895.04	21138
895.161	21233
895.283	21214
895.405	21203
895.526	21192
895.648	21100
895.769	21112
895.891	21089
896.012	21169
896.134	21233
896.255	21138
896.376	21112
896.498	21226
896.619	21154
896.74	21116
896.861	21199
896.982	21507
897.103	21648
897.224	21340
897.345	21367
897.466	21260
897.587	21492
897.708	21477
897.828	21355
897.949	21382
898.07	21157
898.19	21279
898.311	21344
898.431	21294
898.552	21291
898.672	21386
898.792	21401
898.913	21332
899.033	21302
899.153	21131
899.273	21005
899.393	21104
899.513	21131
899.633	21074
899.753	20990
899.873	21001
899.993	21146
900.113	21047
900.232	20990
900.352	20994
900.472	20864
900.591	20716
900.711	20918
900.83	20785
900.95	20948
901.069	20948
901.189	20765
901.308	20503
901.427	20381
901.546	20530
901.665	20438
901.784	20423
901.904	20218
902.023	20248
902.141	20008
902.26	19982
902.379	19986
902.498	19902
902.617	19883
902.735	19932
902.854	19811
902.973	19731
903.091	19525
903.21	19548
903.328	19624
903.446	19567
903.565	19521
903.683	19415
903.801	19228
903.919	19206
904.038	19289
904.156	19129
904.274	19251
904.392	19110
904.51	19137
904.627	19084
904.745	19099
904.863	19168
904.981	18928
905.098	18829
905.216	18871
905.334	18787
905.451	18867
905.569	18779
905.686	18810
905.803	18760
905.921	18700
906.038	18574
906.155	18665
906.272	18422
906.389	18464
906.506	18357
906.623	18281
906.74	18403
906.857	18053
906.974	18239
907.091	18262
907.208	18350
907.324	18270
907.441	18201
907.557	18068
907.674	17996
907.79	18022
907.907	17969
908.023	18053
908.139	17969
908.256	17973
908.372	17901
908.488	17824
908.604	17707
908.72	17707
908.836	17684
908.952	17680
909.068	17710
909.184	17870
909.3	17691
909.415	17722
909.531	17695
909.647	17528
909.762	17463
909.878	17482
909.993	17448
910.108	17440
910.224	17383
910.339	17353
910.454	17220
910.57	17212
910.685	17189
910.8	17444
910.915	17250
911.03	17242
911.145	16972
911.259	17048
911.374	17079
911.489	16980
911.604	16847
911.718	16759
911.833	16877
911.947	16611
912.062	16603
912.176	16782
912.291	16778
912.405	16767
912.519	16942
912.633	16869
912.748	16763
912.862	16805
912.976	16550
913.09	16508
913.204	16653
913.318	16485
913.431	16698
913.545	16645
913.659	16573
913.772	16497
913.886	16459
914	16348
914.113	16504
914.226	16519
914.34	16413
914.453	16219
914.566	16459
914.68	16219
914.793	16192
914.906	16025
915.019	15941
915.132	15854
915.245	16010
915.358	16093
915.47	15831
915.583	15949
915.696	15964
915.809	16124
915.921	16059
916.034	15907
916.146	15812
916.259	15842
916.371	15827
916.483	15918
916.595	15770
916.708	15816
916.82	15823
916.932	15747
917.044	15724
917.156	15667
917.268	15622
917.38	15625
917.491	15553
917.603	15587
917.715	15679
917.826	15595
917.938	15553
918.049	15298
918.161	15564
918.272	15644
918.384	15652
918.495	15526
918.606	15272
918.717	15272
918.828	15332
918.939	15329
919.05	15252
919.161	15249
919.272	15074
919.383	15188
919.494	15428
919.604	15610
919.715	15317
919.826	15176
919.936	15252
920.047	15374
920.157	15180
920.267	15450
920.378	15260
920.488	15123
920.598	15351
920.708	15515
920.818	15447
920.928	15348
921.038	15458
921.148	15515
921.258	15287
921.368	15085
921.477	14887
921.587	14982
921.697	14861
921.806	14986
921.916	14929
922.025	14746
922.134	14667
922.244	14663
922.353	14705
922.462	14473
922.571	14533
922.68	14355
922.789	14221
922.898	14355
923.007	14225
923.116	14259
923.224	14313
923.333	14244
923.442	14145
923.55	14073
923.659	14081
923.767	14237
923.876	14180
923.984	14077
924.092	14062
924.201	13970
924.309	14005
924.417	14024
924.525	13940
924.633	13959
924.741	14804
924.849	13712
924.956	13909
925.064	13658
925.172	13525
925.279	13624
925.387	13704
925.494	13662
925.602	13769
925.709	13708
925.816	13567
925.924	13563
926.031	13616
926.138	13632
926.245	13578
926.352	13529
926.459	13628
926.566	13609
926.673	13476
926.779	13354
926.886	13301
926.993	13255
927.099	13217
927.206	13141
927.312	13171
927.419	13240
927.525	13198
927.631	13247
927.737	13012
927.843	13015
927.95	12939
928.056	12989
928.162	12985
928.267	12943
928.373	13510
928.479	13152
928.585	12726
928.69	12928
928.796	12924
928.901	12802
929.007	12734
929.112	12859
929.218	12757
929.323	12696
929.428	12783
929.533	12817
929.638	12650
929.743	12669
929.848	12635
929.953	12585
930.058	12460
930.163	12361
930.267	12342
930.372	12494
930.477	12273
930.581	12486
930.685	12426
930.79	12194
930.894	12266
930.998	12186
931.103	12300
931.207	11961
931.311	11885
931.415	11866
931.519	11657
931.623	11703
