Data from test_V78500241_1960.txt Node
Date: Fri Mar 25 15:55:22 CST 2022
User: usil
Spectrometer: V785-0024
Trigger mode: 0
Integration Time (sec): 4.000000E-1
Scans to average: 1
Nonlinearity correction enabled: false
Boxcar width: 0
Storing dark spectrum: false
XAxis mode: Wavelengths
Number of Pixels in Spectrum: 1024
>>>>>Begin Spectral Data<<<<<
801.071	28615
801.214	28512
801.356	28440
801.499	28348
801.641	28242
801.783	28109
801.926	28238
802.068	28196
802.211	28070
802.353	27998
802.496	28010
802.638	28002
802.78	27911
802.923	27895
803.065	27774
803.208	27789
803.35	28010
803.492	28097
803.635	28128
803.777	28021
803.919	28128
804.061	28436
804.204	28055
804.346	28059
804.488	28044
804.63	28051
804.773	27983
804.915	28226
805.057	28234
805.199	28116
805.341	28177
805.483	28375
805.626	28333
805.768	28139
805.91	28200
806.052	28436
806.194	28310
806.336	28386
806.478	28382
806.62	28455
806.762	28352
806.904	28481
807.046	28816
807.188	28725
807.33	28801
807.472	28797
807.614	28736
807.756	28809
807.898	28729
808.04	28584
808.182	28538
808.324	28637
808.465	28569
808.607	28904
808.749	28968
808.891	29086
809.033	29090
809.174	29109
809.316	28923
809.458	29025
809.6	28980
809.741	28991
809.883	29162
810.025	29223
810.166	29242
810.308	29364
810.45	29109
810.591	29136
810.733	29064
810.875	28987
811.016	28885
811.158	28984
811.299	29003
811.441	29147
811.582	29102
811.724	29003
811.865	28980
812.007	28995
812.148	28984
812.29	29064
812.431	29181
812.573	29216
812.714	29444
812.855	29516
812.997	29630
813.138	29699
813.279	29585
813.421	29558
813.562	29505
813.703	29372
813.845	29181
813.986	28930
814.127	28816
814.268	28649
814.41	28744
814.551	28542
814.692	28816
814.833	28702
814.974	28538
815.115	28706
815.256	28577
815.397	28561
815.539	28546
815.68	28394
815.821	28405
815.962	28360
816.103	28538
816.244	28542
816.385	28318
816.526	28329
816.666	28090
816.807	28112
816.948	27998
817.089	28063
817.23	28082
817.371	28010
817.512	28025
817.653	27884
817.793	27926
817.934	27953
818.075	27941
818.216	28017
818.356	27895
818.497	27991
818.638	27736
818.778	27812
818.919	27667
819.06	27835
819.2	28032
819.341	27953
819.481	28048
819.622	28246
819.762	28398
819.903	28242
820.043	28344
820.184	28265
820.324	28051
820.465	28185
820.605	28082
820.746	28173
820.886	28002
821.026	28158
821.167	28040
821.307	28226
821.447	28051
821.588	27991
821.728	27717
821.868	27762
822.008	27583
822.149	27488
822.289	27545
822.429	27260
822.569	27089
822.709	27241
822.849	27085
822.99	27032
823.13	26998
823.27	26880
823.41	26788
823.55	26754
823.69	26792
823.83	26849
823.97	26750
824.11	26617
824.25	26537
824.389	26674
824.529	26648
824.669	26670
824.809	26705
824.949	26754
825.089	26796
825.228	26720
825.368	26385
825.508	26518
825.648	26659
825.787	26484
825.927	26564
826.067	26415
826.206	26453
826.346	26648
826.485	26644
826.625	26476
826.765	26549
826.904	26488
827.044	26259
827.183	26244
827.323	26244
827.462	26358
827.601	26187
827.741	26164
827.88	26294
828.02	26058
828.159	26244
828.298	26294
828.437	26199
828.577	26153
828.716	26271
828.855	26024
828.994	25959
829.134	25963
829.273	26096
829.412	25978
829.551	25860
829.69	25883
829.829	25978
829.968	26054
830.107	25898
830.246	25917
830.385	25693
830.524	25746
830.663	25609
830.802	25575
830.941	25537
831.08	25464
831.219	25491
831.357	25552
831.496	25677
831.635	25537
831.774	25521
831.913	25434
832.051	25297
832.19	25255
832.329	25327
832.467	25202
832.606	24973
832.744	25145
832.883	25194
833.022	25190
833.16	25190
833.299	25156
833.437	25255
833.576	25346
833.714	25099
833.852	25377
833.991	25194
834.129	25308
834.267	25339
834.406	25263
834.544	25301
834.682	25263
834.821	25168
834.959	25320
835.097	25183
835.235	25293
835.373	25278
835.511	25202
835.65	25171
835.788	25194
835.926	24947
836.064	24901
836.202	24943
836.34	25099
836.478	25160
836.615	25004
836.753	24947
836.891	25069
837.029	25129
837.167	24928
837.305	24958
837.443	25141
837.58	24837
837.718	24954
837.856	25019
837.993	24890
838.131	24852
838.269	24791
838.406	24757
838.544	24700
838.681	24585
838.819	24547
838.956	24334
839.094	24414
839.231	24445
839.369	24661
839.506	24715
839.643	24654
839.781	24486
839.918	24254
840.055	24292
840.193	24258
840.33	24327
840.467	24304
840.604	24247
840.742	24601
840.879	24308
841.016	24327
841.153	24167
841.29	24353
841.427	24224
841.564	24285
841.701	24323
841.838	24273
841.975	24239
842.112	24121
842.249	24064
842.385	24095
842.522	24315
842.659	24136
842.796	24095
842.933	24125
843.069	24003
843.206	24003
843.343	24064
843.479	24060
843.616	24026
843.752	23859
843.889	23767
844.025	23973
844.162	23863
844.298	23870
844.435	23790
844.571	23729
844.708	23775
844.844	23897
844.98	24034
845.117	23878
845.253	23748
845.389	23676
845.525	23646
845.661	23718
845.798	23562
845.934	23615
846.07	23486
846.206	23490
846.342	23718
846.478	23448
846.614	23376
846.75	23250
846.886	23254
847.022	23337
847.158	23307
847.294	23288
847.429	23265
847.565	23109
847.701	23463
847.837	23025
847.972	22987
848.108	23079
848.244	23083
848.379	22900
848.515	22736
848.65	22824
848.786	22831
848.921	22927
849.057	22946
849.192	22885
849.328	22786
849.463	22793
849.598	22847
849.734	22816
849.869	22698
850.004	22664
850.14	22675
850.275	22668
850.41	22596
850.545	22527
850.68	22618
850.815	22573
850.95	22493
851.085	22816
851.22	22679
851.355	22660
851.49	22569
851.625	22653
851.76	22588
851.895	22500
852.03	22535
852.165	22660
852.299	22687
852.434	22698
852.569	22573
852.703	22694
852.838	22710
852.973	22740
853.107	22740
853.242	22440
853.376	22462
853.511	22352
853.645	22489
853.78	22535
853.914	22577
854.048	22314
854.183	22432
854.317	22402
854.451	22599
854.585	22363
854.72	22344
854.854	22489
854.988	22322
855.122	22333
855.256	22379
855.39	22394
855.524	22436
855.658	22447
855.792	22367
855.926	22421
856.06	22455
856.194	22550
856.327	22398
856.461	22390
856.595	22398
856.729	22535
856.862	22599
856.996	22367
857.13	22527
857.263	22546
857.397	22512
857.53	22440
857.664	22504
857.797	22508
857.931	22500
858.064	22386
858.197	22580
858.331	22303
858.464	22295
858.597	22226
858.731	22523
858.864	22386
858.997	22417
859.13	22409
859.263	22394
859.396	22348
859.529	22333
859.662	22344
859.795	22379
859.928	22329
860.061	22497
860.194	22603
860.327	22565
860.46	22493
860.592	22409
860.725	22516
860.858	22466
860.99	22402
861.123	22462
861.256	22474
861.388	22314
861.521	23174
861.653	22375
861.786	22124
861.918	22253
862.05	22341
862.183	22352
862.315	22318
862.447	22413
862.58	22371
862.712	22025
862.844	22135
862.976	22310
863.108	22169
863.24	22748
863.372	22006
863.504	22230
863.636	22162
863.768	22131
863.9	22147
864.032	22036
864.164	22051
864.296	22162
864.428	22280
864.559	22158
864.691	22154
864.823	22162
864.954	22173
865.086	22128
865.217	21956
865.349	21922
865.48	22040
865.612	21953
865.743	22169
865.875	21994
866.006	22036
866.137	22078
866.269	21937
866.4	22093
866.531	21930
866.662	21835
866.793	21983
866.924	21949
867.055	21956
867.186	21975
867.317	21922
867.448	21915
867.579	21838
867.71	21804
867.841	21850
867.972	21983
868.103	21865
868.233	22036
868.364	21915
868.495	22017
868.625	22185
868.756	22314
868.886	22181
869.017	22128
869.147	22291
869.278	22261
869.408	22082
869.539	22204
869.669	22249
869.799	22268
869.929	22268
870.06	22200
870.19	22577
870.32	22447
870.45	22489
870.58	22485
870.71	22653
870.84	22755
870.97	22557
871.1	22535
871.23	22774
871.36	22820
871.489	22577
871.619	22687
871.749	22736
871.879	22801
872.008	22858
872.138	22801
872.267	22687
872.397	22656
872.526	22649
872.656	22569
872.785	22531
872.915	22843
873.044	22782
873.173	22774
873.303	22873
873.432	22866
873.561	23018
873.69	22816
873.819	22721
873.948	22957
874.077	22866
874.206	22733
874.335	22717
874.464	22801
874.593	23010
874.722	22987
874.851	22972
874.979	22968
875.108	23014
875.237	23083
875.365	22904
875.494	22972
875.623	23037
875.751	22896
875.88	23041
876.008	23200
876.136	23140
876.265	23326
876.393	23657
876.521	23345
876.65	23417
876.778	23330
876.906	23318
877.034	23318
877.162	23349
877.29	23288
877.418	23376
877.546	23444
877.674	23322
877.802	23315
877.93	23326
878.058	23250
878.185	23204
878.313	23292
878.441	23220
878.568	23212
878.696	23128
878.824	23406
878.951	23482
879.079	23452
879.206	23691
879.333	23573
879.461	23444
879.588	23490
879.715	23387
879.842	23535
879.97	23383
880.097	23174
880.224	23322
880.351	23204
880.478	23193
880.605	23121
880.732	23140
880.859	23322
880.986	23299
881.112	23193
881.239	23109
881.366	22858
881.493	22942
881.619	22740
881.746	22733
881.872	22812
881.999	22683
882.125	22653
882.252	22698
882.378	22634
882.505	22721
882.631	22641
882.757	22356
882.883	22508
883.01	22440
883.136	22432
883.262	22405
883.388	22223
883.514	22402
883.64	22443
883.766	22268
883.892	22124
884.018	22196
884.143	22421
884.269	22485
884.395	22086
884.52	21945
884.646	22135
884.772	22013
884.897	21937
885.023	22120
885.148	22135
885.274	22310
885.399	22128
885.524	21983
885.65	22021
885.775	22090
885.9	22013
886.025	22090
886.15	22128
886.275	21964
886.4	22143
886.525	22048
886.65	21888
886.775	21934
886.9	22154
887.025	22185
887.149	22063
887.274	21888
887.399	21895
887.523	21850
887.648	21694
887.773	21743
887.897	21884
888.021	21835
888.146	21724
888.27	21873
888.395	21941
888.519	21797
888.643	21949
888.767	21800
888.891	21739
889.015	21682
889.139	21564
889.263	21519
889.387	21736
889.511	21762
889.635	21656
889.759	21515
889.883	21412
890.006	21572
890.13	21686
890.254	21473
890.377	21428
890.501	21367
890.624	21283
890.748	21348
890.871	21313
890.995	21135
891.118	21188
891.241	21199
891.364	21116
891.488	21279
891.611	21062
891.734	21157
891.857	21188
891.98	21302
892.103	21199
892.226	21074
892.349	21146
892.471	20967
892.594	21043
892.717	21074
892.839	20948
892.962	21062
893.085	20990
893.207	21028
893.33	20937
893.452	20876
893.575	21104
893.697	21017
893.819	21226
893.941	21218
894.064	21230
894.186	20910
894.308	20944
894.43	21108
894.552	21127
894.674	21150
894.796	20941
894.918	20910
895.04	21005
895.161	21096
895.283	21096
895.405	21017
895.526	21020
895.648	20929
895.769	21100
895.891	21001
896.012	21081
896.134	20971
896.255	20982
896.376	20967
896.498	21032
896.619	21028
896.74	20891
896.861	21028
896.982	21279
897.103	21542
897.224	21264
897.345	21241
897.466	21089
897.587	21180
897.708	21348
897.828	21287
897.949	21157
898.07	21024
898.19	21074
898.311	21279
898.431	21169
898.552	21218
898.672	21173
898.792	21245
898.913	21176
899.033	21112
899.153	20937
899.273	20906
899.393	20899
899.513	20975
899.633	20918
899.753	21001
899.873	20952
899.993	20849
900.113	20872
900.232	20948
900.352	20842
900.472	20792
900.591	20667
900.711	20727
900.83	20705
900.95	20899
901.069	20800
901.189	20724
901.308	20415
901.427	20423
901.546	20259
901.665	20305
901.784	20187
901.904	20233
902.023	20012
902.141	19837
902.26	19719
902.379	19826
902.498	19715
902.617	19590
902.735	19902
902.854	19662
902.973	19620
903.091	19483
903.21	19396
903.328	19521
903.446	19407
903.565	19255
903.683	19324
903.801	19046
903.919	19133
904.038	19141
904.156	18993
904.274	19080
904.392	18913
904.51	19034
904.627	18935
904.745	19038
904.863	18951
904.981	18795
905.098	18658
905.216	18646
905.334	18623
905.451	18673
905.569	18612
905.686	18703
905.803	18574
905.921	18399
906.038	18506
906.155	18509
906.272	18270
906.389	18365
906.506	18197
906.623	18273
906.74	18167
906.857	18125
906.974	18041
907.091	18254
907.208	18289
907.324	18228
907.441	18019
907.557	17973
907.674	17920
907.79	17851
907.907	17824
908.023	17965
908.139	17863
908.256	17836
908.372	17745
908.488	17813
908.604	17604
908.72	17421
908.836	17600
908.952	17680
909.068	17649
909.184	17657
909.3	17680
909.415	17562
909.531	17585
909.647	17425
909.762	17360
909.878	17353
909.993	17197
910.108	17334
910.224	17239
910.339	17322
910.454	17250
910.57	17102
910.685	16949
910.8	17208
910.915	17273
911.03	17109
911.145	16892
911.259	16805
911.374	16961
911.489	16786
911.604	16706
911.718	16641
911.833	16538
911.947	16516
912.062	16588
912.176	16516
912.291	16653
912.405	16618
912.519	16828
912.633	16820
912.748	16615
912.862	16660
912.976	16527
913.09	16504
913.204	16474
913.318	16382
913.431	16535
913.545	16508
913.659	16500
913.772	16333
913.886	16261
914	16135
914.113	16310
914.226	16417
914.34	16390
914.453	16124
914.566	16173
914.68	16166
914.793	15991
914.906	15960
915.019	15781
915.132	15774
915.245	15816
915.358	15876
915.47	15797
915.583	15751
915.696	15846
915.809	15945
915.921	15960
916.034	15720
916.146	15747
916.259	15667
916.371	15690
916.483	15751
916.595	15572
916.708	15519
916.82	15667
916.932	15622
917.044	15568
917.156	15534
917.268	15393
917.38	15378
917.491	15416
917.603	15526
917.715	15477
917.826	15519
917.938	15302
918.049	15207
918.161	15317
918.272	15473
918.384	15523
918.495	15389
918.606	15230
918.717	15173
918.828	15195
918.939	15195
919.05	15017
919.161	15108
919.272	15036
919.383	15119
919.494	15199
919.604	15401
919.715	15142
919.826	15001
919.936	15112
920.047	15211
920.157	15100
920.267	15336
920.378	15150
920.488	15085
920.598	15279
920.708	15431
920.818	15211
920.928	15272
921.038	15382
921.148	15405
921.258	15161
921.368	14982
921.477	14842
921.587	14864
921.697	14746
921.806	14883
921.916	14689
922.025	14552
922.134	14499
922.244	14404
922.353	14610
922.462	14313
922.571	14275
922.68	14164
922.789	14229
922.898	14065
923.007	14046
923.116	14062
923.224	14043
923.333	14088
923.442	14046
923.55	13852
923.659	13967
923.767	13936
923.876	13909
923.984	13913
924.092	13757
924.201	13944
924.309	13772
924.417	13887
924.525	13807
924.633	13693
924.741	14800
924.849	13525
924.956	13708
925.064	13616
925.172	13457
925.279	13487
925.387	13594
925.494	13563
925.602	13651
925.709	13582
925.816	13426
925.924	13373
926.031	13510
926.138	13460
926.245	13495
926.352	13373
926.459	13582
926.566	13499
926.673	13369
926.779	13152
926.886	13217
926.993	13156
927.099	13034
927.206	12886
927.312	12989
927.419	13053
927.525	12954
927.631	13015
927.737	12989
927.843	12935
927.95	12890
928.056	12837
928.162	12791
928.267	12852
928.373	13468
928.479	12928
928.585	12764
928.69	12833
928.796	12844
928.901	12688
929.007	12566
929.112	12703
929.218	12665
929.323	12589
929.428	12513
929.533	12692
929.638	12483
929.743	12559
929.848	12559
929.953	12570
930.058	12509
930.163	12216
930.267	12251
930.372	12448
930.477	12220
930.581	12418
930.685	12391
930.79	12117
930.894	12197
930.998	12060
931.103	12216
931.207	11874
931.311	11775
931.415	11726
931.519	11448
931.623	11463
