Data from test_V78500241_2765.txt Node
Date: Fri Mar 25 16:00:57 CST 2022
User: usil
Spectrometer: V785-0024
Trigger mode: 0
Integration Time (sec): 4.000000E-1
Scans to average: 1
Nonlinearity correction enabled: false
Boxcar width: 0
Storing dark spectrum: false
XAxis mode: Wavelengths
Number of Pixels in Spectrum: 1024
>>>>>Begin Spectral Data<<<<<
801.071	28675
801.214	28649
801.356	28478
801.499	28466
801.641	28356
801.783	28303
801.926	28291
802.068	28356
802.211	28268
802.353	28192
802.496	28055
802.638	28093
802.78	27873
802.923	27804
803.065	27918
803.208	27892
803.35	27968
803.492	28177
803.635	28230
803.777	28215
803.919	28246
804.061	28557
804.204	28226
804.346	28169
804.488	28006
804.63	28295
804.773	28287
804.915	28181
805.057	28394
805.199	28242
805.341	28249
805.483	28440
805.626	28367
805.768	28352
805.91	28337
806.052	28478
806.194	28405
806.336	28573
806.478	28436
806.62	28527
806.762	28565
806.904	28588
807.046	28904
807.188	28877
807.33	28930
807.472	28839
807.614	28930
807.756	28721
807.898	28710
808.04	28634
808.182	28637
808.324	28801
808.465	28809
808.607	29044
808.749	29086
808.891	29296
809.033	29239
809.174	29208
809.316	29067
809.458	29003
809.6	29056
809.741	29273
809.883	29071
810.025	29429
810.166	29410
810.308	29425
810.45	29250
810.591	29277
810.733	29140
810.875	29094
811.016	29098
811.158	29128
811.299	29273
811.441	29242
811.582	29410
811.724	29094
811.865	29200
812.007	29178
812.148	29018
812.29	29216
812.431	29345
812.573	29455
812.714	29478
812.855	29638
812.997	29783
813.138	29939
813.279	29805
813.421	29687
813.562	29490
813.703	29459
813.845	29322
813.986	28961
814.127	28942
814.268	28835
814.41	28949
814.551	28900
814.692	28888
814.833	28877
814.974	28946
815.115	28866
815.256	28778
815.397	28675
815.539	28790
815.68	28615
815.821	28493
815.962	28683
816.103	28698
816.244	28474
816.385	28523
816.526	28325
816.666	28200
816.807	28109
816.948	28284
817.089	28295
817.23	28147
817.371	28109
817.512	28074
817.653	28185
817.793	27907
817.934	28093
818.075	28166
818.216	28162
818.356	28109
818.497	28063
818.638	27888
818.778	27964
818.919	27789
819.06	28040
819.2	28021
819.341	28105
819.481	28048
819.622	28375
819.762	28489
819.903	28535
820.043	28363
820.184	28398
820.324	28265
820.465	28325
820.605	28261
820.746	28360
820.886	28044
821.026	28363
821.167	28348
821.307	28207
821.447	28067
821.588	28040
821.728	27934
821.868	27804
822.008	27671
822.149	27561
822.289	27656
822.429	27363
822.569	27294
822.709	27298
822.849	27207
822.99	27173
823.13	27119
823.27	27142
823.41	26967
823.55	26868
823.69	27032
823.83	26990
823.97	26975
824.11	26651
824.25	26708
824.389	26743
824.529	26861
824.669	26743
824.809	26895
824.949	26940
825.089	26990
825.228	26781
825.368	26648
825.508	26659
825.648	26636
825.787	26640
825.927	26826
826.067	26648
826.206	26720
826.346	26823
826.485	26712
826.625	26739
826.765	26754
826.904	26663
827.044	26522
827.183	26419
827.323	26541
827.462	26476
827.601	26442
827.741	26469
827.88	26533
828.02	26336
828.159	26290
828.298	26514
828.437	26503
828.577	26438
828.716	26446
828.855	26218
828.994	26096
829.134	26168
829.273	26172
829.412	25951
829.551	26035
829.69	26012
829.829	25966
829.968	26088
830.107	26100
830.246	26111
830.385	26065
830.524	26084
830.663	25849
830.802	25742
830.941	25753
831.08	25639
831.219	25738
831.357	25811
831.496	25898
831.635	25746
831.774	25556
831.913	25628
832.051	25403
832.19	25468
832.329	25449
832.467	25472
832.606	25358
832.744	25327
832.883	25411
833.022	25426
833.16	25339
833.299	25403
833.437	25419
833.576	25506
833.714	25331
833.852	25499
833.991	25525
834.129	25362
834.267	25590
834.406	25487
834.544	25506
834.682	25411
834.821	25316
834.959	25491
835.097	25445
835.235	25468
835.373	25381
835.511	25384
835.65	25419
835.788	25384
835.926	25099
836.064	25015
836.202	25012
836.34	25301
836.478	25255
836.615	25304
836.753	25270
836.891	25168
837.029	25266
837.167	25099
837.305	25141
837.443	25164
837.58	25088
837.718	25000
837.856	25065
837.993	25038
838.131	25141
838.269	25042
838.406	24840
838.544	24878
838.681	24749
838.819	24749
838.956	24681
839.094	24467
839.231	24589
839.369	24601
839.506	24856
839.643	24939
839.781	24612
839.918	24456
840.055	24551
840.193	24426
840.33	24395
840.467	24426
840.604	24380
840.742	24696
840.879	24243
841.016	24334
841.153	24266
841.29	24490
841.427	24441
841.564	24410
841.701	24388
841.838	24483
841.975	24311
842.112	24300
842.249	24243
842.385	24121
842.522	24399
842.659	24258
842.796	24266
842.933	24186
843.069	24155
843.206	24091
843.343	24323
843.479	24262
843.616	24205
843.752	23988
843.889	24007
844.025	24102
844.162	23851
844.298	24121
844.435	24057
844.571	24026
844.708	23996
844.844	24155
844.98	24072
845.117	24049
845.253	23980
845.389	23893
845.525	23790
845.661	23714
845.798	23691
845.934	23779
846.07	23748
846.206	23741
846.342	23878
846.478	23668
846.614	23429
846.75	23307
846.886	23478
847.022	23425
847.158	23417
847.294	23398
847.429	23512
847.565	23417
847.701	23737
847.837	23162
847.972	23166
848.108	23265
848.244	23318
848.379	23090
848.515	23083
848.65	23044
848.786	23056
848.921	22980
849.057	23014
849.192	23102
849.328	23018
849.463	22972
849.598	22934
849.734	22839
849.869	22881
850.004	22850
850.14	22717
850.275	22748
850.41	22733
850.545	22744
850.68	22645
850.815	22873
850.95	22721
851.085	22850
851.22	22812
851.355	22801
851.49	22805
851.625	22763
851.76	22687
851.895	22653
852.03	22634
852.165	22759
852.299	22805
852.434	22915
852.569	22801
852.703	22698
852.838	22679
852.973	22858
853.107	22919
853.242	22710
853.376	22710
853.511	22402
853.645	22451
853.78	22763
853.914	22694
854.048	22660
854.183	22542
854.317	22573
854.451	22755
854.585	22607
854.72	22653
854.854	22592
854.988	22466
855.122	22649
855.256	22512
855.39	22596
855.524	22656
855.658	22672
855.792	22592
855.926	22569
856.06	22721
856.194	22675
856.327	22512
856.461	22557
856.595	22398
856.729	22618
856.862	22634
856.996	22637
857.13	22550
857.263	22725
857.397	22771
857.53	22706
857.664	22725
857.797	22634
857.931	22660
858.064	22592
858.197	22645
858.331	22649
858.464	22607
858.597	22287
858.731	22675
858.864	22470
858.997	22550
859.13	22615
859.263	22592
859.396	22645
859.529	22622
859.662	22535
859.795	22565
859.928	22683
860.061	22706
860.194	22835
860.327	22668
860.46	22683
860.592	22725
860.725	22828
860.858	22740
860.99	22656
861.123	22584
861.256	22554
861.388	22706
861.521	23246
861.653	22436
861.786	22398
861.918	22421
862.05	22508
862.183	22413
862.315	22417
862.447	22634
862.58	22428
862.712	22272
862.844	22276
862.976	22322
863.108	22386
863.24	22778
863.372	22303
863.504	22348
863.636	22272
863.768	22299
863.9	22314
864.032	22291
864.164	22120
864.296	22219
864.428	22474
864.559	22284
864.691	22322
864.823	22299
864.954	22314
865.086	22234
865.217	21991
865.349	22143
865.48	22276
865.612	22135
865.743	22341
865.875	22234
866.006	22093
866.137	22215
866.269	22215
866.4	22204
866.531	22169
866.662	22131
866.793	22185
866.924	22185
867.055	22017
867.186	22070
867.317	22105
867.448	22124
867.579	22090
867.71	22010
867.841	21888
867.972	22162
868.103	22116
868.233	22261
868.364	22204
868.495	22158
868.625	22363
868.756	22428
868.886	22230
869.017	22268
869.147	22417
869.278	22512
869.408	22341
869.539	22352
869.669	22318
869.799	22398
869.929	22447
870.06	22409
870.19	22615
870.32	22580
870.45	22675
870.58	22721
870.71	22778
870.84	22858
870.97	22725
871.1	22733
871.23	22953
871.36	22904
871.489	22877
871.619	22847
871.749	22953
871.879	22976
872.008	23052
872.138	22911
872.267	22866
872.397	22862
872.526	22824
872.656	22824
872.785	22774
872.915	22797
873.044	23060
873.173	22965
873.303	22995
873.432	23060
873.561	23041
873.69	23006
873.819	23037
873.948	22995
874.077	22961
874.206	22923
874.335	22892
874.464	23102
874.593	23143
874.722	23128
874.851	23181
874.979	23239
875.108	23220
875.237	23079
875.365	23071
875.494	23052
875.623	23231
875.751	23212
875.88	23208
876.008	23414
876.136	23459
876.265	23490
876.393	23794
876.521	23611
876.65	23596
876.778	23722
876.906	23524
877.034	23463
877.162	23467
877.29	23349
877.418	23558
877.546	23539
877.674	23547
877.802	23573
877.93	23497
878.058	23410
878.185	23296
878.313	23467
878.441	23547
878.568	23341
878.696	23459
878.824	23467
878.951	23611
879.079	23710
879.206	23878
879.333	23646
879.461	23566
879.588	23615
879.715	23657
879.842	23847
879.97	23596
880.097	23395
880.224	23376
880.351	23459
880.478	23543
880.605	23212
880.732	23326
880.859	23608
880.986	23235
881.112	23311
881.239	23265
881.366	23109
881.493	23014
881.619	22915
881.746	23029
881.872	22812
881.999	22820
882.125	22725
882.252	22908
882.378	22919
882.505	22850
882.631	22744
882.757	22634
882.883	22596
883.01	22512
883.136	22569
883.262	22405
883.388	22447
883.514	22660
883.64	22546
883.766	22421
883.892	22314
884.018	22386
884.143	22466
884.269	22561
884.395	22341
884.52	22211
884.646	22181
884.772	22093
884.897	22086
885.023	22223
885.148	22295
885.274	22344
885.399	22318
885.524	22169
885.65	22268
885.775	22196
885.9	22253
886.025	22318
886.15	22230
886.275	22063
886.4	22204
886.525	22116
886.65	22162
886.775	22109
886.9	22215
887.025	22394
887.149	22162
887.274	22051
887.399	22086
887.523	21915
887.648	21930
887.773	21812
887.897	22105
888.021	21964
888.146	21915
888.27	22006
888.395	22032
888.519	21941
888.643	22021
888.767	21907
888.891	21861
889.015	21762
889.139	21816
889.263	21701
889.387	21823
889.511	22021
889.635	21800
889.759	21751
889.883	21739
890.006	21846
890.13	21907
890.254	21789
890.377	21595
890.501	21576
890.624	21370
890.748	21610
890.871	21462
890.995	21321
891.118	21306
891.241	21294
891.364	21260
891.488	21378
891.611	21340
891.734	21291
891.857	21367
891.98	21329
892.103	21386
892.226	21317
892.349	21199
892.471	20994
892.594	21093
892.717	21214
892.839	21192
892.962	21199
893.085	21298
893.207	21195
893.33	21089
893.452	21116
893.575	21161
893.697	21154
893.819	21325
893.941	21329
894.064	21306
894.186	21142
894.308	21043
894.43	21275
894.552	21386
894.674	21195
894.796	21066
894.918	21165
895.04	21058
895.161	21207
895.283	21165
895.405	21150
895.526	21272
895.648	21096
895.769	21135
895.891	21157
896.012	21252
896.134	21287
896.255	21245
896.376	21047
896.498	21089
896.619	21264
896.74	21150
896.861	21203
896.982	21466
897.103	21424
897.224	21294
897.345	21370
897.466	21287
897.587	21386
897.708	21412
897.828	21321
897.949	21279
898.07	21176
898.19	21203
898.311	21420
898.431	21332
898.552	21317
898.672	21469
898.792	21412
898.913	21321
899.033	21313
899.153	21199
899.273	21036
899.393	21226
899.513	21051
899.633	21100
899.753	21154
899.873	21017
899.993	21104
900.113	20944
900.232	21089
900.352	20971
900.472	20948
900.591	20857
900.711	20921
900.83	20720
900.95	21013
901.069	20990
901.189	20758
901.308	20476
901.427	20484
901.546	20446
901.665	20465
901.784	20298
901.904	20374
902.023	20278
902.141	20122
902.26	19871
902.379	20016
902.498	19890
902.617	19906
902.735	19928
902.854	19928
902.973	19818
903.091	19715
903.21	19582
903.328	19540
903.446	19495
903.565	19388
903.683	19365
903.801	19346
903.919	19274
904.038	19388
904.156	19320
904.274	19213
904.392	19107
904.51	19050
904.627	19114
904.745	19156
904.863	19133
904.981	18951
905.098	18760
905.216	18806
905.334	18825
905.451	18821
905.569	18772
905.686	18783
905.803	18791
905.921	18517
906.038	18582
906.155	18536
906.272	18555
906.389	18551
906.506	18399
906.623	18407
906.74	18323
906.857	18186
906.974	18133
907.091	18384
907.208	18395
907.324	18285
907.441	18228
907.557	18019
907.674	18076
907.79	18003
907.907	18102
908.023	17992
908.139	18083
908.256	18106
908.372	17851
908.488	17904
908.604	17726
908.72	17710
908.836	17859
908.952	17760
909.068	17779
909.184	17809
909.3	17775
909.415	17798
909.531	17779
909.647	17490
909.762	17482
909.878	17474
909.993	17452
910.108	17341
910.224	17425
910.339	17421
910.454	17376
910.57	17136
910.685	17239
910.8	17410
910.915	17341
911.03	17128
911.145	17067
911.259	16946
911.374	17025
911.489	16961
911.604	16862
911.718	16725
911.833	16694
911.947	16672
912.062	16561
912.176	16778
912.291	16809
912.405	16771
912.519	17014
912.633	16946
912.748	16744
912.862	16725
912.976	16630
913.09	16436
913.204	16455
913.318	16618
913.431	16649
913.545	16630
913.659	16679
913.772	16474
913.886	16413
914	16390
914.113	16367
914.226	16485
914.34	16314
914.453	16310
914.566	16375
914.68	16295
914.793	16139
914.906	16036
915.019	15911
915.132	15930
915.245	15941
915.358	15941
915.47	15884
915.583	16082
915.696	15915
915.809	16002
915.921	16032
916.034	15873
916.146	15827
916.259	15743
916.371	15827
916.483	15827
916.595	15812
916.708	15781
916.82	15698
916.932	15720
917.044	15701
917.156	15797
917.268	15523
917.38	15526
917.491	15561
917.603	15576
917.715	15553
917.826	15675
917.938	15523
918.049	15393
918.161	15507
918.272	15561
918.384	15580
918.495	15450
918.606	15279
918.717	15359
918.828	15348
918.939	15344
919.05	15131
919.161	15252
919.272	15081
919.383	15074
919.494	15389
919.604	15389
919.715	15211
919.826	15142
919.936	15176
920.047	15272
920.157	15283
920.267	15405
920.378	15317
920.488	15272
920.598	15462
920.708	15572
920.818	15287
920.928	15332
921.038	15542
921.148	15515
921.258	15173
921.368	15070
921.477	14994
921.587	14933
921.697	14819
921.806	14986
921.916	14838
922.025	14617
922.134	14610
922.244	14503
922.353	14610
922.462	14423
922.571	14434
922.68	14328
922.789	14256
922.898	14259
923.007	14180
923.116	14202
923.224	14229
923.333	14172
923.442	14039
923.55	14065
923.659	14027
923.767	14081
923.876	14145
923.984	14084
924.092	13997
924.201	13928
924.309	13944
924.417	13936
924.525	13860
924.633	13928
924.741	14769
924.849	13753
924.956	13776
925.064	13681
925.172	13540
925.279	13556
925.387	13636
925.494	13582
925.602	13761
925.709	13597
925.816	13483
925.924	13578
926.031	13651
926.138	13597
926.245	13628
926.352	13521
926.459	13605
926.566	13548
926.673	13506
926.779	13346
926.886	13445
926.993	13282
927.099	13175
927.206	13156
927.312	13179
927.419	13255
927.525	13114
927.631	13145
927.737	13050
927.843	13031
927.95	12821
928.056	13031
928.162	12905
928.267	12996
928.373	13597
928.479	13046
928.585	12833
928.69	12943
928.796	12973
928.901	12856
929.007	12783
929.112	12886
929.218	12825
929.323	12768
929.428	12779
929.533	12730
929.638	12604
929.743	12684
929.848	12719
929.953	12612
930.058	12547
930.163	12418
930.267	12384
930.372	12566
930.477	12292
930.581	12483
930.685	12471
930.79	12224
930.894	12254
930.998	12273
931.103	12399
931.207	11874
931.311	11984
931.415	11863
931.519	11661
931.623	11592
