Data from test_V78500241_1710.txt Node
Date: Fri Mar 25 15:53:38 CST 2022
User: usil
Spectrometer: V785-0024
Trigger mode: 0
Integration Time (sec): 4.000000E-1
Scans to average: 1
Nonlinearity correction enabled: false
Boxcar width: 0
Storing dark spectrum: false
XAxis mode: Wavelengths
Number of Pixels in Spectrum: 1024
>>>>>Begin Spectral Data<<<<<
801.071	28356
801.214	28109
801.356	28025
801.499	28002
801.641	27831
801.783	27880
801.926	27972
802.068	27751
802.211	27907
802.353	27618
802.496	27656
802.638	27595
802.78	27553
802.923	27485
803.065	27477
803.208	27332
803.35	27496
803.492	27755
803.635	27682
803.777	27439
803.919	27709
804.061	27994
804.204	27808
804.346	27698
804.488	27686
804.63	27652
804.773	27675
804.915	27869
805.057	27766
805.199	27743
805.341	27835
805.483	27827
805.626	27827
805.768	27793
805.91	27835
806.052	28010
806.194	27823
806.336	28147
806.478	27880
806.62	28017
806.762	28082
806.904	28082
807.046	28352
807.188	28394
807.33	28443
807.472	28268
807.614	28291
807.756	28219
807.898	28306
808.04	28086
808.182	28070
808.324	28124
808.465	28360
808.607	28485
808.749	28432
808.891	28729
809.033	28778
809.174	28538
809.316	28596
809.458	28527
809.6	28618
809.741	28649
809.883	28611
810.025	28816
810.166	28862
810.308	28854
810.45	28740
810.591	28805
810.733	28451
810.875	28569
811.016	28421
811.158	28519
811.299	28592
811.441	28748
811.582	28664
811.724	28683
811.865	28550
812.007	28538
812.148	28580
812.29	28607
812.431	28698
812.573	28850
812.714	29025
812.855	28866
812.997	29261
813.138	29334
813.279	29280
813.421	29071
813.562	28957
813.703	28782
813.845	28831
813.986	28569
814.127	28348
814.268	28314
814.41	28405
814.551	28181
814.692	28215
814.833	28215
814.974	28128
815.115	28314
815.256	28268
815.397	28204
815.539	28150
815.68	28192
815.821	28010
815.962	28002
816.103	28051
816.244	27892
816.385	27918
816.526	27797
816.666	27736
816.807	27553
816.948	27606
817.089	27652
817.23	27641
817.371	27530
817.512	27526
817.653	27553
817.793	27583
817.934	27500
818.075	27603
818.216	27622
818.356	27557
818.497	27389
818.638	27154
818.778	27226
818.919	27275
819.06	27351
819.2	27393
819.341	27420
819.481	27583
819.622	27759
819.762	27918
819.903	27857
820.043	27618
820.184	27599
820.324	27641
820.465	27747
820.605	27656
820.746	27572
820.886	27523
821.026	27545
821.167	27530
821.307	27580
821.447	27580
821.588	27408
821.728	27313
821.868	27199
822.008	27036
822.149	26948
822.289	27039
822.429	26876
822.569	26769
822.709	26739
822.849	26552
822.99	26602
823.13	26393
823.27	26358
823.41	26347
823.55	26164
823.69	26286
823.83	26339
823.97	26278
824.11	26035
824.25	26195
824.389	26134
824.529	26218
824.669	26206
824.809	26252
824.949	26362
825.089	26176
825.228	26347
825.368	25970
825.508	25989
825.648	25978
825.787	26119
825.927	26050
826.067	25986
826.206	26115
826.346	26115
826.485	26073
826.625	25970
826.765	26077
826.904	26103
827.044	25734
827.183	25814
827.323	25742
827.462	25818
827.601	25814
827.741	25715
827.88	25791
828.02	25483
828.159	25761
828.298	25616
828.437	25932
828.577	25719
828.716	25746
828.855	25628
828.994	25445
829.134	25514
829.273	25407
829.412	25373
829.551	25301
829.69	25578
829.829	25453
829.968	25499
830.107	25586
830.246	25434
830.385	25415
830.524	25369
830.663	25335
830.802	25190
830.941	25050
831.08	25034
831.219	25187
831.357	25050
831.496	25156
831.635	25069
831.774	24973
831.913	24863
832.051	24863
832.19	24856
832.329	24802
832.467	24722
832.606	24703
832.744	24738
832.883	24768
833.022	24722
833.16	24688
833.299	24711
833.437	24768
833.576	24829
833.714	24749
833.852	24901
833.991	24783
834.129	24920
834.267	24928
834.406	24745
834.544	24779
834.682	24798
834.821	24787
834.959	24935
835.097	24623
835.235	24821
835.373	24817
835.511	24673
835.65	24711
835.788	24726
835.926	24502
836.064	24521
836.202	24395
836.34	24574
836.478	24631
836.615	24502
836.753	24532
836.891	24639
837.029	24540
837.167	24532
837.305	24433
837.443	24498
837.58	24369
837.718	24509
837.856	24528
837.993	24422
838.131	24490
838.269	24300
838.406	24319
838.544	24216
838.681	24022
838.819	24053
838.956	23813
839.094	23927
839.231	24003
839.369	24117
839.506	24220
839.643	24095
839.781	24022
839.918	23779
840.055	23840
840.193	23882
840.33	23817
840.467	23832
840.604	23942
840.742	24038
840.879	23668
841.016	23760
841.153	23714
841.29	23889
841.427	23794
841.564	23863
841.701	23760
841.838	23745
841.975	23707
842.112	23703
842.249	23672
842.385	23646
842.522	23802
842.659	23611
842.796	23589
842.933	23486
843.069	23368
843.206	23562
843.343	23474
843.479	23592
843.616	23585
843.752	23288
843.889	23398
844.025	23414
844.162	23360
844.298	23490
844.435	23349
844.571	23398
844.708	23410
844.844	23406
844.98	23467
845.117	23349
845.253	23296
845.389	23284
845.525	23223
845.661	23143
845.798	23048
845.934	23102
846.07	23025
846.206	23086
846.342	23136
846.478	23014
846.614	22949
846.75	22767
846.886	22881
847.022	22850
847.158	22733
847.294	22736
847.429	22782
847.565	22824
847.701	23086
847.837	22493
847.972	22474
848.108	22546
848.244	22664
848.379	22394
848.515	22382
848.65	22440
848.786	22310
848.921	22462
849.057	22432
849.192	22489
849.328	22478
849.463	22417
849.598	22360
849.734	22272
849.869	22299
850.004	22196
850.14	22124
850.275	22223
850.41	22158
850.545	22143
850.68	22173
850.815	22169
850.95	22112
851.085	22371
851.22	22207
851.355	22112
851.49	22166
851.625	22101
851.76	22082
851.895	22029
852.03	22048
852.165	22105
852.299	22158
852.434	22287
852.569	22200
852.703	22074
852.838	22382
852.973	22204
853.107	22303
853.242	22017
853.376	21975
853.511	21869
853.645	21857
853.78	22093
853.914	21941
854.048	21934
854.183	21956
854.317	22025
854.451	22101
854.585	21907
854.72	21895
854.854	22078
854.988	21930
855.122	22010
855.256	21671
855.39	22036
855.524	21968
855.658	22040
855.792	22013
855.926	21918
856.06	22032
856.194	22044
856.327	21899
856.461	22021
856.595	21873
856.729	21994
856.862	22040
856.996	21884
857.13	22070
857.263	22010
857.397	21991
857.53	21895
857.664	21975
857.797	22040
857.931	22044
858.064	21972
858.197	22124
858.331	22082
858.464	21975
858.597	21949
858.731	22010
858.864	21994
858.997	21949
859.13	21846
859.263	21937
859.396	22086
859.529	21911
859.662	21907
859.795	21880
859.928	21991
860.061	22143
860.194	22078
860.327	21956
860.46	21994
860.592	22017
860.725	22135
860.858	22090
860.99	21835
861.123	21873
861.256	21827
861.388	21994
861.521	22615
861.653	21869
861.786	21793
861.918	21759
862.05	21827
862.183	21888
862.315	21892
862.447	21956
862.58	21945
862.712	21827
862.844	21717
862.976	21804
863.108	21770
863.24	22059
863.372	21595
863.504	21618
863.636	21679
863.768	21679
863.9	21774
864.032	21717
864.164	21629
864.296	21759
864.428	21713
864.559	21812
864.691	21724
864.823	21591
864.954	21694
865.086	21698
865.217	21599
865.349	21435
865.48	21545
865.612	21591
865.743	21747
865.875	21606
866.006	21572
866.137	21724
866.269	21549
866.4	21564
866.531	21424
866.662	21439
866.793	21481
866.924	21557
867.055	21481
867.186	21633
867.317	21401
867.448	21313
867.579	21397
867.71	21405
867.841	21310
867.972	21386
868.103	21473
868.233	21405
868.364	21485
868.495	21656
868.625	21789
868.756	21835
868.886	21762
869.017	21606
869.147	21755
869.278	21915
869.408	21861
869.539	21747
869.669	21816
869.799	21774
869.929	21823
870.06	21842
870.19	22097
870.32	22078
870.45	22086
870.58	22147
870.71	22051
870.84	22188
870.97	22090
871.1	22101
871.23	22341
871.36	22303
871.489	22265
871.619	22276
871.749	22280
871.879	22398
872.008	22443
872.138	22363
872.267	22276
872.397	22215
872.526	22162
872.656	22215
872.785	22154
872.915	22382
873.044	22466
873.173	22489
873.303	22284
873.432	22268
873.561	22493
873.69	22447
873.819	22417
873.948	22519
874.077	22424
874.206	22303
874.335	22379
874.464	22481
874.593	22577
874.722	22493
874.851	22645
874.979	22580
875.108	22645
875.237	22497
875.365	22466
875.494	22508
875.623	22615
875.751	22618
875.88	22504
876.008	22683
876.136	22809
876.265	22896
876.393	22995
876.521	22957
876.65	22991
876.778	22961
876.906	23010
877.034	22927
877.162	23022
877.29	22984
877.418	22980
877.546	23147
877.674	22927
877.802	22801
877.93	22896
878.058	22866
878.185	22713
878.313	22843
878.441	22839
878.568	22702
878.696	22889
878.824	22896
878.951	23071
879.079	23052
879.206	23311
879.333	23155
879.461	22984
879.588	23029
879.715	23079
879.842	23174
879.97	22892
880.097	22740
880.224	22687
880.351	22771
880.478	22809
880.605	22672
880.732	22698
880.859	22999
880.986	22752
881.112	22691
881.239	22523
881.366	22443
881.493	22451
881.619	22333
881.746	22303
881.872	22462
881.999	22249
882.125	22344
882.252	22337
882.378	22177
882.505	22459
882.631	22162
882.757	22112
882.883	22036
883.01	22105
883.136	21960
883.262	21926
883.388	21713
883.514	22032
883.64	22063
883.766	21911
883.892	21800
884.018	21793
884.143	21968
884.269	21907
884.395	21682
884.52	21690
884.646	21644
884.772	21583
884.897	21606
885.023	21648
885.148	21671
885.274	21842
885.399	21831
885.524	21728
885.65	21576
885.775	21564
885.9	21564
886.025	21728
886.15	21808
886.275	21561
886.4	21515
886.525	21599
886.65	21572
886.775	21496
886.9	21675
887.025	21770
887.149	21561
887.274	21405
887.399	21401
887.523	21386
887.648	21298
887.773	21310
887.897	21492
888.021	21443
888.146	21302
888.27	21485
888.395	21526
888.519	21450
888.643	21424
888.767	21382
888.891	21233
889.015	21165
889.139	21203
889.263	21169
889.387	21313
889.511	21389
889.635	21386
889.759	21096
889.883	21093
890.006	21249
890.13	21252
890.254	21169
890.377	21032
890.501	20925
890.624	20895
890.748	20948
890.871	20880
890.995	20644
891.118	20712
891.241	20762
891.364	20765
891.488	20861
891.611	20762
891.734	20807
891.857	20739
891.98	20807
892.103	20849
892.226	20769
892.349	20659
892.471	20434
892.594	20693
892.717	20632
892.839	20651
892.962	20648
893.085	20693
893.207	20674
893.33	20625
893.452	20530
893.575	20693
893.697	20609
893.819	20777
893.941	20880
894.064	20659
894.186	20537
894.308	20442
894.43	20746
894.552	20739
894.674	20769
894.796	20659
894.918	20518
895.04	20571
895.161	20754
895.283	20609
895.405	20579
895.526	20598
895.648	20590
895.769	20705
895.891	20594
896.012	20712
896.134	20560
896.255	20712
896.376	20655
896.498	20674
896.619	20560
896.74	20590
896.861	20670
896.982	21039
897.103	21127
897.224	20880
897.345	20834
897.466	20754
897.587	20845
897.708	20834
897.828	20944
897.949	20811
898.07	20568
898.19	20720
898.311	20925
898.431	20750
898.552	20838
898.672	20925
898.792	20849
898.913	20982
899.033	20743
899.153	20640
899.273	20377
899.393	20670
899.513	20701
899.633	20568
899.753	20594
899.873	20545
899.993	20636
900.113	20488
900.232	20594
900.352	20480
900.472	20434
900.591	20362
900.711	20332
900.83	20290
900.95	20381
901.069	20415
901.189	20199
901.308	20031
901.427	19887
901.546	19890
901.665	20024
901.784	20012
901.904	19753
902.023	19674
902.141	19472
902.26	19464
902.379	19616
902.498	19403
902.617	19282
902.735	19476
902.854	19411
902.973	19339
903.091	19141
903.21	19160
903.328	19099
903.446	19023
903.565	18875
903.683	18867
903.801	18722
903.919	18848
904.038	18852
904.156	18650
904.274	18753
904.392	18654
904.51	18650
904.627	18612
904.745	18593
904.863	18688
904.981	18452
905.098	18304
905.216	18289
905.334	18437
905.451	18258
905.569	18197
905.686	18350
905.803	18251
905.921	18167
906.038	18258
906.155	18190
906.272	18019
906.389	18091
906.506	17832
906.623	17996
906.74	17756
906.857	17745
906.974	17779
907.091	17946
907.208	18049
907.324	17824
907.441	17771
907.557	17551
907.674	17554
907.79	17573
907.907	17524
908.023	17592
908.139	17528
908.256	17455
908.372	17478
908.488	17383
908.604	17383
908.72	17223
908.836	17402
908.952	17204
909.068	17334
909.184	17433
909.3	17258
909.415	17231
909.531	17311
909.647	17056
909.762	16976
909.878	16873
909.993	17159
910.108	16930
910.224	16858
910.339	16889
910.454	16858
910.57	16759
910.685	16824
910.8	16968
910.915	16915
911.03	16706
911.145	16679
911.259	16615
911.374	16622
911.489	16481
911.604	16451
911.718	16424
911.833	16363
911.947	16166
912.062	16211
912.176	16367
912.291	16295
912.405	16223
912.519	16489
912.633	16402
912.748	16382
912.862	16306
912.976	16173
913.09	16017
913.204	16036
913.318	16131
913.431	16265
913.545	16177
913.659	16238
913.772	15960
913.886	15968
914	15949
914.113	15873
914.226	16071
914.34	15937
914.453	15800
914.566	15876
914.68	15876
914.793	15789
914.906	15603
915.019	15515
915.132	15469
915.245	15511
915.358	15439
915.47	15561
915.583	15504
915.696	15564
915.809	15564
915.921	15606
916.034	15538
916.146	15351
916.259	15431
916.371	15584
916.483	15454
916.595	15336
916.708	15287
916.82	15397
916.932	15252
917.044	15325
917.156	15249
917.268	15180
917.38	15119
917.491	15062
917.603	15070
917.715	15233
917.826	15154
917.938	15104
918.049	14994
918.161	15055
918.272	15203
918.384	15226
918.495	15058
918.606	14864
918.717	14918
918.828	14994
918.939	14933
919.05	14876
919.161	14883
919.272	14731
919.383	14758
919.494	14929
919.604	15043
919.715	14807
919.826	14746
919.936	14960
920.047	14952
920.157	14811
920.267	15009
920.378	14796
920.488	14777
920.598	15039
920.708	15131
920.818	14963
920.928	14872
921.038	15100
921.148	15058
921.258	14796
921.368	14731
921.477	14625
921.587	14541
921.697	14495
921.806	14602
921.916	14438
922.025	14286
922.134	14149
922.244	14191
922.353	14298
922.462	14088
922.571	14073
922.68	13875
922.789	13955
922.898	13917
923.007	13803
923.116	13883
923.224	13868
923.333	13727
923.442	13715
923.55	13578
923.659	13693
923.767	13757
923.876	13655
923.984	13849
924.092	13594
924.201	13590
924.309	13563
924.417	13666
924.525	13540
924.633	13537
924.741	14240
924.849	13354
924.956	13426
925.064	13301
925.172	13221
925.279	13304
925.387	13350
925.494	13282
925.602	13392
925.709	13297
925.816	13164
925.924	13198
926.031	13259
926.138	13225
926.245	13304
926.352	13152
926.459	13285
926.566	13236
926.673	13164
926.779	12916
926.886	12970
926.993	12840
927.099	12798
927.206	12787
927.312	12757
927.419	12783
927.525	12768
927.631	12795
927.737	12658
927.843	12658
927.95	12486
928.056	12646
928.162	12597
928.267	12669
928.373	13282
928.479	12730
928.585	12330
928.69	12540
928.796	12555
928.901	12642
929.007	12403
929.112	12559
929.218	12357
929.323	12429
929.428	12399
929.533	12521
929.638	12304
929.743	12292
929.848	12369
929.953	12338
930.058	12155
930.163	12106
930.267	11999
930.372	12155
930.477	11988
930.581	12220
930.685	12083
930.79	11958
930.894	11950
930.998	11885
931.103	12125
931.207	11718
931.311	11486
931.415	11577
931.519	11216
931.623	11261
