Data from test_V78500241_1220.txt Node
Date: Fri Mar 25 15:50:15 CST 2022
User: usil
Spectrometer: V785-0024
Trigger mode: 0
Integration Time (sec): 4.000000E-1
Scans to average: 1
Nonlinearity correction enabled: false
Boxcar width: 0
Storing dark spectrum: false
XAxis mode: Wavelengths
Number of Pixels in Spectrum: 1024
>>>>>Begin Spectral Data<<<<<
801.071	28755
801.214	28721
801.356	28561
801.499	28546
801.641	28424
801.783	28363
801.926	28436
802.068	28440
802.211	28314
802.353	28116
802.496	28078
802.638	27846
802.78	28025
802.923	27884
803.065	27800
803.208	28040
803.35	28128
803.492	28204
803.635	28154
803.777	28105
803.919	28333
804.061	28531
804.204	28299
804.346	28280
804.488	28223
804.63	28253
804.773	28139
804.915	28242
805.057	28405
805.199	28348
805.341	28375
805.483	28379
805.626	28371
805.768	28287
805.91	28447
806.052	28546
806.194	28367
806.336	28615
806.478	28569
806.62	28291
806.762	28615
806.904	28691
807.046	28881
807.188	28786
807.33	28820
807.472	28923
807.614	28778
807.756	28869
807.898	28748
808.04	28702
808.182	28752
808.324	28873
808.465	28892
808.607	29029
808.749	29109
808.891	29159
809.033	29315
809.174	29311
809.316	29159
809.458	29121
809.6	29212
809.741	29296
809.883	29277
810.025	29360
810.166	29505
810.308	29379
810.45	29448
810.591	29444
810.733	29117
810.875	29124
811.016	28980
811.158	29071
811.299	29307
811.441	29337
811.582	29246
811.724	29296
811.865	29185
812.007	29159
812.148	29102
812.29	29197
812.431	29406
812.573	29516
812.714	29627
812.855	29802
812.997	29707
813.138	29988
813.279	29707
813.421	29805
813.562	29680
813.703	29581
813.845	29315
813.986	29098
814.127	28961
814.268	28850
814.41	28900
814.551	28759
814.692	28961
814.833	28877
814.974	28938
815.115	28915
815.256	28759
815.397	28748
815.539	28767
815.68	28767
815.821	28592
815.962	28755
816.103	28752
816.244	28577
816.385	28569
816.526	28470
816.666	28230
816.807	28166
816.948	28246
817.089	28348
817.23	28268
817.371	28173
817.512	28207
817.653	28143
817.793	28200
817.934	28055
818.075	28242
818.216	28211
818.356	28207
818.497	28158
818.638	28036
818.778	27914
818.919	27880
819.06	28021
819.2	28177
819.341	28131
819.481	28306
819.622	28329
819.762	28569
819.903	28409
820.043	28451
820.184	28306
820.324	28162
820.465	28363
820.605	28291
820.746	28310
820.886	28131
821.026	28249
821.167	28272
821.307	28341
821.447	28207
821.588	27983
821.728	28025
821.868	27941
822.008	27766
822.149	27637
822.289	27572
822.429	27397
822.569	27351
822.709	27389
822.849	27104
822.99	27241
823.13	27055
823.27	27074
823.41	26887
823.55	26895
823.69	26895
823.83	27024
823.97	26918
824.11	26788
824.25	26762
824.389	26849
824.529	26952
824.669	26746
824.809	27005
824.949	26921
825.089	26971
825.228	26982
825.368	26743
825.508	26769
825.648	26838
825.787	26864
825.927	26785
826.067	26743
826.206	26727
826.346	26781
826.485	26720
826.625	26682
826.765	26754
826.904	26872
827.044	26480
827.183	26522
827.323	26423
827.462	26587
827.601	26434
827.741	26526
827.88	26453
828.02	26332
828.159	26579
828.298	26450
828.437	26583
828.577	26355
828.716	26415
828.855	26343
828.994	26126
829.134	26168
829.273	26115
829.412	26153
829.551	26168
829.69	26138
829.829	26069
829.968	26324
830.107	26278
830.246	26145
830.385	26024
830.524	25982
830.663	25947
830.802	25849
830.941	25757
831.08	25609
831.219	25951
831.357	25772
831.496	25982
831.635	25704
831.774	25594
831.913	25643
832.051	25533
832.19	25582
832.329	25468
832.467	25525
832.606	25263
832.744	25362
832.883	25419
833.022	25426
833.16	25483
833.299	25415
833.437	25411
833.576	25381
833.714	25525
833.852	25445
833.991	25518
834.129	25552
834.267	25491
834.406	25578
834.544	25430
834.682	25582
834.821	25521
834.959	25635
835.097	25518
835.235	25514
835.373	25415
835.511	25384
835.65	25373
835.788	25449
835.926	25187
836.064	25084
836.202	25217
836.34	25392
836.478	25324
836.615	25255
836.753	25137
836.891	25369
837.029	25282
837.167	25259
837.305	25285
837.443	25198
837.58	25057
837.718	25038
837.856	25145
837.993	25088
838.131	25050
838.269	24996
838.406	25046
838.544	24859
838.681	24722
838.819	24738
838.956	24620
839.094	24551
839.231	24502
839.369	24707
839.506	24954
839.643	24703
839.781	24532
839.918	24445
840.055	24566
840.193	24513
840.33	24525
840.467	24395
840.604	24544
840.742	24741
840.879	24369
841.016	24540
841.153	24452
841.29	24734
841.427	24426
841.564	24528
841.701	24551
841.838	24369
841.975	24266
842.112	24376
842.249	24384
842.385	24292
842.522	24521
842.659	24254
842.796	24308
842.933	24117
843.069	24273
843.206	24159
843.343	24315
843.479	24315
843.616	24353
843.752	24030
843.889	24022
844.025	24053
844.162	23939
844.298	24182
844.435	24060
844.571	23996
844.708	23961
844.844	24171
844.98	24228
845.117	24106
845.253	23984
845.389	23931
845.525	23901
845.661	23805
845.798	23748
845.934	23798
846.07	23760
846.206	23783
846.342	23904
846.478	23573
846.614	23581
846.75	23421
846.886	23395
847.022	23436
847.158	23395
847.294	23592
847.429	23608
847.565	23444
847.701	23684
847.837	23216
847.972	23178
848.108	23311
848.244	23216
848.379	23220
848.515	22999
848.65	22908
848.786	23102
848.921	23090
849.057	23212
849.192	23204
849.328	23044
849.463	23067
849.598	22995
849.734	22991
849.869	22881
850.004	22786
850.14	22927
850.275	22904
850.41	22752
850.545	22805
850.68	22691
850.815	22972
850.95	22691
851.085	22911
851.22	22881
851.355	22896
851.49	22725
851.625	22744
851.76	22683
851.895	22721
852.03	22767
852.165	22759
852.299	22843
852.434	22793
852.569	22850
852.703	22809
852.838	22869
852.973	22957
853.107	22869
853.242	22698
853.376	22634
853.511	22577
853.645	22637
853.78	22790
853.914	22584
854.048	22634
854.183	22550
854.317	22577
854.451	22759
854.585	22645
854.72	22554
854.854	22596
854.988	22615
855.122	22694
855.256	22512
855.39	22691
855.524	22706
855.658	22615
855.792	22694
855.926	22603
856.06	22790
856.194	22645
856.327	22531
856.461	22538
856.595	22519
856.729	22649
856.862	22755
856.996	22763
857.13	22755
857.263	22771
857.397	22634
857.53	22542
857.664	22653
857.797	22668
857.931	22569
858.064	22687
858.197	22919
858.331	22550
858.464	22611
858.597	22371
858.731	22649
858.864	22599
858.997	22687
859.13	22645
859.263	22588
859.396	22675
859.529	22752
859.662	22508
859.795	22592
859.928	22508
860.061	22824
860.194	22793
860.327	22622
860.46	22634
860.592	22862
860.725	22809
860.858	22664
860.99	22771
861.123	22584
861.256	22459
861.388	22519
861.521	23372
861.653	22481
861.786	22371
861.918	22398
862.05	22592
862.183	22478
862.315	22653
862.447	22527
862.58	22630
862.712	22344
862.844	22280
862.976	22398
863.108	22363
863.24	22660
863.372	22344
863.504	22299
863.636	22181
863.768	22352
863.9	22352
864.032	22276
864.164	22219
864.296	22169
864.428	22409
864.559	22276
864.691	22386
864.823	22398
864.954	22322
865.086	22249
865.217	22280
865.349	22234
865.48	22284
865.612	22135
865.743	22242
865.875	22188
866.006	22082
866.137	22196
866.269	22169
866.4	22131
866.531	22139
866.662	21998
866.793	22192
866.924	22188
867.055	22204
867.186	22154
867.317	22055
867.448	22090
867.579	21926
867.71	22055
867.841	21953
867.972	22101
868.103	22078
868.233	22025
868.364	22154
868.495	22223
868.625	22306
868.756	22379
868.886	22226
869.017	22287
869.147	22413
869.278	22489
869.408	22417
869.539	22390
869.669	22421
869.799	22421
869.929	22561
870.06	22523
870.19	22637
870.32	22668
870.45	22748
870.58	22717
870.71	22786
870.84	22847
870.97	22733
871.1	22797
871.23	22957
871.36	22892
871.489	22858
871.619	22805
871.749	23064
871.879	23003
872.008	23117
872.138	22839
872.267	22927
872.397	22805
872.526	22679
872.656	22771
872.785	22820
872.915	22972
873.044	23143
873.173	22984
873.303	23048
873.432	23067
873.561	23121
873.69	22972
873.819	23006
873.948	23003
874.077	23033
874.206	22923
874.335	23064
874.464	23033
874.593	23090
874.722	23166
874.851	23117
874.979	23269
875.108	23250
875.237	23094
875.365	23056
875.494	23086
875.623	23193
875.751	23128
875.88	23086
876.008	23410
876.136	23349
876.265	23463
876.393	23649
876.521	23638
876.65	23512
876.778	23558
876.906	23566
877.034	23436
877.162	23547
877.29	23433
877.418	23421
877.546	23478
877.674	23531
877.802	23444
877.93	23547
878.058	23387
878.185	23448
878.313	23429
878.441	23531
878.568	23292
878.696	23471
878.824	23482
878.951	23577
879.079	23722
879.206	23847
879.333	23710
879.461	23615
879.588	23657
879.715	23589
879.842	23767
879.97	23676
880.097	23250
880.224	23315
880.351	23444
880.478	23277
880.605	23303
880.732	23391
880.859	23676
880.986	23318
881.112	23265
881.239	23181
881.366	22995
881.493	22987
881.619	22862
881.746	23067
881.872	22850
881.999	22934
882.125	22934
882.252	22889
882.378	22805
882.505	22946
882.631	22759
882.757	22607
882.883	22607
883.01	22607
883.136	22550
883.262	22451
883.388	22417
883.514	22634
883.64	22615
883.766	22497
883.892	22299
884.018	22455
884.143	22470
884.269	22592
884.395	22299
884.52	22196
884.646	22181
884.772	22082
884.897	22124
885.023	22196
885.148	22322
885.274	22188
885.399	22352
885.524	22253
885.65	22143
885.775	22363
885.9	22120
886.025	22287
886.15	22265
886.275	22078
886.4	22063
886.525	22185
886.65	22101
886.775	22021
886.9	22352
887.025	22249
887.149	22128
887.274	22078
887.399	22040
887.523	21915
887.648	21869
887.773	21884
887.897	21979
888.021	21972
888.146	21873
888.27	22097
888.395	22116
888.519	21937
888.643	21884
888.767	21941
888.891	21759
889.015	21781
889.139	21736
889.263	21724
889.387	21873
889.511	22021
889.635	22063
889.759	21709
889.883	21793
890.006	21762
890.13	21747
890.254	21736
890.377	21587
890.501	21401
890.624	21591
890.748	21568
890.871	21443
890.995	21336
891.118	21131
891.241	21363
891.364	21192
891.488	21412
891.611	21374
891.734	21340
891.857	21420
891.98	21218
892.103	21370
892.226	21211
892.349	21138
892.471	21036
892.594	21237
892.717	21298
892.839	21203
892.962	21131
893.085	21264
893.207	21138
893.33	21043
893.452	21062
893.575	21302
893.697	21211
893.819	21264
893.941	21336
894.064	21329
894.186	21074
894.308	21085
894.43	21230
894.552	21233
894.674	21203
894.796	21116
894.918	21108
895.04	21070
895.161	21332
895.283	21256
895.405	21074
895.526	21138
895.648	21112
895.769	21135
895.891	21062
896.012	21306
896.134	21249
896.255	21039
896.376	21161
896.498	21207
896.619	21184
896.74	21096
896.861	21306
896.982	21515
897.103	21564
897.224	21306
897.345	21340
897.466	21294
897.587	21340
897.708	21431
897.828	21500
897.949	21207
898.07	21119
898.19	21222
898.311	21424
898.431	21382
898.552	21462
898.672	21564
898.792	21428
898.913	21348
899.033	21260
899.153	21070
899.273	21024
899.393	21180
899.513	21062
899.633	21077
899.753	21036
899.873	20963
899.993	21138
900.113	21005
900.232	21058
900.352	21039
900.472	20963
900.591	20792
900.711	20849
900.83	20769
900.95	20902
901.069	20788
901.189	20792
901.308	20556
901.427	20393
901.546	20457
901.665	20434
901.784	20488
901.904	20252
902.023	20126
902.141	20111
902.26	19951
902.379	19947
902.498	19818
902.617	19864
902.735	20012
902.854	19951
902.973	19803
903.091	19582
903.21	19586
903.328	19575
903.446	19373
903.565	19400
903.683	19384
903.801	19274
903.919	19327
904.038	19255
904.156	19137
904.274	19228
904.392	19274
904.51	19179
904.627	19019
904.745	19194
904.863	19110
904.981	19000
905.098	18787
905.216	18897
905.334	18802
905.451	18772
905.569	18768
905.686	18772
905.803	18806
905.921	18566
906.038	18681
906.155	18559
906.272	18460
906.389	18517
906.506	18483
906.623	18342
906.74	18216
906.857	18323
906.974	18209
907.091	18422
907.208	18395
907.324	18300
907.441	18194
907.557	18114
907.674	17999
907.79	17992
907.907	18053
908.023	17996
908.139	18019
908.256	17859
908.372	17984
908.488	17847
908.604	17771
908.72	17733
908.836	17733
908.952	17714
909.068	17745
909.184	17802
909.3	17802
909.415	17870
909.531	17665
909.647	17577
909.762	17471
909.878	17402
909.993	17414
910.108	17433
910.224	17486
910.339	17429
910.454	17277
910.57	17239
910.685	17239
910.8	17391
910.915	17383
911.03	17204
911.145	17140
911.259	17029
911.374	17064
911.489	16957
911.604	16900
911.718	16782
911.833	16809
911.947	16698
912.062	16626
912.176	16748
912.291	16843
912.405	16736
912.519	16995
912.633	16869
912.748	16805
912.862	16679
912.976	16599
913.09	16519
913.204	16504
913.318	16485
913.431	16622
913.545	16607
913.659	16634
913.772	16580
913.886	16333
914	16333
914.113	16402
914.226	16459
914.34	16428
914.453	16196
914.566	16394
914.68	16291
914.793	16120
914.906	16002
915.019	15960
915.132	15907
915.245	15987
915.358	15975
915.47	15857
915.583	15937
915.696	16029
915.809	16044
915.921	15960
916.034	15842
916.146	15800
916.259	15732
916.371	15922
916.483	15838
916.595	15679
916.708	15770
916.82	15785
916.932	15728
917.044	15774
917.156	15671
917.268	15660
917.38	15644
917.491	15595
917.603	15625
917.715	15656
917.826	15545
917.938	15492
918.049	15378
918.161	15572
918.272	15618
918.384	15568
918.495	15420
918.606	15344
918.717	15260
918.828	15252
918.939	15439
919.05	15154
919.161	15313
919.272	14998
919.383	15222
919.494	15272
919.604	15485
919.715	15245
919.826	15081
919.936	15214
920.047	15268
920.157	15264
920.267	15458
920.378	15325
920.488	15252
920.598	15344
920.708	15538
920.818	15397
920.928	15443
921.038	15492
921.148	15526
921.258	15150
921.368	15032
921.477	15020
921.587	15009
921.697	14883
921.806	14910
921.916	14819
922.025	14674
922.134	14602
922.244	14511
922.353	14594
922.462	14518
922.571	14374
922.68	14225
922.789	14210
922.898	14313
923.007	14248
923.116	14176
923.224	14210
923.333	14252
923.442	14039
923.55	14065
923.659	14073
923.767	14081
923.876	14020
923.984	14065
924.092	13925
924.201	13932
924.309	13986
924.417	13875
924.525	13898
924.633	13757
924.741	14598
924.849	13613
924.956	13780
925.064	13662
925.172	13499
925.279	13575
925.387	13639
925.494	13506
925.602	13677
925.709	13613
925.816	13506
925.924	13525
926.031	13609
926.138	13575
926.245	13609
926.352	13422
926.459	13460
926.566	13605
926.673	13396
926.779	13350
926.886	13407
926.993	13179
927.099	13217
927.206	13114
927.312	13046
927.419	13160
927.525	13145
927.631	13240
927.737	12993
927.843	12924
927.95	12863
928.056	12916
928.162	13053
928.267	13027
928.373	13586
928.479	13095
928.585	12772
928.69	12897
928.796	12916
928.901	12696
929.007	12696
929.112	12768
929.218	12738
929.323	12707
929.428	12662
929.533	12798
929.638	12483
929.743	12570
929.848	12559
929.953	12585
930.058	12441
930.163	12334
930.267	12357
930.372	12544
930.477	12243
930.581	12540
930.685	12357
930.79	12133
930.894	12334
930.998	12163
931.103	12342
931.207	12007
931.311	11847
931.415	11718
931.519	11554
931.623	11585
