Data from test_V78500241_3673.txt Node
Date: Fri Mar 25 16:07:14 CST 2022
User: usil
Spectrometer: V785-0024
Trigger mode: 0
Integration Time (sec): 4.000000E-1
Scans to average: 1
Nonlinearity correction enabled: false
Boxcar width: 0
Storing dark spectrum: false
XAxis mode: Wavelengths
Number of Pixels in Spectrum: 1024
>>>>>Begin Spectral Data<<<<<
801.071	28238
801.214	28363
801.356	28154
801.499	28055
801.641	28021
801.783	28006
801.926	27960
802.068	27987
802.211	27968
802.353	27876
802.496	27679
802.638	27583
802.78	27679
802.923	27553
803.065	27500
803.208	27713
803.35	27595
803.492	27797
803.635	27732
803.777	27709
803.919	27895
804.061	28078
804.204	27869
804.346	27732
804.488	27679
804.63	27819
804.773	27720
804.915	27827
805.057	28078
805.199	27880
805.341	27972
805.483	28082
805.626	27998
805.768	27888
805.91	28021
806.052	28044
806.194	27911
806.336	28070
806.478	28090
806.62	27960
806.762	28055
806.904	28360
807.046	28497
807.188	28462
807.33	28356
807.472	28421
807.614	28474
807.756	28459
807.898	28287
808.04	28131
808.182	28204
808.324	28177
808.465	28379
808.607	28504
808.749	28596
808.891	28774
809.033	28729
809.174	28672
809.316	28725
809.458	28824
809.6	28607
809.741	28778
809.883	28733
810.025	28961
810.166	28942
810.308	28968
810.45	28915
810.591	28858
810.733	28820
810.875	28725
811.016	28672
811.158	28611
811.299	28767
811.441	28797
811.582	28771
811.724	28790
811.865	28637
812.007	28831
812.148	28713
812.29	28763
812.431	28869
812.573	28949
812.714	29029
812.855	29185
812.997	29334
813.138	29486
813.279	29273
813.421	29265
813.562	29216
813.703	28946
813.845	28953
813.986	28592
814.127	28512
814.268	28394
814.41	28401
814.551	28409
814.692	28341
814.833	28337
814.974	28261
815.115	28451
815.256	28219
815.397	28299
815.539	28211
815.68	28223
815.821	28131
815.962	28063
816.103	28265
816.244	28074
816.385	27953
816.526	27914
816.666	27778
816.807	27743
816.948	27755
817.089	27789
817.23	27572
817.371	27724
817.512	27629
817.653	27625
817.793	27644
817.934	27736
818.075	27515
818.216	27545
818.356	27553
818.497	27496
818.638	27401
818.778	27260
818.919	27458
819.06	27420
819.2	27534
819.341	27701
819.481	27709
819.622	27930
819.762	28070
819.903	27922
820.043	27838
820.184	27895
820.324	27869
820.465	27953
820.605	27888
820.746	27736
820.886	27728
821.026	27766
821.167	27759
821.307	27781
821.447	27572
821.588	27625
821.728	27389
821.868	27332
822.008	27135
822.149	27077
822.289	27218
822.429	26815
822.569	26853
822.709	27013
822.849	26667
822.99	26571
823.13	26701
823.27	26640
823.41	26522
823.55	26423
823.69	26503
823.83	26450
823.97	26507
824.11	26343
824.25	26240
824.389	26210
824.529	26408
824.669	26225
824.809	26507
824.949	26511
825.089	26324
825.228	26275
825.368	26153
825.508	26142
825.648	26164
825.787	26332
825.927	26172
826.067	26039
826.206	26195
826.346	26248
826.485	26298
826.625	26172
826.765	26412
826.904	26240
827.044	26084
827.183	26096
827.323	25928
827.462	25940
827.601	26046
827.741	25818
827.88	25909
828.02	25704
828.159	25902
828.298	25913
828.437	25963
828.577	25940
828.716	26046
828.855	25841
828.994	25525
829.134	25609
829.273	25571
829.412	25540
829.551	25472
829.69	25544
829.829	25666
829.968	25655
830.107	25723
830.246	25601
830.385	25594
830.524	25525
830.663	25464
830.802	25285
830.941	25141
831.08	25133
831.219	25304
831.357	25179
831.496	25388
831.635	25183
831.774	25076
831.913	25145
832.051	25004
832.19	25027
832.329	25141
832.467	24871
832.606	24798
832.744	24863
832.883	24966
833.022	24779
833.16	24859
833.299	24840
833.437	24913
833.576	24863
833.714	24996
833.852	24996
833.991	25019
834.129	25012
834.267	24966
834.406	24901
834.544	25137
834.682	24943
834.821	24882
834.959	25099
835.097	24932
835.235	24977
835.373	24871
835.511	24814
835.65	24760
835.788	24772
835.926	24642
836.064	24536
836.202	24677
836.34	24810
836.478	24848
836.615	24741
836.753	24779
836.891	24738
837.029	24658
837.167	24623
837.305	24696
837.443	24505
837.58	24620
837.718	24700
837.856	24650
837.993	24597
838.131	24559
838.269	24441
838.406	24589
838.544	24388
838.681	24254
838.819	24239
838.956	23923
839.094	23984
839.231	24174
839.369	24144
839.506	24551
839.643	24334
839.781	23999
839.918	23969
840.055	24079
840.193	23958
840.33	24068
840.467	23980
840.604	23992
840.742	24060
840.879	23836
841.016	23908
841.153	23775
841.29	24098
841.427	23897
841.564	24015
841.701	23908
841.838	24026
841.975	23942
842.112	23840
842.249	23718
842.385	23661
842.522	24030
842.659	23874
842.796	23703
842.933	23809
843.069	23638
843.206	23661
843.343	23790
843.479	23672
843.616	23642
843.752	23566
843.889	23531
844.025	23824
844.162	23493
844.298	23566
844.435	23501
844.571	23425
844.708	23509
844.844	23760
844.98	23653
845.117	23505
845.253	23497
845.389	23421
845.525	23471
845.661	23467
845.798	23258
845.934	23311
846.07	23299
846.206	23239
846.342	23417
846.478	23197
846.614	23022
846.75	22938
846.886	22946
847.022	23006
847.158	22934
847.294	23003
847.429	22930
847.565	22873
847.701	23284
847.837	22729
847.972	22771
848.108	22736
848.244	22839
848.379	22489
848.515	22611
848.65	22580
848.786	22565
848.921	22535
849.057	22672
849.192	22672
849.328	22641
849.463	22763
849.598	22584
849.734	22329
849.869	22440
850.004	22272
850.14	22322
850.275	22394
850.41	22360
850.545	22284
850.68	22287
850.815	22341
850.95	22242
851.085	22516
851.22	22481
851.355	22481
851.49	22196
851.625	22291
851.76	22344
851.895	22265
852.03	22154
852.165	22318
852.299	22295
852.434	22386
852.569	22367
852.703	22310
852.838	22329
852.973	22421
853.107	22443
853.242	22223
853.376	22112
853.511	22010
853.645	22135
853.78	22169
853.914	22192
854.048	22093
854.183	22207
854.317	22158
854.451	22306
854.585	22295
854.72	22101
854.854	22276
854.988	22063
855.122	22177
855.256	21983
855.39	22097
855.524	22185
855.658	22234
855.792	22219
855.926	22154
856.06	22215
856.194	22226
856.327	22188
856.461	22169
856.595	21960
856.729	22158
856.862	22265
856.996	22097
857.13	22162
857.263	22265
857.397	22299
857.53	22166
857.664	22105
857.797	22238
857.931	22230
858.064	22192
858.197	22303
858.331	22261
858.464	22010
858.597	22074
858.731	22143
858.864	22067
858.997	22044
859.13	22150
859.263	22154
859.396	22204
859.529	22097
859.662	22093
859.795	21975
859.928	22223
860.061	22344
860.194	22379
860.327	22223
860.46	22242
860.592	22158
860.725	22272
860.858	22207
860.99	22192
861.123	22109
861.256	22169
861.388	22128
861.521	22889
861.653	22078
861.786	21972
861.918	21926
862.05	22021
862.183	22169
862.315	22181
862.447	22101
862.58	22036
862.712	21861
862.844	21804
862.976	21968
863.108	22013
863.24	22375
863.372	21895
863.504	21869
863.636	21770
863.768	21873
863.9	21926
864.032	21800
864.164	21865
864.296	21892
864.428	21975
864.559	21915
864.691	21876
864.823	21869
864.954	21842
865.086	21770
865.217	21778
865.349	21553
865.48	21743
865.612	21854
865.743	22010
865.875	21865
866.006	21770
866.137	21732
866.269	21724
866.4	21686
866.531	21671
866.662	21606
866.793	21606
866.924	21679
867.055	21675
867.186	21698
867.317	21679
867.448	21694
867.579	21591
867.71	21488
867.841	21606
867.972	21622
868.103	21743
868.233	21583
868.364	21595
868.495	21876
868.625	21949
868.756	21983
868.886	21751
869.017	21861
869.147	22010
869.278	21895
869.408	21926
869.539	21892
869.669	21994
869.799	21979
869.929	22059
870.06	22036
870.19	22234
870.32	22234
870.45	22223
870.58	22253
870.71	22417
870.84	22325
870.97	22257
871.1	22379
871.23	22443
871.36	22478
871.489	22402
871.619	22531
871.749	22668
871.879	22523
872.008	22512
872.138	22592
872.267	22443
872.397	22287
872.526	22371
872.656	22318
872.785	22299
872.915	22493
873.044	22634
873.173	22557
873.303	22588
873.432	22668
873.561	22626
873.69	22588
873.819	22474
873.948	22626
874.077	22500
874.206	22466
874.335	22466
874.464	22786
874.593	22790
874.722	22717
874.851	22717
874.979	22721
875.108	22900
875.237	22774
875.365	22675
875.494	22744
875.623	22835
875.751	22679
875.88	22744
876.008	23029
876.136	23060
876.265	23197
876.393	23334
876.521	23273
876.65	23212
876.778	23185
876.906	23060
877.034	23033
877.162	23105
877.29	23064
877.418	23113
877.546	23067
877.674	22953
877.802	23029
877.93	23090
878.058	23052
878.185	23064
878.313	23147
878.441	22991
878.568	22919
878.696	23083
878.824	23200
878.951	23147
879.079	23242
879.206	23429
879.333	23318
879.461	23128
879.588	23170
879.715	23197
879.842	23421
879.97	23044
880.097	22968
880.224	22995
880.351	22968
880.478	23033
880.605	22999
880.732	22938
880.859	23143
880.986	22953
881.112	23006
881.239	22752
881.366	22721
881.493	22683
881.619	22512
881.746	22592
881.872	22538
881.999	22382
882.125	22531
882.252	22611
882.378	22394
882.505	22615
882.631	22356
882.757	22272
882.883	22352
883.01	22196
883.136	21998
883.262	22067
883.388	21972
883.514	22204
883.64	22036
883.766	22025
883.892	21964
884.018	22044
884.143	22215
884.269	22204
884.395	21732
884.52	21800
884.646	21899
884.772	21694
884.897	21667
885.023	21793
885.148	21930
885.274	22070
885.399	21751
885.524	21888
885.65	21778
885.775	21728
885.9	21895
886.025	21903
886.15	21812
886.275	21838
886.4	21644
886.525	21717
886.65	21660
886.775	21747
886.9	21823
887.025	21930
887.149	21701
887.274	21656
887.399	21519
887.523	21553
887.648	21534
887.773	21439
887.897	21660
888.021	21580
888.146	21492
888.27	21747
888.395	21660
888.519	21583
888.643	21622
888.767	21606
888.891	21313
889.015	21408
889.139	21450
889.263	21405
889.387	21458
889.511	21675
889.635	21466
889.759	21332
889.883	21378
890.006	21325
890.13	21454
890.254	21283
890.377	21226
890.501	21062
890.624	21039
890.748	21146
890.871	20994
890.995	20826
891.118	20883
891.241	20910
891.364	20853
891.488	20956
891.611	20807
891.734	20876
891.857	20929
891.98	20910
892.103	20998
892.226	20804
892.349	20895
892.471	20815
892.594	20929
892.717	20967
892.839	20727
892.962	20792
893.085	20906
893.207	20788
893.33	20689
893.452	20606
893.575	20823
893.697	20640
893.819	20925
893.941	20929
894.064	20906
894.186	20773
894.308	20727
894.43	20823
894.552	20998
894.674	20842
894.796	20758
894.918	20705
895.04	20777
895.161	20815
895.283	20819
895.405	20781
895.526	20640
895.648	20678
895.769	20807
895.891	20796
896.012	20876
896.134	20937
896.255	20849
896.376	20785
896.498	20845
896.619	20868
896.74	20804
896.861	20857
896.982	21142
897.103	21264
897.224	21009
897.345	20994
897.466	20944
897.587	20944
897.708	21176
897.828	20956
897.949	20994
898.07	20880
898.19	20948
898.311	21043
898.431	20933
898.552	21058
898.672	21081
898.792	21104
898.913	21009
899.033	20807
899.153	20674
899.273	20606
899.393	20731
899.513	20788
899.633	20686
899.753	20781
899.873	20708
899.993	20792
900.113	20560
900.232	20670
900.352	20575
900.472	20541
900.591	20431
900.711	20609
900.83	20457
900.95	20530
901.069	20560
901.189	20328
901.308	20138
901.427	20035
901.546	20176
901.665	20081
901.784	20142
901.904	19909
902.023	19871
902.141	19715
902.26	19582
902.379	19677
902.498	19586
902.617	19567
902.735	19681
902.854	19594
902.973	19441
903.091	19297
903.21	19266
903.328	19297
903.446	19122
903.565	19019
903.683	18985
903.801	18916
903.919	18894
904.038	18928
904.156	18719
904.274	18932
904.392	18741
904.51	18658
904.627	18810
904.745	18821
904.863	18829
904.981	18642
905.098	18456
905.216	18536
905.334	18479
905.451	18597
905.569	18570
905.686	18479
905.803	18376
905.921	18186
906.038	18471
906.155	18296
906.272	18148
906.389	18239
906.506	18057
906.623	17977
906.74	17916
906.857	17935
906.974	17904
907.091	17992
907.208	18140
907.324	18022
907.441	17885
907.557	17794
907.674	17794
907.79	17573
907.907	17665
908.023	17802
908.139	17779
908.256	17661
908.372	17592
908.488	17611
908.604	17402
908.72	17387
908.836	17581
908.952	17421
909.068	17520
909.184	17509
909.3	17478
909.415	17433
909.531	17463
909.647	17212
909.762	17132
909.878	17083
909.993	17258
910.108	17029
910.224	17075
910.339	17102
910.454	17056
910.57	16957
910.685	16923
910.8	17113
910.915	17117
911.03	16953
911.145	16774
911.259	16763
911.374	16687
911.489	16675
911.604	16622
911.718	16417
911.833	16478
911.947	16352
912.062	16295
912.176	16375
912.291	16592
912.405	16531
912.519	16527
912.633	16588
912.748	16413
912.862	16428
912.976	16253
913.09	16082
913.204	16143
913.318	16303
913.431	16348
913.545	16363
913.659	16382
913.772	16188
913.886	16097
914	16040
914.113	16086
914.226	16162
914.34	16090
914.453	15865
914.566	16010
914.68	15983
914.793	15903
914.906	15580
915.019	15644
915.132	15538
915.245	15663
915.358	15679
915.47	15625
915.583	15671
915.696	15660
915.809	15789
915.921	15800
916.034	15618
916.146	15523
916.259	15507
916.371	15622
916.483	15648
916.595	15378
916.708	15530
916.82	15401
916.932	15382
917.044	15382
917.156	15374
917.268	15272
917.38	15329
917.491	15279
917.603	15279
917.715	15287
917.826	15397
917.938	15165
918.049	15131
918.161	15230
918.272	15405
918.384	15268
918.495	15241
918.606	15081
918.717	14929
918.828	14948
918.939	15123
919.05	14872
919.161	14891
919.272	14807
919.383	14838
919.494	15161
919.604	15230
919.715	14975
919.826	14925
919.936	14861
920.047	15112
920.157	15081
920.267	15241
920.378	14990
920.488	14910
920.598	15169
920.708	15188
920.818	15074
920.928	15055
921.038	15306
921.148	15252
921.258	14941
921.368	14845
921.477	14701
921.587	14644
921.697	14629
921.806	14705
921.916	14507
922.025	14473
922.134	14362
922.244	14305
922.353	14343
922.462	14240
922.571	14077
922.68	14058
922.789	13982
922.898	14065
923.007	13925
923.116	14084
923.224	13906
923.333	13997
923.442	13814
923.55	13845
923.659	13868
923.767	13890
923.876	13750
923.984	13727
924.092	13803
924.201	13826
924.309	13803
924.417	13719
924.525	13620
924.633	13704
924.741	14613
924.849	13468
924.956	13548
925.064	13445
925.172	13331
925.279	13419
925.387	13430
925.494	13301
925.602	13472
925.709	13411
925.816	13247
925.924	13324
926.031	13388
926.138	13301
926.245	13304
926.352	13171
926.459	13327
926.566	13377
926.673	13240
926.779	13107
926.886	13046
926.993	12966
927.099	12924
927.206	12882
927.312	12882
927.419	13027
927.525	12905
927.631	13008
927.737	12810
927.843	12734
927.95	12642
928.056	12783
928.162	12821
928.267	12779
928.373	13381
928.479	12783
928.585	12673
928.69	12696
928.796	12703
928.901	12547
929.007	12448
929.112	12654
929.218	12517
929.323	12445
929.428	12498
929.533	12601
929.638	12395
929.743	12369
929.848	12525
929.953	12407
930.058	12194
930.163	12247
930.267	12121
930.372	12334
930.477	12125
930.581	12289
930.685	12144
930.79	11973
930.894	12053
930.998	12041
931.103	12026
931.207	11779
931.311	11714
931.415	11627
931.519	11360
931.623	11360
