Data from test_V78500241_2171.txt Node
Date: Fri Mar 25 15:56:50 CST 2022
User: usil
Spectrometer: V785-0024
Trigger mode: 0
Integration Time (sec): 4.000000E-1
Scans to average: 1
Nonlinearity correction enabled: false
Boxcar width: 0
Storing dark spectrum: false
XAxis mode: Wavelengths
Number of Pixels in Spectrum: 1024
>>>>>Begin Spectral Data<<<<<
801.071	28774
801.214	28805
801.356	28542
801.499	28440
801.641	28409
801.783	28527
801.926	28527
802.068	28375
802.211	28451
802.353	28306
802.496	28120
802.638	28192
802.78	28226
802.923	27994
803.065	27918
803.208	28078
803.35	28211
803.492	28200
803.635	28352
803.777	28192
803.919	28295
804.061	28660
804.204	28348
804.346	28333
804.488	28181
804.63	28287
804.773	28261
804.915	28497
805.057	28546
805.199	28169
805.341	28398
805.483	28356
805.626	28485
805.768	28261
805.91	28493
806.052	28504
806.194	28436
806.336	28721
806.478	28405
806.62	28497
806.762	28630
806.904	28748
807.046	28984
807.188	29037
807.33	28927
807.472	28957
807.614	28850
807.756	28957
807.898	28759
808.04	28733
808.182	28755
808.324	28771
808.465	28957
808.607	29083
808.749	29071
808.891	29345
809.033	29459
809.174	29360
809.316	29128
809.458	29189
809.6	29064
809.741	29185
809.883	29299
810.025	29414
810.166	29512
810.308	29455
810.45	29436
810.591	29391
810.733	29197
810.875	29223
811.016	29003
811.158	29311
811.299	29227
811.441	29372
811.582	29356
811.724	29128
811.865	29102
812.007	29204
812.148	29303
812.29	29181
812.431	29417
812.573	29482
812.714	29775
812.855	29653
812.997	29920
813.138	29946
813.279	29798
813.421	29809
813.562	29737
813.703	29539
813.845	29429
813.986	29174
814.127	28968
814.268	28946
814.41	29010
814.551	28930
814.692	28968
814.833	28809
814.974	28793
815.115	29048
815.256	28790
815.397	28786
815.539	28763
815.68	28771
815.821	28786
815.962	28717
816.103	28618
816.244	28599
816.385	28428
816.526	28516
816.666	28318
816.807	28360
816.948	28371
817.089	28428
817.23	28306
817.371	28272
817.512	28207
817.653	28204
817.793	28112
817.934	28188
818.075	28226
818.216	28238
818.356	28200
818.497	28112
818.638	28006
818.778	27888
818.919	27937
819.06	28120
819.2	28158
819.341	28128
819.481	28284
819.622	28417
819.762	28481
819.903	28565
820.043	28489
820.184	28409
820.324	28474
820.465	28485
820.605	28344
820.746	28375
820.886	28200
821.026	28177
821.167	28382
821.307	28493
821.447	28284
821.588	28135
821.728	27968
821.868	27926
822.008	27819
822.149	27808
822.289	27690
822.429	27435
822.569	27416
822.709	27420
822.849	27344
822.99	27310
823.13	27291
823.27	27237
823.41	27028
823.55	26956
823.69	27020
823.83	27001
823.97	27039
824.11	26853
824.25	26834
824.389	26925
824.529	26906
824.669	26944
824.809	27066
824.949	26994
825.089	26990
825.228	26967
825.368	26781
825.508	26807
825.648	26750
825.787	26807
825.927	26880
826.067	26674
826.206	26743
826.346	26731
826.485	26716
826.625	26689
826.765	26815
826.904	26849
827.044	26541
827.183	26396
827.323	26503
827.462	26530
827.601	26476
827.741	26583
827.88	26450
828.02	26286
828.159	26412
828.298	26393
828.437	26457
828.577	26412
828.716	26457
828.855	26332
828.994	26183
829.134	26164
829.273	26092
829.412	25993
829.551	26183
829.69	26214
829.829	26103
829.968	26275
830.107	26248
830.246	26096
830.385	26020
830.524	26092
830.663	25966
830.802	25860
830.941	25849
831.08	25784
831.219	25822
831.357	25887
831.496	25947
831.635	25811
831.774	25689
831.913	25586
832.051	25514
832.19	25529
832.329	25502
832.467	25502
832.606	25343
832.744	25411
832.883	25343
833.022	25426
833.16	25320
833.299	25369
833.437	25441
833.576	25540
833.714	25510
833.852	25529
833.991	25533
834.129	25457
834.267	25514
834.406	25548
834.544	25491
834.682	25521
834.821	25525
834.959	25628
835.097	25403
835.235	25457
835.373	25381
835.511	25514
835.65	25460
835.788	25396
835.926	25263
836.064	25031
836.202	25175
836.34	25282
836.478	25377
836.615	25198
836.753	25297
836.891	25251
837.029	25255
837.167	25278
837.305	25228
837.443	25198
837.58	25190
837.718	25091
837.856	25190
837.993	25183
838.131	25004
838.269	25034
838.406	25015
838.544	24905
838.681	24840
838.819	24661
838.956	24730
839.094	24597
839.231	24658
839.369	24817
839.506	24951
839.643	24848
839.781	24612
839.918	24536
840.055	24585
840.193	24604
840.33	24452
840.467	24578
840.604	24544
840.742	24981
840.879	24456
841.016	24380
841.153	24330
841.29	24505
841.427	24490
841.564	24521
841.701	24445
841.838	24422
841.975	24399
842.112	24399
842.249	24243
842.385	24296
842.522	24475
842.659	24334
842.796	24330
842.933	24308
843.069	24281
843.206	24072
843.343	24296
843.479	24213
843.616	24258
843.752	24030
843.889	24034
844.025	24152
844.162	23988
844.298	24178
844.435	23958
844.571	23920
844.708	24057
844.844	24216
844.98	24087
845.117	24053
845.253	23965
845.389	23866
845.525	24026
845.661	23912
845.798	23809
845.934	23775
846.07	23737
846.206	23577
846.342	23824
846.478	23722
846.614	23516
846.75	23379
846.886	23330
847.022	23577
847.158	23627
847.294	23486
847.429	23398
847.565	23497
847.701	23710
847.837	23079
847.972	23208
848.108	23398
848.244	23105
848.379	23094
848.515	23048
848.65	23014
848.786	23090
848.921	23098
849.057	23273
849.192	23178
849.328	23083
849.463	23006
849.598	22923
849.734	22968
849.869	22900
850.004	22831
850.14	22778
850.275	22771
850.41	22812
850.545	22911
850.68	22812
850.815	22816
850.95	22793
851.085	22919
851.22	22904
851.355	22889
851.49	22755
851.625	22797
851.76	22710
851.895	22767
852.03	22618
852.165	22729
852.299	22782
852.434	22972
852.569	22835
852.703	22759
852.838	22850
852.973	23014
853.107	22923
853.242	22702
853.376	22729
853.511	22573
853.645	22637
853.78	22919
853.914	22653
854.048	22550
854.183	22573
854.317	22729
854.451	22752
854.585	22721
854.72	22668
854.854	22767
854.988	22554
855.122	22736
855.256	22577
855.39	22554
855.524	22786
855.658	22721
855.792	22622
855.926	22557
856.06	22573
856.194	22649
856.327	22672
856.461	22554
856.595	22523
856.729	22584
856.862	22672
856.996	22630
857.13	22713
857.263	22854
857.397	22603
857.53	22691
857.664	22580
857.797	22702
857.931	22611
858.064	22816
858.197	22641
858.331	22812
858.464	22592
858.597	22573
858.731	22622
858.864	22531
858.997	22580
859.13	22637
859.263	22637
859.396	22702
859.529	22622
859.662	22679
859.795	22656
859.928	22466
860.061	22679
860.194	22900
860.327	22538
860.46	22675
860.592	22717
860.725	22854
860.858	22763
860.99	22538
861.123	22645
861.256	22523
861.388	22736
861.521	23299
861.653	22603
861.786	22478
861.918	22474
862.05	22535
862.183	22538
862.315	22603
862.447	22596
862.58	22516
862.712	22322
862.844	22276
862.976	22424
863.108	22421
863.24	22809
863.372	22329
863.504	22291
863.636	22337
863.768	22280
863.9	22413
864.032	22261
864.164	22223
864.296	22367
864.428	22493
864.559	22379
864.691	22459
864.823	22348
864.954	22207
865.086	22375
865.217	22459
865.349	22051
865.48	22086
865.612	22242
865.743	22306
865.875	22226
866.006	22226
866.137	22177
866.269	22234
866.4	22188
866.531	22219
866.662	22048
866.793	22177
866.924	22200
867.055	22177
867.186	22181
867.317	22032
867.448	22059
867.579	21945
867.71	22166
867.841	22025
867.972	22139
868.103	22150
868.233	22242
868.364	22166
868.495	22360
868.625	22417
868.756	22523
868.886	22360
869.017	22344
869.147	22531
869.278	22432
869.408	22367
869.539	22451
869.669	22478
869.799	22508
869.929	22557
870.06	22443
870.19	22763
870.32	22649
870.45	22622
870.58	22873
870.71	22793
870.84	22820
870.97	22698
871.1	22786
871.23	22980
871.36	22991
871.489	22885
871.619	22896
871.749	22949
871.879	23018
872.008	23037
872.138	22984
872.267	22961
872.397	22877
872.526	22801
872.656	22736
872.785	22774
872.915	23006
873.044	23037
873.173	23037
873.303	22984
873.432	23025
873.561	23083
873.69	23056
873.819	22911
873.948	23071
874.077	22942
874.206	22987
874.335	22984
874.464	23121
874.593	23273
874.722	23231
874.851	23151
874.979	23315
875.108	23239
875.237	23056
875.365	23037
875.494	23193
875.623	23269
875.751	23174
875.88	23235
876.008	23356
876.136	23410
876.265	23695
876.393	23771
876.521	23531
876.65	23714
876.778	23608
876.906	23638
877.034	23535
877.162	23570
877.29	23520
877.418	23596
877.546	23649
877.674	23421
877.802	23573
877.93	23509
878.058	23436
878.185	23531
878.313	23493
878.441	23383
878.568	23337
878.696	23478
878.824	23573
878.951	23608
879.079	23733
879.206	23764
879.333	23748
879.461	23562
879.588	23783
879.715	23695
879.842	23821
879.97	23577
880.097	23440
880.224	23299
880.351	23425
880.478	23516
880.605	23512
880.732	23398
880.859	23509
880.986	23387
881.112	23277
881.239	23220
881.366	23212
881.493	22847
881.619	22816
881.746	23033
881.872	22946
881.999	22991
882.125	22831
882.252	23041
882.378	22957
882.505	22930
882.631	22763
882.757	22637
882.883	22778
883.01	22500
883.136	22577
883.262	22527
883.388	22405
883.514	22694
883.64	22626
883.766	22459
883.892	22360
884.018	22500
884.143	22538
884.269	22542
884.395	22207
884.52	22249
884.646	22272
884.772	22211
884.897	22109
885.023	22257
885.148	22322
885.274	22382
885.399	22421
885.524	22207
885.65	22234
885.775	22173
885.9	22143
886.025	22333
886.15	22382
886.275	22128
886.4	22131
886.525	22207
886.65	22116
886.775	22078
886.9	22379
887.025	22394
887.149	22048
887.274	22063
887.399	22086
887.523	21994
887.648	21983
887.773	21945
887.897	22097
888.021	22090
888.146	21880
888.27	22032
888.395	22093
888.519	21903
888.643	22013
888.767	21991
888.891	21861
889.015	21739
889.139	21934
889.263	21785
889.387	21823
889.511	22093
889.635	21941
889.759	21789
889.883	21823
890.006	21800
890.13	21759
890.254	21838
890.377	21663
890.501	21538
890.624	21549
890.748	21591
890.871	21382
890.995	21298
891.118	21287
891.241	21287
891.364	21332
891.488	21481
891.611	21355
891.734	21340
891.857	21359
891.98	21367
892.103	21321
892.226	21336
892.349	21150
892.471	21138
892.594	21188
892.717	21161
892.839	21245
892.962	21199
893.085	21321
893.207	21203
893.33	21195
893.452	21116
893.575	21302
893.697	21192
893.819	21313
893.941	21389
894.064	21393
894.186	21077
894.308	21108
894.43	21150
894.552	21348
894.674	21260
894.796	21138
894.918	21150
895.04	21283
895.161	21192
895.283	21340
895.405	21116
895.526	21157
895.648	21188
895.769	21279
895.891	21272
896.012	21218
896.134	21203
896.255	21233
896.376	21176
896.498	21291
896.619	21150
896.74	21146
896.861	21275
896.982	21477
897.103	21633
897.224	21610
897.345	21443
897.466	21386
897.587	21367
897.708	21454
897.828	21363
897.949	21428
898.07	21241
898.19	21214
898.311	21298
898.431	21275
898.552	21386
898.672	21443
898.792	21439
898.913	21408
899.033	21306
899.153	21127
899.273	21146
899.393	21085
899.513	21192
899.633	21096
899.753	21203
899.873	21028
899.993	21188
900.113	20880
900.232	21119
900.352	21089
900.472	20963
900.591	20845
900.711	20948
900.83	20765
900.95	20975
901.069	21005
901.189	20758
901.308	20488
901.427	20446
901.546	20564
901.665	20552
901.784	20469
901.904	20320
902.023	20320
902.141	20145
902.26	20073
902.379	20031
902.498	19890
902.617	20062
902.735	19928
902.854	19845
902.973	19807
903.091	19605
903.21	19578
903.328	19533
903.446	19586
903.565	19350
903.683	19514
903.801	19187
903.919	19403
904.038	19381
904.156	19221
904.274	19206
904.392	19088
904.51	19160
904.627	19034
904.745	19141
904.863	19095
904.981	18901
905.098	18768
905.216	18745
905.334	18863
905.451	18730
905.569	18806
905.686	18810
905.803	18768
905.921	18631
906.038	18821
906.155	18559
906.272	18528
906.389	18456
906.506	18399
906.623	18441
906.74	18258
906.857	18323
906.974	18117
907.091	18224
907.208	18410
907.324	18311
907.441	18205
907.557	18038
907.674	18038
907.79	18003
907.907	18087
908.023	18049
908.139	18091
908.256	17984
908.372	17999
908.488	17836
908.604	17817
908.72	17699
908.836	17752
908.952	17771
909.068	17821
909.184	17847
909.3	17707
909.415	17680
909.531	17745
909.647	17528
909.762	17604
909.878	17429
909.993	17463
910.108	17372
910.224	17414
910.339	17455
910.454	17315
910.57	17258
910.685	17227
910.8	17425
910.915	17376
911.03	17220
911.145	17033
911.259	16976
911.374	17056
911.489	16862
911.604	16915
911.718	16649
911.833	16854
911.947	16698
912.062	16634
912.176	16801
912.291	16752
912.405	16801
912.519	16949
912.633	16961
912.748	16721
912.862	16763
912.976	16611
913.09	16481
913.204	16428
913.318	16641
913.431	16596
913.545	16618
913.659	16615
913.772	16569
913.886	16421
914	16379
914.113	16375
914.226	16569
914.34	16390
914.453	16329
914.566	16466
914.68	16280
914.793	16116
914.906	15994
915.019	15937
915.132	15846
915.245	15998
915.358	15968
915.47	15953
915.583	16048
915.696	15987
915.809	16074
915.921	16120
916.034	16006
916.146	15762
916.259	15915
916.371	15823
916.483	15865
916.595	15854
916.708	15762
916.82	15797
916.932	15717
917.044	15755
917.156	15648
917.268	15507
917.38	15629
917.491	15641
917.603	15538
917.715	15644
917.826	15576
917.938	15515
918.049	15313
918.161	15599
918.272	15728
918.384	15698
918.495	15564
918.606	15454
918.717	15218
918.828	15370
918.939	15306
919.05	15340
919.161	15294
919.272	15138
919.383	15260
919.494	15393
919.604	15530
919.715	15313
919.826	15279
919.936	15344
920.047	15363
920.157	15233
920.267	15492
920.378	15336
920.488	15241
920.598	15462
920.708	15591
920.818	15439
920.928	15462
921.038	15637
921.148	15515
921.258	15245
921.368	15188
921.477	15104
921.587	15001
921.697	14887
921.806	14975
921.916	14921
922.025	14678
922.134	14549
922.244	14663
922.353	14708
922.462	14640
922.571	14465
922.68	14358
922.789	14328
922.898	14317
923.007	14256
923.116	14389
923.224	14290
923.333	14263
923.442	14195
923.55	14058
923.659	14210
923.767	14138
923.876	14027
923.984	14142
924.092	14039
924.201	14065
924.309	13959
924.417	14084
924.525	13868
924.633	13951
924.741	14731
924.849	13715
924.956	13818
925.064	13696
925.172	13616
925.279	13639
925.387	13731
925.494	13647
925.602	13776
925.709	13693
925.816	13525
925.924	13628
926.031	13609
926.138	13590
926.245	13590
926.352	13518
926.459	13552
926.566	13677
926.673	13491
926.779	13327
926.886	13396
926.993	13240
927.099	13270
927.206	13206
927.312	13152
927.419	13259
927.525	13190
927.631	13198
927.737	13129
927.843	13046
927.95	12916
928.056	13023
928.162	13023
928.267	13084
928.373	13715
928.479	13015
928.585	12817
928.69	12909
928.796	13031
928.901	12806
929.007	12741
929.112	12806
929.218	12779
929.323	12741
929.428	12692
929.533	12859
929.638	12601
929.743	12677
929.848	12658
929.953	12673
930.058	12563
930.163	12426
930.267	12338
930.372	12612
930.477	12334
930.581	12528
930.685	12403
930.79	12289
930.894	12285
930.998	12235
931.103	12353
931.207	11992
931.311	11901
931.415	11760
931.519	11672
931.623	11638
