Data from test_V78500241_2670.txt Node
Date: Fri Mar 25 16:00:17 CST 2022
User: usil
Spectrometer: V785-0024
Trigger mode: 0
Integration Time (sec): 4.000000E-1
Scans to average: 1
Nonlinearity correction enabled: false
Boxcar width: 0
Storing dark spectrum: false
XAxis mode: Wavelengths
Number of Pixels in Spectrum: 1024
>>>>>Begin Spectral Data<<<<<
801.071	28953
801.214	28843
801.356	28508
801.499	28721
801.641	28542
801.783	28443
801.926	28577
802.068	28455
802.211	28459
802.353	28360
802.496	28181
802.638	28261
802.78	28185
802.923	28036
803.065	27991
803.208	28131
803.35	28074
803.492	28333
803.635	28363
803.777	28363
803.919	28459
804.061	28797
804.204	28485
804.346	28333
804.488	28401
804.63	28421
804.773	28401
804.915	28485
805.057	28679
805.199	28352
805.341	28516
805.483	28569
805.626	28538
805.768	28447
805.91	28596
806.052	28778
806.194	28656
806.336	28599
806.478	28516
806.62	28557
806.762	28664
806.904	28888
807.046	29109
807.188	29178
807.33	29086
807.472	29075
807.614	29025
807.756	28965
807.898	28896
808.04	28702
808.182	28706
808.324	28866
808.465	28843
808.607	29083
808.749	29303
808.891	29334
809.033	29410
809.174	29375
809.316	29162
809.458	29121
809.6	29216
809.741	29330
809.883	29395
810.025	29661
810.166	29554
810.308	29627
810.45	29680
810.591	29512
810.733	29417
810.875	29143
811.016	29246
811.158	29231
811.299	29162
811.441	29364
811.582	29440
811.724	29318
811.865	29265
812.007	29334
812.148	29383
812.29	29334
812.431	29535
812.573	29566
812.714	29703
812.855	29840
812.997	29866
813.138	30007
813.279	29927
813.421	29901
813.562	29840
813.703	29562
813.845	29551
813.986	29242
814.127	29098
814.268	29067
814.41	28892
814.551	28896
814.692	28976
814.833	29010
814.974	29029
815.115	29044
815.256	28942
815.397	29003
815.539	28801
815.68	28752
815.821	28603
815.962	28713
816.103	28778
816.244	28596
816.385	28611
816.526	28641
816.666	28413
816.807	28192
816.948	28379
817.089	28352
817.23	28341
817.371	28333
817.512	28284
817.653	28188
817.793	28276
817.934	28230
818.075	28306
818.216	28440
818.356	28360
818.497	28280
818.638	28010
818.778	28135
818.919	28154
819.06	28226
819.2	28265
819.341	28223
819.481	28280
819.622	28459
819.762	28672
819.903	28497
820.043	28580
820.184	28474
820.324	28436
820.465	28386
820.605	28413
820.746	28390
820.886	28447
821.026	28451
821.167	28207
821.307	28451
821.447	28303
821.588	28242
821.728	28154
821.868	27949
822.008	27781
822.149	27838
822.289	27808
822.429	27606
822.569	27519
822.709	27591
822.849	27264
822.99	27416
823.13	27317
823.27	27294
823.41	27165
823.55	27093
823.69	27154
823.83	27062
823.97	27131
824.11	26895
824.25	26811
824.389	26914
824.529	27104
824.669	26849
824.809	27024
824.949	27093
825.089	27089
825.228	27123
825.368	26762
825.508	26826
825.648	26940
825.787	26952
825.927	26914
826.067	26823
826.206	26880
826.346	26910
826.485	26800
826.625	26910
826.765	26899
826.904	26834
827.044	26594
827.183	26609
827.323	26564
827.462	26617
827.601	26629
827.741	26461
827.88	26530
828.02	26442
828.159	26590
828.298	26613
828.437	26564
828.577	26579
828.716	26606
828.855	26450
828.994	26206
829.134	26240
829.273	26233
829.412	26267
829.551	26256
829.69	26180
829.829	26237
829.968	26267
830.107	26286
830.246	26233
830.385	26153
830.524	26134
830.663	26183
830.802	25898
830.941	25887
831.08	25890
831.219	25871
831.357	25841
831.496	26081
831.635	25856
831.774	25814
831.913	25681
832.051	25674
832.19	25620
832.329	25578
832.467	25537
832.606	25441
832.744	25419
832.883	25472
833.022	25472
833.16	25556
833.299	25696
833.437	25578
833.576	25624
833.714	25556
833.852	25666
833.991	25635
834.129	25658
834.267	25643
834.406	25674
834.544	25537
834.682	25662
834.821	25552
834.959	25753
835.097	25479
835.235	25609
835.373	25586
835.511	25491
835.65	25521
835.788	25255
835.926	25362
836.064	25190
836.202	25190
836.34	25518
836.478	25483
836.615	25304
836.753	25206
836.891	25487
837.029	25358
837.167	25369
837.305	25365
837.443	25373
837.58	25244
837.718	25301
837.856	25274
837.993	25175
838.131	25236
838.269	25034
838.406	25160
838.544	25072
838.681	24787
838.819	24859
838.956	24684
839.094	24798
839.231	24658
839.369	24821
839.506	25122
839.643	24970
839.781	24700
839.918	24642
840.055	24741
840.193	24650
840.33	24536
840.467	24555
840.604	24551
840.742	24905
840.879	24475
841.016	24601
841.153	24308
841.29	24688
841.427	24642
841.564	24768
841.701	24601
841.838	24566
841.975	24486
842.112	24525
842.249	24353
842.385	24327
842.522	24703
842.659	24350
842.796	24338
842.933	24384
843.069	24220
843.206	24289
843.343	24418
843.479	24395
843.616	24437
843.752	24163
843.889	24209
844.025	24289
844.162	24117
844.298	24262
844.435	24068
844.571	24057
844.708	24121
844.844	24216
844.98	24304
845.117	24216
845.253	24060
845.389	23980
845.525	24053
845.661	23961
845.798	23980
845.934	23901
846.07	23870
846.206	23817
846.342	24026
846.478	23764
846.614	23611
846.75	23433
846.886	23566
847.022	23547
847.158	23638
847.294	23509
847.429	23703
847.565	23448
847.701	23657
847.837	23368
847.972	23288
848.108	23486
848.244	23372
848.379	23181
848.515	23121
848.65	23098
848.786	23242
848.921	23220
849.057	23330
849.192	23261
849.328	23174
849.463	23071
849.598	23155
849.734	23071
849.869	23056
850.004	22987
850.14	22919
850.275	22946
850.41	22881
850.545	22839
850.68	22900
850.815	22915
850.95	22984
851.085	23029
851.22	22965
851.355	22869
851.49	22881
851.625	22881
851.76	22984
851.895	22862
852.03	22790
852.165	22862
852.299	22991
852.434	23044
852.569	22953
852.703	22984
852.838	23033
852.973	23041
853.107	22980
853.242	22828
853.376	22809
853.511	22668
853.645	22782
853.78	22805
853.914	22774
854.048	22618
854.183	22729
854.317	22744
854.451	23075
854.585	22782
854.72	22843
854.854	22839
854.988	22660
855.122	22755
855.256	22729
855.39	22706
855.524	22744
855.658	22683
855.792	22786
855.926	22790
856.06	22835
856.194	22679
856.327	22809
856.461	22618
856.595	22729
856.729	22736
856.862	22904
856.996	22919
857.13	22824
857.263	22866
857.397	22812
857.53	22706
857.664	22835
857.797	22767
857.931	22911
858.064	22854
858.197	22782
858.331	22744
858.464	22596
858.597	22710
858.731	22691
858.864	22725
858.997	22683
859.13	22679
859.263	22729
859.396	22824
859.529	22812
859.662	22683
859.795	22679
859.928	22725
860.061	22809
860.194	22930
860.327	22729
860.46	22713
860.592	22999
860.725	22908
860.858	22923
860.99	22771
861.123	22702
861.256	22767
861.388	22793
861.521	23570
861.653	22603
861.786	22577
861.918	22588
862.05	22611
862.183	22573
862.315	22710
862.447	22687
862.58	22622
862.712	22561
862.844	22421
862.976	22592
863.108	22481
863.24	22820
863.372	22443
863.504	22443
863.636	22451
863.768	22443
863.9	22466
864.032	22462
864.164	22428
864.296	22466
864.428	22516
864.559	22592
864.691	22424
864.823	22512
864.954	22462
865.086	22341
865.217	22379
865.349	22238
865.48	22291
865.612	22284
865.743	22451
865.875	22386
866.006	22314
866.137	22360
866.269	22325
866.4	22253
866.531	22223
866.662	22196
866.793	22147
866.924	22344
867.055	22284
867.186	22261
867.317	22238
867.448	22166
867.579	22310
867.71	22147
867.841	22272
867.972	22257
868.103	22181
868.233	22284
868.364	22230
868.495	22375
868.625	22504
868.756	22660
868.886	22398
869.017	22474
869.147	22538
869.278	22618
869.408	22485
869.539	22538
869.669	22554
869.799	22470
869.929	22637
870.06	22542
870.19	22626
870.32	22774
870.45	22725
870.58	22854
870.71	22938
870.84	22915
870.97	22911
871.1	22927
871.23	23197
871.36	23079
871.489	22976
871.619	23083
871.749	23083
871.879	23185
872.008	23197
872.138	23143
872.267	23006
872.397	22915
872.526	22866
872.656	22972
872.785	22877
872.915	23204
873.044	23185
873.173	22976
873.303	23162
873.432	23162
873.561	23242
873.69	23083
873.819	23174
873.948	23208
874.077	23079
874.206	22873
874.335	23075
874.464	23086
874.593	23311
874.722	23193
874.851	23337
874.979	23391
875.108	23372
875.237	23307
875.365	23212
875.494	23337
875.623	23376
875.751	23155
875.88	23254
876.008	23524
876.136	23547
876.265	23714
876.393	23760
876.521	23828
876.65	23729
876.778	23615
876.906	23760
877.034	23642
877.162	23729
877.29	23490
877.418	23661
877.546	23699
877.674	23687
877.802	23562
877.93	23577
878.058	23558
878.185	23452
878.313	23600
878.441	23581
878.568	23459
878.696	23589
878.824	23668
878.951	23649
879.079	23775
879.206	23946
879.333	23866
879.461	23630
879.588	23661
879.715	23878
879.842	24011
879.97	23733
880.097	23467
880.224	23570
880.351	23585
880.478	23589
880.605	23436
880.732	23539
880.859	23733
880.986	23554
881.112	23512
881.239	23318
881.366	23208
881.493	23022
881.619	23094
881.746	23056
881.872	22987
881.999	22999
882.125	22968
882.252	22984
882.378	22896
882.505	23098
882.631	22736
882.757	22637
882.883	22653
883.01	22698
883.136	22588
883.262	22580
883.388	22546
883.514	22698
883.64	22721
883.766	22733
883.892	22443
884.018	22485
884.143	22713
884.269	22679
884.395	22436
884.52	22314
884.646	22356
884.772	22226
884.897	22219
885.023	22356
885.148	22398
885.274	22535
885.399	22306
885.524	22322
885.65	22223
885.775	22348
885.9	22371
886.025	22428
886.15	22386
886.275	22348
886.4	22230
886.525	22169
886.65	22268
886.775	22238
886.9	22367
887.025	22474
887.149	22188
887.274	22147
887.399	21994
887.523	22013
887.648	22105
887.773	21979
887.897	22207
888.021	22128
888.146	22063
888.27	22135
888.395	22131
888.519	22090
888.643	22109
888.767	22040
888.891	22051
889.015	21888
889.139	21968
889.263	21778
889.387	22063
889.511	22017
889.635	21987
889.759	21884
889.883	21895
890.006	21873
890.13	21949
890.254	21808
890.377	21808
890.501	21690
890.624	21637
890.748	21622
890.871	21587
890.995	21370
891.118	21405
891.241	21313
891.364	21393
891.488	21553
891.611	21507
891.734	21439
891.857	21401
891.98	21431
892.103	21378
892.226	21370
892.349	21355
892.471	21150
892.594	21378
892.717	21306
892.839	21283
892.962	21260
893.085	21298
893.207	21363
893.33	21180
893.452	21180
893.575	21370
893.697	21272
893.819	21500
893.941	21477
894.064	21458
894.186	21272
894.308	21104
894.43	21439
894.552	21538
894.674	21386
894.796	21252
894.918	21218
895.04	21233
895.161	21298
895.283	21401
895.405	21176
895.526	21329
895.648	21272
895.769	21222
895.891	21245
896.012	21435
896.134	21302
896.255	21382
896.376	21279
896.498	21382
896.619	21150
896.74	21302
896.861	21313
896.982	21568
897.103	21682
897.224	21561
897.345	21492
897.466	21466
897.587	21447
897.708	21561
897.828	21610
897.949	21481
898.07	21348
898.19	21443
898.311	21580
898.431	21367
898.552	21496
898.672	21485
898.792	21454
898.913	21469
899.033	21405
899.153	21325
899.273	21146
899.393	21211
899.513	21218
899.633	21207
899.753	21199
899.873	21165
899.993	21291
900.113	21150
900.232	21150
900.352	21119
900.472	21032
900.591	20994
900.711	20994
900.83	20986
900.95	21214
901.069	21036
901.189	20834
901.308	20617
901.427	20423
901.546	20522
901.665	20606
901.784	20457
901.904	20450
902.023	20347
902.141	20244
902.26	20062
902.379	20111
902.498	20012
902.617	20043
902.735	20031
902.854	19875
902.973	20031
903.091	19788
903.21	19761
903.328	19723
903.446	19635
903.565	19441
903.683	19464
903.801	19331
903.919	19335
904.038	19419
904.156	19278
904.274	19312
904.392	19282
904.51	19282
904.627	19228
904.745	19240
904.863	19263
904.981	19023
905.098	18932
905.216	18905
905.334	18951
905.451	18962
905.569	18856
905.686	18939
905.803	18848
905.921	18715
906.038	18791
906.155	18764
906.272	18509
906.389	18551
906.506	18479
906.623	18521
906.74	18486
906.857	18296
906.974	18353
907.091	18509
907.208	18532
907.324	18483
907.441	18357
907.557	18205
907.674	18125
907.79	18102
907.907	18197
908.023	18102
908.139	18220
908.256	18110
908.372	17950
908.488	17999
908.604	17923
908.72	17874
908.836	17916
908.952	17885
909.068	17885
909.184	17843
909.3	17828
909.415	17961
909.531	17809
909.647	17623
909.762	17535
909.878	17452
909.993	17596
910.108	17528
910.224	17493
910.339	17566
910.454	17349
910.57	17250
910.685	17296
910.8	17497
910.915	17455
911.03	17227
911.145	17174
911.259	17159
911.374	17067
911.489	16968
911.604	16961
911.718	16949
911.833	16801
911.947	16653
912.062	16641
912.176	16767
912.291	16816
912.405	16831
912.519	17041
912.633	17006
912.748	16915
912.862	16824
912.976	16729
913.09	16527
913.204	16603
913.318	16721
913.431	16748
913.545	16748
913.659	16702
913.772	16645
913.886	16542
914	16440
914.113	16569
914.226	16550
914.34	16615
914.453	16367
914.566	16470
914.68	16310
914.793	16268
914.906	16124
915.019	16097
915.132	15819
915.245	16040
915.358	16021
915.47	15953
915.583	15930
915.696	16128
915.809	16185
915.921	16158
916.034	16067
916.146	15922
916.259	15770
916.371	16029
916.483	15895
916.595	15804
916.708	15899
916.82	15827
916.932	15873
917.044	15766
917.156	15793
917.268	15652
917.38	15686
917.491	15671
917.603	15652
917.715	15751
917.826	15682
917.938	15610
918.049	15496
918.161	15488
918.272	15778
918.384	15644
918.495	15584
918.606	15317
918.717	15340
918.828	15412
918.939	15473
919.05	15310
919.161	15306
919.272	15218
919.383	15176
919.494	15397
919.604	15545
919.715	15268
919.826	15226
919.936	15268
920.047	15378
920.157	15268
920.267	15435
920.378	15306
920.488	15344
920.598	15553
920.708	15568
920.818	15401
920.928	15454
921.038	15538
921.148	15507
921.258	15256
921.368	15180
921.477	15150
921.587	15104
921.697	14967
921.806	15013
921.916	14899
922.025	14720
922.134	14693
922.244	14629
922.353	14743
922.462	14575
922.571	14488
922.68	14404
922.789	14343
922.898	14294
923.007	14305
923.116	14385
923.224	14317
923.333	14271
923.442	14157
923.55	14100
923.659	14126
923.767	14244
923.876	14054
923.984	14115
924.092	14012
924.201	14035
924.309	14020
924.417	14058
924.525	13986
924.633	13875
924.741	14826
924.849	13753
924.956	13928
925.064	13776
925.172	13643
925.279	13643
925.387	13719
925.494	13689
925.602	13753
925.709	13712
925.816	13529
925.924	13567
926.031	13750
926.138	13590
926.245	13700
926.352	13552
926.459	13662
926.566	13727
926.673	13419
926.779	13430
926.886	13430
926.993	13206
927.099	13274
927.206	13225
927.312	13168
927.419	13285
927.525	13266
927.631	13228
927.737	13129
927.843	12947
927.95	12920
928.056	13057
928.162	13031
928.267	13057
928.373	13624
928.479	13053
928.585	12863
928.69	12966
928.796	12981
928.901	12924
929.007	12757
929.112	12856
929.218	12844
929.323	12779
929.428	12795
929.533	12882
929.638	12741
929.743	12711
929.848	12700
929.953	12722
930.058	12555
930.163	12414
930.267	12426
930.372	12536
930.477	12323
930.581	12566
930.685	12479
930.79	12296
930.894	12296
930.998	12277
931.103	12410
931.207	11988
931.311	11958
931.415	11920
931.519	11668
931.623	11623
