Data from test_V78500241_3560.txt Node
Date: Fri Mar 25 16:06:27 CST 2022
User: usil
Spectrometer: V785-0024
Trigger mode: 0
Integration Time (sec): 4.000000E-1
Scans to average: 1
Nonlinearity correction enabled: false
Boxcar width: 0
Storing dark spectrum: false
XAxis mode: Wavelengths
Number of Pixels in Spectrum: 1024
>>>>>Begin Spectral Data<<<<<
801.071	28687
801.214	28778
801.356	28599
801.499	28421
801.641	28386
801.783	28287
801.926	28421
802.068	28303
802.211	28242
802.353	28207
802.496	28109
802.638	28139
802.78	28120
802.923	27926
803.065	27854
803.208	28044
803.35	27979
803.492	28207
803.635	28154
803.777	28086
803.919	28238
804.061	28721
804.204	28276
804.346	28291
804.488	28162
804.63	28242
804.773	28135
804.915	28356
805.057	28443
805.199	28261
805.341	28375
805.483	28421
805.626	28451
805.768	28265
805.91	28493
806.052	28565
806.194	28322
806.336	28497
806.478	28440
806.62	28481
806.762	28675
806.904	28729
807.046	28972
807.188	28938
807.33	29033
807.472	29014
807.614	28854
807.756	28820
807.898	28824
808.04	28691
808.182	28702
808.324	28835
808.465	28809
808.607	28965
808.749	29178
808.891	29269
809.033	29429
809.174	29136
809.316	29189
809.458	29246
809.6	29231
809.741	29337
809.883	29379
810.025	29277
810.166	29520
810.308	29482
810.45	29364
810.591	29341
810.733	29250
810.875	29261
811.016	29242
811.158	29083
811.299	29220
811.441	29372
811.582	29349
811.724	29246
811.865	29109
812.007	29102
812.148	29208
812.29	29299
812.431	29292
812.573	29665
812.714	29547
812.855	29684
812.997	29851
813.138	29878
813.279	29851
813.421	29767
813.562	29710
813.703	29585
813.845	29353
813.986	29113
814.127	28847
814.268	28900
814.41	28957
814.551	28793
814.692	28934
814.833	28930
814.974	28858
815.115	28843
815.256	28843
815.397	28782
815.539	28835
815.68	28675
815.821	28584
815.962	28683
816.103	28702
816.244	28653
816.385	28565
816.526	28470
816.666	28382
816.807	28226
816.948	28181
817.089	28382
817.23	28253
817.371	28230
817.512	28295
817.653	28124
817.793	28086
817.934	28230
818.075	28268
818.216	28135
818.356	28154
818.497	28063
818.638	27922
818.778	27949
818.919	27979
819.06	27983
819.2	28010
819.341	28280
819.481	28166
819.622	28489
819.762	28603
819.903	28470
820.043	28379
820.184	28386
820.324	28329
820.465	28459
820.605	28253
820.746	28223
820.886	28226
821.026	28333
821.167	28363
821.307	28382
821.447	28169
821.588	28261
821.728	28067
821.868	27869
822.008	27591
822.149	27717
822.289	27751
822.429	27427
822.569	27363
822.709	27393
822.849	27173
822.99	27176
823.13	27150
823.27	27142
823.41	26960
823.55	26914
823.69	27058
823.83	27017
823.97	26906
824.11	26868
824.25	26788
824.389	26823
824.529	26857
824.669	26746
824.809	26876
824.949	26838
825.089	26777
825.228	27005
825.368	26727
825.508	26785
825.648	26788
825.787	26686
825.927	26720
826.067	26712
826.206	26758
826.346	26746
826.485	26842
826.625	26826
826.765	26826
826.904	26834
827.044	26461
827.183	26492
827.323	26438
827.462	26457
827.601	26609
827.741	26518
827.88	26480
828.02	26339
828.159	26549
828.298	26511
828.437	26556
828.577	26431
828.716	26560
828.855	26358
828.994	26214
829.134	26050
829.273	26130
829.412	26149
829.551	26130
829.69	26126
829.829	26092
829.968	26298
830.107	26221
830.246	26096
830.385	26027
830.524	26073
830.663	25879
830.802	25833
830.941	25734
831.08	25746
831.219	25780
831.357	25902
831.496	25970
831.635	25715
831.774	25738
831.913	25552
832.051	25750
832.19	25559
832.329	25639
832.467	25422
832.606	25320
832.744	25407
832.883	25381
833.022	25381
833.16	25609
833.299	25396
833.437	25460
833.576	25575
833.714	25464
833.852	25422
833.991	25750
834.129	25696
834.267	25533
834.406	25426
834.544	25586
834.682	25479
834.821	25533
834.959	25635
835.097	25559
835.235	25544
835.373	25430
835.511	25468
835.65	25346
835.788	25411
835.926	25278
836.064	25084
836.202	25168
836.34	25202
836.478	25441
836.615	25350
836.753	25339
836.891	25400
837.029	25331
837.167	25301
837.305	25038
837.443	25259
837.58	25027
837.718	25221
837.856	25110
837.993	24970
838.131	25137
838.269	25084
838.406	24897
838.544	24962
838.681	24768
838.819	24757
838.956	24604
839.094	24601
839.231	24574
839.369	24901
839.506	24951
839.643	24806
839.781	24517
839.918	24589
840.055	24612
840.193	24559
840.33	24505
840.467	24505
840.604	24467
840.742	24856
840.879	24285
841.016	24494
841.153	24391
841.29	24593
841.427	24509
841.564	24521
841.701	24372
841.838	24502
841.975	24361
842.112	24353
842.249	24338
842.385	24174
842.522	24509
842.659	24251
842.796	24311
842.933	24338
843.069	24155
843.206	24270
843.343	24251
843.479	24380
843.616	24228
843.752	24064
843.889	24018
844.025	24213
844.162	24038
844.298	24136
844.435	24106
844.571	23958
844.708	24083
844.844	24205
844.98	24213
845.117	24216
845.253	24136
845.389	23832
845.525	23897
845.661	23889
845.798	23764
845.934	23889
846.07	23897
846.206	23859
846.342	23836
846.478	23855
846.614	23630
846.75	23395
846.886	23535
847.022	23600
847.158	23623
847.294	23524
847.429	23478
847.565	23448
847.701	23798
847.837	23162
847.972	23185
848.108	23250
848.244	23315
848.379	23151
848.515	23086
848.65	22995
848.786	23025
848.921	23086
849.057	23147
849.192	23098
849.328	23044
849.463	23067
849.598	23041
849.734	23010
849.869	22965
850.004	22881
850.14	22881
850.275	22782
850.41	22816
850.545	22790
850.68	22854
850.815	22923
850.95	22839
851.085	22980
851.22	23033
851.355	22793
851.49	22850
851.625	22889
851.76	22790
851.895	22816
852.03	22790
852.165	22850
852.299	23037
852.434	22934
852.569	22866
852.703	22740
852.838	22980
852.973	23064
853.107	23064
853.242	22881
853.376	22691
853.511	22497
853.645	22607
853.78	22801
853.914	22649
854.048	22645
854.183	22584
854.317	22546
854.451	22927
854.585	22755
854.72	22744
854.854	22839
854.988	22622
855.122	22577
855.256	22504
855.39	22561
855.524	22744
855.658	22710
855.792	22771
855.926	22615
856.06	22854
856.194	22618
856.327	22592
856.461	22702
856.595	22634
856.729	22626
856.862	22710
856.996	22744
857.13	22771
857.263	22801
857.397	22744
857.53	22759
857.664	22641
857.797	22664
857.931	22748
858.064	22763
858.197	22805
858.331	22691
858.464	22485
858.597	22500
858.731	22459
858.864	22710
858.997	22660
859.13	22626
859.263	22782
859.396	22740
859.529	22618
859.662	22615
859.795	22645
859.928	22675
860.061	22877
860.194	22831
860.327	22637
860.46	22733
860.592	22801
860.725	22809
860.858	22725
860.99	22641
861.123	22554
861.256	22611
861.388	22622
861.521	23296
861.653	22611
861.786	22641
861.918	22481
862.05	22443
862.183	22489
862.315	22573
862.447	22706
862.58	22622
862.712	22318
862.844	22341
862.976	22451
863.108	22363
863.24	22797
863.372	22341
863.504	22356
863.636	22303
863.768	22443
863.9	22371
864.032	22246
864.164	22367
864.296	22421
864.428	22519
864.559	22287
864.691	22421
864.823	22432
864.954	22455
865.086	22367
865.217	22291
865.349	22082
865.48	22257
865.612	22150
865.743	22303
865.875	22280
866.006	22211
866.137	22276
866.269	22150
866.4	22150
866.531	22196
866.662	22109
866.793	22124
866.924	22238
867.055	22272
867.186	22173
867.317	22143
867.448	22093
867.579	22078
867.71	22135
867.841	22082
867.972	22173
868.103	22158
868.233	22158
868.364	22147
868.495	22310
868.625	22310
868.756	22500
868.886	22341
869.017	22402
869.147	22417
869.278	22577
869.408	22329
869.539	22478
869.669	22615
869.799	22580
869.929	22489
870.06	22470
870.19	22763
870.32	22752
870.45	22752
870.58	22805
870.71	22889
870.84	22816
870.97	22786
871.1	22869
871.23	22946
871.36	23075
871.489	22812
871.619	23033
871.749	22995
871.879	22911
872.008	23128
872.138	22869
872.267	22930
872.397	22877
872.526	22953
872.656	22805
872.785	22866
872.915	23102
873.044	23136
873.173	23071
873.303	23037
873.432	23067
873.561	23048
873.69	23044
873.819	23105
873.948	23090
874.077	23044
874.206	22877
874.335	23022
874.464	23018
874.593	23227
874.722	23425
874.851	23170
874.979	23299
875.108	23364
875.237	23223
875.365	23174
875.494	23143
875.623	23296
875.751	23170
875.88	23284
876.008	23265
876.136	23356
876.265	23577
876.393	23665
876.521	23661
876.65	23802
876.778	23661
876.906	23539
877.034	23661
877.162	23608
877.29	23467
877.418	23722
877.546	23665
877.674	23551
877.802	23486
877.93	23566
878.058	23467
878.185	23505
878.313	23402
878.441	23714
878.568	23509
878.696	23649
878.824	23627
878.951	23680
879.079	23752
879.206	23741
879.333	23691
879.461	23551
879.588	23726
879.715	23699
879.842	23821
879.97	23558
880.097	23368
880.224	23364
880.351	23474
880.478	23334
880.605	23315
880.732	23376
880.859	23611
880.986	23356
881.112	23505
881.239	23288
881.366	23166
881.493	23018
881.619	23003
881.746	23018
881.872	22987
881.999	22953
882.125	22809
882.252	23124
882.378	23071
882.505	23037
882.631	22831
882.757	22725
882.883	22877
883.01	22592
883.136	22672
883.262	22527
883.388	22485
883.514	22615
883.64	22721
883.766	22580
883.892	22314
884.018	22371
884.143	22580
884.269	22546
884.395	22447
884.52	22295
884.646	22280
884.772	22082
884.897	22192
885.023	22257
885.148	22306
885.274	22344
885.399	22265
885.524	22173
885.65	22291
885.775	22265
885.9	22261
886.025	22322
886.15	22356
886.275	22200
886.4	22112
886.525	22207
886.65	22154
886.775	22150
886.9	22363
887.025	22440
887.149	22322
887.274	22032
887.399	21949
887.523	22112
887.648	22010
887.773	21960
887.897	22078
888.021	21918
888.146	21991
888.27	22158
888.395	22013
888.519	21998
888.643	21972
888.767	21972
888.891	21941
889.015	21926
889.139	21827
889.263	21747
889.387	21945
889.511	22070
889.635	21899
889.759	21656
889.883	21781
890.006	21785
890.13	21770
890.254	21766
890.377	21618
890.501	21614
890.624	21519
890.748	21610
890.871	21401
890.995	21302
891.118	21291
891.241	21405
891.364	21412
891.488	21405
891.611	21408
891.734	21283
891.857	21313
891.98	21275
892.103	21329
892.226	21310
892.349	21214
892.471	21150
892.594	21321
892.717	21260
892.839	21146
892.962	21272
893.085	21226
893.207	21306
893.33	21104
893.452	21161
893.575	21192
893.697	21127
893.819	21469
893.941	21374
894.064	21405
894.186	21203
894.308	21207
894.43	21260
894.552	21306
894.674	21237
894.796	21245
894.918	21142
895.04	21123
895.161	21310
895.283	21237
895.405	21127
895.526	21252
895.648	21089
895.769	21184
895.891	21233
896.012	21283
896.134	21222
896.255	21211
896.376	21211
896.498	21252
896.619	21291
896.74	21199
896.861	21184
896.982	21431
897.103	21614
897.224	21428
897.345	21473
897.466	21332
897.587	21393
897.708	21500
897.828	21382
897.949	21431
898.07	21302
898.19	21317
898.311	21401
898.431	21382
898.552	21523
898.672	21431
898.792	21542
898.913	21485
899.033	21287
899.153	21142
899.273	21074
899.393	21146
899.513	21119
899.633	21135
899.753	21233
899.873	21131
899.993	21150
900.113	21032
900.232	21192
900.352	21039
900.472	21005
900.591	20880
900.711	20849
900.83	20838
900.95	20986
901.069	20948
901.189	20731
901.308	20571
901.427	20473
901.546	20549
901.665	20473
901.784	20476
901.904	20415
902.023	20168
902.141	20065
902.26	20035
902.379	20062
902.498	19986
902.617	19936
902.735	19986
902.854	19928
902.973	19879
903.091	19578
903.21	19734
903.328	19704
903.446	19533
903.565	19487
903.683	19411
903.801	19381
903.919	19358
904.038	19396
904.156	19255
904.274	19339
904.392	19285
904.51	19118
904.627	19198
904.745	19301
904.863	19297
904.981	19008
905.098	18867
905.216	18890
905.334	18916
905.451	18905
905.569	18856
905.686	18894
905.803	18901
905.921	18856
906.038	18760
906.155	18734
906.272	18585
906.389	18494
906.506	18479
906.623	18395
906.74	18369
906.857	18197
906.974	18380
907.091	18475
907.208	18490
907.324	18433
907.441	18243
907.557	18121
907.674	18117
907.79	18148
907.907	18136
908.023	18148
908.139	18114
908.256	18140
908.372	18026
908.488	17969
908.604	17866
908.72	17783
908.836	17946
908.952	17726
909.068	17885
909.184	17920
909.3	17699
909.415	17851
909.531	17794
909.647	17596
909.762	17543
909.878	17524
909.993	17535
910.108	17410
910.224	17551
910.339	17497
910.454	17448
910.57	17379
910.685	17231
910.8	17493
910.915	17360
911.03	17277
911.145	17151
911.259	17037
911.374	17102
911.489	16949
911.604	16930
911.718	16881
911.833	16782
911.947	16763
912.062	16702
912.176	16797
912.291	16930
912.405	16767
912.519	16961
912.633	17033
912.748	16839
912.862	16915
912.976	16733
913.09	16527
913.204	16599
913.318	16580
913.431	16778
913.545	16774
913.659	16759
913.772	16519
913.886	16386
914	16493
914.113	16542
914.226	16588
914.34	16466
914.453	16303
914.566	16382
914.68	16284
914.793	16230
914.906	16090
915.019	15998
915.132	15975
915.245	15941
915.358	16048
915.47	16086
915.583	16044
915.696	15991
915.809	16223
915.921	16215
916.034	15926
916.146	15960
916.259	15922
916.371	15998
916.483	15892
916.595	15850
916.708	15793
916.82	15895
916.932	15732
917.044	15842
917.156	15701
917.268	15648
917.38	15686
917.491	15591
917.603	15572
917.715	15686
917.826	15682
917.938	15534
918.049	15545
918.161	15511
918.272	15641
918.384	15618
918.495	15454
918.606	15424
918.717	15317
918.828	15382
918.939	15393
919.05	15241
919.161	15408
919.272	15245
919.383	15169
919.494	15355
919.604	15542
919.715	15329
919.826	15275
919.936	15264
920.047	15367
920.157	15260
920.267	15561
920.378	15329
920.488	15291
920.598	15439
920.708	15584
920.818	15473
920.928	15428
921.038	15564
921.148	15500
921.258	15348
921.368	15165
921.477	15112
921.587	15070
921.697	14952
921.806	15058
921.916	14895
922.025	14648
922.134	14686
922.244	14621
922.353	14686
922.462	14530
922.571	14480
922.68	14355
922.789	14256
922.898	14339
923.007	14320
923.116	14317
923.224	14301
923.333	14214
923.442	14081
923.55	14031
923.659	14073
923.767	14221
923.876	14065
923.984	14077
924.092	14008
924.201	13989
924.309	14039
924.417	14058
924.525	13951
924.633	13940
924.741	14868
924.849	13750
924.956	13830
925.064	13780
925.172	13639
925.279	13674
925.387	13818
925.494	13632
925.602	13719
925.709	13734
925.816	13559
925.924	13689
926.031	13677
926.138	13575
926.245	13609
926.352	13567
926.459	13632
926.566	13605
926.673	13445
926.779	13346
926.886	13457
926.993	13346
927.099	13209
927.206	13187
927.312	13114
927.419	13221
927.525	13194
927.631	13198
927.737	13122
927.843	13061
927.95	12935
928.056	13072
928.162	13027
928.267	13088
928.373	13563
928.479	13118
928.585	12798
928.69	12989
928.796	12920
928.901	12821
929.007	12700
929.112	12810
929.218	12806
929.323	12772
929.428	12711
929.533	12814
929.638	12639
929.743	12669
929.848	12700
929.953	12620
930.058	12566
930.163	12380
930.267	12403
930.372	12601
930.477	12448
930.581	12547
930.685	12452
930.79	12270
930.894	12300
930.998	12254
931.103	12422
931.207	12076
931.311	11931
931.415	11813
931.519	11661
931.623	11592
