Data from test_V78500241_2509.txt Node
Date: Fri Mar 25 15:59:10 CST 2022
User: usil
Spectrometer: V785-0024
Trigger mode: 0
Integration Time (sec): 4.000000E-1
Scans to average: 1
Nonlinearity correction enabled: false
Boxcar width: 0
Storing dark spectrum: false
XAxis mode: Wavelengths
Number of Pixels in Spectrum: 1024
>>>>>Begin Spectral Data<<<<<
801.071	28538
801.214	28417
801.356	28265
801.499	28284
801.641	28055
801.783	28204
801.926	28219
802.068	28070
802.211	27987
802.353	28036
802.496	27914
802.638	27960
802.78	27808
802.923	27755
803.065	27599
803.208	27629
803.35	27861
803.492	27964
803.635	27975
803.777	27816
803.919	27911
804.061	28276
804.204	28120
804.346	28059
804.488	27930
804.63	28036
804.773	27869
804.915	28093
805.057	28116
805.199	28044
805.341	27994
805.483	28166
805.626	28200
805.768	28128
805.91	28200
806.052	28177
806.194	28006
806.336	28276
806.478	28139
806.62	28200
806.762	28253
806.904	28481
807.046	28641
807.188	28615
807.33	28615
807.472	28668
807.614	28550
807.756	28672
807.898	28379
808.04	28382
808.182	28398
808.324	28557
808.465	28485
808.607	28668
808.749	28843
808.891	29029
809.033	28877
809.174	28869
809.316	28786
809.458	28987
809.6	28854
809.741	28972
809.883	29003
810.025	29003
810.166	29029
810.308	29208
810.45	29204
810.591	29094
810.733	28915
810.875	28839
811.016	28809
811.158	28816
811.299	28862
811.441	29159
811.582	28896
811.724	28793
811.865	28759
812.007	28828
812.148	28831
812.29	28980
812.431	28953
812.573	29090
812.714	29296
812.855	29459
812.997	29474
813.138	29630
813.279	29592
813.421	29467
813.562	29337
813.703	29235
813.845	29029
813.986	28843
814.127	28653
814.268	28634
814.41	28607
814.551	28565
814.692	28504
814.833	28398
814.974	28653
815.115	28497
815.256	28344
815.397	28318
815.539	28538
815.68	28367
815.821	28257
815.962	28451
816.103	28409
816.244	28128
816.385	28124
816.526	28223
816.666	27831
816.807	27857
816.948	28010
817.089	27914
817.23	27945
817.371	27759
817.512	27778
817.653	27816
817.793	27819
817.934	27918
818.075	27850
818.216	27869
818.356	27778
818.497	27732
818.638	27557
818.778	27709
818.919	27633
819.06	27667
819.2	27751
819.341	27895
819.481	27876
819.622	28048
819.762	28128
819.903	28074
820.043	28074
820.184	28017
820.324	28025
820.465	28154
820.605	28131
820.746	27960
820.886	27895
821.026	27941
821.167	27998
821.307	28032
821.447	27850
821.588	27762
821.728	27511
821.868	27603
822.008	27310
822.149	27310
822.289	27321
822.429	27074
822.569	26937
822.709	26944
822.849	26948
822.99	26918
823.13	26830
823.27	26876
823.41	26708
823.55	26423
823.69	26731
823.83	26682
823.97	26712
824.11	26404
824.25	26457
824.389	26503
824.529	26522
824.669	26423
824.809	26651
824.949	26594
825.089	26564
825.228	26575
825.368	26221
825.508	26298
825.648	26465
825.787	26366
825.927	26530
826.067	26233
826.206	26256
826.346	26469
826.485	26499
826.625	26370
826.765	26412
826.904	26431
827.044	26103
827.183	26161
827.323	25970
827.462	26130
827.601	25974
827.741	25986
827.88	26138
828.02	26065
828.159	26069
828.298	26012
828.437	26111
828.577	25986
828.716	26183
828.855	25993
828.994	25750
829.134	25879
829.273	25757
829.412	25715
829.551	25814
829.69	25799
829.829	25841
829.968	25883
830.107	25864
830.246	25746
830.385	25666
830.524	25719
830.663	25559
830.802	25556
830.941	25369
831.08	25289
831.219	25521
831.357	25563
831.496	25575
831.635	25384
831.774	25266
831.913	25369
832.051	25232
832.19	25183
832.329	25114
832.467	25160
832.606	25015
832.744	24932
832.883	25015
833.022	25031
833.16	25080
833.299	25050
833.437	25000
833.576	25072
833.714	25129
833.852	25126
833.991	25175
834.129	25221
834.267	25164
834.406	25103
834.544	25209
834.682	25187
834.821	25217
834.959	25301
835.097	25091
835.235	25015
835.373	25156
835.511	25099
835.65	24966
835.788	24996
835.926	24856
836.064	24768
836.202	24840
836.34	24806
836.478	24977
836.615	24932
836.753	24920
836.891	25019
837.029	24981
837.167	24814
837.305	24996
837.443	24779
837.58	24795
837.718	24867
837.856	24776
837.993	24745
838.131	24642
838.269	24734
838.406	24612
838.544	24601
838.681	24464
838.819	24319
838.956	24216
839.094	24270
839.231	24235
839.369	24437
839.506	24582
839.643	24460
839.781	24254
839.918	24136
840.055	24266
840.193	24159
840.33	24247
840.467	24144
840.604	24159
840.742	24361
840.879	24049
841.016	24102
841.153	24072
841.29	24243
841.427	24159
841.564	24106
841.701	24247
841.838	24057
841.975	24038
842.112	24030
842.249	23965
842.385	23984
842.522	24152
842.659	23946
842.796	23904
842.933	23863
843.069	23805
843.206	23843
843.343	23939
843.479	23988
843.616	23863
843.752	23615
843.889	23661
844.025	23775
844.162	23809
844.298	23745
844.435	23699
844.571	23611
844.708	23824
844.844	23817
844.98	23836
845.117	23775
845.253	23539
845.389	23554
845.525	23551
845.661	23592
845.798	23379
845.934	23486
846.07	23452
846.206	23376
846.342	23547
846.478	23353
846.614	23113
846.75	23006
846.886	23235
847.022	23216
847.158	23079
847.294	23189
847.429	23174
847.565	23025
847.701	23379
847.837	22900
847.972	22839
848.108	22892
848.244	23010
848.379	22763
848.515	22596
848.65	22729
848.786	22717
848.921	22698
849.057	22953
849.192	22828
849.328	22691
849.463	22706
849.598	22618
849.734	22721
849.869	22763
850.004	22523
850.14	22512
850.275	22577
850.41	22295
850.545	22424
850.68	22402
850.815	22481
850.95	22451
851.085	22653
851.22	22554
851.355	22527
851.49	22478
851.625	22413
851.76	22451
851.895	22443
852.03	22295
852.165	22493
852.299	22485
852.434	22538
852.569	22599
852.703	22382
852.838	22580
852.973	22660
853.107	22630
853.242	22542
853.376	22230
853.511	22207
853.645	22219
853.78	22413
853.914	22390
854.048	22268
854.183	22253
854.317	22314
854.451	22462
854.585	22242
854.72	22291
854.854	22344
854.988	22306
855.122	22299
855.256	22219
855.39	22226
855.524	22402
855.658	22409
855.792	22402
855.926	22284
856.06	22421
856.194	22367
856.327	22303
856.461	22280
856.595	22261
856.729	22196
856.862	22535
856.996	22287
857.13	22325
857.263	22424
857.397	22306
857.53	22375
857.664	22253
857.797	22519
857.931	22504
858.064	22352
858.197	22261
858.331	22356
858.464	22280
858.597	22128
858.731	22211
858.864	22268
858.997	22249
859.13	22325
859.263	22382
859.396	22417
859.529	22226
859.662	22295
859.795	22329
859.928	22303
860.061	22386
860.194	22481
860.327	22409
860.46	22230
860.592	22341
860.725	22405
860.858	22527
860.99	22337
861.123	22185
861.256	22268
861.388	22268
861.521	22900
861.653	22166
861.786	22070
861.918	22207
862.05	22185
862.183	22055
862.315	22211
862.447	22272
862.58	22188
862.712	21930
862.844	21915
862.976	22200
863.108	21945
863.24	22443
863.372	21987
863.504	21953
863.636	21979
863.768	22070
863.9	21937
864.032	22139
864.164	21869
864.296	22067
864.428	22116
864.559	21960
864.691	22139
864.823	21960
864.954	22044
865.086	21911
865.217	21892
865.349	21823
865.48	22006
865.612	21854
865.743	22013
865.875	21972
866.006	21831
866.137	21819
866.269	21983
866.4	21956
866.531	21857
866.662	21728
866.793	21724
866.924	21892
867.055	21903
867.186	21819
867.317	21709
867.448	21793
867.579	21698
867.71	21781
867.841	21759
867.972	21892
868.103	21808
868.233	21903
868.364	21823
868.495	22013
868.625	22036
868.756	21991
868.886	21998
869.017	22017
869.147	22150
869.278	22211
869.408	22166
869.539	22116
869.669	22090
869.799	22128
869.929	22090
870.06	22238
870.19	22497
870.32	22272
870.45	22447
870.58	22344
870.71	22557
870.84	22447
870.97	22440
871.1	22402
871.23	22656
871.36	22569
871.489	22489
871.619	22421
871.749	22740
871.879	22592
872.008	22850
872.138	22668
872.267	22683
872.397	22493
872.526	22440
872.656	22500
872.785	22417
872.915	22691
873.044	22774
873.173	22675
873.303	22790
873.432	22809
873.561	22866
873.69	22702
873.819	22702
873.948	22755
874.077	22656
874.206	22588
874.335	22637
874.464	22797
874.593	22835
874.722	22889
874.851	22991
874.979	22801
875.108	22927
875.237	22904
875.365	22831
875.494	22938
875.623	22965
875.751	22881
875.88	22953
876.008	23121
876.136	23162
876.265	23277
876.393	23235
876.521	23288
876.65	23391
876.778	23296
876.906	23326
877.034	23098
877.162	23292
877.29	23220
877.418	23303
877.546	23242
877.674	23235
877.802	23193
877.93	23227
878.058	23162
878.185	23162
878.313	23109
878.441	23216
878.568	23094
878.696	23094
878.824	23254
878.951	23296
879.079	23452
879.206	23543
879.333	23341
879.461	23261
879.588	23421
879.715	23440
879.842	23535
879.97	23200
880.097	23025
880.224	22835
880.351	23044
880.478	23124
880.605	23003
880.732	22961
880.859	23208
880.986	23136
881.112	23098
881.239	22885
881.366	22763
881.493	22778
881.619	22485
881.746	22656
881.872	22656
881.999	22611
882.125	22478
882.252	22626
882.378	22569
882.505	22721
882.631	22504
882.757	22394
882.883	22382
883.01	22333
883.136	22067
883.262	22086
883.388	22143
883.514	22268
883.64	22363
883.766	22181
883.892	22082
884.018	22029
884.143	22150
884.269	22329
884.395	22029
884.52	21949
884.646	21926
884.772	21850
884.897	21747
885.023	21960
885.148	22040
885.274	22082
885.399	22029
885.524	21907
885.65	21956
885.775	21785
885.9	21926
886.025	22097
886.15	21941
886.275	21880
886.4	21835
886.525	21937
886.65	21956
886.775	21926
886.9	22070
887.025	22074
887.149	21766
887.274	21720
887.399	21747
887.523	21747
887.648	21614
887.773	21622
887.897	21850
888.021	21690
888.146	21515
888.27	21766
888.395	21808
888.519	21812
888.643	21660
888.767	21918
888.891	21610
889.015	21549
889.139	21511
889.263	21530
889.387	21583
889.511	21583
889.635	21599
889.759	21466
889.883	21340
890.006	21454
890.13	21610
890.254	21458
890.377	21447
890.501	21264
890.624	21230
890.748	21287
890.871	21070
890.995	21173
891.118	20883
891.241	21036
891.364	21066
891.488	21268
891.611	21096
891.734	21074
891.857	21093
891.98	21077
892.103	21127
892.226	21055
892.349	20971
892.471	20861
892.594	20925
892.717	21119
892.839	20861
892.962	20971
893.085	20864
893.207	21005
893.33	20804
893.452	20838
893.575	20986
893.697	20918
893.819	21070
893.941	21032
894.064	21058
894.186	20929
894.308	20823
894.43	20952
894.552	21085
894.674	20918
894.796	20902
894.918	20868
895.04	20838
895.161	21001
895.283	21070
895.405	20853
895.526	20948
895.648	20781
895.769	20826
895.891	20986
896.012	21051
896.134	20994
896.255	20998
896.376	20804
896.498	20948
896.619	20914
896.74	20864
896.861	20872
896.982	21138
897.103	21344
897.224	21188
897.345	21108
897.466	21005
897.587	21017
897.708	21298
897.828	21077
897.949	20990
898.07	20963
898.19	21116
898.311	21150
898.431	20994
898.552	21108
898.672	21184
898.792	21157
898.913	21020
899.033	20990
899.153	21032
899.273	20796
899.393	20929
899.513	20853
899.633	20872
899.753	20849
899.873	20731
899.993	20788
900.113	20861
900.232	20785
900.352	20686
900.472	20663
900.591	20602
900.711	20636
900.83	20583
900.95	20678
901.069	20739
901.189	20526
901.308	20229
901.427	20195
901.546	20259
901.665	20290
901.784	20267
901.904	20138
902.023	19955
902.141	19818
902.26	19772
902.379	19795
902.498	19689
902.617	19632
902.735	19655
902.854	19662
902.973	19590
903.091	19396
903.21	19304
903.328	19377
903.446	19187
903.565	19198
903.683	19228
903.801	19019
903.919	19031
904.038	18981
904.156	18852
904.274	18947
904.392	18817
904.51	18825
904.627	18844
904.745	18977
904.863	19008
904.981	18684
905.098	18521
905.216	18604
905.334	18601
905.451	18483
905.569	18513
905.686	18749
905.803	18513
905.921	18456
906.038	18429
906.155	18391
906.272	18220
906.389	18353
906.506	18190
906.623	18114
906.74	18125
906.857	18019
906.974	18011
907.091	18155
907.208	18262
907.324	18159
907.441	18011
907.557	17855
907.674	17832
907.79	17805
907.907	17707
908.023	17855
908.139	17790
908.256	17722
908.372	17745
908.488	17737
908.604	17630
908.72	17474
908.836	17535
908.952	17532
909.068	17543
909.184	17649
909.3	17482
909.415	17532
909.531	17558
909.647	17322
909.762	17280
909.878	17337
909.993	17235
910.108	17239
910.224	17128
910.339	17159
910.454	17037
910.57	17018
910.685	16980
910.8	17204
910.915	17136
911.03	17025
911.145	16805
911.259	16839
911.374	16831
911.489	16698
911.604	16736
911.718	16493
911.833	16451
911.947	16394
912.062	16409
912.176	16588
912.291	16519
912.405	16542
912.519	16752
912.633	16713
912.748	16592
912.862	16516
912.976	16398
913.09	16234
913.204	16272
913.318	16375
913.431	16459
913.545	16382
913.659	16508
913.772	16344
913.886	16147
914	16185
914.113	16143
914.226	16257
914.34	16192
914.453	16112
914.566	16192
914.68	16063
914.793	16044
914.906	15789
915.019	15770
915.132	15686
915.245	15717
915.358	15713
915.47	15762
915.583	15701
915.696	15755
915.809	15911
915.921	15846
916.034	15584
916.146	15606
916.259	15671
916.371	15686
916.483	15644
916.595	15572
916.708	15553
916.82	15515
916.932	15511
917.044	15511
917.156	15405
917.268	15469
917.38	15401
917.491	15317
917.603	15321
917.715	15408
917.826	15401
917.938	15325
918.049	15264
918.161	15294
918.272	15515
918.384	15458
918.495	15317
918.606	15161
918.717	14994
918.828	15127
918.939	15169
919.05	15039
919.161	15108
919.272	14952
919.383	14941
919.494	15176
919.604	15279
919.715	15077
919.826	14941
919.936	15066
920.047	15142
920.157	14960
920.267	15214
920.378	15085
920.488	15036
920.598	15226
920.708	15336
920.818	15199
920.928	15188
921.038	15325
921.148	15268
921.258	15020
921.368	14925
921.477	14834
921.587	14727
921.697	14750
921.806	14872
921.916	14727
922.025	14545
922.134	14461
922.244	14389
922.353	14336
922.462	14366
922.571	14233
922.68	14107
922.789	14088
922.898	14100
923.007	14016
923.116	14142
923.224	14073
923.333	14031
923.442	13974
923.55	13909
923.659	13955
923.767	13902
923.876	13822
923.984	13871
924.092	13704
924.201	13822
924.309	13837
924.417	13803
924.525	13788
924.633	13757
924.741	14473
924.849	13514
924.956	13693
925.064	13506
925.172	13396
925.279	13449
925.387	13403
925.494	13430
925.602	13544
925.709	13434
925.816	13369
925.924	13381
926.031	13441
926.138	13388
926.245	13430
926.352	13320
926.459	13441
926.566	13460
926.673	13320
926.779	13240
926.886	13270
926.993	13061
927.099	13015
927.206	12916
927.312	12932
927.419	13004
927.525	12913
927.631	12954
927.737	12856
927.843	12783
927.95	12707
928.056	12696
928.162	12837
928.267	12848
928.373	13506
928.479	12890
928.585	12677
928.69	12719
928.796	12810
928.901	12711
929.007	12521
929.112	12677
929.218	12623
929.323	12650
929.428	12525
929.533	12662
929.638	12532
929.743	12422
929.848	12479
929.953	12502
930.058	12350
930.163	12171
930.267	12232
930.372	12353
930.477	12163
930.581	12323
930.685	12205
930.79	12034
930.894	12125
930.998	12072
931.103	12205
931.207	11794
931.311	11805
931.415	11646
931.519	11444
931.623	11417
