Data from test_V78500241_2521.txt Node
Date: Fri Mar 25 15:59:15 CST 2022
User: usil
Spectrometer: V785-0024
Trigger mode: 0
Integration Time (sec): 4.000000E-1
Scans to average: 1
Nonlinearity correction enabled: false
Boxcar width: 0
Storing dark spectrum: false
XAxis mode: Wavelengths
Number of Pixels in Spectrum: 1024
>>>>>Begin Spectral Data<<<<<
801.071	28771
801.214	28786
801.356	28675
801.499	28535
801.641	28413
801.783	28390
801.926	28405
802.068	28382
802.211	28246
802.353	28223
802.496	28093
802.638	28070
802.78	28070
802.923	27987
803.065	27926
803.208	28074
803.35	28044
803.492	28200
803.635	28253
803.777	28147
803.919	28226
804.061	28679
804.204	28398
804.346	28154
804.488	28253
804.63	28230
804.773	28280
804.915	28341
805.057	28470
805.199	28257
805.341	28379
805.483	28542
805.626	28352
805.768	28257
805.91	28466
806.052	28538
806.194	28405
806.336	28664
806.478	28451
806.62	28394
806.762	28504
806.904	28767
807.046	29064
807.188	28957
807.33	29003
807.472	29041
807.614	28896
807.756	28923
807.898	28767
808.04	28649
808.182	28668
808.324	28721
808.465	28896
808.607	28885
808.749	29200
808.891	29307
809.033	29265
809.174	29235
809.316	29223
809.458	29113
809.6	29014
809.741	29269
809.883	29261
810.025	29577
810.166	29459
810.308	29520
810.45	29440
810.591	29375
810.733	29239
810.875	29155
811.016	29067
811.158	28885
811.299	29254
811.441	29307
811.582	29356
811.724	29235
811.865	29033
812.007	29193
812.148	29208
812.29	29220
812.431	29303
812.573	29417
812.714	29509
812.855	29627
812.997	29790
813.138	29866
813.279	29866
813.421	29764
813.562	29608
813.703	29577
813.845	29455
813.986	29223
814.127	28904
814.268	28930
814.41	28816
814.551	28786
814.692	28919
814.833	28877
814.974	28995
815.115	28995
815.256	28763
815.397	28793
815.539	28771
815.68	28725
815.821	28816
815.962	28717
816.103	28683
816.244	28626
816.385	28516
816.526	28481
816.666	28280
816.807	28078
816.948	28238
817.089	28211
817.23	28139
817.371	28207
817.512	28135
817.653	28154
817.793	28067
817.934	28295
818.075	28303
818.216	28192
818.356	28188
818.497	28013
818.638	27956
818.778	27911
818.919	27930
819.06	28010
819.2	28010
819.341	28196
819.481	28223
819.622	28371
819.762	28542
819.903	28390
820.043	28455
820.184	28287
820.324	28401
820.465	28318
820.605	28451
820.746	28192
820.886	28101
821.026	28348
821.167	28341
821.307	28455
821.447	28192
821.588	28204
821.728	28070
821.868	27846
822.008	27701
822.149	27663
822.289	27701
822.429	27317
822.569	27374
822.709	27454
822.849	27291
822.99	27161
823.13	27218
823.27	27055
823.41	27104
823.55	26906
823.69	27009
823.83	26948
823.97	26956
824.11	26842
824.25	26933
824.389	26864
824.529	26887
824.669	26800
824.809	26891
824.949	26933
825.089	26880
825.228	26872
825.368	26708
825.508	26686
825.648	26743
825.787	26788
825.927	26769
826.067	26617
826.206	26777
826.346	26678
826.485	26716
826.625	26720
826.765	26788
826.904	26693
827.044	26511
827.183	26514
827.323	26313
827.462	26545
827.601	26453
827.741	26374
827.88	26533
828.02	26317
828.159	26320
828.298	26412
828.437	26575
828.577	26332
828.716	26473
828.855	26278
828.994	26202
829.134	26100
829.273	26172
829.412	26020
829.551	25982
829.69	26077
829.829	26290
829.968	26244
830.107	26248
830.246	26126
830.385	25989
830.524	26073
830.663	25951
830.802	25894
830.941	25670
831.08	25757
831.219	25769
831.357	25826
831.496	25963
831.635	25772
831.774	25571
831.913	25510
832.051	25502
832.19	25563
832.329	25457
832.467	25392
832.606	25308
832.744	25392
832.883	25339
833.022	25369
833.16	25487
833.299	25343
833.437	25483
833.576	25430
833.714	25597
833.852	25468
833.991	25548
834.129	25624
834.267	25487
834.406	25529
834.544	25419
834.682	25476
834.821	25434
834.959	25575
835.097	25476
835.235	25388
835.373	25468
835.511	25487
835.65	25289
835.788	25320
835.926	25213
836.064	25194
836.202	25148
836.34	25293
836.478	25407
836.615	25358
836.753	25240
836.891	25297
837.029	25350
837.167	25266
837.305	25171
837.443	25179
837.58	24966
837.718	25042
837.856	25202
837.993	24924
838.131	25110
838.269	25099
838.406	24943
838.544	24977
838.681	24738
838.819	24570
838.956	24661
839.094	24578
839.231	24532
839.369	24875
839.506	25015
839.643	24821
839.781	24521
839.918	24460
840.055	24551
840.193	24608
840.33	24441
840.467	24509
840.604	24471
840.742	24738
840.879	24273
841.016	24452
841.153	24323
841.29	24464
841.427	24346
841.564	24551
841.701	24521
841.838	24372
841.975	24376
842.112	24540
842.249	24239
842.385	24102
842.522	24486
842.659	24243
842.796	24133
842.933	24289
843.069	24152
843.206	24262
843.343	24327
843.479	24289
843.616	24197
843.752	23988
843.889	24144
844.025	24117
844.162	23866
844.298	24171
844.435	23977
844.571	23988
844.708	24034
844.844	24194
844.98	24213
845.117	24152
845.253	23958
845.389	23904
845.525	23950
845.661	23912
845.798	23676
845.934	23847
846.07	23680
846.206	23843
846.342	23809
846.478	23684
846.614	23524
846.75	23406
846.886	23406
847.022	23444
847.158	23436
847.294	23452
847.429	23471
847.565	23570
847.701	23687
847.837	23185
847.972	23079
848.108	23288
848.244	23242
848.379	23029
848.515	22877
848.65	22980
848.786	23079
848.921	23018
849.057	23124
849.192	23132
849.328	22965
849.463	23147
849.598	23071
849.734	22987
849.869	22866
850.004	22805
850.14	22866
850.275	22850
850.41	22645
850.545	22733
850.68	22752
850.815	22972
850.95	22733
851.085	22930
851.22	22976
851.355	22755
851.49	22801
851.625	22782
851.76	22763
851.895	22744
852.03	22664
852.165	22877
852.299	22858
852.434	22949
852.569	22930
852.703	22767
852.838	22892
852.973	22869
853.107	22774
853.242	22725
853.376	22748
853.511	22455
853.645	22679
853.78	22763
853.914	22554
854.048	22497
854.183	22481
854.317	22569
854.451	22687
854.585	22615
854.72	22698
854.854	22752
854.988	22622
855.122	22557
855.256	22455
855.39	22622
855.524	22710
855.658	22668
855.792	22672
855.926	22653
856.06	22656
856.194	22778
856.327	22641
856.461	22649
856.595	22664
856.729	22702
856.862	22691
856.996	22637
857.13	22637
857.263	22771
857.397	22694
857.53	22622
857.664	22535
857.797	22767
857.931	22771
858.064	22615
858.197	22850
858.331	22417
858.464	22550
858.597	22455
858.731	22504
858.864	22554
858.997	22527
859.13	22527
859.263	22580
859.396	22672
859.529	22512
859.662	22474
859.795	22470
859.928	22618
860.061	22873
860.194	22820
860.327	22668
860.46	22630
860.592	22873
860.725	22809
860.858	22725
860.99	22683
861.123	22436
861.256	22447
861.388	22668
861.521	23318
861.653	22451
861.786	22299
861.918	22390
862.05	22462
862.183	22535
862.315	22500
862.447	22436
862.58	22504
862.712	22299
862.844	22318
862.976	22367
863.108	22348
863.24	22740
863.372	22306
863.504	22238
863.636	22333
863.768	22367
863.9	22500
864.032	22272
864.164	22405
864.296	22329
864.428	22386
864.559	22367
864.691	22337
864.823	22303
864.954	22360
865.086	22139
865.217	22310
865.349	22150
865.48	22200
865.612	22173
865.743	22280
865.875	22181
866.006	22082
866.137	22112
866.269	22219
866.4	22196
866.531	22150
866.662	22090
866.793	22109
866.924	22070
867.055	22223
867.186	22109
867.317	22135
867.448	22112
867.579	22017
867.71	22070
867.841	22101
867.972	22105
868.103	22063
868.233	22086
868.364	22067
868.495	22333
868.625	22402
868.756	22409
868.886	22344
869.017	22409
869.147	22470
869.278	22382
869.408	22413
869.539	22348
869.669	22497
869.799	22443
869.929	22618
870.06	22405
870.19	22752
870.32	22626
870.45	22664
870.58	22725
870.71	22729
870.84	22957
870.97	22717
871.1	22767
871.23	22900
871.36	22968
871.489	22900
871.619	22984
871.749	22991
871.879	22953
872.008	23029
872.138	22919
872.267	22942
872.397	22725
872.526	22774
872.656	22915
872.785	22782
872.915	22972
873.044	23014
873.173	23006
873.303	23022
873.432	22923
873.561	23162
873.69	23071
873.819	22965
873.948	23022
874.077	23018
874.206	22995
874.335	23067
874.464	23174
874.593	23193
874.722	23170
874.851	23185
874.979	23284
875.108	23200
875.237	23143
875.365	23090
875.494	23178
875.623	23239
875.751	23140
875.88	23181
876.008	23235
876.136	23387
876.265	23524
876.393	23710
876.521	23642
876.65	23649
876.778	23585
876.906	23509
877.034	23676
877.162	23642
877.29	23528
877.418	23611
877.546	23619
877.674	23581
877.802	23459
877.93	23433
878.058	23520
878.185	23387
878.313	23520
878.441	23619
878.568	23364
878.696	23452
878.824	23611
878.951	23657
879.079	23646
879.206	23775
879.333	23573
879.461	23604
879.588	23638
879.715	23710
879.842	23855
879.97	23490
880.097	23444
880.224	23288
880.351	23261
880.478	23387
880.605	23368
880.732	23242
880.859	23570
880.986	23341
881.112	23364
881.239	23159
881.366	23056
881.493	22995
881.619	22889
881.746	22923
881.872	22915
881.999	22843
882.125	22847
882.252	22999
882.378	22999
882.505	22858
882.631	22782
882.757	22668
882.883	22668
883.01	22618
883.136	22485
883.262	22516
883.388	22466
883.514	22554
883.64	22599
883.766	22390
883.892	22382
884.018	22360
884.143	22535
884.269	22466
884.395	22261
884.52	22181
884.646	22257
884.772	22139
884.897	22082
885.023	22360
885.148	22287
885.274	22325
885.399	22200
885.524	22219
885.65	22150
885.775	22268
885.9	22192
886.025	22120
886.15	22379
886.275	22128
886.4	22150
886.525	22211
886.65	22207
886.775	22078
886.9	22329
887.025	22310
887.149	22192
887.274	21934
887.399	21945
887.523	21945
887.648	21797
887.773	21846
887.897	22067
888.021	21892
888.146	21884
888.27	21930
888.395	22143
888.519	21945
888.643	21991
888.767	22128
888.891	21892
889.015	21774
889.139	21759
889.263	21797
889.387	21922
889.511	21949
889.635	22036
889.759	21705
889.883	21705
890.006	21800
890.13	21869
890.254	21667
890.377	21656
890.501	21389
890.624	21397
890.748	21557
890.871	21386
890.995	21321
891.118	21370
891.241	21370
891.364	21256
891.488	21466
891.611	21443
891.734	21279
891.857	21515
891.98	21355
892.103	21264
892.226	21287
892.349	21127
892.471	21104
892.594	21272
892.717	21230
892.839	21226
892.962	21325
893.085	21226
893.207	21203
893.33	21081
893.452	21180
893.575	21233
893.697	21142
893.819	21359
893.941	21374
894.064	21454
894.186	21252
894.308	21077
894.43	21321
894.552	21233
894.674	21192
894.796	21108
894.918	21184
895.04	21203
895.161	21268
895.283	21180
895.405	21283
895.526	21275
895.648	21203
895.769	21146
895.891	21176
896.012	21367
896.134	21233
896.255	21138
896.376	21203
896.498	21150
896.619	21207
896.74	21154
896.861	21203
896.982	21568
897.103	21576
897.224	21439
897.345	21378
897.466	21306
897.587	21488
897.708	21382
897.828	21485
897.949	21313
898.07	21135
898.19	21233
898.311	21408
898.431	21317
898.552	21329
898.672	21477
898.792	21477
898.913	21287
899.033	21348
899.153	21252
899.273	21100
899.393	21249
899.513	21157
899.633	21135
899.753	21264
899.873	21017
899.993	20944
900.113	21089
900.232	21058
900.352	21001
900.472	20960
900.591	20868
900.711	20842
900.83	20887
900.95	21005
901.069	20853
901.189	20720
901.308	20564
901.427	20377
901.546	20442
901.665	20454
901.784	20396
901.904	20298
902.023	20176
902.141	20092
902.26	20020
902.379	20096
902.498	20081
902.617	19978
902.735	19879
902.854	19986
902.973	19879
903.091	19533
903.21	19685
903.328	19491
903.446	19552
903.565	19358
903.683	19396
903.801	19259
903.919	19285
904.038	19377
904.156	19228
904.274	19247
904.392	19129
904.51	19103
904.627	19122
904.745	19232
904.863	19202
904.981	18966
905.098	18951
905.216	18753
905.334	18749
905.451	18791
905.569	18837
905.686	18920
905.803	18810
905.921	18506
906.038	18700
906.155	18604
906.272	18650
906.389	18494
906.506	18338
906.623	18403
906.74	18494
906.857	18247
906.974	18247
907.091	18380
907.208	18418
907.324	18384
907.441	18235
907.557	18053
907.674	18057
907.79	17984
907.907	18011
908.023	18087
908.139	18117
908.256	17946
908.372	18026
908.488	17889
908.604	17805
908.72	17847
908.836	17809
908.952	17866
909.068	17794
909.184	17847
909.3	17665
909.415	17840
909.531	17741
909.647	17474
909.762	17501
909.878	17402
909.993	17478
910.108	17356
910.224	17421
910.339	17341
910.454	17452
910.57	17299
910.685	17220
910.8	17467
910.915	17395
911.03	17189
911.145	17178
911.259	16949
911.374	17018
911.489	16976
911.604	16957
911.718	16721
911.833	16866
911.947	16660
912.062	16672
912.176	16713
912.291	16885
912.405	16820
912.519	16835
912.633	17014
912.748	16881
912.862	16645
912.976	16565
913.09	16432
913.204	16512
913.318	16641
913.431	16744
913.545	16672
913.659	16596
913.772	16542
913.886	16481
914	16409
914.113	16462
914.226	16588
914.34	16303
914.453	16166
914.566	16382
914.68	16257
914.793	16272
914.906	15975
915.019	15789
915.132	15937
915.245	15911
915.358	15949
915.47	15968
915.583	15915
915.696	15979
915.809	16025
915.921	16040
916.034	15861
916.146	15895
916.259	15850
916.371	15819
916.483	15930
916.595	15781
916.708	15759
916.82	15808
916.932	15831
917.044	15774
917.156	15705
917.268	15557
917.38	15641
917.491	15641
917.603	15587
917.715	15686
917.826	15671
917.938	15447
918.049	15389
918.161	15526
918.272	15534
918.384	15572
918.495	15538
918.606	15344
918.717	15283
918.828	15317
918.939	15310
919.05	15260
919.161	15249
919.272	15047
919.383	15192
919.494	15291
919.604	15481
919.715	15245
919.826	15127
919.936	15241
920.047	15272
920.157	15367
920.267	15466
920.378	15279
920.488	15207
920.598	15439
920.708	15492
920.818	15332
920.928	15450
921.038	15485
921.148	15523
921.258	15226
921.368	15062
921.477	14979
921.587	14956
921.697	14853
921.806	15020
921.916	14845
922.025	14648
922.134	14663
922.244	14606
922.353	14556
922.462	14454
922.571	14431
922.68	14324
922.789	14313
922.898	14229
923.007	14195
923.116	14278
923.224	14237
923.333	14275
923.442	14183
923.55	14058
923.659	14153
923.767	14149
923.876	13982
923.984	14100
924.092	13932
924.201	13989
924.309	14020
924.417	13902
924.525	13879
924.633	13921
924.741	14545
924.849	13685
924.956	13890
925.064	13693
925.172	13540
925.279	13567
925.387	13674
925.494	13742
925.602	13750
925.709	13594
925.816	13514
925.924	13537
926.031	13616
926.138	13643
926.245	13609
926.352	13457
926.459	13594
926.566	13715
926.673	13464
926.779	13324
926.886	13350
926.993	13206
927.099	13183
927.206	13076
927.312	13031
927.419	13213
927.525	13084
927.631	13202
927.737	13012
927.843	12951
927.95	12867
928.056	12970
928.162	12924
928.267	13046
928.373	13620
928.479	13190
928.585	12821
928.69	12954
928.796	12973
928.901	12837
929.007	12722
929.112	12806
929.218	12738
929.323	12764
929.428	12768
929.533	12844
929.638	12627
929.743	12700
929.848	12688
929.953	12544
930.058	12494
930.163	12391
930.267	12315
930.372	12513
930.477	12361
930.581	12623
930.685	12403
930.79	12338
930.894	12209
930.998	12148
931.103	12342
931.207	11969
931.311	11946
931.415	11718
931.519	11627
931.623	11547
