Data from test_V78500241_1810.txt Node
Date: Fri Mar 25 15:54:20 CST 2022
User: usil
Spectrometer: V785-0024
Trigger mode: 0
Integration Time (sec): 4.000000E-1
Scans to average: 1
Nonlinearity correction enabled: false
Boxcar width: 0
Storing dark spectrum: false
XAxis mode: Wavelengths
Number of Pixels in Spectrum: 1024
>>>>>Begin Spectral Data<<<<<
801.071	28474
801.214	28436
801.356	28390
801.499	28329
801.641	28226
801.783	28204
801.926	28055
802.068	28219
802.211	28226
802.353	28162
802.496	27922
802.638	27842
802.78	27804
802.923	27789
803.065	27717
803.208	27728
803.35	27869
803.492	27914
803.635	28143
803.777	28040
803.919	28105
804.061	28478
804.204	28135
804.346	28017
804.488	27937
804.63	28124
804.773	28017
804.915	28200
805.057	28280
805.199	28017
805.341	28116
805.483	28272
805.626	28200
805.768	28196
805.91	28280
806.052	28329
806.194	28059
806.336	28485
806.478	28344
806.62	28363
806.762	28523
806.904	28565
807.046	28828
807.188	28717
807.33	28656
807.472	28713
807.614	28691
807.756	28797
807.898	28592
808.04	28531
808.182	28546
808.324	28603
808.465	28721
808.607	28915
808.749	28946
808.891	29083
809.033	29170
809.174	29037
809.316	29029
809.458	28938
809.6	28911
809.741	29056
809.883	29178
810.025	29284
810.166	29136
810.308	29265
810.45	29090
810.591	29147
810.733	29033
810.875	28911
811.016	28892
811.158	28869
811.299	28972
811.441	29140
811.582	29067
811.724	29071
811.865	28976
812.007	28938
812.148	28892
812.29	28923
812.431	29056
812.573	29303
812.714	29337
812.855	29455
812.997	29497
813.138	29646
813.279	29630
813.421	29653
813.562	29368
813.703	29258
813.845	29162
813.986	29029
814.127	28873
814.268	28592
814.41	28767
814.551	28706
814.692	28634
814.833	28527
814.974	28649
815.115	28755
815.256	28390
815.397	28565
815.539	28497
815.68	28352
815.821	28348
815.962	28542
816.103	28519
816.244	28280
816.385	28257
816.526	28238
816.666	28040
816.807	27998
816.948	28074
817.089	28082
817.23	28025
817.371	28044
817.512	27914
817.653	28082
817.793	27770
817.934	27991
818.075	27914
818.216	27998
818.356	27766
818.497	27895
818.638	27759
818.778	27793
818.919	27800
819.06	27766
819.2	27949
819.341	28067
819.481	27911
819.622	28044
819.762	28344
819.903	28177
820.043	28303
820.184	28135
820.324	28032
820.465	28147
820.605	28070
820.746	28093
820.886	27945
821.026	28063
821.167	28101
821.307	28135
821.447	28105
821.588	27850
821.728	27876
821.868	27701
822.008	27549
822.149	27583
822.289	27473
822.429	27264
822.569	27184
822.709	27036
822.849	26887
822.99	26982
823.13	26792
823.27	26933
823.41	26864
823.55	26651
823.69	26834
823.83	26731
823.97	26830
824.11	26549
824.25	26651
824.389	26663
824.529	26640
824.669	26716
824.809	26689
824.949	26739
825.089	26754
825.228	26533
825.368	26571
825.508	26514
825.648	26514
825.787	26423
825.927	26568
826.067	26442
826.206	26480
826.346	26636
826.485	26476
826.625	26484
826.765	26689
826.904	26480
827.044	26218
827.183	26278
827.323	26195
827.462	26252
827.601	26187
827.741	26221
827.88	26191
828.02	26191
828.159	26126
828.298	26199
828.437	26309
828.577	26252
828.716	26282
828.855	26142
828.994	26046
829.134	25814
829.273	25887
829.412	25852
829.551	25822
829.69	25997
829.829	25959
829.968	25989
830.107	25944
830.246	25997
830.385	25898
830.524	25605
830.663	25727
830.802	25613
830.941	25540
831.08	25537
831.219	25613
831.357	25506
831.496	25689
831.635	25537
831.774	25506
831.913	25343
832.051	25255
832.19	25209
832.329	25308
832.467	25236
832.606	25244
832.744	25057
832.883	25171
833.022	25076
833.16	25190
833.299	25209
833.437	25304
833.576	25164
833.714	25324
833.852	25255
833.991	25183
834.129	25308
834.267	25472
834.406	25274
834.544	25316
834.682	25266
834.821	25259
834.959	25377
835.097	25198
835.235	25320
835.373	25244
835.511	25129
835.65	25015
835.788	25088
835.926	24913
836.064	24833
836.202	24772
836.34	25031
836.478	25156
836.615	24981
836.753	25095
836.891	25133
837.029	25065
837.167	24989
837.305	25012
837.443	24897
837.58	24814
837.718	24966
837.856	24810
837.993	24802
838.131	24894
838.269	24795
838.406	24856
838.544	24604
838.681	24707
838.819	24547
838.956	24334
839.094	24361
839.231	24319
839.369	24635
839.506	24711
839.643	24612
839.781	24426
839.918	24327
840.055	24414
840.193	24346
840.33	24254
840.467	24254
840.604	24251
840.742	24490
840.879	24049
841.016	24087
841.153	24079
841.29	24376
841.427	24251
841.564	24334
841.701	24163
841.838	24224
841.975	24163
842.112	24186
842.249	24163
842.385	24026
842.522	24330
842.659	24197
842.796	23946
842.933	24087
843.069	23889
843.206	23984
843.343	24121
843.479	24038
843.616	23950
843.752	23821
843.889	23863
844.025	23885
844.162	23756
844.298	23923
844.435	23741
844.571	23874
844.708	23805
844.844	23882
844.98	23908
845.117	23942
845.253	23684
845.389	23573
845.525	23608
845.661	23585
845.798	23459
845.934	23516
846.07	23543
846.206	23566
846.342	23589
846.478	23505
846.614	23353
846.75	23162
846.886	23212
847.022	23269
847.158	23189
847.294	23185
847.429	23376
847.565	23246
847.701	23524
847.837	23056
847.972	22957
848.108	22889
848.244	22987
848.379	22839
848.515	22805
848.65	22752
848.786	22706
848.921	22850
849.057	22972
849.192	22942
849.328	22911
849.463	22790
849.598	22774
849.734	22664
849.869	22675
850.004	22546
850.14	22656
850.275	22649
850.41	22481
850.545	22649
850.68	22516
850.815	22497
850.95	22618
851.085	22736
851.22	22702
851.355	22584
851.49	22748
851.625	22588
851.76	22637
851.895	22634
852.03	22660
852.165	22618
852.299	22546
852.434	22596
852.569	22615
852.703	22607
852.838	22656
852.973	22694
853.107	22744
853.242	22535
853.376	22527
853.511	22310
853.645	22306
853.78	22497
853.914	22394
854.048	22188
854.183	22451
854.317	22394
854.451	22550
854.585	22440
854.72	22352
854.854	22493
854.988	22436
855.122	22367
855.256	22291
855.39	22390
855.524	22538
855.658	22447
855.792	22474
855.926	22451
856.06	22527
856.194	22508
856.327	22470
856.461	22436
856.595	22459
856.729	22382
856.862	22569
856.996	22379
857.13	22421
857.263	22508
857.397	22455
857.53	22386
857.664	22481
857.797	22466
857.931	22531
858.064	22436
858.197	22493
858.331	22337
858.464	22329
858.597	22204
858.731	22394
858.864	22344
858.997	22287
859.13	22432
859.263	22382
859.396	22436
859.529	22402
859.662	22348
859.795	22417
859.928	22402
860.061	22664
860.194	22733
860.327	22481
860.46	22379
860.592	22573
860.725	22474
860.858	22615
860.99	22462
861.123	22394
861.256	22291
861.388	22447
861.521	23155
861.653	22303
861.786	22173
861.918	22177
862.05	22325
862.183	22325
862.315	22303
862.447	22386
862.58	22409
862.712	22128
862.844	22169
862.976	22223
863.108	22344
863.24	22618
863.372	22021
863.504	22162
863.636	22139
863.768	22204
863.9	22139
864.032	22021
864.164	22169
864.296	22204
864.428	22166
864.559	22185
864.691	22166
864.823	22063
864.954	22177
865.086	22029
865.217	21895
865.349	21899
865.48	22013
865.612	22017
865.743	22143
865.875	22150
866.006	21968
866.137	21991
866.269	21953
866.4	21953
866.531	22002
866.662	21857
866.793	21918
866.924	21918
867.055	21994
867.186	22048
867.317	21838
867.448	21937
867.579	21937
867.71	21831
867.841	21838
867.972	21797
868.103	21835
868.233	21930
868.364	21956
868.495	21987
868.625	22211
868.756	22147
868.886	22097
869.017	22139
869.147	22242
869.278	22303
869.408	22325
869.539	22223
869.669	22090
869.799	22192
869.929	22322
870.06	22276
870.19	22447
870.32	22421
870.45	22428
870.58	22447
870.71	22672
870.84	22694
870.97	22679
871.1	22531
871.23	22744
871.36	22725
871.489	22721
871.619	22691
871.749	22683
871.879	22748
872.008	22786
872.138	22755
872.267	22767
872.397	22675
872.526	22626
872.656	22660
872.785	22603
872.915	22710
873.044	22831
873.173	22645
873.303	22672
873.432	22740
873.561	22854
873.69	22675
873.819	22759
873.948	22809
874.077	22980
874.206	22596
874.335	22729
874.464	22828
874.593	22999
874.722	22923
874.851	23105
874.979	23090
875.108	22896
875.237	22869
875.365	22900
875.494	22976
875.623	23105
875.751	22949
875.88	23010
876.008	23136
876.136	23200
876.265	23497
876.393	23463
876.521	23417
876.65	23459
876.778	23391
876.906	23185
877.034	23258
877.162	23417
877.29	23341
877.418	23330
877.546	23425
877.674	23391
877.802	23322
877.93	23334
878.058	23273
878.185	23174
878.313	23231
878.441	23296
878.568	23132
878.696	23178
878.824	23288
878.951	23349
879.079	23478
879.206	23653
879.333	23524
879.461	23414
879.588	23539
879.715	23547
879.842	23573
879.97	23448
880.097	23006
880.224	23121
880.351	23212
880.478	23105
880.605	23086
880.732	23132
880.859	23326
880.986	23220
881.112	23166
881.239	23079
881.366	22919
881.493	22805
881.619	22778
881.746	22660
881.872	22774
881.999	22653
882.125	22649
882.252	22733
882.378	22843
882.505	22736
882.631	22497
882.757	22489
882.883	22542
883.01	22356
883.136	22253
883.262	22200
883.388	22181
883.514	22512
883.64	22390
883.766	22166
883.892	22112
884.018	22265
884.143	22398
884.269	22424
884.395	22074
884.52	22147
884.646	22025
884.772	21873
884.897	21983
885.023	22036
885.148	22234
885.274	22101
885.399	22074
885.524	22002
885.65	21975
885.775	22010
885.9	21915
886.025	22158
886.15	22135
886.275	21979
886.4	21968
886.525	21983
886.65	22051
886.775	21972
886.9	21964
887.025	22295
887.149	21975
887.274	21880
887.399	21778
887.523	21895
887.648	21842
887.773	21720
887.897	21907
888.021	21808
888.146	21842
888.27	21823
888.395	21892
888.519	21774
888.643	21827
888.767	21926
888.891	21800
889.015	21564
889.139	21679
889.263	21481
889.387	21705
889.511	21785
889.635	21663
889.759	21549
889.883	21447
890.006	21637
890.13	21701
890.254	21564
890.377	21443
890.501	21306
890.624	21245
890.748	21325
890.871	21237
890.995	21131
891.118	21058
891.241	21207
891.364	21138
891.488	21176
891.611	21199
891.734	20998
891.857	21192
891.98	21077
892.103	21173
892.226	21093
892.349	21028
892.471	20861
892.594	21150
892.717	21135
892.839	21013
892.962	21104
893.085	20998
893.207	21146
893.33	20857
893.452	20982
893.575	21051
893.697	21039
893.819	21226
893.941	21131
894.064	21154
894.186	20937
894.308	20921
894.43	20998
894.552	21154
894.674	21032
894.796	21055
894.918	21055
895.04	21009
895.161	21116
895.283	21039
895.405	20906
895.526	20960
895.648	20982
895.769	20960
895.891	21081
896.012	21085
896.134	21089
896.255	21013
896.376	20944
896.498	20933
896.619	21009
896.74	20933
896.861	21036
896.982	21306
897.103	21447
897.224	21230
897.345	21214
897.466	21184
897.587	21272
897.708	21207
897.828	21192
897.949	21157
898.07	20952
898.19	21005
898.311	21405
898.431	21089
898.552	21173
898.672	21302
898.792	21241
898.913	21264
899.033	21062
899.153	21013
899.273	20948
899.393	20830
899.513	20895
899.633	20971
899.753	20929
899.873	20872
899.993	20902
900.113	20819
900.232	20834
900.352	20868
900.472	20659
900.591	20705
900.711	20716
900.83	20598
900.95	20807
901.069	20765
901.189	20545
901.308	20298
901.427	20180
901.546	20339
901.665	20126
901.784	20256
901.904	20122
902.023	20126
902.141	19883
902.26	19704
902.379	19723
902.498	19799
902.617	19727
902.735	19795
902.854	19803
902.973	19613
903.091	19464
903.21	19491
903.328	19510
903.446	19285
903.565	19175
903.683	19240
903.801	19091
903.919	19266
904.038	19194
904.156	19000
904.274	19091
904.392	18958
904.51	18871
904.627	18905
904.745	19061
904.863	19019
904.981	18817
905.098	18646
905.216	18673
905.334	18688
905.451	18646
905.569	18608
905.686	18741
905.803	18681
905.921	18422
906.038	18486
906.155	18475
906.272	18418
906.389	18376
906.506	18205
906.623	18232
906.74	18174
906.857	18041
906.974	18076
907.091	18262
907.208	18281
907.324	18285
907.441	18057
907.557	17927
907.674	17710
907.79	17760
907.907	17851
908.023	17878
908.139	17901
908.256	17832
908.372	17786
908.488	17691
908.604	17653
908.72	17452
908.836	17558
908.952	17615
909.068	17619
909.184	17687
909.3	17577
909.415	17573
909.531	17547
909.647	17429
909.762	17292
909.878	17269
909.993	17269
910.108	17227
910.224	17299
910.339	17307
910.454	17147
910.57	17090
910.685	17006
910.8	17334
910.915	17277
911.03	17090
911.145	16976
911.259	16987
911.374	16892
911.489	16786
911.604	16706
911.718	16565
911.833	16527
911.947	16580
912.062	16474
912.176	16710
912.291	16660
912.405	16675
912.519	16869
912.633	16721
912.748	16702
912.862	16634
912.976	16478
913.09	16379
913.204	16485
913.318	16367
913.431	16508
913.545	16409
913.659	16694
913.772	16382
913.886	16257
914	16188
914.113	16394
914.226	16348
914.34	16280
914.453	16093
914.566	16272
914.68	16173
914.793	16063
914.906	15922
915.019	15785
915.132	15675
915.245	15797
915.358	15888
915.47	15789
915.583	15720
915.696	15785
915.809	15892
915.921	15876
916.034	15682
916.146	15747
916.259	15587
916.371	15789
916.483	15793
916.595	15618
916.708	15743
916.82	15603
916.932	15542
917.044	15568
917.156	15564
917.268	15367
917.38	15519
917.491	15367
917.603	15466
917.715	15389
917.826	15443
917.938	15420
918.049	15226
918.161	15462
918.272	15545
918.384	15389
918.495	15310
918.606	15203
918.717	15123
918.828	15161
918.939	15192
919.05	15070
919.161	15066
919.272	15017
919.383	15024
919.494	15169
919.604	15336
919.715	15116
919.826	15138
919.936	15138
920.047	15268
920.157	15272
920.267	15378
920.378	15116
920.488	15100
920.598	15249
920.708	15439
920.818	15264
920.928	15222
921.038	15469
921.148	15325
921.258	15093
921.368	15032
921.477	14838
921.587	14826
921.697	14746
921.806	14807
921.916	14655
922.025	14651
922.134	14457
922.244	14503
922.353	14454
922.462	14393
922.571	14309
922.68	14161
922.789	14077
922.898	14210
923.007	14073
923.116	14046
923.224	14111
923.333	14145
923.442	13902
923.55	13921
923.659	13963
923.767	14054
923.876	13845
923.984	14035
924.092	13811
924.201	13959
924.309	13715
924.417	13887
924.525	13670
924.633	13742
924.741	14492
924.849	13464
924.956	13712
925.064	13544
925.172	13449
925.279	13525
925.387	13487
925.494	13514
925.602	13628
925.709	13453
925.816	13464
925.924	13411
926.031	13567
926.138	13445
926.245	13403
926.352	13403
926.459	13499
926.566	13510
926.673	13419
926.779	13206
926.886	13228
926.993	13065
927.099	13110
927.206	12985
927.312	12993
927.419	13118
927.525	13031
927.631	13065
927.737	12920
927.843	12890
927.95	12757
928.056	12814
928.162	12856
928.267	12852
928.373	13521
928.479	12837
928.585	12719
928.69	12779
928.796	12882
928.901	12711
929.007	12555
929.112	12760
929.218	12639
929.323	12585
929.428	12574
929.533	12654
929.638	12563
929.743	12528
929.848	12623
929.953	12486
930.058	12460
930.163	12289
930.267	12308
930.372	12323
930.477	12258
930.581	12327
930.685	12296
930.79	12152
930.894	12213
930.998	12034
931.103	12232
931.207	11908
931.311	11733
931.415	11699
931.519	11490
931.623	11493
