Data from test_V78500241_2944.txt Node
Date: Fri Mar 25 16:02:11 CST 2022
User: usil
Spectrometer: V785-0024
Trigger mode: 0
Integration Time (sec): 4.000000E-1
Scans to average: 1
Nonlinearity correction enabled: false
Boxcar width: 0
Storing dark spectrum: false
XAxis mode: Wavelengths
Number of Pixels in Spectrum: 1024
>>>>>Begin Spectral Data<<<<<
801.071	28965
801.214	28854
801.356	28721
801.499	28622
801.641	28580
801.783	28485
801.926	28592
802.068	28432
802.211	28401
802.353	28325
802.496	28215
802.638	28234
802.78	28169
802.923	28173
803.065	27994
803.208	28158
803.35	28204
803.492	28375
803.635	28401
803.777	28265
803.919	28348
804.061	28675
804.204	28436
804.346	28386
804.488	28356
804.63	28489
804.773	28523
804.915	28398
805.057	28542
805.199	28409
805.341	28683
805.483	28607
805.626	28451
805.768	28557
805.91	28630
806.052	28546
806.194	28516
806.336	28801
806.478	28599
806.62	28588
806.762	28675
806.904	28896
807.046	28995
807.188	29052
807.33	29006
807.472	29143
807.614	29025
807.756	29029
807.898	29064
808.04	29029
808.182	28835
808.324	28824
808.465	28774
808.607	28999
808.749	29189
808.891	29265
809.033	29455
809.174	29246
809.316	29360
809.458	29174
809.6	29227
809.741	29341
809.883	29448
810.025	29589
810.166	29558
810.308	29497
810.45	29505
810.591	29509
810.733	29372
810.875	29284
811.016	29200
811.158	29075
811.299	29467
811.441	29516
811.582	29452
811.724	29299
811.865	29273
812.007	29296
812.148	29421
812.29	29334
812.431	29490
812.573	29813
812.714	29608
812.855	29874
812.997	29893
813.138	30190
813.279	29977
813.421	29901
813.562	29821
813.703	29630
813.845	29444
813.986	29330
814.127	29098
814.268	28896
814.41	29086
814.551	29029
814.692	29098
814.833	28835
814.974	29094
815.115	29083
815.256	28839
815.397	28900
815.539	28984
815.68	28683
815.821	28938
815.962	28866
816.103	28999
816.244	28637
816.385	28573
816.526	28565
816.666	28394
816.807	28352
816.948	28325
817.089	28421
817.23	28333
817.371	28409
817.512	28379
817.653	28367
817.793	28310
817.934	28436
818.075	28306
818.216	28390
818.356	28280
818.497	28318
818.638	27983
818.778	28055
818.919	28109
819.06	28166
819.2	28272
819.341	28409
819.481	28322
819.622	28485
819.762	28672
819.903	28729
820.043	28565
820.184	28451
820.324	28493
820.465	28637
820.605	28436
820.746	28481
820.886	28284
821.026	28436
821.167	28386
821.307	28561
821.447	28390
821.588	28329
821.728	28188
821.868	27960
822.008	27823
822.149	27895
822.289	27747
822.429	27686
822.569	27519
822.709	27504
822.849	27435
822.99	27355
823.13	27374
823.27	27161
823.41	27192
823.55	27077
823.69	27077
823.83	27260
823.97	27123
824.11	26933
824.25	26990
824.389	26990
824.529	27108
824.669	27051
824.809	27119
824.949	27036
825.089	27100
825.228	27119
825.368	26891
825.508	26864
825.648	26902
825.787	26967
825.927	27005
826.067	26921
826.206	26933
826.346	26845
826.485	26838
826.625	26929
826.765	26819
826.904	26902
827.044	26583
827.183	26720
827.323	26564
827.462	26670
827.601	26731
827.741	26476
827.88	26609
828.02	26366
828.159	26492
828.298	26621
828.437	26594
828.577	26522
828.716	26526
828.855	26469
828.994	26381
829.134	26328
829.273	26301
829.412	26244
829.551	26180
829.69	26400
829.829	26393
829.968	26328
830.107	26351
830.246	26339
830.385	26027
830.524	26153
830.663	26107
830.802	25993
830.941	25940
831.08	25902
831.219	26081
831.357	26008
831.496	26024
831.635	25887
831.774	25894
831.913	25696
832.051	25609
832.19	25571
832.329	25666
832.467	25662
832.606	25578
832.744	25556
832.883	25502
833.022	25369
833.16	25487
833.299	25651
833.437	25597
833.576	25567
833.714	25655
833.852	25635
833.991	25693
834.129	25753
834.267	25677
834.406	25548
834.544	25628
834.682	25628
834.821	25537
834.959	25677
835.097	25506
835.235	25677
835.373	25529
835.511	25658
835.65	25472
835.788	25419
835.926	25320
836.064	25221
836.202	25316
836.34	25445
836.478	25647
836.615	25426
836.753	25324
836.891	25540
837.029	25445
837.167	25396
837.305	25388
837.443	25403
837.58	25206
837.718	25304
837.856	25270
837.993	25133
838.131	25240
838.269	25065
838.406	25179
838.544	25114
838.681	24882
838.819	24863
838.956	24741
839.094	24658
839.231	24825
839.369	24878
839.506	25213
839.643	25042
839.781	24848
839.918	24604
840.055	24764
840.193	24658
840.33	24715
840.467	24631
840.604	24673
840.742	24905
840.879	24429
841.016	24566
841.153	24441
841.29	24688
841.427	24471
841.564	24566
841.701	24661
841.838	24582
841.975	24418
842.112	24536
842.249	24464
842.385	24380
842.522	24540
842.659	24525
842.796	24365
842.933	24399
843.069	24342
843.206	24418
843.343	24338
843.479	24426
843.616	24330
843.752	24232
843.889	24262
844.025	24262
844.162	24163
844.298	24304
844.435	24216
844.571	24087
844.708	24201
844.844	24285
844.98	24228
845.117	24350
845.253	24171
845.389	24068
845.525	23977
845.661	23980
845.798	23821
845.934	23961
846.07	23927
846.206	23802
846.342	24022
846.478	23916
846.614	23707
846.75	23474
846.886	23707
847.022	23634
847.158	23680
847.294	23699
847.429	23676
847.565	23444
847.701	23855
847.837	23414
847.972	23265
848.108	23387
848.244	23493
848.379	23292
848.515	23254
848.65	23178
848.786	23140
848.921	23193
849.057	23292
849.192	23277
849.328	23212
849.463	23117
849.598	23143
849.734	23071
849.869	23018
850.004	22904
850.14	22995
850.275	23086
850.41	22812
850.545	22881
850.68	22892
850.815	22965
850.95	22984
851.085	23041
851.22	23048
851.355	22961
851.49	22862
851.625	23048
851.76	22774
851.895	22873
852.03	22873
852.165	22957
852.299	22889
852.434	23151
852.569	22953
852.703	22984
852.838	22904
852.973	23067
853.107	23075
853.242	23052
853.376	22949
853.511	22710
853.645	22744
853.78	22889
853.914	22873
854.048	22767
854.183	22702
854.317	22816
854.451	22984
854.585	22786
854.72	22774
854.854	22771
854.988	22736
855.122	22729
855.256	22668
855.39	22782
855.524	22938
855.658	22854
855.792	22816
855.926	22873
856.06	22797
856.194	22824
856.327	22793
856.461	22771
856.595	22645
856.729	22740
856.862	22698
856.996	22900
857.13	22744
857.263	22790
857.397	22793
857.53	22683
857.664	22729
857.797	22847
857.931	22999
858.064	22656
858.197	22934
858.331	22820
858.464	22748
858.597	22630
858.731	22786
858.864	22763
858.997	22664
859.13	22752
859.263	22626
859.396	22900
859.529	22869
859.662	22797
859.795	22672
859.928	22824
860.061	22752
860.194	22919
860.327	22831
860.46	22694
860.592	22892
860.725	23022
860.858	22942
860.99	22778
861.123	22596
861.256	22778
861.388	22721
861.521	23478
861.653	22679
861.786	22542
861.918	22596
862.05	22649
862.183	22611
862.315	22774
862.447	22877
862.58	22706
862.712	22653
862.844	22424
862.976	22569
863.108	22561
863.24	22847
863.372	22489
863.504	22436
863.636	22474
863.768	22630
863.9	22527
864.032	22398
864.164	22504
864.296	22527
864.428	22535
864.559	22618
864.691	22470
864.823	22512
864.954	22409
865.086	22360
865.217	22333
865.349	22211
865.48	22428
865.612	22375
865.743	22462
865.875	22360
866.006	22268
866.137	22356
866.269	22284
866.4	22242
866.531	22211
866.662	22169
866.793	22192
866.924	22382
867.055	22265
867.186	22322
867.317	22196
867.448	22188
867.579	22238
867.71	22192
867.841	22166
867.972	22284
868.103	22253
868.233	22287
868.364	22375
868.495	22299
868.625	22485
868.756	22656
868.886	22413
869.017	22565
869.147	22588
869.278	22588
869.408	22577
869.539	22497
869.669	22577
869.799	22569
869.929	22637
870.06	22603
870.19	22767
870.32	22710
870.45	22987
870.58	22980
870.71	22957
870.84	23033
870.97	22847
871.1	22976
871.23	23086
871.36	23113
871.489	23022
871.619	23143
871.749	23143
871.879	23220
872.008	23227
872.138	23075
872.267	23170
872.397	22961
872.526	22919
872.656	22919
872.785	22877
872.915	23117
873.044	23155
873.173	23094
873.303	23212
873.432	23162
873.561	23143
873.69	23235
873.819	23239
873.948	23292
874.077	23273
874.206	23018
874.335	22991
874.464	23265
874.593	23364
874.722	23246
874.851	23277
874.979	23509
875.108	23474
875.237	23307
875.365	23288
875.494	23364
875.623	23299
875.751	23200
875.88	23455
876.008	23455
876.136	23497
876.265	23722
876.393	24060
876.521	23840
876.65	23859
876.778	23821
876.906	23627
877.034	23665
877.162	23714
877.29	23676
877.418	23623
877.546	23668
877.674	23722
877.802	23665
877.93	23646
878.058	23649
878.185	23429
878.313	23566
878.441	23676
878.568	23482
878.696	23573
878.824	23672
878.951	23722
879.079	23874
879.206	24076
879.333	23847
879.461	23760
879.588	23836
879.715	23798
879.842	23920
879.97	23771
880.097	23520
880.224	23482
880.351	23562
880.478	23459
880.605	23425
880.732	23368
880.859	23543
880.986	23627
881.112	23478
881.239	23246
881.366	23128
881.493	23246
881.619	23132
881.746	22984
881.872	23018
881.999	22987
882.125	23003
882.252	23200
882.378	23037
882.505	23273
882.631	22919
882.757	22752
882.883	22946
883.01	22771
883.136	22706
883.262	22668
883.388	22554
883.514	22713
883.64	22725
883.766	22763
883.892	22557
884.018	22398
884.143	22618
884.269	22706
884.395	22481
884.52	22440
884.646	22360
884.772	22280
884.897	22295
885.023	22398
885.148	22417
885.274	22481
885.399	22481
885.524	22451
885.65	22451
885.775	22402
885.9	22325
886.025	22481
886.15	22428
886.275	22291
886.4	22211
886.525	22310
886.65	22413
886.775	22188
886.9	22379
887.025	22538
887.149	22493
887.274	22238
887.399	22143
887.523	21998
887.648	22097
887.773	22040
887.897	22147
888.021	22272
888.146	22154
888.27	22295
888.395	22166
888.519	22192
888.643	22120
888.767	22211
888.891	22067
889.015	21911
889.139	21949
889.263	21949
889.387	22067
889.511	22040
889.635	22029
889.759	21972
889.883	21895
890.006	21972
890.13	21892
890.254	21770
890.377	21819
890.501	21694
890.624	21663
890.748	21637
890.871	21576
890.995	21564
891.118	21504
891.241	21428
891.364	21439
891.488	21591
891.611	21519
891.734	21488
891.857	21428
891.98	21454
892.103	21370
892.226	21443
892.349	21447
892.471	21298
892.594	21245
892.717	21420
892.839	21313
892.962	21386
893.085	21367
893.207	21428
893.33	21199
893.452	21287
893.575	21477
893.697	21336
893.819	21401
893.941	21595
894.064	21412
894.186	21389
894.308	21325
894.43	21401
894.552	21450
894.674	21439
894.796	21252
894.918	21351
895.04	21252
895.161	21348
895.283	21454
895.405	21294
895.526	21329
895.648	21340
895.769	21306
895.891	21302
896.012	21393
896.134	21416
896.255	21355
896.376	21211
896.498	21416
896.619	21298
896.74	21317
896.861	21435
896.982	21648
897.103	21736
897.224	21545
897.345	21530
897.466	21576
897.587	21564
897.708	21720
897.828	21648
897.949	21450
898.07	21359
898.19	21317
898.311	21580
898.431	21466
898.552	21454
898.672	21603
898.792	21599
898.913	21515
899.033	21332
899.153	21424
899.273	21127
899.393	21169
899.513	21275
899.633	21112
899.753	21199
899.873	21142
899.993	21119
900.113	21233
900.232	21260
900.352	21028
900.472	21001
900.591	20979
900.711	20975
900.83	21062
900.95	21062
901.069	20937
901.189	20937
901.308	20587
901.427	20549
901.546	20530
901.665	20480
901.784	20530
901.904	20396
902.023	20339
902.141	20153
902.26	20191
902.379	20161
902.498	20050
902.617	20012
902.735	20157
902.854	20153
902.973	19894
903.091	19811
903.21	19685
903.328	19833
903.446	19681
903.565	19499
903.683	19548
903.801	19362
903.919	19453
904.038	19430
904.156	19289
904.274	19343
904.392	19308
904.51	19331
904.627	19335
904.745	19274
904.863	19327
904.981	19057
905.098	18829
905.216	19019
905.334	19031
905.451	18871
905.569	18932
905.686	18970
905.803	18973
905.921	18658
906.038	18878
906.155	18688
906.272	18593
906.389	18688
906.506	18407
906.623	18460
906.74	18445
906.857	18361
906.974	18369
907.091	18540
907.208	18608
907.324	18437
907.441	18391
907.557	18190
907.674	18174
907.79	18106
907.907	18163
908.023	18155
908.139	18190
908.256	18026
908.372	18022
908.488	17996
908.604	17935
908.72	17901
908.836	17878
908.952	17828
909.068	17870
909.184	17874
909.3	17901
909.415	17901
909.531	17817
909.647	17646
909.762	17570
909.878	17562
909.993	17570
910.108	17585
910.224	17417
910.339	17592
910.454	17509
910.57	17398
910.685	17303
910.8	17577
910.915	17551
911.03	17326
911.145	17162
911.259	17189
911.374	17235
911.489	17128
911.604	16968
911.718	16908
911.833	16858
911.947	16805
912.062	16672
912.176	16938
912.291	16877
912.405	16828
912.519	17079
912.633	17083
912.748	16968
912.862	16850
912.976	16691
913.09	16611
913.204	16615
913.318	16702
913.431	16755
913.545	16793
913.659	16744
913.772	16584
913.886	16565
914	16550
914.113	16512
914.226	16622
914.34	16447
914.453	16272
914.566	16402
914.68	16413
914.793	16310
914.906	16185
915.019	16063
915.132	15994
915.245	15987
915.358	16036
915.47	16105
915.583	16017
915.696	16082
915.809	16223
915.921	16329
916.034	16013
916.146	15987
916.259	15926
916.371	16025
916.483	15968
916.595	16025
916.708	15804
916.82	15846
916.932	15823
917.044	15835
917.156	15800
917.268	15736
917.38	15701
917.491	15549
917.603	15675
917.715	15656
917.826	15656
917.938	15580
918.049	15545
918.161	15644
918.272	15808
918.384	15835
918.495	15580
918.606	15416
918.717	15359
918.828	15389
918.939	15549
919.05	15332
919.161	15302
919.272	15184
919.383	15389
919.494	15492
919.604	15652
919.715	15386
919.826	15298
919.936	15298
920.047	15496
920.157	15344
920.267	15530
920.378	15332
920.488	15325
920.598	15526
920.708	15595
920.818	15424
920.928	15542
921.038	15637
921.148	15679
921.258	15272
921.368	15184
921.477	15104
921.587	15055
921.697	14998
921.806	15112
921.916	14986
922.025	14811
922.134	14720
922.244	14667
922.353	14693
922.462	14587
922.571	14507
922.68	14339
922.789	14351
922.898	14332
923.007	14240
923.116	14328
923.224	14362
923.333	14313
923.442	14164
923.55	14206
923.659	14248
923.767	14183
923.876	14153
923.984	14138
924.092	14046
924.201	14187
924.309	14054
924.417	14123
924.525	13978
924.633	13917
924.741	14880
924.849	13803
924.956	13883
925.064	13757
925.172	13742
925.279	13727
925.387	13803
925.494	13674
925.602	13856
925.709	13727
925.816	13651
925.924	13666
926.031	13803
926.138	13655
926.245	13666
926.352	13426
926.459	13670
926.566	13651
926.673	13537
926.779	13422
926.886	13472
926.993	13324
927.099	13213
927.206	13190
927.312	13282
927.419	13251
927.525	13263
927.631	13270
927.737	13168
927.843	13072
927.95	13061
928.056	13004
928.162	13137
928.267	13099
928.373	13723
928.479	13088
928.585	12882
928.69	12928
928.796	13023
928.901	12821
929.007	12700
929.112	12970
929.218	12840
929.323	12787
929.428	12768
929.533	12943
929.638	12795
929.743	12741
929.848	12719
929.953	12730
930.058	12578
930.163	12445
930.267	12445
930.372	12509
930.477	12342
930.581	12551
930.685	12437
930.79	12285
930.894	12369
930.998	12209
931.103	12429
931.207	12072
931.311	11999
931.415	11859
931.519	11733
931.623	11699
