Data from test_V78500241_755.txt Node
Date: Fri Mar 25 15:47:01 CST 2022
User: usil
Spectrometer: V785-0024
Trigger mode: 0
Integration Time (sec): 4.000000E-1
Scans to average: 1
Nonlinearity correction enabled: false
Boxcar width: 0
Storing dark spectrum: false
XAxis mode: Wavelengths
Number of Pixels in Spectrum: 1024
>>>>>Begin Spectral Data<<<<<
801.071	28135
801.214	27998
801.356	27751
801.499	27614
801.641	27538
801.783	27572
801.926	27682
802.068	27515
802.211	27447
802.353	27348
802.496	27150
802.638	27203
802.78	27222
802.923	27298
803.065	27135
803.208	27017
803.35	27192
803.492	27317
803.635	27462
803.777	27222
803.919	27256
804.061	27789
804.204	27542
804.346	27287
804.488	27230
804.63	27359
804.773	27359
804.915	27587
805.057	27553
805.199	27450
805.341	27587
805.483	27549
805.626	27469
805.768	27500
805.91	27557
806.052	27534
806.194	27443
806.336	27679
806.478	27641
806.62	27485
806.762	27800
806.904	27739
807.046	28097
807.188	27964
807.33	27804
807.472	28070
807.614	27781
807.756	28059
807.898	27766
808.04	27698
808.182	27728
808.324	27861
808.465	27907
808.607	28006
808.749	28265
808.891	28242
809.033	28382
809.174	28284
809.316	28242
809.458	28375
809.6	28166
809.741	28185
809.883	28432
810.025	28489
810.166	28527
810.308	28546
810.45	28500
810.591	28455
810.733	28204
810.875	28166
811.016	28223
811.158	28242
811.299	28398
811.441	28405
811.582	28470
811.724	28154
811.865	28261
812.007	28101
812.148	28196
812.29	28249
812.431	28268
812.573	28577
812.714	28706
812.855	28812
812.997	28759
813.138	28980
813.279	28816
813.421	28839
813.562	28706
813.703	28702
813.845	28481
813.986	28147
814.127	28044
814.268	27850
814.41	27956
814.551	27914
814.692	27964
814.833	27816
814.974	27914
815.115	27724
815.256	27816
815.397	27808
815.539	27739
815.68	27755
815.821	27580
815.962	27850
816.103	27656
816.244	27599
816.385	27557
816.526	27682
816.666	27393
816.807	27173
816.948	27195
817.089	27359
817.23	27188
817.371	27233
817.512	27306
817.653	27222
817.793	27268
817.934	27218
818.075	27180
818.216	27203
818.356	27218
818.497	27180
818.638	26918
818.778	26982
818.919	26990
819.06	26994
819.2	27070
819.341	27386
819.481	27233
819.622	27310
819.762	27629
819.903	27538
820.043	27405
820.184	27336
820.324	27287
820.465	27408
820.605	27367
820.746	27351
820.886	27222
821.026	27344
821.167	27222
821.307	27405
821.447	27374
821.588	27047
821.728	27138
821.868	26857
822.008	26724
822.149	26644
822.289	26648
822.429	26492
822.569	26370
822.709	26469
822.849	26286
822.99	26221
823.13	26332
823.27	26058
823.41	26218
823.55	25944
823.69	26142
823.83	26031
823.97	26081
824.11	25849
824.25	25871
824.389	25894
824.529	26012
824.669	25894
824.809	26092
824.949	25928
825.089	26084
825.228	26005
825.368	25693
825.508	25772
825.648	25723
825.787	25822
825.927	25795
826.067	25765
826.206	25772
826.346	25818
826.485	25913
826.625	25753
826.765	25963
826.904	25826
827.044	25689
827.183	25594
827.323	25400
827.462	25552
827.601	25362
827.741	25293
827.88	25514
828.02	25183
828.159	25453
828.298	25464
828.437	25590
828.577	25388
828.716	25670
828.855	25419
828.994	25217
829.134	25095
829.273	25209
829.412	25160
829.551	25137
829.69	25213
829.829	25232
829.968	25156
830.107	25152
830.246	25236
830.385	25137
830.524	25046
830.663	25019
830.802	24916
830.941	24795
831.08	24783
831.219	24810
831.357	24791
831.496	24894
831.635	24863
831.774	24673
831.913	24669
832.051	24631
832.19	24517
832.329	24593
832.467	24494
832.606	24479
832.744	24414
832.883	24448
833.022	24311
833.16	24456
833.299	24547
833.437	24399
833.576	24631
833.714	24460
833.852	24536
833.991	24505
834.129	24604
834.267	24437
834.406	24388
834.544	24608
834.682	24448
834.821	24353
834.959	24661
835.097	24372
835.235	24540
835.373	24346
835.511	24460
835.65	24201
835.788	24327
835.926	24228
836.064	24079
836.202	24205
836.34	24376
836.478	24429
836.615	24266
836.753	24338
836.891	24319
837.029	24361
837.167	24270
837.305	24304
837.443	24292
837.58	24235
837.718	24338
837.856	24182
837.993	24057
838.131	24117
838.269	24053
838.406	23999
838.544	23923
838.681	23908
838.819	23802
838.956	23668
839.094	23649
839.231	23737
839.369	23901
839.506	24091
839.643	23824
839.781	23695
839.918	23577
840.055	23653
840.193	23452
840.33	23710
840.467	23596
840.604	23512
840.742	24003
840.879	23326
841.016	23512
841.153	23421
841.29	23520
841.427	23414
841.564	23554
841.701	23551
841.838	23417
841.975	23349
842.112	23398
842.249	23417
842.385	23280
842.522	23425
842.659	23512
842.796	23356
842.933	23372
843.069	23170
843.206	23250
843.343	23341
843.479	23280
843.616	23174
843.752	23090
843.889	23006
844.025	23216
844.162	23014
844.298	23094
844.435	23143
844.571	23075
844.708	23006
844.844	23223
844.98	23341
845.117	23094
845.253	23048
845.389	22972
845.525	22900
845.661	22938
845.798	22774
845.934	22873
846.07	22752
846.206	22839
846.342	22763
846.478	22831
846.614	22584
846.75	22584
846.886	22512
847.022	22577
847.158	22470
847.294	22451
847.429	22451
847.565	22417
847.701	22793
847.837	22177
847.972	22158
848.108	22402
848.244	22306
848.379	22147
848.515	22166
848.65	22063
848.786	22112
848.921	22090
849.057	22105
849.192	22261
849.328	22173
849.463	22074
849.598	22036
849.734	22067
849.869	21911
850.004	21861
850.14	21873
850.275	21922
850.41	21823
850.545	21876
850.68	21861
850.815	21998
850.95	21899
851.085	21998
851.22	22006
851.355	21903
851.49	21800
851.625	21907
851.76	21880
851.895	21793
852.03	21637
852.165	21880
852.299	21854
852.434	21941
852.569	21831
852.703	21835
852.838	21816
852.973	22048
853.107	22017
853.242	21816
853.376	21797
853.511	21583
853.645	21644
853.78	21797
853.914	21656
854.048	21637
854.183	21717
854.317	21800
854.451	21793
854.585	21800
854.72	21652
854.854	21797
854.988	21622
855.122	21705
855.256	21633
855.39	21679
855.524	21713
855.658	21743
855.792	21800
855.926	21743
856.06	21800
856.194	21842
856.327	21690
856.461	21610
856.595	21705
856.729	21797
856.862	21713
856.996	21755
857.13	21717
857.263	21660
857.397	21873
857.53	21671
857.664	21739
857.797	21739
857.931	21759
858.064	21770
858.197	21694
858.331	21637
858.464	21671
858.597	21603
858.731	21637
858.864	21713
858.997	21614
859.13	21644
859.263	21633
859.396	21808
859.529	21682
859.662	21713
859.795	21564
859.928	21717
860.061	21922
860.194	21888
860.327	21747
860.46	21762
860.592	21812
860.725	21911
860.858	21915
860.99	21793
861.123	21720
861.256	21701
861.388	21663
861.521	22344
861.653	21595
861.786	21447
861.918	21576
862.05	21625
862.183	21523
862.315	21713
862.447	21747
862.58	21622
862.712	21454
862.844	21332
862.976	21488
863.108	21469
863.24	21941
863.372	21416
863.504	21306
863.636	21420
863.768	21428
863.9	21408
864.032	21363
864.164	21389
864.296	21386
864.428	21545
864.559	21386
864.691	21447
864.823	21386
864.954	21378
865.086	21492
865.217	21279
865.349	21237
865.48	21245
865.612	21184
865.743	21412
865.875	21207
866.006	21256
866.137	21283
866.269	21310
866.4	21401
866.531	21195
866.662	21306
866.793	21192
866.924	21222
867.055	21268
867.186	21256
867.317	21241
867.448	21119
867.579	21165
867.71	21017
867.841	21211
867.972	21233
868.103	21165
868.233	21192
868.364	21256
868.495	21241
868.625	21572
868.756	21511
868.886	21363
869.017	21401
869.147	21656
869.278	21545
869.408	21557
869.539	21542
869.669	21553
869.799	21488
869.929	21629
870.06	21481
870.19	21663
870.32	21812
870.45	21918
870.58	21812
870.71	21926
870.84	22036
870.97	21667
871.1	21911
871.23	21987
871.36	22147
871.489	21975
871.619	22105
871.749	22013
871.879	22021
872.008	22128
872.138	22078
872.267	22032
872.397	21907
872.526	21892
872.656	21865
872.785	21835
872.915	22048
873.044	22154
873.173	22021
873.303	22303
873.432	22188
873.561	22257
873.69	22143
873.819	22124
873.948	22192
874.077	22070
874.206	22135
874.335	22036
874.464	22310
874.593	22329
874.722	22306
874.851	22341
874.979	22200
875.108	22443
875.237	22382
875.365	22226
875.494	22287
875.623	22386
875.751	22207
875.88	22196
876.008	22493
876.136	22535
876.265	22733
876.393	22885
876.521	22790
876.65	22752
876.778	22580
876.906	22653
877.034	22660
877.162	22675
877.29	22554
877.418	22584
877.546	22675
877.674	22592
877.802	22599
877.93	22755
878.058	22611
878.185	22622
878.313	22592
878.441	22679
878.568	22470
878.696	22584
878.824	22694
878.951	22729
879.079	22839
879.206	22862
879.333	22774
879.461	22713
879.588	22634
879.715	22759
879.842	22991
879.97	22588
880.097	22557
880.224	22443
880.351	22428
880.478	22538
880.605	22352
880.732	22519
880.859	22561
880.986	22493
881.112	22512
881.239	22417
881.366	22234
881.493	22070
881.619	22120
881.746	22086
881.872	22032
881.999	22067
882.125	21930
882.252	22086
882.378	21987
882.505	22029
882.631	21888
882.757	21629
882.883	21968
883.01	21679
883.136	21793
883.262	21507
883.388	21523
883.514	21774
883.64	21713
883.766	21618
883.892	21439
884.018	21488
884.143	21720
884.269	21743
884.395	21492
884.52	21298
884.646	21378
884.772	21203
884.897	21256
885.023	21340
885.148	21500
885.274	21504
885.399	21439
885.524	21416
885.65	21386
885.775	21401
885.9	21298
886.025	21420
886.15	21405
886.275	21279
886.4	21127
886.525	21310
886.65	21287
886.775	21249
886.9	21412
887.025	21485
887.149	21306
887.274	21173
887.399	21096
887.523	21252
887.648	21055
887.773	21051
887.897	21176
888.021	21188
888.146	21165
888.27	21188
888.395	21104
888.519	21104
888.643	21077
888.767	21104
888.891	21055
889.015	21017
889.139	20994
889.263	21020
889.387	21043
889.511	21093
889.635	21165
889.759	20891
889.883	20872
890.006	20895
890.13	20899
890.254	20857
890.377	20864
890.501	20682
890.624	20651
890.748	20682
890.871	20560
890.995	20507
891.118	20343
891.241	20507
891.364	20488
891.488	20556
891.611	20537
891.734	20549
891.857	20473
891.98	20568
892.103	20450
892.226	20408
892.349	20415
892.471	20393
892.594	20393
892.717	20374
892.839	20282
892.962	20408
893.085	20476
893.207	20461
893.33	20313
893.452	20339
893.575	20351
893.697	20351
893.819	20427
893.941	20587
894.064	20476
894.186	20305
894.308	20294
894.43	20450
894.552	20454
894.674	20366
894.796	20408
894.918	20400
895.04	20366
895.161	20400
895.283	20290
895.405	20294
895.526	20347
895.648	20313
895.769	20309
895.891	20362
896.012	20613
896.134	20480
896.255	20434
896.376	20301
896.498	20358
896.619	20415
896.74	20499
896.861	20393
896.982	20754
897.103	20727
897.224	20552
897.345	20419
897.466	20450
897.587	20537
897.708	20758
897.828	20724
897.949	20503
898.07	20461
898.19	20537
898.311	20705
898.431	20545
898.552	20549
898.672	20667
898.792	20746
898.913	20579
899.033	20503
899.153	20427
899.273	20267
899.393	20343
899.513	20419
899.633	20301
899.753	20305
899.873	20263
899.993	20313
900.113	20119
900.232	20263
900.352	20332
900.472	20187
900.591	20183
900.711	20130
900.83	20043
900.95	20210
901.069	20221
901.189	19997
901.308	19902
901.427	19696
901.546	19715
901.665	19780
901.784	19791
901.904	19514
902.023	19658
902.141	19255
902.26	19175
902.379	19255
902.498	19179
902.617	19099
902.735	19129
902.854	19343
902.973	19126
903.091	18977
903.21	18848
903.328	18859
903.446	18760
903.565	18635
903.683	18650
903.801	18582
903.919	18654
904.038	18506
904.156	18399
904.274	18528
904.392	18426
904.51	18467
904.627	18426
904.745	18369
904.863	18570
904.981	18300
905.098	18102
905.216	18201
905.334	18178
905.451	18148
905.569	18057
905.686	18163
905.803	18045
905.921	17916
906.038	18041
906.155	18011
906.272	17790
906.389	17798
906.506	17642
906.623	17687
906.74	17687
906.857	17406
906.974	17459
907.091	17790
907.208	17798
907.324	17699
907.441	17570
907.557	17433
907.674	17459
907.79	17292
907.907	17414
908.023	17353
908.139	17452
908.256	17296
908.372	17258
908.488	17189
908.604	17060
908.72	17014
908.836	17094
908.952	17105
909.068	17162
909.184	17193
909.3	17140
909.415	17052
909.531	17071
909.647	16816
909.762	16733
909.878	16934
909.993	16782
910.108	16767
910.224	16736
910.339	16778
910.454	16558
910.57	16538
910.685	16546
910.8	16759
910.915	16774
911.03	16588
911.145	16341
911.259	16276
911.374	16314
911.489	16310
911.604	16291
911.718	16078
911.833	16185
911.947	16093
912.062	15975
912.176	16124
912.291	16253
912.405	16196
912.519	16413
912.633	16207
912.748	16139
912.862	16082
912.976	15994
913.09	15785
913.204	15926
913.318	15926
913.431	16067
913.545	15975
913.659	16010
913.772	15819
913.886	15743
914	15584
914.113	15778
914.226	15743
914.34	15816
914.453	15641
914.566	15808
914.68	15641
914.793	15580
914.906	15405
915.019	15306
915.132	15344
915.245	15367
915.358	15367
915.47	15298
915.583	15340
915.696	15359
915.809	15454
915.921	15401
916.034	15291
916.146	15317
916.259	15184
916.371	15310
916.483	15287
916.595	15291
916.708	15188
916.82	15207
916.932	15157
917.044	15074
917.156	15051
917.268	14956
917.38	15039
917.491	14994
917.603	14925
917.715	15028
917.826	15150
917.938	14921
918.049	14773
918.161	14914
918.272	15032
918.384	15097
918.495	14967
918.606	14815
918.717	14705
918.828	14712
918.939	14712
919.05	14697
919.161	14625
919.272	14590
919.383	14579
919.494	14659
919.604	14960
919.715	14689
919.826	14568
919.936	14674
920.047	14701
920.157	14697
920.267	14826
920.378	14705
920.488	14648
920.598	14830
920.708	14910
920.818	14765
920.928	14796
921.038	14971
921.148	14853
921.258	14648
921.368	14514
921.477	14457
921.587	14404
921.697	14347
921.806	14492
921.916	14278
922.025	14008
922.134	14039
922.244	14031
922.353	14168
922.462	14050
922.571	13818
922.68	13852
922.789	13681
922.898	13685
923.007	13632
923.116	13685
923.224	13704
923.333	13674
923.442	13445
923.55	13495
923.659	13468
923.767	13624
923.876	13441
923.984	13601
924.092	13430
924.201	13358
924.309	13403
924.417	13354
924.525	13369
924.633	13312
924.741	14385
924.849	13118
924.956	13304
925.064	13069
925.172	13042
925.279	13217
925.387	13190
925.494	13114
925.602	13263
925.709	13103
925.816	13046
925.924	13110
926.031	13175
926.138	13042
926.245	12985
926.352	12939
926.459	13061
926.566	13126
926.673	12905
926.779	12878
926.886	12859
926.993	12688
927.099	12734
927.206	12696
927.312	12623
927.419	12787
927.525	12753
927.631	12597
927.737	12582
927.843	12525
927.95	12414
928.056	12422
928.162	12467
928.267	12532
928.373	13072
928.479	12574
928.585	12300
928.69	12407
928.796	12490
928.901	12342
929.007	12251
929.112	12327
929.218	12235
929.323	12220
929.428	12243
929.533	12372
929.638	12079
929.743	12194
929.848	12175
929.953	12190
930.058	11992
930.163	11866
930.267	11901
930.372	12133
930.477	11885
930.581	12064
930.685	11904
930.79	11798
930.894	11794
930.998	11786
931.103	11939
931.207	11528
931.311	11467
931.415	11250
931.519	11102
931.623	11189
