Data from test_V78500241_2541.txt Node
Date: Fri Mar 25 15:59:24 CST 2022
User: usil
Spectrometer: V785-0024
Trigger mode: 0
Integration Time (sec): 4.000000E-1
Scans to average: 1
Nonlinearity correction enabled: false
Boxcar width: 0
Storing dark spectrum: false
XAxis mode: Wavelengths
Number of Pixels in Spectrum: 1024
>>>>>Begin Spectral Data<<<<<
801.071	28592
801.214	28599
801.356	28287
801.499	28242
801.641	28135
801.783	28185
801.926	28200
802.068	28192
802.211	28044
802.353	28017
802.496	27797
802.638	27819
802.78	27945
802.923	27732
803.065	27778
803.208	27766
803.35	27895
803.492	28067
803.635	28181
803.777	28025
803.919	28105
804.061	28272
804.204	27964
804.346	28124
804.488	28021
804.63	28044
804.773	28082
804.915	28181
805.057	28219
805.199	27968
805.341	28192
805.483	28325
805.626	28253
805.768	28268
805.91	28192
806.052	28287
806.194	28196
806.336	28223
806.478	28295
806.62	28257
806.762	28329
806.904	28481
807.046	28713
807.188	28649
807.33	28778
807.472	28736
807.614	28615
807.756	28771
807.898	28523
808.04	28500
808.182	28588
808.324	28573
808.465	28569
808.607	28885
808.749	29022
808.891	29105
809.033	29124
809.174	28961
809.316	28797
809.458	28888
809.6	28980
809.741	29147
809.883	29018
810.025	29330
810.166	29147
810.308	29318
810.45	29113
810.591	29113
810.733	29022
810.875	28991
811.016	28812
811.158	28805
811.299	29018
811.441	29094
811.582	29037
811.724	28885
811.865	28820
812.007	28938
812.148	29006
812.29	28961
812.431	29227
812.573	29239
812.714	29261
812.855	29471
812.997	29482
813.138	29642
813.279	29551
813.421	29463
813.562	29269
813.703	29284
813.845	29075
813.986	28866
814.127	28824
814.268	28725
814.41	28752
814.551	28698
814.692	28725
814.833	28557
814.974	28569
815.115	28744
815.256	28443
815.397	28550
815.539	28481
815.68	28519
815.821	28497
815.962	28417
816.103	28405
816.244	28303
816.385	28287
816.526	28223
816.666	28055
816.807	27899
816.948	28105
817.089	27991
817.23	27869
817.371	27934
817.512	27983
817.653	27937
817.793	27835
817.934	27926
818.075	27918
818.216	27926
818.356	27739
818.497	27789
818.638	27736
818.778	27770
818.919	27679
819.06	27675
819.2	27873
819.341	28010
819.481	27960
819.622	28135
819.762	28242
819.903	28261
820.043	28192
820.184	28120
820.324	27991
820.465	28025
820.605	28082
820.746	28188
820.886	27873
821.026	28181
821.167	28029
821.307	28097
821.447	27994
821.588	27854
821.728	27823
821.868	27576
822.008	27477
822.149	27576
822.289	27542
822.429	27264
822.569	27051
822.709	27230
822.849	26910
822.99	26944
823.13	27009
823.27	26910
823.41	26918
823.55	26613
823.69	26735
823.83	26773
823.97	26708
824.11	26507
824.25	26613
824.389	26522
824.529	26716
824.669	26678
824.809	26682
824.949	26682
825.089	26705
825.228	26606
825.368	26617
825.508	26453
825.648	26583
825.787	26632
825.927	26518
826.067	26575
826.206	26404
826.346	26419
826.485	26533
826.625	26457
826.765	26465
826.904	26446
827.044	26473
827.183	26256
827.323	26084
827.462	26286
827.601	26233
827.741	26149
827.88	26191
828.02	26122
828.159	26191
828.298	26145
828.437	26202
828.577	26176
828.716	26168
828.855	26103
828.994	25887
829.134	25928
829.273	25978
829.412	25868
829.551	25830
829.69	25887
829.829	25727
829.968	25856
830.107	25788
830.246	25989
830.385	25791
830.524	25769
830.663	25578
830.802	25605
830.941	25441
831.08	25430
831.219	25449
831.357	25712
831.496	25746
831.635	25335
831.774	25350
831.913	25491
832.051	25285
832.19	25107
832.329	25343
832.467	25084
832.606	25145
832.744	25202
832.883	25168
833.022	25133
833.16	25129
833.299	25050
833.437	25050
833.576	25187
833.714	25228
833.852	25381
833.991	25365
834.129	25285
834.267	25411
834.406	25202
834.544	25213
834.682	25133
834.821	25217
834.959	25434
835.097	25137
835.235	25213
835.373	25259
835.511	25236
835.65	25061
835.788	25042
835.926	24916
836.064	24837
836.202	25008
836.34	25004
836.478	25225
836.615	24970
836.753	24867
836.891	25148
837.029	24973
837.167	24958
837.305	24867
837.443	24947
837.58	24848
837.718	24806
837.856	24878
837.993	24859
838.131	24878
838.269	24814
838.406	24749
838.544	24616
838.681	24372
838.819	24669
838.956	24369
839.094	24357
839.231	24346
839.369	24555
839.506	24669
839.643	24601
839.781	24456
839.918	24266
840.055	24216
840.193	24395
840.33	24251
840.467	24186
840.604	24289
840.742	24471
840.879	24171
841.016	24190
841.153	24159
841.29	24285
841.427	24220
841.564	24319
841.701	24197
841.838	24216
841.975	24144
842.112	24201
842.249	23984
842.385	23977
842.522	24216
842.659	24087
842.796	24053
842.933	24018
843.069	24079
843.206	23935
843.343	24060
843.479	24015
843.616	23999
843.752	23733
843.889	23783
844.025	23923
844.162	23722
844.298	23760
844.435	23573
844.571	23684
844.708	23855
844.844	23855
844.98	23897
845.117	23882
845.253	23821
845.389	23653
845.525	23543
845.661	23562
845.798	23493
845.934	23531
846.07	23600
846.206	23589
846.342	23695
846.478	23486
846.614	23280
846.75	23151
846.886	23231
847.022	23250
847.158	23166
847.294	23204
847.429	23170
847.565	23284
847.701	23535
847.837	23003
847.972	22809
848.108	22980
848.244	22938
848.379	22927
848.515	22736
848.65	22778
848.786	22755
848.921	22744
849.057	22850
849.192	23025
849.328	22961
849.463	22698
849.598	22668
849.734	22656
849.869	22675
850.004	22599
850.14	22557
850.275	22615
850.41	22599
850.545	22527
850.68	22527
850.815	22596
850.95	22561
851.085	22744
851.22	22611
851.355	22516
851.49	22626
851.625	22580
851.76	22508
851.895	22485
852.03	22481
852.165	22626
852.299	22538
852.434	22580
852.569	22538
852.703	22523
852.838	22527
852.973	22755
853.107	22645
853.242	22599
853.376	22481
853.511	22284
853.645	22341
853.78	22535
853.914	22478
854.048	22375
854.183	22455
854.317	22459
854.451	22645
854.585	22344
854.72	22230
854.854	22485
854.988	22409
855.122	22455
855.256	22443
855.39	22428
855.524	22478
855.658	22390
855.792	22424
855.926	22348
856.06	22497
856.194	22443
856.327	22329
856.461	22356
856.595	22405
856.729	22390
856.862	22550
856.996	22466
857.13	22550
857.263	22569
857.397	22451
857.53	22394
857.664	22504
857.797	22443
857.931	22535
858.064	22417
858.197	22523
858.331	22443
858.464	22242
858.597	22188
858.731	22348
858.864	22379
858.997	22261
859.13	22474
859.263	22413
859.396	22546
859.529	22462
859.662	22337
859.795	22421
859.928	22375
860.061	22436
860.194	22656
860.327	22531
860.46	22497
860.592	22668
860.725	22527
860.858	22512
860.99	22527
861.123	22344
861.256	22344
861.388	22542
861.521	23029
861.653	22344
861.786	22116
861.918	22185
862.05	22234
862.183	22455
862.315	22367
862.447	22382
862.58	22318
862.712	22249
862.844	22185
862.976	22158
863.108	22230
863.24	22626
863.372	22169
863.504	22166
863.636	22082
863.768	22063
863.9	22090
864.032	22082
864.164	22070
864.296	22074
864.428	22223
864.559	22223
864.691	22306
864.823	22207
864.954	22101
865.086	22021
865.217	22078
865.349	21876
865.48	22032
865.612	22029
865.743	22078
865.875	22067
866.006	21907
866.137	21987
866.269	22006
866.4	22036
866.531	21960
866.662	21869
866.793	21880
866.924	21979
867.055	22002
867.186	22040
867.317	21922
867.448	21869
867.579	21998
867.71	21857
867.841	21960
867.972	22131
868.103	21869
868.233	21998
868.364	21956
868.495	22086
868.625	22200
868.756	22257
868.886	22086
869.017	22131
869.147	22238
869.278	22249
869.408	22173
869.539	22226
869.669	22261
869.799	22356
869.929	22253
870.06	22303
870.19	22436
870.32	22436
870.45	22398
870.58	22519
870.71	22717
870.84	22573
870.97	22653
871.1	22538
871.23	22797
871.36	22809
871.489	22588
871.619	22668
871.749	22793
871.879	22744
872.008	22915
872.138	22774
872.267	22755
872.397	22592
872.526	22580
872.656	22538
872.785	22630
872.915	22820
873.044	22896
873.173	22809
873.303	22915
873.432	22930
873.561	22850
873.69	22873
873.819	22835
873.948	22831
874.077	22862
874.206	22733
874.335	22900
874.464	22942
874.593	23006
874.722	22942
874.851	23052
874.979	23041
875.108	23212
875.237	22949
875.365	22862
875.494	22961
875.623	22999
875.751	23010
875.88	22953
876.008	23105
876.136	23269
876.265	23360
876.393	23501
876.521	23535
876.65	23387
876.778	23459
876.906	23368
877.034	23467
877.162	23311
877.29	23265
877.418	23258
877.546	23376
877.674	23208
877.802	23410
877.93	23269
878.058	23231
878.185	23185
878.313	23341
878.441	23444
878.568	23166
878.696	23288
878.824	23372
878.951	23440
879.079	23387
879.206	23570
879.333	23376
879.461	23421
879.588	23448
879.715	23516
879.842	23551
879.97	23299
880.097	23113
880.224	23143
880.351	23200
880.478	23223
880.605	23140
880.732	23151
880.859	23254
880.986	23166
881.112	23124
881.239	22946
881.366	22698
881.493	22736
881.619	22767
881.746	22679
881.872	22835
881.999	22713
882.125	22752
882.252	22675
882.378	22778
882.505	22786
882.631	22641
882.757	22485
882.883	22554
883.01	22413
883.136	22337
883.262	22230
883.388	22249
883.514	22455
883.64	22455
883.766	22322
883.892	22177
884.018	22211
884.143	22200
884.269	22436
884.395	22105
884.52	22040
884.646	22021
884.772	22029
884.897	22032
885.023	22097
885.148	22246
885.274	22173
885.399	22116
885.524	22006
885.65	22135
885.775	22055
885.9	22082
886.025	22150
886.15	22082
886.275	21983
886.4	21964
886.525	21953
886.65	21930
886.775	22013
886.9	22196
887.025	22230
887.149	21968
887.274	21899
887.399	21884
887.523	21724
887.648	21770
887.773	21751
887.897	21953
888.021	21899
888.146	21770
888.27	21873
888.395	21895
888.519	21781
888.643	21781
888.767	21713
888.891	21679
889.015	21488
889.139	21671
889.263	21515
889.387	21652
889.511	21747
889.635	21637
889.759	21450
889.883	21534
890.006	21553
890.13	21633
890.254	21466
890.377	21519
890.501	21420
890.624	21332
890.748	21450
890.871	21268
890.995	21112
891.118	21127
891.241	21207
891.364	21195
891.488	21249
891.611	21001
891.734	21241
891.857	21233
891.98	21161
892.103	21138
892.226	21161
892.349	21146
892.471	20864
892.594	21108
892.717	21051
892.839	20998
892.962	21123
893.085	21100
893.207	21039
893.33	20982
893.452	20914
893.575	21096
893.697	20975
893.819	21230
893.941	21245
894.064	21233
894.186	21036
894.308	20994
894.43	21142
894.552	21203
894.674	21020
894.796	21020
894.918	21028
895.04	20849
895.161	21150
895.283	20971
895.405	21085
895.526	21017
895.648	21032
895.769	21123
895.891	20998
896.012	21211
896.134	20971
896.255	21028
896.376	20952
896.498	20960
896.619	21123
896.74	21047
896.861	21077
896.982	21310
897.103	21504
897.224	21226
897.345	21252
897.466	21074
897.587	21138
897.708	21336
897.828	21051
897.949	21138
898.07	21055
898.19	21131
898.311	21321
898.431	21176
898.552	21291
898.672	21397
898.792	21367
898.913	21131
899.033	21001
899.153	21017
899.273	20906
899.393	21081
899.513	20933
899.633	20952
899.753	20944
899.873	20937
899.993	20933
900.113	20842
900.232	20944
900.352	20864
900.472	20838
900.591	20720
900.711	20705
900.83	20644
900.95	20838
901.069	20773
901.189	20587
901.308	20446
901.427	20332
901.546	20317
901.665	20370
901.784	20332
901.904	20149
902.023	20046
902.141	19795
902.26	19890
902.379	19830
902.498	19814
902.617	19689
902.735	19750
902.854	19742
902.973	19742
903.091	19468
903.21	19468
903.328	19419
903.446	19327
903.565	19225
903.683	19324
903.801	19129
903.919	19145
904.038	19198
904.156	18981
904.274	19129
904.392	19031
904.51	19012
904.627	18924
904.745	19069
904.863	19042
904.981	18825
905.098	18745
905.216	18597
905.334	18814
905.451	18707
905.569	18589
905.686	18772
905.803	18661
905.921	18471
906.038	18486
906.155	18467
906.272	18361
906.389	18525
906.506	18300
906.623	18076
906.74	18216
906.857	18076
906.974	18125
907.091	18235
907.208	18239
907.324	18167
907.441	18114
907.557	17885
907.674	17954
907.79	17942
907.907	17916
908.023	17885
908.139	17828
908.256	17821
908.372	17870
908.488	17680
908.604	17707
908.72	17562
908.836	17638
908.952	17627
909.068	17687
909.184	17722
909.3	17551
909.415	17589
909.531	17554
909.647	17402
909.762	17349
909.878	17235
909.993	17322
910.108	17398
910.224	17208
910.339	17269
910.454	17128
910.57	16908
910.685	17041
910.8	17341
910.915	17280
911.03	17147
911.145	17018
911.259	16904
911.374	16862
911.489	16885
911.604	16736
911.718	16683
911.833	16679
911.947	16512
912.062	16538
912.176	16683
912.291	16637
912.405	16649
912.519	16797
912.633	16725
912.748	16668
912.862	16565
912.976	16424
913.09	16314
913.204	16382
913.318	16478
913.431	16504
913.545	16527
913.659	16561
913.772	16356
913.886	16196
914	16268
914.113	16280
914.226	16360
914.34	16284
914.453	16086
914.566	16265
914.68	16059
914.793	16135
914.906	15869
915.019	15785
915.132	15701
915.245	15713
915.358	15892
915.47	15789
915.583	15701
915.696	15835
915.809	15876
915.921	15972
916.034	15827
916.146	15667
916.259	15755
916.371	15793
916.483	15732
916.595	15622
916.708	15641
916.82	15603
916.932	15557
917.044	15580
917.156	15496
917.268	15519
917.38	15526
917.491	15435
917.603	15386
917.715	15389
917.826	15549
917.938	15336
918.049	15230
918.161	15416
918.272	15584
918.384	15389
918.495	15473
918.606	15294
918.717	15161
918.828	15233
918.939	15222
919.05	15119
919.161	15230
919.272	14830
919.383	14986
919.494	15275
919.604	15332
919.715	15119
919.826	15036
919.936	15108
920.047	15161
920.157	15142
920.267	15249
920.378	15192
920.488	15127
920.598	15317
920.708	15492
920.818	15222
920.928	15298
921.038	15469
921.148	15382
921.258	15039
921.368	14979
921.477	14857
921.587	14941
921.697	14800
921.806	14906
921.916	14754
922.025	14476
922.134	14549
922.244	14499
922.353	14469
922.462	14355
922.571	14336
922.68	14252
922.789	14191
922.898	14103
923.007	14138
923.116	14271
923.224	14119
923.333	14069
923.442	14031
923.55	14054
923.659	13993
923.767	14050
923.876	13871
923.984	13955
924.092	13845
924.201	13947
924.309	13887
924.417	13925
924.525	13780
924.633	13864
924.741	14526
924.849	13719
924.956	13719
925.064	13681
925.172	13434
925.279	13567
925.387	13502
925.494	13441
925.602	13643
925.709	13491
925.816	13453
925.924	13453
926.031	13613
926.138	13525
926.245	13533
926.352	13365
926.459	13639
926.566	13525
926.673	13445
926.779	13331
926.886	13285
926.993	13072
927.099	13107
927.206	13103
927.312	13034
927.419	13156
927.525	13084
927.631	13156
927.737	13034
927.843	13015
927.95	12920
928.056	12897
928.162	12943
928.267	12981
928.373	13556
928.479	12970
928.585	12787
928.69	12882
928.796	12840
928.901	12776
929.007	12669
929.112	12798
929.218	12741
929.323	12669
929.428	12639
929.533	12753
929.638	12642
929.743	12486
929.848	12623
929.953	12536
930.058	12433
930.163	12330
930.267	12262
930.372	12384
930.477	12205
930.581	12407
930.685	12353
930.79	12091
930.894	12129
930.998	12114
931.103	12289
931.207	11912
931.311	11843
931.415	11779
931.519	11623
931.623	11528
