Data from test_V78500241_852.txt Node
Date: Fri Mar 25 15:47:42 CST 2022
User: usil
Spectrometer: V785-0024
Trigger mode: 0
Integration Time (sec): 4.000000E-1
Scans to average: 1
Nonlinearity correction enabled: false
Boxcar width: 0
Storing dark spectrum: false
XAxis mode: Wavelengths
Number of Pixels in Spectrum: 1024
>>>>>Begin Spectral Data<<<<<
801.071	27595
801.214	27450
801.356	27279
801.499	27116
801.641	26899
801.783	27047
801.926	27055
802.068	27036
802.211	26845
802.353	26883
802.496	26602
802.638	26682
802.78	26568
802.923	26400
803.065	26590
803.208	26663
803.35	26583
803.492	26678
803.635	26826
803.777	26769
803.919	26838
804.061	27116
804.204	26918
804.346	26785
804.488	26693
804.63	26807
804.773	26720
804.915	26830
805.057	26918
805.199	26823
805.341	26910
805.483	26811
805.626	26971
805.768	26800
805.91	26937
806.052	27074
806.194	26971
806.336	27104
806.478	26971
806.62	26895
806.762	27173
806.904	27180
807.046	27367
807.188	27268
807.33	27450
807.472	27450
807.614	27405
807.756	27450
807.898	27279
808.04	27173
808.182	27302
808.324	27146
808.465	27150
808.607	27507
808.749	27591
808.891	27705
809.033	27690
809.174	27637
809.316	27648
809.458	27591
809.6	27610
809.741	27759
809.883	27732
810.025	27884
810.166	27736
810.308	27869
810.45	27747
810.591	27724
810.733	27663
810.875	27557
811.016	27450
811.158	27576
811.299	27652
811.441	27762
811.582	27800
811.724	27755
811.865	27576
812.007	27599
812.148	27534
812.29	27644
812.431	27755
812.573	27953
812.714	28158
812.855	28128
812.997	28143
813.138	28325
813.279	28154
813.421	28291
813.562	28032
813.703	27895
813.845	27667
813.986	27587
814.127	27431
814.268	27317
814.41	27332
814.551	27096
814.692	27355
814.833	27169
814.974	27173
815.115	27233
815.256	27211
815.397	27039
815.539	27112
815.68	26815
815.821	26998
815.962	27013
816.103	26963
816.244	26910
816.385	26838
816.526	26765
816.666	26678
816.807	26457
816.948	26594
817.089	26640
817.23	26530
817.371	26415
817.512	26450
817.653	26488
817.793	26438
817.934	26488
818.075	26545
818.216	26602
818.356	26355
818.497	26438
818.638	26237
818.778	26199
818.919	26336
819.06	26393
819.2	26507
819.341	26476
819.481	26488
819.622	26636
819.762	26777
819.903	26834
820.043	26682
820.184	26716
820.324	26568
820.465	26705
820.605	26678
820.746	26492
820.886	26492
821.026	26522
821.167	26651
821.307	26659
821.447	26659
821.588	26362
821.728	26309
821.868	26206
822.008	26107
822.149	25947
822.289	25890
822.429	25734
822.569	25750
822.709	25658
822.849	25419
822.99	25419
823.13	25468
823.27	25388
823.41	25365
823.55	25293
823.69	25407
823.83	25228
823.97	25251
824.11	25084
824.25	25084
824.389	25042
824.529	25213
824.669	25076
824.809	25251
824.949	25164
825.089	25148
825.228	25122
825.368	24935
825.508	24878
825.648	24966
825.787	25004
825.927	25095
826.067	24992
826.206	25099
826.346	24981
826.485	24973
826.625	25099
826.765	25148
826.904	25019
827.044	24798
827.183	24707
827.323	24692
827.462	24703
827.601	24722
827.741	24745
827.88	24783
828.02	24498
828.159	24639
828.298	24578
828.437	24772
828.577	24642
828.716	24798
828.855	24627
828.994	24308
829.134	24327
829.273	24308
829.412	24315
829.551	24376
829.69	24304
829.829	24426
829.968	24498
830.107	24319
830.246	24380
830.385	24300
830.524	24361
830.663	24213
830.802	24053
830.941	24060
831.08	23973
831.219	24186
831.357	24140
831.496	24224
831.635	23977
831.774	24018
831.913	23821
832.051	23779
832.19	23748
832.329	23878
832.467	23695
832.606	23581
832.744	23653
832.883	23657
833.022	23687
833.16	23718
833.299	23737
833.437	23771
833.576	23748
833.714	23703
833.852	23707
833.991	23722
834.129	23824
834.267	23935
834.406	23828
834.544	23821
834.682	23756
834.821	23710
834.959	23946
835.097	23562
835.235	23733
835.373	23771
835.511	23699
835.65	23543
835.788	23562
835.926	23509
836.064	23368
836.202	23417
836.34	23512
836.478	23642
836.615	23539
836.753	23577
836.891	23611
837.029	23699
837.167	23516
837.305	23436
837.443	23436
837.58	23387
837.718	23398
837.856	23452
837.993	23421
838.131	23337
838.269	23204
838.406	23379
838.544	23296
838.681	23117
838.819	23010
838.956	22809
839.094	22812
839.231	22866
839.369	23200
839.506	23136
839.643	23208
839.781	22866
839.918	22873
840.055	22847
840.193	22820
840.33	22755
840.467	22824
840.604	22923
840.742	23102
840.879	22675
841.016	22599
841.153	22660
841.29	23029
841.427	22797
841.564	22793
841.701	22862
841.838	22698
841.975	22725
842.112	22664
842.249	22706
842.385	22603
842.522	22733
842.659	22736
842.796	22531
842.933	22565
843.069	22478
843.206	22428
843.343	22546
843.479	22557
843.616	22516
843.752	22356
843.889	22314
844.025	22421
844.162	22234
844.298	22462
844.435	22314
844.571	22215
844.708	22341
844.844	22542
844.98	22497
845.117	22451
845.253	22322
845.389	22177
845.525	22143
845.661	22272
845.798	22025
845.934	22215
846.07	21968
846.206	22070
846.342	22090
846.478	21964
846.614	21793
846.75	21766
846.886	21823
847.022	21800
847.158	21888
847.294	21774
847.429	21987
847.565	21793
847.701	22036
847.837	21576
847.972	21447
848.108	21656
848.244	21572
848.379	21340
848.515	21526
848.65	21469
848.786	21325
848.921	21435
849.057	21576
849.192	21420
849.328	21523
849.463	21363
849.598	21351
849.734	21332
849.869	21249
850.004	21123
850.14	21077
850.275	21119
850.41	21062
850.545	21039
850.68	21100
850.815	21180
850.95	21096
851.085	21268
851.22	21165
851.355	21169
851.49	21077
851.625	21085
851.76	21089
851.895	21104
852.03	21009
852.165	21127
852.299	21173
852.434	21127
852.569	21256
852.703	21245
852.838	21283
852.973	21199
853.107	21268
853.242	21119
853.376	21005
853.511	20842
853.645	21001
853.78	21058
853.914	20986
854.048	20895
854.183	20994
854.317	21089
854.451	21077
854.585	21009
854.72	20933
854.854	21127
854.988	20960
855.122	21024
855.256	20781
855.39	20963
855.524	20925
855.658	21127
855.792	21066
855.926	21089
856.06	21039
856.194	20967
856.327	20986
856.461	20880
856.595	20982
856.729	20925
856.862	21093
856.996	21005
857.13	20986
857.263	21058
857.397	21081
857.53	20994
857.664	20990
857.797	21024
857.931	21051
858.064	20971
858.197	21077
858.331	20941
858.464	20925
858.597	20800
858.731	20933
858.864	20933
858.997	20933
859.13	20899
859.263	20902
859.396	21062
859.529	20918
859.662	20895
859.795	20868
859.928	20960
860.061	21214
860.194	21135
860.327	21001
860.46	20975
860.592	21154
860.725	21256
860.858	21081
860.99	21024
861.123	20914
861.256	20948
861.388	20956
861.521	21660
861.653	20758
861.786	20853
861.918	20807
862.05	20830
862.183	20937
862.315	20887
862.447	20948
862.58	20895
862.712	20739
862.844	20674
862.976	20899
863.108	20804
863.24	21157
863.372	20621
863.504	20716
863.636	20655
863.768	20773
863.9	20667
864.032	20625
864.164	20708
864.296	20716
864.428	20804
864.559	20826
864.691	20724
864.823	20750
864.954	20731
865.086	20689
865.217	20640
865.349	20499
865.48	20560
865.612	20609
865.743	20693
865.875	20461
866.006	20568
866.137	20537
866.269	20598
866.4	20522
866.531	20476
866.662	20533
866.793	20442
866.924	20556
867.055	20648
867.186	20511
867.317	20545
867.448	20469
867.579	20465
867.71	20503
867.841	20450
867.972	20549
868.103	20537
868.233	20579
868.364	20537
868.495	20655
868.625	20659
868.756	20781
868.886	20823
869.017	20834
869.147	20921
869.278	20933
869.408	20746
869.539	20834
869.669	20906
869.799	20887
869.929	20819
870.06	20845
870.19	20986
870.32	21036
870.45	21142
870.58	21150
870.71	21211
870.84	21275
870.97	21188
871.1	21241
871.23	21252
871.36	21428
871.489	21287
871.619	21424
871.749	21386
871.879	21447
872.008	21397
872.138	21348
872.267	21386
872.397	21298
872.526	21188
872.656	21245
872.785	21100
872.915	21302
873.044	21447
873.173	21367
873.303	21447
873.432	21435
873.561	21519
873.69	21412
873.819	21473
873.948	21416
874.077	21576
874.206	21397
874.335	21367
874.464	21568
874.593	21606
874.722	21667
874.851	21755
874.979	21709
875.108	21637
875.237	21629
875.365	21355
875.494	21690
875.623	21709
875.751	21526
875.88	21591
876.008	21705
876.136	21884
876.265	22044
876.393	22200
876.521	22063
876.65	22135
876.778	22173
876.906	22032
877.034	21991
877.162	21983
877.29	21960
877.418	22090
877.546	22051
877.674	21994
877.802	21903
877.93	21956
878.058	21857
878.185	21770
878.313	22006
878.441	21956
878.568	21732
878.696	21869
878.824	21934
878.951	21930
879.079	22112
879.206	22230
879.333	22101
879.461	21907
879.588	22169
879.715	22147
879.842	22295
879.97	22044
880.097	21956
880.224	21842
880.351	21857
880.478	21861
880.605	21823
880.732	21785
880.859	22036
880.986	21850
881.112	21797
881.239	21724
881.366	21492
881.493	21416
881.619	21298
881.746	21401
881.872	21397
881.999	21428
882.125	21329
882.252	21439
882.378	21340
882.505	21359
882.631	21226
882.757	21135
882.883	21157
883.01	21085
883.136	21116
883.262	20933
883.388	20838
883.514	20994
883.64	21085
883.766	21009
883.892	20925
884.018	20902
884.143	21013
884.269	21005
884.395	20750
884.52	20594
884.646	20708
884.772	20762
884.897	20655
885.023	20701
885.148	20762
885.274	20883
885.399	20800
885.524	20636
885.65	20743
885.775	20800
885.9	20750
886.025	20910
886.15	20746
886.275	20674
886.4	20708
886.525	20526
886.65	20655
886.775	20640
886.9	20800
887.025	20872
887.149	20765
887.274	20689
887.399	20419
887.523	20332
887.648	20442
887.773	20469
887.897	20640
888.021	20564
888.146	20461
888.27	20667
888.395	20552
888.519	20552
888.643	20518
888.767	20507
888.891	20454
889.015	20332
889.139	20423
889.263	20309
889.387	20381
889.511	20480
889.635	20461
889.759	20343
889.883	20282
890.006	20240
890.13	20461
890.254	20275
890.377	20210
890.501	20153
890.624	19993
890.748	20058
890.871	20111
890.995	19868
891.118	19811
891.241	19944
891.364	19833
891.488	20107
891.611	19868
891.734	19776
891.857	19833
891.98	19875
892.103	19925
892.226	19856
892.349	19841
892.471	19746
892.594	19864
892.717	19833
892.839	19746
892.962	19913
893.085	19879
893.207	19837
893.33	19719
893.452	19753
893.575	19864
893.697	19742
893.819	19845
893.941	20024
894.064	19795
894.186	19742
894.308	19734
894.43	19887
894.552	19925
894.674	19879
894.796	19685
894.918	19750
895.04	19704
895.161	19784
895.283	19845
895.405	19750
895.526	19769
895.648	19845
895.769	19807
895.891	19879
896.012	19887
896.134	19856
896.255	19826
896.376	19818
896.498	19666
896.619	19799
896.74	19856
896.861	19860
896.982	20073
897.103	20317
897.224	20081
897.345	19894
897.466	19837
897.587	20046
897.708	20092
897.828	20016
897.949	20054
898.07	19807
898.19	19986
898.311	20096
898.431	19955
898.552	19997
898.672	20046
898.792	20043
898.913	20039
899.033	19928
899.153	19830
899.273	19635
899.393	19864
899.513	19856
899.633	19883
899.753	19788
899.873	19799
899.993	19719
900.113	19769
900.232	19807
900.352	19719
900.472	19510
900.591	19521
900.711	19582
900.83	19514
900.95	19658
901.069	19704
901.189	19483
901.308	19259
901.427	19194
901.546	19080
901.665	19240
901.784	19217
901.904	19065
902.023	18977
902.141	18696
902.26	18753
902.379	18719
902.498	18722
902.617	18612
902.735	18639
902.854	18570
902.973	18623
903.091	18273
903.21	18361
903.328	18300
903.446	18270
903.565	18194
903.683	18171
903.801	17961
903.919	18163
904.038	18163
904.156	17946
904.274	18140
904.392	17908
904.51	17866
904.627	17859
904.745	17988
904.863	17977
904.981	17805
905.098	17604
905.216	17653
905.334	17646
905.451	17684
905.569	17665
905.686	17661
905.803	17558
905.921	17395
906.038	17425
906.155	17341
906.272	17299
906.389	17337
906.506	17140
906.623	17170
906.74	17117
906.857	16961
906.974	17117
907.091	17121
907.208	17265
907.324	17212
907.441	17056
907.557	16885
907.674	16904
907.79	16820
907.907	16858
908.023	16915
908.139	16793
908.256	16816
908.372	16748
908.488	16767
908.604	16641
908.72	16702
908.836	16637
908.952	16603
909.068	16474
909.184	16649
909.3	16542
909.415	16607
909.531	16508
909.647	16405
909.762	16234
909.878	16268
909.993	16261
910.108	16261
910.224	16204
910.339	16310
910.454	16078
910.57	16017
910.685	16059
910.8	16272
910.915	16303
911.03	16063
911.145	15918
911.259	15797
911.374	15823
911.489	15793
911.604	15762
911.718	15629
911.833	15656
911.947	15507
912.062	15454
912.176	15641
912.291	15690
912.405	15637
912.519	15823
912.633	15831
912.748	15663
912.862	15606
912.976	15504
913.09	15348
913.204	15302
913.318	15515
913.431	15606
913.545	15603
913.659	15576
913.772	15389
913.886	15272
914	15230
914.113	15321
914.226	15348
914.34	15313
914.453	15093
914.566	15294
914.68	15066
914.793	15119
914.906	14861
915.019	14834
915.132	14868
915.245	14834
915.358	14929
915.47	14830
915.583	14921
915.696	14857
915.809	14986
915.921	14944
916.034	14819
916.146	14826
916.259	14804
916.371	14796
916.483	14746
916.595	14655
916.708	14720
916.82	14735
916.932	14708
917.044	14701
917.156	14526
917.268	14530
917.38	14670
917.491	14492
917.603	14541
917.715	14598
917.826	14610
917.938	14518
918.049	14434
918.161	14507
918.272	14552
918.384	14640
918.495	14461
918.606	14370
918.717	14237
918.828	14389
918.939	14248
919.05	14206
919.161	14286
919.272	14183
919.383	14111
919.494	14370
919.604	14480
919.715	14286
919.826	14218
919.936	14275
920.047	14336
920.157	14229
920.267	14450
920.378	14282
920.488	14244
920.598	14408
920.708	14583
920.818	14469
920.928	14419
921.038	14541
921.148	14533
921.258	14252
921.368	14180
921.477	14031
921.587	14008
921.697	13928
921.806	13951
921.916	13849
922.025	13814
922.134	13696
922.244	13620
922.353	13647
922.462	13571
922.571	13537
922.68	13388
922.789	13221
922.898	13350
923.007	13308
923.116	13339
923.224	13285
923.333	13301
923.442	13137
923.55	13084
923.659	13110
923.767	13179
923.876	13095
923.984	13202
924.092	12993
924.201	13008
924.309	12989
924.417	13114
924.525	13000
924.633	12924
924.741	13951
924.849	12726
924.956	12966
925.064	12730
925.172	12677
925.279	12810
925.387	12700
925.494	12730
925.602	12890
925.709	12726
925.816	12559
925.924	12646
926.031	12772
926.138	12646
926.245	12688
926.352	12608
926.459	12703
926.566	12757
926.673	12650
926.779	12433
926.886	12536
926.993	12323
927.099	12357
927.206	12262
927.312	12190
927.419	12315
927.525	12369
927.631	12350
927.737	12178
927.843	12228
927.95	12030
928.056	12186
928.162	12136
928.267	12178
928.373	12886
928.479	12235
928.585	11923
928.69	12133
928.796	12091
928.901	12022
929.007	11836
929.112	11996
929.218	12022
929.323	11901
929.428	11866
929.533	11923
929.638	11843
929.743	11866
929.848	11843
929.953	11866
930.058	11737
930.163	11573
930.267	11566
930.372	11745
930.477	11505
930.581	11802
930.685	11611
930.79	11398
930.894	11433
930.998	11448
931.103	11482
931.207	11151
931.311	11151
931.415	11067
931.519	10782
931.623	10774
