Data from test_V78500241_2004.txt Node
Date: Fri Mar 25 15:55:41 CST 2022
User: usil
Spectrometer: V785-0024
Trigger mode: 0
Integration Time (sec): 4.000000E-1
Scans to average: 1
Nonlinearity correction enabled: false
Boxcar width: 0
Storing dark spectrum: false
XAxis mode: Wavelengths
Number of Pixels in Spectrum: 1024
>>>>>Begin Spectral Data<<<<<
801.071	28778
801.214	28694
801.356	28500
801.499	28447
801.641	28257
801.783	28405
801.926	28367
802.068	28325
802.211	28341
802.353	28363
802.496	28025
802.638	28029
802.78	28051
802.923	28051
803.065	27930
803.208	27857
803.35	28086
803.492	28093
803.635	28154
803.777	27998
803.919	28276
804.061	28516
804.204	28360
804.346	28074
804.488	28090
804.63	28124
804.773	28234
804.915	28341
805.057	28424
805.199	28363
805.341	28390
805.483	28489
805.626	28367
805.768	28318
805.91	28508
806.052	28333
806.194	28462
806.336	28474
806.478	28451
806.62	28451
806.762	28508
806.904	28668
807.046	29025
807.188	28915
807.33	28793
807.472	28900
807.614	28904
807.756	28774
807.898	28683
808.04	28577
808.182	28706
808.324	28831
808.465	29003
808.607	29025
808.749	29185
808.891	29231
809.033	29208
809.174	29155
809.316	29056
809.458	29075
809.6	29147
809.741	29315
809.883	29212
810.025	29379
810.166	29372
810.308	29375
810.45	29364
810.591	29379
810.733	29086
810.875	29037
811.016	29109
811.158	28930
811.299	29037
811.441	29410
811.582	29200
811.724	29235
811.865	29208
812.007	29147
812.148	29151
812.29	29124
812.431	29299
812.573	29528
812.714	29528
812.855	29668
812.997	29710
813.138	29783
813.279	29630
813.421	29775
813.562	29539
813.703	29520
813.845	29284
813.986	29140
814.127	28984
814.268	28976
814.41	28942
814.551	28888
814.692	28797
814.833	28881
814.974	28869
815.115	28847
815.256	28778
815.397	28672
815.539	28816
815.68	28691
815.821	28626
815.962	28710
816.103	28698
816.244	28481
816.385	28493
816.526	28413
816.666	28401
816.807	28219
816.948	28192
817.089	28257
817.23	28185
817.371	28207
817.512	28181
817.653	28143
817.793	28109
817.934	28093
818.075	28173
818.216	28242
818.356	27983
818.497	27975
818.638	28040
818.778	28032
818.919	27812
819.06	27907
819.2	27998
819.341	28154
819.481	28124
819.622	28211
819.762	28481
819.903	28352
820.043	28489
820.184	28261
820.324	28265
820.465	28421
820.605	28246
820.746	28284
820.886	28173
821.026	28265
821.167	28265
821.307	28196
821.447	28173
821.588	28207
821.728	27945
821.868	27724
822.008	27587
822.149	27591
822.289	27793
822.429	27427
822.569	27325
822.709	27275
822.849	27207
822.99	27245
823.13	27135
823.27	27001
823.41	26998
823.55	26811
823.69	27005
823.83	27062
823.97	26963
824.11	26819
824.25	26716
824.389	26705
824.529	26765
824.669	26807
824.809	27005
824.949	26864
825.089	26864
825.228	26838
825.368	26667
825.508	26765
825.648	26697
825.787	26739
825.927	26788
826.067	26716
826.206	26530
826.346	26746
826.485	26861
826.625	26583
826.765	26750
826.904	26632
827.044	26347
827.183	26419
827.323	26240
827.462	26446
827.601	26465
827.741	26389
827.88	26336
828.02	26423
828.159	26507
828.298	26526
828.437	26347
828.577	26358
828.716	26400
828.855	26294
828.994	26115
829.134	26069
829.273	26252
829.412	26191
829.551	26012
829.69	26210
829.829	26122
829.968	26164
830.107	26225
830.246	26054
830.385	26058
830.524	25932
830.663	25940
830.802	25734
830.941	25658
831.08	25723
831.219	25677
831.357	25674
831.496	25871
831.635	25738
831.774	25746
831.913	25594
832.051	25495
832.19	25472
832.329	25525
832.467	25346
832.606	25282
832.744	25251
832.883	25350
833.022	25457
833.16	25358
833.299	25362
833.437	25426
833.576	25479
833.714	25407
833.852	25468
833.991	25518
834.129	25567
834.267	25441
834.406	25343
834.544	25434
834.682	25407
834.821	25327
834.959	25620
835.097	25270
835.235	25438
835.373	25476
835.511	25358
835.65	25282
835.788	25343
835.926	25206
836.064	25114
836.202	25061
836.34	25179
836.478	25324
836.615	25213
836.753	25297
836.891	25350
837.029	25289
837.167	25164
837.305	25164
837.443	25031
837.58	25034
837.718	25148
837.856	25175
837.993	25004
838.131	24966
838.269	25015
838.406	24962
838.544	24947
838.681	24745
838.819	24654
838.956	24418
839.094	24414
839.231	24597
839.369	24700
839.506	24867
839.643	24798
839.781	24563
839.918	24460
840.055	24441
840.193	24502
840.33	24395
840.467	24498
840.604	24494
840.742	24726
840.879	24311
841.016	24437
841.153	24334
841.29	24422
841.427	24555
841.564	24502
841.701	24376
841.838	24426
841.975	24277
842.112	24285
842.249	24262
842.385	24144
842.522	24361
842.659	24315
842.796	24133
842.933	24289
843.069	24281
843.206	24235
843.343	24311
843.479	24281
843.616	24163
843.752	24049
843.889	23996
844.025	24083
844.162	23927
844.298	24018
844.435	23961
844.571	24007
844.708	24018
844.844	24015
844.98	24007
845.117	24068
845.253	23931
845.389	23821
845.525	23821
845.661	23859
845.798	23684
845.934	23707
846.07	23676
846.206	23676
846.342	23756
846.478	23729
846.614	23459
846.75	23265
846.886	23417
847.022	23315
847.158	23524
847.294	23353
847.429	23429
847.565	23551
847.701	23661
847.837	23216
847.972	23094
848.108	23216
848.244	23277
848.379	23018
848.515	23075
848.65	23041
848.786	22980
848.921	22953
849.057	23197
849.192	23022
849.328	23060
849.463	23041
849.598	22965
849.734	22976
849.869	22885
850.004	22843
850.14	22816
850.275	22706
850.41	22725
850.545	22649
850.68	22713
850.815	22717
850.95	22824
851.085	22987
851.22	22885
851.355	22782
851.49	22755
851.625	22767
851.76	22793
851.895	22721
852.03	22550
852.165	22645
852.299	22790
852.434	22805
852.569	22850
852.703	22790
852.838	22938
852.973	22881
853.107	22858
853.242	22672
853.376	22615
853.511	22436
853.645	22504
853.78	22831
853.914	22584
854.048	22557
854.183	22596
854.317	22592
854.451	22828
854.585	22672
854.72	22504
854.854	22615
854.988	22580
855.122	22615
855.256	22451
855.39	22554
855.524	22557
855.658	22725
855.792	22603
855.926	22656
856.06	22607
856.194	22725
856.327	22596
856.461	22660
856.595	22440
856.729	22493
856.862	22763
856.996	22565
857.13	22645
857.263	22679
857.397	22546
857.53	22672
857.664	22645
857.797	22592
857.931	22626
858.064	22622
858.197	22637
858.331	22569
858.464	22580
858.597	22596
858.731	22466
858.864	22523
858.997	22634
859.13	22599
859.263	22771
859.396	22675
859.529	22428
859.662	22618
859.795	22557
859.928	22645
860.061	22797
860.194	22733
860.327	22630
860.46	22622
860.592	22702
860.725	22755
860.858	22752
860.99	22592
861.123	22592
861.256	22573
861.388	22618
861.521	23372
861.653	22443
861.786	22322
861.918	22421
862.05	22424
862.183	22386
862.315	22474
862.447	22626
862.58	22497
862.712	22333
862.844	22242
862.976	22523
863.108	22303
863.24	22736
863.372	22226
863.504	22287
863.636	22257
863.768	22291
863.9	22261
864.032	22192
864.164	22238
864.296	22280
864.428	22310
864.559	22405
864.691	22394
864.823	22432
864.954	22230
865.086	22253
865.217	22303
865.349	22120
865.48	22162
865.612	22207
865.743	22318
865.875	22246
866.006	22116
866.137	22131
866.269	22200
866.4	22211
866.531	22112
866.662	22074
866.793	22082
866.924	22101
867.055	22109
867.186	22105
867.317	22048
867.448	21934
867.579	22067
867.71	22109
867.841	22048
867.972	22158
868.103	22082
868.233	22101
868.364	22139
868.495	22219
868.625	22306
868.756	22287
868.886	22196
869.017	22276
869.147	22424
869.278	22440
869.408	22375
869.539	22489
869.669	22485
869.799	22455
869.929	22459
870.06	22348
870.19	22634
870.32	22607
870.45	22717
870.58	22862
870.71	22744
870.84	22793
870.97	22675
871.1	22721
871.23	22961
871.36	22904
871.489	22839
871.619	23014
871.749	22972
871.879	23022
872.008	23083
872.138	22885
872.267	22889
872.397	22858
872.526	22763
872.656	22835
872.785	22759
872.915	22953
873.044	22987
873.173	23033
873.303	23025
873.432	23018
873.561	22999
873.69	23033
873.819	22980
873.948	22965
874.077	22946
874.206	22938
874.335	22930
874.464	23010
874.593	23166
874.722	23159
874.851	23197
874.979	23056
875.108	23220
875.237	23098
875.365	23094
875.494	23121
875.623	23242
875.751	23162
875.88	23181
876.008	23246
876.136	23379
876.265	23554
876.393	23726
876.521	23691
876.65	23623
876.778	23737
876.906	23570
877.034	23524
877.162	23577
877.29	23398
877.418	23493
877.546	23577
877.674	23501
877.802	23463
877.93	23547
878.058	23554
878.185	23356
878.313	23551
878.441	23535
878.568	23299
878.696	23455
878.824	23604
878.951	23649
879.079	23687
879.206	23824
879.333	23596
879.461	23589
879.588	23748
879.715	23649
879.842	23741
879.97	23528
880.097	23368
880.224	23452
880.351	23231
880.478	23318
880.605	23246
880.732	23284
880.859	23486
880.986	23402
881.112	23406
881.239	23212
881.366	23022
881.493	23018
881.619	22885
881.746	22869
881.872	22873
881.999	22752
882.125	22771
882.252	22908
882.378	22778
882.505	23166
882.631	22748
882.757	22588
882.883	22596
883.01	22599
883.136	22527
883.262	22405
883.388	22272
883.514	22565
883.64	22485
883.766	22447
883.892	22382
884.018	22421
884.143	22504
884.269	22546
884.395	22284
884.52	22207
884.646	22162
884.772	22185
884.897	22135
885.023	22272
885.148	22230
885.274	22295
885.399	22314
885.524	22074
885.65	22120
885.775	22177
885.9	22166
886.025	22265
886.15	22219
886.275	22128
886.4	22021
886.525	22219
886.65	22154
886.775	22166
886.9	22253
887.025	22394
887.149	22177
887.274	22124
887.399	22017
887.523	21835
887.648	22029
887.773	21892
887.897	22055
888.021	21899
888.146	21903
888.27	22120
888.395	22131
888.519	22051
888.643	22021
888.767	21953
888.891	21785
889.015	21789
889.139	21854
889.263	21789
889.387	21861
889.511	21880
889.635	21888
889.759	21785
889.883	21713
890.006	21762
890.13	21713
890.254	21644
890.377	21713
890.501	21549
890.624	21496
890.748	21496
890.871	21359
890.995	21252
891.118	21249
891.241	21340
891.364	21363
891.488	21447
891.611	21310
891.734	21321
891.857	21393
891.98	21169
892.103	21310
892.226	21291
892.349	21359
892.471	21043
892.594	21123
892.717	21260
892.839	21165
892.962	21108
893.085	21302
893.207	21268
893.33	21096
893.452	21043
893.575	21302
893.697	21119
893.819	21325
893.941	21405
894.064	21268
894.186	21169
894.308	21127
894.43	21230
894.552	21283
894.674	21169
894.796	21055
894.918	21138
895.04	21070
895.161	21203
895.283	21146
895.405	21081
895.526	21157
895.648	21074
895.769	21222
895.891	21283
896.012	21245
896.134	21310
896.255	21112
896.376	21043
896.498	21150
896.619	21264
896.74	21169
896.861	21142
896.982	21553
897.103	21690
897.224	21526
897.345	21344
897.466	21313
897.587	21359
897.708	21545
897.828	21443
897.949	21279
898.07	21157
898.19	21302
898.311	21408
898.431	21325
898.552	21306
898.672	21458
898.792	21386
898.913	21275
899.033	21195
899.153	21150
899.273	20975
899.393	21104
899.513	21127
899.633	21055
899.753	20994
899.873	20998
899.993	21161
900.113	21043
900.232	21074
900.352	20979
900.472	20948
900.591	20864
900.711	20849
900.83	20746
900.95	20937
901.069	21005
901.189	20735
901.308	20568
901.427	20313
901.546	20476
901.665	20446
901.784	20336
901.904	20286
902.023	20168
902.141	20145
902.26	19989
902.379	20008
902.498	19830
902.617	19830
902.735	19898
902.854	19909
902.973	19788
903.091	19620
903.21	19510
903.328	19605
903.446	19506
903.565	19438
903.683	19335
903.801	19240
903.919	19320
904.038	19335
904.156	19133
904.274	19194
904.392	19069
904.51	19080
904.627	19156
904.745	19217
904.863	19027
904.981	18981
905.098	18791
905.216	18673
905.334	18768
905.451	18875
905.569	18719
905.686	18791
905.803	18719
905.921	18570
906.038	18703
906.155	18604
906.272	18521
906.389	18422
906.506	18281
906.623	18376
906.74	18323
906.857	18266
906.974	18224
907.091	18350
907.208	18490
907.324	18308
907.441	18296
907.557	18045
907.674	17946
907.79	17988
907.907	18072
908.023	18011
908.139	18049
908.256	17958
908.372	17908
908.488	17931
908.604	17802
908.72	17665
908.836	17676
908.952	17668
909.068	17752
909.184	17794
909.3	17729
909.415	17722
909.531	17767
909.647	17467
909.762	17395
909.878	17486
909.993	17330
910.108	17368
910.224	17471
910.339	17334
910.454	17261
910.57	17235
910.685	17105
910.8	17425
910.915	17433
911.03	17220
911.145	17010
911.259	17010
911.374	16980
911.489	16984
911.604	16831
911.718	16725
911.833	16702
911.947	16664
912.062	16622
912.176	16778
912.291	16725
912.405	16687
912.519	16930
912.633	16919
912.748	16767
912.862	16759
912.976	16577
913.09	16348
913.204	16546
913.318	16538
913.431	16717
913.545	16736
913.659	16748
913.772	16455
913.886	16348
914	16344
914.113	16322
914.226	16478
914.34	16409
914.453	16207
914.566	16371
914.68	16295
914.793	16272
914.906	16067
915.019	15934
915.132	15793
915.245	15983
915.358	16002
915.47	15835
915.583	15854
915.696	15949
915.809	16105
915.921	15975
916.034	15854
916.146	15827
916.259	15720
916.371	15907
916.483	15873
916.595	15770
916.708	15774
916.82	15667
916.932	15739
917.044	15728
917.156	15675
917.268	15587
917.38	15572
917.491	15496
917.603	15488
917.715	15587
917.826	15618
917.938	15458
918.049	15420
918.161	15500
918.272	15625
918.384	15561
918.495	15545
918.606	15249
918.717	15150
918.828	15355
918.939	15332
919.05	15222
919.161	15272
919.272	15089
919.383	15184
919.494	15332
919.604	15481
919.715	15252
919.826	15081
919.936	15275
920.047	15241
920.157	15203
920.267	15450
920.378	15241
920.488	15230
920.598	15469
920.708	15576
920.818	15382
920.928	15393
921.038	15454
921.148	15450
921.258	15135
921.368	15119
921.477	14948
921.587	14971
921.697	14880
921.806	14933
921.916	14792
922.025	14617
922.134	14617
922.244	14552
922.353	14636
922.462	14507
922.571	14469
922.68	14263
922.789	14183
922.898	14259
923.007	14073
923.116	14191
923.224	14145
923.333	14134
923.442	14180
923.55	13970
923.659	13997
923.767	14069
923.876	14058
923.984	14016
924.092	13845
924.201	13982
924.309	13947
924.417	13955
924.525	13833
924.633	13818
924.741	14640
924.849	13658
924.956	13761
925.064	13696
925.172	13677
925.279	13540
925.387	13670
925.494	13689
925.602	13719
925.709	13578
925.816	13476
925.924	13506
926.031	13514
926.138	13525
926.245	13521
926.352	13407
926.459	13487
926.566	13632
926.673	13499
926.779	13377
926.886	13304
926.993	13240
927.099	13179
927.206	13080
927.312	13126
927.419	13152
927.525	13126
927.631	13103
927.737	12993
927.843	13015
927.95	12802
928.056	12924
928.162	12954
928.267	12981
928.373	13616
928.479	13057
928.585	12726
928.69	12867
928.796	12939
928.901	12791
929.007	12715
929.112	12848
929.218	12814
929.323	12669
929.428	12692
929.533	12852
929.638	12631
929.743	12578
929.848	12654
929.953	12662
930.058	12494
930.163	12292
930.267	12369
930.372	12418
930.477	12311
930.581	12551
930.685	12346
930.79	12194
930.894	12243
930.998	12190
931.103	12334
931.207	11954
931.311	11832
931.415	11832
931.519	11611
931.623	11490
