Data from test_V78500241_3336.txt Node
Date: Fri Mar 25 16:04:54 CST 2022
User: usil
Spectrometer: V785-0024
Trigger mode: 0
Integration Time (sec): 4.000000E-1
Scans to average: 1
Nonlinearity correction enabled: false
Boxcar width: 0
Storing dark spectrum: false
XAxis mode: Wavelengths
Number of Pixels in Spectrum: 1024
>>>>>Begin Spectral Data<<<<<
801.071	28713
801.214	28615
801.356	28379
801.499	28497
801.641	28261
801.783	28421
801.926	28348
802.068	28272
802.211	28226
802.353	28188
802.496	28188
802.638	28135
802.78	28029
802.923	28032
803.065	27983
803.208	27930
803.35	28051
803.492	28185
803.635	28299
803.777	28135
803.919	28242
804.061	28683
804.204	28375
804.346	28177
804.488	28188
804.63	28131
804.773	28105
804.915	28223
805.057	28428
805.199	28200
805.341	28371
805.483	28428
805.626	28421
805.768	28306
805.91	28375
806.052	28424
806.194	28367
806.336	28531
806.478	28588
806.62	28337
806.762	28478
806.904	28679
807.046	28980
807.188	28930
807.33	28866
807.472	28881
807.614	28873
807.756	28786
807.898	28672
808.04	28645
808.182	28599
808.324	28668
808.465	28771
808.607	28965
808.749	29136
808.891	29121
809.033	29307
809.174	29075
809.316	29098
809.458	29121
809.6	29109
809.741	29292
809.883	29170
810.025	29349
810.166	29478
810.308	29356
810.45	29303
810.591	29326
810.733	29185
810.875	29102
811.016	29041
811.158	28946
811.299	29208
811.441	29239
811.582	29318
811.724	29109
811.865	29102
812.007	29185
812.148	29166
812.29	29052
812.431	29273
812.573	29520
812.714	29570
812.855	29539
812.997	29691
813.138	29798
813.279	29570
813.421	29649
813.562	29482
813.703	29467
813.845	29326
813.986	29094
814.127	28942
814.268	28900
814.41	28850
814.551	28843
814.692	28949
814.833	28767
814.974	28763
815.115	28752
815.256	28771
815.397	28733
815.539	28660
815.68	28592
815.821	28649
815.962	28607
816.103	28683
816.244	28462
816.385	28440
816.526	28276
816.666	28257
816.807	28048
816.948	28154
817.089	28318
817.23	28135
817.371	28287
817.512	28010
817.653	28063
817.793	27979
817.934	28200
818.075	28124
818.216	28276
818.356	27994
818.497	28090
818.638	27781
818.778	27880
818.919	27960
819.06	27964
819.2	28131
819.341	27968
819.481	28143
819.622	28238
819.762	28497
819.903	28401
820.043	28337
820.184	28249
820.324	28310
820.465	28413
820.605	28348
820.746	28325
820.886	28188
821.026	28219
821.167	28249
821.307	28333
821.447	28200
821.588	28044
821.728	28051
821.868	27861
822.008	27648
822.149	27644
822.289	27561
822.429	27340
822.569	27450
822.709	27310
822.849	27112
822.99	27272
823.13	27237
823.27	27058
823.41	26952
823.55	26933
823.69	27001
823.83	27089
823.97	26975
824.11	26727
824.25	26762
824.389	26800
824.529	26880
824.669	26781
824.809	26902
824.949	27005
825.089	27005
825.228	26899
825.368	26659
825.508	26895
825.648	26705
825.787	26811
825.927	26724
826.067	26564
826.206	26796
826.346	26796
826.485	26804
826.625	26667
826.765	26944
826.904	26819
827.044	26530
827.183	26507
827.323	26412
827.462	26526
827.601	26412
827.741	26522
827.88	26537
828.02	26400
828.159	26324
828.298	26355
828.437	26488
828.577	26412
828.716	26461
828.855	26336
828.994	26214
829.134	26100
829.273	26081
829.412	26077
829.551	25963
829.69	25955
829.829	26134
829.968	26168
830.107	26161
830.246	26043
830.385	25947
830.524	26107
830.663	26081
830.802	25803
830.941	25772
831.08	25662
831.219	25890
831.357	25860
831.496	25966
831.635	25597
831.774	25681
831.913	25548
832.051	25472
832.19	25495
832.329	25510
832.467	25346
832.606	25270
832.744	25251
832.883	25339
833.022	25285
833.16	25388
833.299	25415
833.437	25403
833.576	25445
833.714	25464
833.852	25518
833.991	25632
834.129	25590
834.267	25529
834.406	25400
834.544	25506
834.682	25464
834.821	25403
834.959	25723
835.097	25449
835.235	25381
835.373	25365
835.511	25377
835.65	25316
835.788	25266
835.926	25198
836.064	25076
836.202	25057
836.34	25255
836.478	25403
836.615	25217
836.753	25259
836.891	25445
837.029	25282
837.167	25156
837.305	25225
837.443	25118
837.58	24996
837.718	25350
837.856	25126
837.993	25042
838.131	25057
838.269	25019
838.406	25076
838.544	24859
838.681	24848
838.819	24768
838.956	24559
839.094	24604
839.231	24593
839.369	24768
839.506	25019
839.643	24730
839.781	24540
839.918	24483
840.055	24509
840.193	24388
840.33	24521
840.467	24547
840.604	24536
840.742	24760
840.879	24353
841.016	24429
841.153	24445
841.29	24479
841.427	24426
841.564	24452
841.701	24426
841.838	24403
841.975	24479
842.112	24372
842.249	24414
842.385	24327
842.522	24475
842.659	24323
842.796	24197
842.933	24178
843.069	24197
843.206	24163
843.343	24216
843.479	24190
843.616	24201
843.752	23931
843.889	24057
844.025	24125
844.162	23973
844.298	24201
844.435	24018
844.571	23840
844.708	24064
844.844	24133
844.98	24152
845.117	24182
845.253	24030
845.389	23942
845.525	23878
845.661	23855
845.798	23729
845.934	23760
846.07	23764
846.206	23771
846.342	23828
846.478	23661
846.614	23421
846.75	23440
846.886	23471
847.022	23410
847.158	23596
847.294	23474
847.429	23471
847.565	23471
847.701	23672
847.837	23189
847.972	23155
848.108	23341
848.244	23159
848.379	23003
848.515	23105
848.65	22934
848.786	23060
848.921	23200
849.057	23132
849.192	23143
849.328	23170
849.463	23033
849.598	22980
849.734	22835
849.869	22938
850.004	22763
850.14	22824
850.275	22904
850.41	22778
850.545	22889
850.68	22847
850.815	22854
850.95	22824
851.085	22938
851.22	22953
851.355	22847
851.49	22790
851.625	22733
851.76	22843
851.895	22721
852.03	22713
852.165	22831
852.299	22694
852.434	22911
852.569	22930
852.703	22782
852.838	22786
852.973	22949
853.107	22965
853.242	22831
853.376	22607
853.511	22596
853.645	22542
853.78	22637
853.914	22538
854.048	22622
854.183	22573
854.317	22702
854.451	22809
854.585	22588
854.72	22634
854.854	22672
854.988	22557
855.122	22615
855.256	22440
855.39	22637
855.524	22550
855.658	22580
855.792	22729
855.926	22626
856.06	22626
856.194	22698
856.327	22577
856.461	22675
856.595	22588
856.729	22599
856.862	22721
856.996	22683
857.13	22664
857.263	22733
857.397	22649
857.53	22706
857.664	22626
857.797	22653
857.931	22805
858.064	22656
858.197	22759
858.331	22653
858.464	22596
858.597	22622
858.731	22538
858.864	22523
858.997	22538
859.13	22668
859.263	22649
859.396	22683
859.529	22668
859.662	22649
859.795	22421
859.928	22763
860.061	22771
860.194	22908
860.327	22470
860.46	22660
860.592	22679
860.725	22820
860.858	22850
860.99	22607
861.123	22626
861.256	22497
861.388	22634
861.521	23277
861.653	22489
861.786	22478
861.918	22451
862.05	22554
862.183	22584
862.315	22660
862.447	22675
862.58	22519
862.712	22337
862.844	22280
862.976	22466
863.108	22485
863.24	22850
863.372	22242
863.504	22352
863.636	22341
863.768	22413
863.9	22333
864.032	22249
864.164	22371
864.296	22360
864.428	22402
864.559	22333
864.691	22402
864.823	22284
864.954	22329
865.086	22371
865.217	22177
865.349	22192
865.48	22207
865.612	22166
865.743	22280
865.875	22135
866.006	22299
866.137	22200
866.269	22268
866.4	22154
866.531	22067
866.662	22055
866.793	22154
866.924	22196
867.055	22169
867.186	22204
867.317	22082
867.448	22109
867.579	22131
867.71	22059
867.841	22082
867.972	22013
868.103	22112
868.233	22101
868.364	22131
868.495	22223
868.625	22394
868.756	22531
868.886	22318
869.017	22230
869.147	22402
869.278	22504
869.408	22405
869.539	22428
869.669	22447
869.799	22394
869.929	22535
870.06	22519
870.19	22702
870.32	22733
870.45	22740
870.58	22691
870.71	22866
870.84	22911
870.97	22831
871.1	22782
871.23	23003
871.36	22923
871.489	22831
871.619	22949
871.749	22877
871.879	22908
872.008	23128
872.138	22957
872.267	22991
872.397	22908
872.526	22733
872.656	22923
872.785	22866
872.915	23037
873.044	22972
873.173	22965
873.303	23014
873.432	23029
873.561	23037
873.69	23064
873.819	22999
873.948	23113
874.077	22987
874.206	22885
874.335	22999
874.464	23064
874.593	23159
874.722	23098
874.851	23311
874.979	23311
875.108	23307
875.237	23174
875.365	23102
875.494	23136
875.623	23246
875.751	23216
875.88	23200
876.008	23345
876.136	23368
876.265	23554
876.393	23638
876.521	23634
876.65	23691
876.778	23585
876.906	23505
877.034	23524
877.162	23634
877.29	23539
877.418	23509
877.546	23581
877.674	23524
877.802	23467
877.93	23414
878.058	23535
878.185	23440
878.313	23383
878.441	23490
878.568	23334
878.696	23478
878.824	23634
878.951	23471
879.079	23642
879.206	23843
879.333	23665
879.461	23619
879.588	23653
879.715	23581
879.842	23832
879.97	23551
880.097	23330
880.224	23303
880.351	23429
880.478	23486
880.605	23197
880.732	23341
880.859	23630
880.986	23440
881.112	23265
881.239	23307
881.366	23124
881.493	22923
881.619	22854
881.746	22858
881.872	22976
881.999	22839
882.125	22889
882.252	22995
882.378	22752
882.505	23071
882.631	22694
882.757	22577
882.883	22584
883.01	22584
883.136	22542
883.262	22440
883.388	22455
883.514	22573
883.64	22531
883.766	22557
883.892	22398
884.018	22379
884.143	22573
884.269	22508
884.395	22310
884.52	22219
884.646	22230
884.772	22181
884.897	22116
885.023	22200
885.148	22363
885.274	22333
885.399	22352
885.524	22230
885.65	22287
885.775	22261
885.9	22120
886.025	22348
886.15	22280
886.275	22139
886.4	22093
886.525	22192
886.65	22128
886.775	22230
886.9	22246
887.025	22440
887.149	22169
887.274	21991
887.399	22051
887.523	21968
887.648	22006
887.773	21793
887.897	22078
888.021	22036
888.146	21880
888.27	22070
888.395	22025
888.519	22082
888.643	22059
888.767	22070
888.891	21808
889.015	21797
889.139	21781
889.263	21705
889.387	21804
889.511	22021
889.635	21934
889.759	21759
889.883	21835
890.006	21728
890.13	21899
890.254	21671
890.377	21690
890.501	21450
890.624	21481
890.748	21542
890.871	21359
890.995	21252
891.118	21329
891.241	21408
891.364	21336
891.488	21443
891.611	21249
891.734	21279
891.857	21329
891.98	21245
892.103	21363
892.226	21355
892.349	21226
892.471	21241
892.594	21367
892.717	21252
892.839	21211
892.962	21260
893.085	21138
893.207	21154
893.33	21093
893.452	21116
893.575	21169
893.697	21165
893.819	21397
893.941	21462
894.064	21203
894.186	21047
894.308	21195
894.43	21260
894.552	21325
894.674	21203
894.796	21157
894.918	21264
895.04	21135
895.161	21348
895.283	21176
895.405	21176
895.526	21241
895.648	21138
895.769	21096
895.891	21112
896.012	21188
896.134	21211
896.255	21192
896.376	21161
896.498	21119
896.619	21268
896.74	21249
896.861	21287
896.982	21462
897.103	21679
897.224	21443
897.345	21382
897.466	21355
897.587	21370
897.708	21496
897.828	21439
897.949	21332
898.07	21214
898.19	21344
898.311	21424
898.431	21264
898.552	21469
898.672	21378
898.792	21306
898.913	21298
899.033	21138
899.153	21245
899.273	21055
899.393	21085
899.513	21116
899.633	21074
899.753	21096
899.873	20998
899.993	21119
900.113	20914
900.232	21001
900.352	21013
900.472	20899
900.591	20845
900.711	20967
900.83	20830
900.95	20925
901.069	20910
901.189	20811
901.308	20556
901.427	20442
901.546	20419
901.665	20431
901.784	20442
901.904	20202
902.023	20103
902.141	20115
902.26	19997
902.379	20290
902.498	19986
902.617	19917
902.735	19913
902.854	19913
902.973	19845
903.091	19597
903.21	19502
903.328	19533
903.446	19597
903.565	19392
903.683	19438
903.801	19232
903.919	19324
904.038	19259
904.156	19209
904.274	19266
904.392	19126
904.51	19072
904.627	19164
904.745	19168
904.863	19304
904.981	18863
905.098	18840
905.216	18867
905.334	18924
905.451	18833
905.569	18810
905.686	18837
905.803	18825
905.921	18574
906.038	18620
906.155	18620
906.272	18517
906.389	18490
906.506	18418
906.623	18445
906.74	18380
906.857	18205
906.974	18319
907.091	18448
907.208	18448
907.324	18452
907.441	18391
907.557	18060
907.674	18064
907.79	17977
907.907	18091
908.023	18182
908.139	18030
908.256	17965
908.372	17939
908.488	17897
908.604	17775
908.72	17794
908.836	17767
908.952	17699
909.068	17836
909.184	17794
909.3	17783
909.415	17760
909.531	17786
909.647	17486
909.762	17368
909.878	17406
909.993	17471
910.108	17448
910.224	17349
910.339	17467
910.454	17455
910.57	17189
910.685	17181
910.8	17493
910.915	17436
911.03	17303
911.145	17174
911.259	17029
911.374	17018
911.489	16957
911.604	16968
911.718	16850
911.833	16771
911.947	16683
912.062	16717
912.176	16706
912.291	16816
912.405	16755
912.519	16987
912.633	16919
912.748	16733
912.862	16736
912.976	16603
913.09	16470
913.204	16596
913.318	16656
913.431	16641
913.545	16683
913.659	16618
913.772	16519
913.886	16550
914	16417
914.113	16478
914.226	16481
914.34	16398
914.453	16246
914.566	16348
914.68	16295
914.793	16295
914.906	15972
915.019	15979
915.132	15922
915.245	15911
915.358	15991
915.47	15983
915.583	15972
915.696	15964
915.809	16048
915.921	16051
916.034	15998
916.146	15846
916.259	15876
916.371	15987
916.483	15865
916.595	15766
916.708	15762
916.82	15720
916.932	15709
917.044	15701
917.156	15747
917.268	15526
917.38	15568
917.491	15439
917.603	15603
917.715	15595
917.826	15610
917.938	15454
918.049	15397
918.161	15553
918.272	15553
918.384	15667
918.495	15496
918.606	15344
918.717	15275
918.828	15355
918.939	15393
919.05	15264
919.161	15325
919.272	15077
919.383	15173
919.494	15268
919.604	15515
919.715	15351
919.826	15195
919.936	15199
920.047	15287
920.157	15260
920.267	15496
920.378	15264
920.488	15154
920.598	15439
920.708	15564
920.818	15397
920.928	15294
921.038	15515
921.148	15496
921.258	15230
921.368	15070
921.477	15058
921.587	14956
921.697	14925
921.806	15017
921.916	14777
922.025	14689
922.134	14621
922.244	14613
922.353	14457
922.462	14552
922.571	14366
922.68	14351
922.789	14313
922.898	14180
923.007	14263
923.116	14328
923.224	14221
923.333	14248
923.442	14050
923.55	14065
923.659	14176
923.767	14062
923.876	14008
923.984	14145
924.092	14043
924.201	14027
924.309	13978
924.417	13944
924.525	13811
924.633	13940
924.741	14765
924.849	13799
924.956	13830
925.064	13731
925.172	13506
925.279	13601
925.387	13616
925.494	13651
925.602	13784
925.709	13582
925.816	13514
925.924	13483
926.031	13658
926.138	13616
926.245	13620
926.352	13472
926.459	13544
926.566	13544
926.673	13480
926.779	13324
926.886	13350
926.993	13274
927.099	13183
927.206	13095
927.312	13209
927.419	13137
927.525	13187
927.631	13206
927.737	12981
927.843	13004
927.95	12909
928.056	13000
928.162	12966
928.267	12962
928.373	13529
928.479	13057
928.585	12894
928.69	13046
928.796	12928
928.901	12867
929.007	12760
929.112	12783
929.218	12749
929.323	12703
929.428	12623
929.533	12692
929.638	12525
929.743	12665
929.848	12681
929.953	12635
930.058	12544
930.163	12395
930.267	12407
930.372	12452
930.477	12254
930.581	12521
930.685	12330
930.79	12201
930.894	12209
930.998	12220
931.103	12380
931.207	11980
931.311	11927
931.415	11847
931.519	11665
931.623	11649
