Data from test_V78500241_203.txt Node
Date: Fri Mar 25 15:43:12 CST 2022
User: usil
Spectrometer: V785-0024
Trigger mode: 0
Integration Time (sec): 4.000000E-1
Scans to average: 1
Nonlinearity correction enabled: false
Boxcar width: 0
Storing dark spectrum: false
XAxis mode: Wavelengths
Number of Pixels in Spectrum: 1024
>>>>>Begin Spectral Data<<<<<
801.071	29292
801.214	29318
801.356	29056
801.499	28984
801.641	28854
801.783	28927
801.926	28805
802.068	28850
802.211	28805
802.353	28755
802.496	28413
802.638	28493
802.78	28344
802.923	28405
803.065	28394
803.208	28401
803.35	28451
803.492	28607
803.635	28622
803.777	28405
803.919	28550
804.061	28934
804.204	28588
804.346	28375
804.488	28424
804.63	28481
804.773	28204
804.915	28462
805.057	28554
805.199	28474
805.341	28478
805.483	28527
805.626	28618
805.768	28542
805.91	28565
806.052	28687
806.194	28607
806.336	28793
806.478	28816
806.62	28630
806.762	28717
806.904	29006
807.046	29200
807.188	28927
807.33	28957
807.472	28980
807.614	28972
807.756	28976
807.898	28828
808.04	28713
808.182	28824
808.324	28847
808.465	28755
808.607	28976
808.749	29086
808.891	29178
809.033	29402
809.174	29269
809.316	29204
809.458	29185
809.6	29151
809.741	29250
809.883	29360
810.025	29482
810.166	29440
810.308	29429
810.45	29269
810.591	29414
810.733	29307
810.875	29029
811.016	28999
811.158	29136
811.299	29349
811.441	29474
811.582	29273
811.724	29140
811.865	29197
812.007	29064
812.148	29162
812.29	29212
812.431	29273
812.573	29398
812.714	29573
812.855	29474
812.997	29642
813.138	29901
813.279	29638
813.421	29604
813.562	29642
813.703	29440
813.845	29318
813.986	28991
814.127	28793
814.268	28923
814.41	28740
814.551	28767
814.692	28828
814.833	28702
814.974	28668
815.115	28713
815.256	28557
815.397	28554
815.539	28691
815.68	28599
815.821	28489
815.962	28607
816.103	28538
816.244	28249
816.385	28166
816.526	28284
816.666	28109
816.807	27895
816.948	28013
817.089	28139
817.23	28017
817.371	27922
817.512	27937
817.653	27903
817.793	27972
817.934	27899
818.075	28025
818.216	27953
818.356	27831
818.497	27732
818.638	27686
818.778	27679
818.919	27542
819.06	27705
819.2	27724
819.341	27827
819.481	27800
819.622	28086
819.762	28139
819.903	28116
820.043	28025
820.184	27934
820.324	27964
820.465	27949
820.605	28105
820.746	27918
820.886	27804
821.026	27895
821.167	27854
821.307	27983
821.447	27865
821.588	27789
821.728	27561
821.868	27481
822.008	27157
822.149	27233
822.289	27154
822.429	26971
822.569	26834
822.709	26998
822.849	26792
822.99	26823
823.13	26727
823.27	26697
823.41	26431
823.55	26408
823.69	26404
823.83	26503
823.97	26461
824.11	26404
824.25	26419
824.389	26214
824.529	26469
824.669	26317
824.809	26347
824.949	26301
825.089	26446
825.228	26324
825.368	26119
825.508	26157
825.648	26134
825.787	26267
825.927	26115
826.067	26100
826.206	26183
826.346	26218
826.485	26187
826.625	26153
826.765	26271
826.904	26233
827.044	25993
827.183	25906
827.323	25833
827.462	25772
827.601	25708
827.741	25780
827.88	25940
828.02	25662
828.159	25746
828.298	25833
828.437	25963
828.577	25715
828.716	25887
828.855	25723
828.994	25529
829.134	25506
829.273	25552
829.412	25476
829.551	25331
829.69	25525
829.829	25438
829.968	25567
830.107	25354
830.246	25384
830.385	25502
830.524	25373
830.663	25118
830.802	25236
830.941	24970
831.08	24943
831.219	25240
831.357	25095
831.496	25244
831.635	24875
831.774	25019
831.913	24886
832.051	24897
832.19	24920
832.329	24772
832.467	24661
832.606	24623
832.744	24696
832.883	24673
833.022	24471
833.16	24658
833.299	24768
833.437	24661
833.576	24719
833.714	24601
833.852	24707
833.991	24669
834.129	24722
834.267	24768
834.406	24620
834.544	24673
834.682	24791
834.821	24700
834.959	24814
835.097	24555
835.235	24783
835.373	24623
835.511	24700
835.65	24616
835.788	24513
835.926	24353
836.064	24384
836.202	24281
836.34	24525
836.478	24631
836.615	24525
836.753	24384
836.891	24475
837.029	24414
837.167	24448
837.305	24399
837.443	24395
837.58	24407
837.718	24448
837.856	24304
837.993	24235
838.131	24445
838.269	24167
838.406	24087
838.544	24053
838.681	23855
838.819	23923
838.956	23779
839.094	23745
839.231	23745
839.369	23935
839.506	24174
839.643	24026
839.781	23707
839.918	23649
840.055	23676
840.193	23733
840.33	23589
840.467	23726
840.604	23779
840.742	23939
840.879	23543
841.016	23585
841.153	23509
841.29	23726
841.427	23589
841.564	23531
841.701	23611
841.838	23551
841.975	23440
842.112	23486
842.249	23459
842.385	23277
842.522	23615
842.659	23493
842.796	23296
842.933	23345
843.069	23242
843.206	23258
843.343	23349
843.479	23299
843.616	23151
843.752	23105
843.889	23029
844.025	23155
844.162	23162
844.298	23174
844.435	22934
844.571	23033
844.708	23147
844.844	23231
844.98	23162
845.117	23208
845.253	23022
845.389	22877
845.525	22824
845.661	23010
845.798	22752
845.934	22744
846.07	22759
846.206	22736
846.342	22923
846.478	22805
846.614	22561
846.75	22367
846.886	22542
847.022	22440
847.158	22497
847.294	22523
847.429	22519
847.565	22474
847.701	22702
847.837	22280
847.972	22284
848.108	22177
848.244	22318
848.379	22074
848.515	22173
848.65	22070
848.786	22154
848.921	22120
849.057	22242
849.192	22162
849.328	22078
849.463	21979
849.598	22017
849.734	21941
849.869	21850
850.004	21800
850.14	21797
850.275	21842
850.41	21739
850.545	21793
850.68	21831
850.815	21637
850.95	21800
851.085	21937
851.22	21907
851.355	21720
851.49	21785
851.625	21827
851.76	21861
851.895	21717
852.03	21675
852.165	21804
852.299	21755
852.434	21880
852.569	21816
852.703	21789
852.838	21945
852.973	21945
853.107	21892
853.242	21694
853.376	21633
853.511	21462
853.645	21660
853.78	21713
853.914	21701
854.048	21587
854.183	21587
854.317	21545
854.451	21827
854.585	21622
854.72	21629
854.854	21652
854.988	21496
855.122	21622
855.256	21458
855.39	21496
855.524	21572
855.658	21504
855.792	21542
855.926	21698
856.06	21717
856.194	21690
856.327	21504
856.461	21534
856.595	21488
856.729	21500
856.862	21637
856.996	21618
857.13	21599
857.263	21637
857.397	21633
857.53	21637
857.664	21591
857.797	21755
857.931	21572
858.064	21720
858.197	21625
858.331	21553
858.464	21469
858.597	21473
858.731	21526
858.864	21469
858.997	21496
859.13	21511
859.263	21542
859.396	21671
859.529	21504
859.662	21374
859.795	21504
859.928	21496
860.061	21675
860.194	21686
860.327	21641
860.46	21458
860.592	21542
860.725	21705
860.858	21580
860.99	21405
861.123	21412
861.256	21374
861.388	21401
861.521	22181
861.653	21344
861.786	21382
861.918	21428
862.05	21359
862.183	21477
862.315	21439
862.447	21473
862.58	21462
862.712	21256
862.844	21199
862.976	21298
863.108	21268
863.24	21622
863.372	21096
863.504	21268
863.636	21108
863.768	21252
863.9	21096
864.032	21142
864.164	21195
864.296	21146
864.428	21279
864.559	21355
864.691	21359
864.823	21173
864.954	21226
865.086	21237
865.217	21074
865.349	20895
865.48	21192
865.612	21001
865.743	21245
865.875	21161
866.006	21093
866.137	21077
866.269	21123
866.4	21074
866.531	21062
866.662	21055
866.793	21005
866.924	21062
867.055	20979
867.186	21013
867.317	20933
867.448	20975
867.579	20944
867.71	20925
867.841	20864
867.972	21127
868.103	21047
868.233	21017
868.364	21009
868.495	21100
868.625	21184
868.756	21359
868.886	21237
869.017	21165
869.147	21359
869.278	21279
869.408	21306
869.539	21176
869.669	21306
869.799	21211
869.929	21306
870.06	21329
870.19	21603
870.32	21557
870.45	21515
870.58	21720
870.71	21728
870.84	21800
870.97	21519
871.1	21618
871.23	21755
871.36	21808
871.489	21785
871.619	21960
871.749	21823
871.879	21865
872.008	21937
872.138	21774
872.267	21915
872.397	21720
872.526	21679
872.656	21637
872.785	21644
872.915	21823
873.044	21937
873.173	21816
873.303	21964
873.432	21899
873.561	21941
873.69	21873
873.819	21816
873.948	21968
874.077	21854
874.206	21857
874.335	21960
874.464	21937
874.593	22105
874.722	21960
874.851	22044
874.979	22124
875.108	22025
875.237	21968
875.365	22055
875.494	22063
875.623	22207
875.751	21968
875.88	22078
876.008	22268
876.136	22314
876.265	22356
876.393	22531
876.521	22664
876.65	22527
876.778	22443
876.906	22485
877.034	22462
877.162	22493
877.29	22329
877.418	22432
877.546	22451
877.674	22497
877.802	22249
877.93	22485
878.058	22310
878.185	22230
878.313	22356
878.441	22352
878.568	22219
878.696	22371
878.824	22451
878.951	22462
879.079	22535
879.206	22778
879.333	22596
879.461	22367
879.588	22599
879.715	22618
879.842	22748
879.97	22516
880.097	22398
880.224	22181
880.351	22284
880.478	22325
880.605	22246
880.732	22287
880.859	22519
880.986	22287
881.112	22234
881.239	22169
881.366	22017
881.493	21941
881.619	21698
881.746	21850
881.872	21842
881.999	21819
882.125	21793
882.252	21934
882.378	21941
882.505	21922
882.631	21759
882.757	21545
882.883	21709
883.01	21603
883.136	21481
883.262	21481
883.388	21473
883.514	21572
883.64	21549
883.766	21473
883.892	21367
884.018	21325
884.143	21526
884.269	21656
884.395	21260
884.52	21249
884.646	21245
884.772	21146
884.897	20994
885.023	21294
885.148	21245
885.274	21382
885.399	21298
885.524	21119
885.65	21161
885.775	21207
885.9	21199
886.025	21363
886.15	21336
886.275	21173
886.4	21081
886.525	21180
886.65	21104
886.775	21142
886.9	21245
887.025	21302
887.149	21081
887.274	20864
887.399	21017
887.523	20967
887.648	20876
887.773	20819
887.897	21039
888.021	21032
888.146	20925
888.27	20986
888.395	21066
888.519	21028
888.643	20887
888.767	20986
888.891	20868
889.015	20819
889.139	20830
889.263	20735
889.387	20830
889.511	20891
889.635	20918
889.759	20648
889.883	20571
890.006	20644
890.13	20644
890.254	20537
890.377	20674
890.501	20507
890.624	20457
890.748	20488
890.871	20423
890.995	20259
891.118	20343
891.241	20221
891.364	20259
891.488	20393
891.611	20286
891.734	20301
891.857	20434
891.98	20309
892.103	20294
892.226	20324
892.349	20229
892.471	20130
892.594	20271
892.717	20233
892.839	20168
892.962	20221
893.085	20218
893.207	20202
893.33	20092
893.452	20062
893.575	20271
893.697	20244
893.819	20229
893.941	20343
894.064	20187
894.186	20103
894.308	20145
894.43	20195
894.552	20305
894.674	20286
894.796	20111
894.918	20122
895.04	20130
895.161	20225
895.283	20221
895.405	20054
895.526	20256
895.648	20259
895.769	20145
895.891	20237
896.012	20195
896.134	20221
896.255	20149
896.376	20176
896.498	20168
896.619	20126
896.74	20298
896.861	20355
896.982	20602
897.103	20693
897.224	20526
897.345	20606
897.466	20389
897.587	20480
897.708	20541
897.828	20427
897.949	20282
898.07	20286
898.19	20431
898.311	20396
898.431	20408
898.552	20442
898.672	20484
898.792	20530
898.913	20492
899.033	20301
899.153	20229
899.273	20035
899.393	20054
899.513	20214
899.633	20214
899.753	20195
899.873	19989
899.993	20142
900.113	20126
900.232	20092
900.352	20050
900.472	19967
900.591	19837
900.711	19887
900.83	19959
900.95	20058
901.069	19986
901.189	19750
901.308	19620
901.427	19426
901.546	19552
901.665	19556
901.784	19556
901.904	19362
902.023	19255
902.141	19103
902.26	19080
902.379	19042
902.498	19034
902.617	18928
902.735	18962
902.854	18989
902.973	18806
903.091	18673
903.21	18620
903.328	18639
903.446	18574
903.565	18574
903.683	18437
903.801	18372
903.919	18441
904.038	18460
904.156	18205
904.274	18361
904.392	18292
904.51	18251
904.627	18133
904.745	18289
904.863	18273
904.981	17984
905.098	17916
905.216	17874
905.334	17897
905.451	17817
905.569	17893
905.686	17794
905.803	17878
905.921	17760
906.038	17722
906.155	17668
906.272	17532
906.389	17611
906.506	17406
906.623	17395
906.74	17330
906.857	17258
906.974	17318
907.091	17433
907.208	17505
907.324	17406
907.441	17185
907.557	17109
907.674	17094
907.79	17018
907.907	17060
908.023	17170
908.139	17022
908.256	16946
908.372	16889
908.488	16984
908.604	16862
908.72	16725
908.836	16725
908.952	16740
909.068	16660
909.184	16809
909.3	16790
909.415	16797
909.531	16725
909.647	16481
909.762	16451
909.878	16474
909.993	16508
910.108	16409
910.224	16417
910.339	16440
910.454	16348
910.57	16200
910.685	16128
910.8	16394
910.915	16417
911.03	16246
911.145	16131
911.259	15979
911.374	15998
911.489	15937
911.604	15960
911.718	15679
911.833	15819
911.947	15789
912.062	15614
912.176	15759
912.291	15926
912.405	15876
912.519	15983
912.633	15964
912.748	15781
912.862	15793
912.976	15641
913.09	15492
913.204	15587
913.318	15549
913.431	15686
913.545	15713
913.659	15747
913.772	15428
913.886	15420
914	15405
914.113	15538
914.226	15519
914.34	15435
914.453	15313
914.566	15401
914.68	15321
914.793	15230
914.906	15062
915.019	15028
915.132	14952
915.245	15032
915.358	15074
915.47	15077
915.583	14929
915.696	15146
915.809	15127
915.921	15161
916.034	14979
916.146	14876
916.259	14895
916.371	14994
916.483	14902
916.595	14899
916.708	14910
916.82	14834
916.932	14743
917.044	14826
917.156	14826
917.268	14705
917.38	14674
917.491	14636
917.603	14758
917.715	14659
917.826	14648
917.938	14693
918.049	14583
918.161	14575
918.272	14811
918.384	14796
918.495	14625
918.606	14564
918.717	14362
918.828	14507
918.939	14526
919.05	14244
919.161	14469
919.272	14210
919.383	14233
919.494	14381
919.604	14530
919.715	14377
919.826	14317
919.936	14355
920.047	14511
920.157	14370
920.267	14648
920.378	14427
920.488	14301
920.598	14480
920.708	14785
920.818	14400
920.928	14476
921.038	14686
921.148	14610
921.258	14336
921.368	14233
921.477	14126
921.587	14092
921.697	13955
921.806	14111
921.916	13944
922.025	13742
922.134	13791
922.244	13689
922.353	13871
922.462	13582
922.571	13605
922.68	13499
922.789	13354
922.898	13381
923.007	13388
923.116	13487
923.224	13316
923.333	13339
923.442	13263
923.55	13160
923.659	13145
923.767	13259
923.876	13228
923.984	13209
924.092	13156
924.201	13141
924.309	13232
924.417	13126
924.525	13050
924.633	13095
924.741	13841
924.849	12829
924.956	12954
925.064	12791
925.172	12859
925.279	12787
925.387	12787
925.494	12829
925.602	12859
925.709	12852
925.816	12623
925.924	12730
926.031	12825
926.138	12749
926.245	12817
926.352	12593
926.459	12806
926.566	12905
926.673	12642
926.779	12566
926.886	12536
926.993	12464
927.099	12407
927.206	12308
927.312	12296
927.419	12418
927.525	12281
927.631	12452
927.737	12281
927.843	12224
927.95	12117
928.056	12167
928.162	12258
928.267	12247
928.373	12875
928.479	12376
928.585	12038
928.69	12087
928.796	12201
928.901	12015
929.007	11912
929.112	12068
929.218	12045
929.323	11920
929.428	11866
929.533	11923
929.638	11870
929.743	11904
929.848	11882
929.953	11855
930.058	11771
930.163	11562
930.267	11611
930.372	11745
930.477	11543
930.581	11840
930.685	11688
930.79	11463
930.894	11532
930.998	11440
931.103	11592
931.207	11239
931.311	11140
931.415	11102
931.519	10877
931.623	10847
