Data from test_V78500241_2861.txt Node
Date: Fri Mar 25 16:01:37 CST 2022
User: usil
Spectrometer: V785-0024
Trigger mode: 0
Integration Time (sec): 4.000000E-1
Scans to average: 1
Nonlinearity correction enabled: false
Boxcar width: 0
Storing dark spectrum: false
XAxis mode: Wavelengths
Number of Pixels in Spectrum: 1024
>>>>>Begin Spectral Data<<<<<
801.071	29216
801.214	29064
801.356	28938
801.499	28744
801.641	28786
801.783	28790
801.926	28748
802.068	28702
802.211	28523
802.353	28603
802.496	28440
802.638	28443
802.78	28352
802.923	28318
803.065	28226
803.208	28401
803.35	28303
803.492	28557
803.635	28649
803.777	28398
803.919	28573
804.061	28930
804.204	28694
804.346	28698
804.488	28645
804.63	28561
804.773	28470
804.915	28675
805.057	28831
805.199	28698
805.341	28740
805.483	28847
805.626	28866
805.768	28679
805.91	28900
806.052	28763
806.194	28637
806.336	28896
806.478	28858
806.62	28767
806.762	28850
806.904	29121
807.046	29337
807.188	29136
807.33	29132
807.472	29292
807.614	29364
807.756	29178
807.898	29136
808.04	29044
808.182	28972
808.324	29128
808.465	29079
808.607	29490
808.749	29627
808.891	29448
809.033	29611
809.174	29474
809.316	29375
809.458	29547
809.6	29364
809.741	29653
809.883	29649
810.025	29821
810.166	29836
810.308	29859
810.45	29790
810.591	29634
810.733	29509
810.875	29463
811.016	29414
811.158	29497
811.299	29573
811.441	29672
811.582	29676
811.724	29539
811.865	29547
812.007	29611
812.148	29562
812.29	29665
812.431	29608
812.573	29912
812.714	30030
812.855	30095
812.997	30228
813.138	30391
813.279	30144
813.421	30129
813.562	29874
813.703	29874
813.845	29737
813.986	29497
814.127	29258
814.268	29258
814.41	29273
814.551	29246
814.692	29334
814.833	29197
814.974	29128
815.115	29273
815.256	29200
815.397	29132
815.539	29235
815.68	28949
815.821	28995
815.962	29143
816.103	29102
816.244	29006
816.385	28843
816.526	28710
816.666	28702
816.807	28462
816.948	28672
817.089	28820
817.23	28561
817.371	28451
817.512	28474
817.653	28557
817.793	28588
817.934	28637
818.075	28637
818.216	28729
818.356	28615
818.497	28348
818.638	28249
818.778	28314
818.919	28306
819.06	28356
819.2	28478
819.341	28459
819.481	28596
819.622	28771
819.762	28984
819.903	28892
820.043	28831
820.184	28725
820.324	28797
820.465	28645
820.605	28774
820.746	28748
820.886	28565
821.026	28607
821.167	28615
821.307	28759
821.447	28565
821.588	28531
821.728	28272
821.868	28219
822.008	28169
822.149	28090
822.289	28029
822.429	27831
822.569	27778
822.709	27804
822.849	27511
822.99	27504
823.13	27507
823.27	27591
823.41	27351
823.55	27264
823.69	27382
823.83	27427
823.97	27427
824.11	27218
824.25	27188
824.389	27176
824.529	27317
824.669	27184
824.809	27287
824.949	27344
825.089	27214
825.228	27226
825.368	27104
825.508	27066
825.648	27070
825.787	27058
825.927	27116
826.067	27146
826.206	27017
826.346	27176
826.485	27100
826.625	26990
826.765	27237
826.904	27096
827.044	26788
827.183	26876
827.323	26918
827.462	26819
827.601	26773
827.741	26708
827.88	26853
828.02	26788
828.159	26712
828.298	26842
828.437	26731
828.577	26796
828.716	26948
828.855	26651
828.994	26587
829.134	26655
829.273	26613
829.412	26423
829.551	26579
829.69	26465
829.829	26636
829.968	26568
830.107	26545
830.246	26514
830.385	26476
830.524	26545
830.663	26366
830.802	26355
830.941	26115
831.08	26073
831.219	26275
831.357	26172
831.496	26244
831.635	26111
831.774	26050
831.913	25955
832.051	25761
832.19	25921
832.329	25898
832.467	25753
832.606	25887
832.744	25723
832.883	25689
833.022	25757
833.16	25632
833.299	25681
833.437	25791
833.576	25826
833.714	25799
833.852	25890
833.991	25982
834.129	25860
834.267	25993
834.406	25799
834.544	25879
834.682	25871
834.821	25898
834.959	26058
835.097	25849
835.235	25966
835.373	25879
835.511	25826
835.65	25548
835.788	25757
835.926	25506
836.064	25495
836.202	25381
836.34	25525
836.478	25628
836.615	25632
836.753	25681
836.891	25559
837.029	25769
837.167	25567
837.305	25624
837.443	25582
837.58	25521
837.718	25544
837.856	25548
837.993	25426
838.131	25495
838.269	25384
838.406	25369
838.544	25289
838.681	25091
838.819	25187
838.956	25008
839.094	24779
839.231	24943
839.369	25110
839.506	25297
839.643	25042
839.781	24958
839.918	24947
840.055	24897
840.193	24932
840.33	24772
840.467	24962
840.604	24935
840.742	25168
840.879	24764
841.016	24722
841.153	24700
841.29	24924
841.427	24806
841.564	24772
841.701	24863
841.838	24711
841.975	24623
842.112	24776
842.249	24631
842.385	24631
842.522	24802
842.659	24749
842.796	24525
842.933	24608
843.069	24635
843.206	24494
843.343	24612
843.479	24642
843.616	24612
843.752	24372
843.889	24380
844.025	24486
844.162	24388
844.298	24452
844.435	24239
844.571	24209
844.708	24429
844.844	24517
844.98	24532
845.117	24532
845.253	24254
845.389	24228
845.525	24213
845.661	24163
845.798	24129
845.934	24243
846.07	24015
846.206	24041
846.342	24289
846.478	23942
846.614	23977
846.75	23676
846.886	23790
847.022	23904
847.158	23722
847.294	23703
847.429	23794
847.565	23866
847.701	24003
847.837	23505
847.972	23566
848.108	23581
848.244	23608
848.379	23474
848.515	23406
848.65	23349
848.786	23535
848.921	23284
849.057	23581
849.192	23577
849.328	23417
849.463	23414
849.598	23326
849.734	23208
849.869	23326
850.004	23048
850.14	23102
850.275	23235
850.41	23162
850.545	23014
850.68	23170
850.815	23151
850.95	23128
851.085	23280
851.22	23200
851.355	23254
851.49	23208
851.625	23121
851.76	23075
851.895	23105
852.03	23254
852.165	23170
852.299	23284
852.434	23459
852.569	23235
852.703	23220
852.838	23220
852.973	23280
853.107	23189
853.242	23018
853.376	23037
853.511	22896
853.645	22961
853.78	23098
853.914	23048
854.048	22930
854.183	22938
854.317	23090
854.451	23178
854.585	22957
854.72	23022
854.854	23132
854.988	22904
855.122	23029
855.256	22961
855.39	23090
855.524	23018
855.658	22949
855.792	22946
855.926	23052
856.06	22987
856.194	23003
856.327	22877
856.461	22843
856.595	22866
856.729	22915
856.862	23185
856.996	23029
857.13	23174
857.263	23174
857.397	23010
857.53	22900
857.664	22968
857.797	23048
857.931	23174
858.064	22934
858.197	23060
858.331	23064
858.464	22991
858.597	22889
858.731	22915
858.864	22904
858.997	22915
859.13	22961
859.263	23006
859.396	23044
859.529	22843
859.662	23018
859.795	22961
859.928	22987
860.061	23204
860.194	23132
860.327	23041
860.46	23018
860.592	23124
860.725	23200
860.858	23178
860.99	22961
861.123	22946
861.256	22934
861.388	23067
861.521	23695
861.653	22866
861.786	22679
861.918	22915
862.05	22740
862.183	22824
862.315	22881
862.447	22984
862.58	22885
862.712	22706
862.844	22554
862.976	22580
863.108	22744
863.24	22980
863.372	22580
863.504	22713
863.636	22660
863.768	22824
863.9	22637
864.032	22603
864.164	22649
864.296	22592
864.428	22793
864.559	22843
864.691	22759
864.823	22637
864.954	22618
865.086	22710
865.217	22649
865.349	22500
865.48	22577
865.612	22565
865.743	22634
865.875	22523
866.006	22580
866.137	22519
866.269	22535
866.4	22577
866.531	22565
866.662	22440
866.793	22466
866.924	22481
867.055	22516
867.186	22535
867.317	22341
867.448	22447
867.579	22367
867.71	22405
867.841	22440
867.972	22436
868.103	22398
868.233	22436
868.364	22474
868.495	22577
868.625	22706
868.756	22733
868.886	22573
869.017	22733
869.147	22782
869.278	22812
869.408	22733
869.539	22782
869.669	22911
869.799	22843
869.929	22877
870.06	22911
870.19	23048
870.32	23029
870.45	23041
870.58	23212
870.71	23223
870.84	23128
870.97	23128
871.1	22991
871.23	23212
871.36	23341
871.489	23193
871.619	23296
871.749	23364
871.879	23280
872.008	23623
872.138	23307
872.267	23208
872.397	23178
872.526	23143
872.656	23071
872.785	23212
872.915	23372
873.044	23315
873.173	23296
873.303	23398
873.432	23455
873.561	23353
873.69	23402
873.819	23269
873.948	23315
874.077	23303
874.206	23299
874.335	23307
874.464	23364
874.593	23558
874.722	23474
874.851	23596
874.979	23551
875.108	23684
875.237	23611
875.365	23440
875.494	23448
875.623	23577
875.751	23558
875.88	23585
876.008	23733
876.136	23733
876.265	23885
876.393	24045
876.521	24049
876.65	24049
876.778	23973
876.906	23969
877.034	23760
877.162	23866
877.29	23874
877.418	23752
877.546	23942
877.674	23916
877.802	23916
877.93	23946
878.058	23824
878.185	23813
878.313	23821
878.441	23802
878.568	23760
878.696	23733
878.824	23775
878.951	23973
879.079	24045
879.206	24159
879.333	23920
879.461	23874
879.588	23999
879.715	23935
879.842	24114
879.97	23988
880.097	23684
880.224	23687
880.351	23661
880.478	23707
880.605	23585
880.732	23722
880.859	23916
880.986	23687
881.112	23752
881.239	23600
881.366	23364
881.493	23311
881.619	23299
881.746	23311
881.872	23227
881.999	23379
882.125	23159
882.252	23227
882.378	23197
882.505	23345
882.631	23162
882.757	22866
882.883	22904
883.01	23044
883.136	22976
883.262	22801
883.388	22729
883.514	22930
883.64	23044
883.766	22790
883.892	22675
884.018	22649
884.143	22831
884.269	23025
884.395	22512
884.52	22455
884.646	22497
884.772	22478
884.897	22542
885.023	22512
885.148	22679
885.274	22596
885.399	22649
885.524	22527
885.65	22512
885.775	22656
885.9	22607
886.025	22542
886.15	22481
886.275	22443
886.4	22447
886.525	22542
886.65	22485
886.775	22424
886.9	22634
887.025	22736
887.149	22466
887.274	22341
887.399	22257
887.523	22291
887.648	22188
887.773	22207
887.897	22417
888.021	22382
888.146	22188
888.27	22386
888.395	22363
888.519	22455
888.643	22299
888.767	22348
888.891	22207
889.015	22173
889.139	22139
889.263	22082
889.387	22295
889.511	22272
889.635	22219
889.759	22040
889.883	21994
890.006	22032
890.13	22158
890.254	21930
890.377	21960
890.501	21854
890.624	21770
890.748	21918
890.871	21660
890.995	21549
891.118	21450
891.241	21587
891.364	21610
891.488	21759
891.611	21694
891.734	21614
891.857	21713
891.98	21686
892.103	21614
892.226	21606
892.349	21549
892.471	21485
892.594	21496
892.717	21530
892.839	21424
892.962	21538
893.085	21561
893.207	21523
893.33	21397
893.452	21325
893.575	21523
893.697	21458
893.819	21724
893.941	21701
894.064	21698
894.186	21435
894.308	21454
894.43	21572
894.552	21587
894.674	21583
894.796	21370
894.918	21557
895.04	21344
895.161	21526
895.283	21462
895.405	21397
895.526	21408
895.648	21431
895.769	21462
895.891	21469
896.012	21614
896.134	21466
896.255	21526
896.376	21515
896.498	21348
896.619	21485
896.74	21504
896.861	21519
896.982	21903
897.103	21842
897.224	21720
897.345	21698
897.466	21701
897.587	21667
897.708	21736
897.828	21705
897.949	21599
898.07	21568
898.19	21641
898.311	21728
898.431	21614
898.552	21656
898.672	21759
898.792	21713
898.913	21591
899.033	21564
899.153	21397
899.273	21378
899.393	21492
899.513	21378
899.633	21332
899.753	21336
899.873	21348
899.993	21378
900.113	21233
900.232	21397
900.352	21317
900.472	21230
900.591	21116
900.711	21119
900.83	21146
900.95	21306
901.069	21214
901.189	20857
901.308	20765
901.427	20651
901.546	20807
901.665	20670
901.784	20686
901.904	20621
902.023	20541
902.141	20225
902.26	20145
902.379	20332
902.498	20259
902.617	20278
902.735	20290
902.854	20187
902.973	20134
903.091	19814
903.21	19871
903.328	19890
903.446	19772
903.565	19734
903.683	19674
903.801	19567
903.919	19708
904.038	19605
904.156	19430
904.274	19575
904.392	19274
904.51	19472
904.627	19419
904.745	19438
904.863	19540
904.981	19266
905.098	19160
905.216	19023
905.334	19137
905.451	19148
905.569	18989
905.686	19129
905.803	19057
905.921	18913
906.038	18951
906.155	18867
906.272	18814
906.389	18745
906.506	18684
906.623	18722
906.74	18669
906.857	18483
906.974	18502
907.091	18532
907.208	18791
907.324	18574
907.441	18445
907.557	18334
907.674	18334
907.79	18239
907.907	18304
908.023	18388
908.139	18342
908.256	18243
908.372	18201
908.488	18121
908.604	18064
908.72	17973
908.836	17992
908.952	18110
909.068	18011
909.184	18117
909.3	18011
909.415	18045
909.531	17950
909.647	17771
909.762	17737
909.878	17764
909.993	17657
910.108	17646
910.224	17570
910.339	17672
910.454	17524
910.57	17501
910.685	17433
910.8	17551
910.915	17653
911.03	17421
911.145	17379
911.259	17288
911.374	17258
911.489	17239
911.604	17166
911.718	16987
911.833	17018
911.947	17006
912.062	16748
912.176	16965
912.291	17052
912.405	16946
912.519	17159
912.633	17162
912.748	17079
912.862	17052
912.976	16904
913.09	16660
913.204	16710
913.318	16733
913.431	16915
913.545	17014
913.659	16934
913.772	16835
913.886	16603
914	16584
914.113	16782
914.226	16767
914.34	16672
914.453	16447
914.566	16516
914.68	16481
914.793	16474
914.906	16291
915.019	16143
915.132	16116
915.245	16112
915.358	16150
915.47	16207
915.583	16158
915.696	16215
915.809	16257
915.921	16287
916.034	16135
916.146	16013
916.259	15998
916.371	16097
916.483	16086
916.595	16010
916.708	15972
916.82	15979
916.932	15903
917.044	15903
917.156	15953
917.268	15736
917.38	15838
917.491	15823
917.603	15804
917.715	15922
917.826	15865
917.938	15827
918.049	15603
918.161	15720
918.272	15816
918.384	15827
918.495	15713
918.606	15568
918.717	15507
918.828	15557
918.939	15557
919.05	15523
919.161	15458
919.272	15264
919.383	15462
919.494	15469
919.604	15736
919.715	15420
919.826	15424
919.936	15447
920.047	15534
920.157	15488
920.267	15656
920.378	15435
920.488	15511
920.598	15625
920.708	15781
920.818	15568
920.928	15622
921.038	15736
921.148	15660
921.258	15389
921.368	15408
921.477	15176
921.587	15199
921.697	15058
921.806	15169
921.916	15055
922.025	14925
922.134	14864
922.244	14769
922.353	14849
922.462	14701
922.571	14579
922.68	14617
922.789	14568
922.898	14511
923.007	14434
923.116	14412
923.224	14332
923.333	14377
923.442	14252
923.55	14244
923.659	14290
923.767	14324
923.876	14244
923.984	14259
924.092	14115
924.201	14259
924.309	14161
924.417	14214
924.525	14100
924.633	14142
924.741	15093
924.849	13947
924.956	13944
925.064	13795
925.172	13776
925.279	13788
925.387	13814
925.494	13830
925.602	13871
925.709	13818
925.816	13746
925.924	13769
926.031	13830
926.138	13658
926.245	13784
926.352	13666
926.459	13742
926.566	13864
926.673	13632
926.779	13655
926.886	13472
926.993	13343
927.099	13403
927.206	13255
927.312	13407
927.419	13434
927.525	13411
927.631	13324
927.737	13209
927.843	13183
927.95	12989
928.056	13160
928.162	13164
928.267	13225
928.373	13830
928.479	13168
928.585	12981
928.69	13015
928.796	13171
928.901	13019
929.007	12867
929.112	12981
929.218	12985
929.323	12848
929.428	12856
929.533	12962
929.638	12859
929.743	12734
929.848	12802
929.953	12768
930.058	12608
930.163	12513
930.267	12547
930.372	12700
930.477	12452
930.581	12700
930.685	12585
930.79	12292
930.894	12483
930.998	12311
931.103	12528
931.207	12190
931.311	12038
931.415	12015
931.519	11779
931.623	11710
