Data from test_V78500241_1281.txt Node
Date: Fri Mar 25 15:50:40 CST 2022
User: usil
Spectrometer: V785-0024
Trigger mode: 0
Integration Time (sec): 4.000000E-1
Scans to average: 1
Nonlinearity correction enabled: false
Boxcar width: 0
Storing dark spectrum: false
XAxis mode: Wavelengths
Number of Pixels in Spectrum: 1024
>>>>>Begin Spectral Data<<<<<
801.071	28234
801.214	28063
801.356	27739
801.499	27686
801.641	27492
801.783	27603
801.926	27526
802.068	27587
802.211	27523
802.353	27485
802.496	27332
802.638	27291
802.78	27317
802.923	27127
803.065	27237
803.208	27363
803.35	27249
803.492	27260
803.635	27488
803.777	27401
803.919	27462
804.061	27827
804.204	27572
804.346	27351
804.488	27336
804.63	27469
804.773	27458
804.915	27587
805.057	27344
805.199	27294
805.341	27618
805.483	27603
805.626	27648
805.768	27667
805.91	27599
806.052	27629
806.194	27507
806.336	27797
806.478	27682
806.62	27580
806.762	27682
806.904	27892
807.046	28040
807.188	28082
807.33	27975
807.472	28093
807.614	27983
807.756	28070
807.898	27911
808.04	27956
808.182	27911
808.324	27941
808.465	27975
808.607	28200
808.749	28230
808.891	28363
809.033	28344
809.174	28310
809.316	28234
809.458	28265
809.6	28249
809.741	28401
809.883	28459
810.025	28550
810.166	28489
810.308	28630
810.45	28470
810.591	28550
810.733	28257
810.875	28314
811.016	28070
811.158	28207
811.299	28493
811.441	28478
811.582	28360
811.724	28478
811.865	28086
812.007	28318
812.148	28253
812.29	28253
812.431	28375
812.573	28611
812.714	28740
812.855	28759
812.997	28869
813.138	29018
813.279	28908
813.421	28786
813.562	28812
813.703	28653
813.845	28508
813.986	28188
814.127	28124
814.268	27918
814.41	28002
814.551	27960
814.692	28070
814.833	27914
814.974	27934
815.115	28036
815.256	27705
815.397	27800
815.539	27892
815.68	27835
815.821	27720
815.962	27789
816.103	27759
816.244	27709
816.385	27557
816.526	27583
816.666	27450
816.807	27306
816.948	27462
817.089	27344
817.23	27367
817.371	27233
817.512	27260
817.653	27173
817.793	27165
817.934	27214
818.075	27397
818.216	27325
818.356	27214
818.497	27165
818.638	26971
818.778	27066
818.919	26979
819.06	27055
819.2	27146
819.341	27260
819.481	27336
819.622	27412
819.762	27663
819.903	27481
820.043	27454
820.184	27370
820.324	27340
820.465	27424
820.605	27340
820.746	27424
820.886	27195
821.026	27370
821.167	27405
821.307	27351
821.447	27256
821.588	27291
821.728	26940
821.868	26902
822.008	26781
822.149	26864
822.289	26674
822.429	26507
822.569	26434
822.709	26351
822.849	26347
822.99	26233
823.13	26320
823.27	26195
823.41	26130
823.55	25868
823.69	26081
823.83	26050
823.97	26122
824.11	25925
824.25	25879
824.389	25963
824.529	25890
824.669	25902
824.809	26195
824.949	25963
825.089	25921
825.228	25944
825.368	25666
825.508	25776
825.648	25731
825.787	25761
825.927	25936
826.067	25761
826.206	25757
826.346	25856
826.485	25803
826.625	25658
826.765	25784
826.904	25772
827.044	25502
827.183	25616
827.323	25468
827.462	25639
827.601	25479
827.741	25594
827.88	25575
828.02	25445
828.159	25365
828.298	25419
828.437	25434
828.577	25487
828.716	25567
828.855	25289
828.994	25152
829.134	25118
829.273	25206
829.412	25179
829.551	25015
829.69	25164
829.829	25206
829.968	25183
830.107	25263
830.246	25228
830.385	25129
830.524	25148
830.663	25046
830.802	25019
830.941	24776
831.08	24608
831.219	24833
831.357	24856
831.496	24985
831.635	24753
831.774	24745
831.913	24738
832.051	24475
832.19	24540
832.329	24479
832.467	24429
832.606	24285
832.744	24505
832.883	24403
833.022	24308
833.16	24388
833.299	24498
833.437	24418
833.576	24448
833.714	24467
833.852	24513
833.991	24601
834.129	24612
834.267	24578
834.406	24502
834.544	24585
834.682	24563
834.821	24376
834.959	24681
835.097	24410
835.235	24437
835.373	24464
835.511	24460
835.65	24350
835.788	24323
835.926	24201
836.064	24281
836.202	24068
836.34	24296
836.478	24407
836.615	24330
836.753	24285
836.891	24502
837.029	24376
837.167	24277
837.305	24213
837.443	24220
837.58	24186
837.718	24266
837.856	24213
837.993	23996
838.131	24205
838.269	24129
838.406	24098
838.544	23923
838.681	23840
838.819	23764
838.956	23646
839.094	23589
839.231	23680
839.369	23805
839.506	24045
839.643	23958
839.781	23691
839.918	23520
840.055	23600
840.193	23520
840.33	23531
840.467	23668
840.604	23566
840.742	23817
840.879	23505
841.016	23592
841.153	23474
841.29	23600
841.427	23497
841.564	23512
841.701	23547
841.838	23463
841.975	23478
842.112	23448
842.249	23459
842.385	23356
842.522	23497
842.659	23337
842.796	23349
842.933	23284
843.069	23265
843.206	23098
843.343	23261
843.479	23315
843.616	23364
843.752	23098
843.889	22972
844.025	23204
844.162	23086
844.298	23094
844.435	23018
844.571	23044
844.708	23105
844.844	23212
844.98	23159
845.117	23105
845.253	23029
845.389	23048
845.525	23010
845.661	22854
845.798	22858
845.934	22801
846.07	22797
846.206	22740
846.342	22968
846.478	22759
846.614	22637
846.75	22504
846.886	22489
847.022	22592
847.158	22516
847.294	22713
847.429	22554
847.565	22500
847.701	22793
847.837	22223
847.972	22314
848.108	22402
848.244	22268
848.379	22143
848.515	22139
848.65	22070
848.786	22135
848.921	22101
849.057	22276
849.192	22215
849.328	22185
849.463	21934
849.598	22051
849.734	21956
849.869	21987
850.004	21903
850.14	21918
850.275	21991
850.41	21930
850.545	21876
850.68	21819
850.815	21827
850.95	21930
851.085	21956
851.22	22010
851.355	21979
851.49	21846
851.625	21880
851.76	21808
851.895	21781
852.03	21793
852.165	21789
852.299	21934
852.434	22063
852.569	21857
852.703	21903
852.838	21827
852.973	22074
853.107	21915
853.242	21728
853.376	21823
853.511	21671
853.645	21671
853.78	21732
853.914	21644
854.048	21610
854.183	21690
854.317	21732
854.451	22017
854.585	21690
854.72	21603
854.854	21911
854.988	21549
855.122	21679
855.256	21622
855.39	21713
855.524	21781
855.658	21652
855.792	21701
855.926	21789
856.06	21652
856.194	21797
856.327	21778
856.461	21717
856.595	21652
856.729	21686
856.862	21759
856.996	21743
857.13	21713
857.263	21846
857.397	21724
857.53	21808
857.664	21739
857.797	21778
857.931	21850
858.064	21648
858.197	21854
858.331	21774
858.464	21583
858.597	21519
858.731	21739
858.864	21599
858.997	21625
859.13	21724
859.263	21739
859.396	21785
859.529	21648
859.662	21614
859.795	21587
859.928	21755
860.061	21770
860.194	21941
860.327	21732
860.46	21622
860.592	21823
860.725	21762
860.858	21762
860.99	21606
861.123	21595
861.256	21686
861.388	21705
861.521	22398
861.653	21576
861.786	21469
861.918	21496
862.05	21587
862.183	21701
862.315	21686
862.447	21701
862.58	21652
862.712	21477
862.844	21313
862.976	21580
863.108	21393
863.24	21781
863.372	21249
863.504	21477
863.636	21374
863.768	21458
863.9	21329
864.032	21317
864.164	21439
864.296	21412
864.428	21488
864.559	21488
864.691	21420
864.823	21424
864.954	21469
865.086	21348
865.217	21370
865.349	21199
865.48	21317
865.612	21184
865.743	21454
865.875	21348
866.006	21367
866.137	21439
866.269	21233
866.4	21268
866.531	21226
866.662	21138
866.793	21192
866.924	21279
867.055	21207
867.186	21180
867.317	21173
867.448	21104
867.579	21279
867.71	21089
867.841	21161
867.972	21207
868.103	21195
868.233	21340
868.364	21188
868.495	21272
868.625	21424
868.756	21504
868.886	21272
869.017	21447
869.147	21549
869.278	21511
869.408	21469
869.539	21553
869.669	21603
869.799	21530
869.929	21530
870.06	21603
870.19	21899
870.32	21751
870.45	21732
870.58	21850
870.71	21968
870.84	21949
870.97	21934
871.1	21869
871.23	22135
871.36	22097
871.489	21979
871.619	22010
871.749	22101
871.879	22090
872.008	22120
872.138	22109
872.267	22078
872.397	21987
872.526	21854
872.656	21918
872.785	21918
872.915	22192
873.044	22181
873.173	22078
873.303	22265
873.432	22192
873.561	22242
873.69	22139
873.819	21956
873.948	22010
874.077	22093
874.206	22185
874.335	22002
874.464	22158
874.593	22333
874.722	22139
874.851	22382
874.979	22303
875.108	22409
875.237	22162
875.365	22207
875.494	22363
875.623	22318
875.751	22246
875.88	22322
876.008	22462
876.136	22546
876.265	22683
876.393	22858
876.521	22755
876.65	22790
876.778	22729
876.906	22637
877.034	22603
877.162	22668
877.29	22557
877.418	22717
877.546	22748
877.674	22603
877.802	22687
877.93	22611
878.058	22706
878.185	22573
878.313	22580
878.441	22698
878.568	22356
878.696	22565
878.824	22740
878.951	22831
879.079	22877
879.206	22953
879.333	22850
879.461	22622
879.588	22805
879.715	22786
879.842	22877
879.97	22816
880.097	22493
880.224	22455
880.351	22462
880.478	22527
880.605	22371
880.732	22451
880.859	22561
880.986	22390
881.112	22405
881.239	22226
881.366	22188
881.493	22128
881.619	22093
881.746	22074
881.872	21983
881.999	22040
882.125	21983
882.252	22105
882.378	22017
882.505	22116
882.631	21930
882.757	21797
882.883	21915
883.01	21842
883.136	21751
883.262	21542
883.388	21549
883.514	21736
883.64	21641
883.766	21633
883.892	21576
884.018	21610
884.143	21603
884.269	21751
884.395	21435
884.52	21408
884.646	21393
884.772	21416
884.897	21264
885.023	21450
885.148	21481
885.274	21466
885.399	21473
885.524	21306
885.65	21435
885.775	21382
885.9	21306
886.025	21542
886.15	21477
886.275	21306
886.4	21199
886.525	21382
886.65	21241
886.775	21325
886.9	21431
887.025	21553
887.149	21321
887.274	21070
887.399	21138
887.523	21135
887.648	21013
887.773	20944
887.897	21230
888.021	21165
888.146	21096
888.27	21146
888.395	21119
888.519	21123
888.643	21203
888.767	21157
888.891	21108
889.015	20918
889.139	20994
889.263	20982
889.387	21058
889.511	21009
889.635	21017
889.759	20948
889.883	20986
890.006	21039
890.13	20982
890.254	20921
890.377	20872
890.501	20571
890.624	20571
890.748	20842
890.871	20537
890.995	20492
891.118	20488
891.241	20541
891.364	20530
891.488	20575
891.611	20583
891.734	20636
891.857	20602
891.98	20537
892.103	20564
892.226	20423
892.349	20431
892.471	20286
892.594	20385
892.717	20404
892.839	20358
892.962	20476
893.085	20446
893.207	20419
893.33	20393
893.452	20400
893.575	20385
893.697	20377
893.819	20511
893.941	20556
894.064	20545
894.186	20320
894.308	20358
894.43	20408
894.552	20533
894.674	20461
894.796	20374
894.918	20377
895.04	20389
895.161	20412
895.283	20484
895.405	20355
895.526	20393
895.648	20374
895.769	20358
895.891	20488
896.012	20400
896.134	20385
896.255	20400
896.376	20294
896.498	20358
896.619	20480
896.74	20336
896.861	20389
896.982	20724
897.103	20823
897.224	20670
897.345	20587
897.466	20568
897.587	20629
897.708	20651
897.828	20648
897.949	20716
898.07	20400
898.19	20571
898.311	20609
898.431	20511
898.552	20533
898.672	20648
898.792	20629
898.913	20762
899.033	20457
899.153	20358
899.273	20419
899.393	20343
899.513	20492
899.633	20438
899.753	20324
899.873	20328
899.993	20396
900.113	20324
900.232	20427
900.352	20233
900.472	20252
900.591	20088
900.711	20145
900.83	19993
900.95	20199
901.069	20229
901.189	20024
901.308	19780
901.427	19731
901.546	19693
901.665	19742
901.784	19662
901.904	19552
902.023	19476
902.141	19316
902.26	19209
902.379	19335
902.498	19164
902.617	19190
902.735	19225
902.854	19126
902.973	19152
903.091	18856
903.21	18924
903.328	18894
903.446	18890
903.565	18669
903.683	18734
903.801	18559
903.919	18677
904.038	18631
904.156	18464
904.274	18574
904.392	18361
904.51	18452
904.627	18490
904.745	18433
904.863	18521
904.981	18258
905.098	18060
905.216	18045
905.334	18216
905.451	18098
905.569	18106
905.686	18133
905.803	18095
905.921	17904
906.038	18064
906.155	18030
906.272	17798
906.389	17843
906.506	17653
906.623	17687
906.74	17638
906.857	17528
906.974	17600
907.091	17729
907.208	17764
907.324	17722
907.441	17638
907.557	17528
907.674	17372
907.79	17277
907.907	17360
908.023	17406
908.139	17406
908.256	17360
908.372	17299
908.488	17322
908.604	17174
908.72	17109
908.836	17155
908.952	17079
909.068	17178
909.184	17220
909.3	17060
909.415	17147
909.531	17075
909.647	16809
909.762	16831
909.878	16843
909.993	16801
910.108	16862
910.224	16793
910.339	16725
910.454	16634
910.57	16691
910.685	16565
910.8	16904
910.915	16782
911.03	16584
911.145	16470
911.259	16485
911.374	16325
911.489	16253
911.604	16257
911.718	16200
911.833	16215
911.947	16082
912.062	15949
912.176	16158
912.291	16318
912.405	16147
912.519	16337
912.633	16226
912.748	16143
912.862	16139
912.976	16010
913.09	15922
913.204	15953
913.318	16010
913.431	16006
913.545	16044
913.659	16082
913.772	16017
913.886	15793
914	15831
914.113	15884
914.226	15816
914.34	15861
914.453	15637
914.566	15800
914.68	15671
914.793	15705
914.906	15534
915.019	15344
915.132	15374
915.245	15412
915.358	15294
915.47	15458
915.583	15428
915.696	15367
915.809	15367
915.921	15401
916.034	15294
916.146	15321
916.259	15218
916.371	15306
916.483	15344
916.595	15184
916.708	15264
916.82	15313
916.932	15230
917.044	15074
917.156	15058
917.268	15005
917.38	15192
917.491	15032
917.603	14929
917.715	15032
917.826	15058
917.938	15020
918.049	14853
918.161	14895
918.272	15104
918.384	15135
918.495	14963
918.606	14853
918.717	14727
918.828	14708
918.939	14804
919.05	14689
919.161	14724
919.272	14446
919.383	14594
919.494	14788
919.604	14944
919.715	14727
919.826	14644
919.936	14682
920.047	14842
920.157	14754
920.267	14921
920.378	14708
920.488	14701
920.598	14849
920.708	15070
920.818	14883
920.928	14834
921.038	15104
921.148	14944
921.258	14724
921.368	14533
921.477	14423
921.587	14412
921.697	14252
921.806	14537
921.916	14263
922.025	14153
922.134	14164
922.244	13993
922.353	14062
922.462	14027
922.571	13944
922.68	13696
922.789	13780
922.898	13696
923.007	13715
923.116	13833
923.224	13639
923.333	13693
923.442	13643
923.55	13586
923.659	13616
923.767	13647
923.876	13449
923.984	13548
924.092	13438
924.201	13510
924.309	13525
924.417	13468
924.525	13422
924.633	13426
924.741	14393
924.849	13202
924.956	13354
925.064	13213
925.172	13145
925.279	13110
925.387	13107
925.494	13088
925.602	13301
925.709	13171
925.816	13000
925.924	13091
926.031	13213
926.138	13114
926.245	13160
926.352	12951
926.459	13084
926.566	13164
926.673	12977
926.779	12840
926.886	12909
926.993	12707
927.099	12688
927.206	12688
927.312	12608
927.419	12760
927.525	12726
927.631	12730
927.737	12627
927.843	12494
927.95	12429
928.056	12452
928.162	12631
928.267	12563
928.373	13084
928.479	12631
928.585	12323
928.69	12464
928.796	12688
928.901	12399
929.007	12327
929.112	12418
929.218	12445
929.323	12281
929.428	12273
929.533	12448
929.638	12178
929.743	12102
929.848	12273
929.953	12102
930.058	12083
930.163	11916
930.267	11973
930.372	12091
930.477	11980
930.581	12136
930.685	11973
930.79	11866
930.894	11843
930.998	11866
931.103	11866
931.207	11611
931.311	11410
931.415	11429
931.519	11193
931.623	11143
