Data from test_V78500241_537.txt Node
Date: Fri Mar 25 15:45:31 CST 2022
User: usil
Spectrometer: V785-0024
Trigger mode: 0
Integration Time (sec): 4.000000E-1
Scans to average: 1
Nonlinearity correction enabled: false
Boxcar width: 0
Storing dark spectrum: false
XAxis mode: Wavelengths
Number of Pixels in Spectrum: 1024
>>>>>Begin Spectral Data<<<<<
801.071	27736
801.214	27587
801.356	27420
801.499	27176
801.641	27272
801.783	27214
801.926	27340
802.068	27298
802.211	26998
802.353	27028
802.496	26883
802.638	26937
802.78	26906
802.923	26895
803.065	26701
803.208	26876
803.35	26929
803.492	27001
803.635	27009
803.777	26899
803.919	26975
804.061	27359
804.204	27119
804.346	27001
804.488	26975
804.63	26998
804.773	26975
804.915	26979
805.057	27195
805.199	27074
805.341	27085
805.483	27142
805.626	27173
805.768	27005
805.91	27195
806.052	27161
806.194	27173
806.336	27279
806.478	27173
806.62	27169
806.762	27157
806.904	27477
807.046	27709
807.188	27572
807.33	27583
807.472	27511
807.614	27504
807.756	27378
807.898	27492
808.04	27481
808.182	27283
808.324	27397
808.465	27458
808.607	27747
808.749	27770
808.891	27812
809.033	28074
809.174	27857
809.316	27842
809.458	27770
809.6	27861
809.741	28036
809.883	28051
810.025	28090
810.166	28143
810.308	28135
810.45	28029
810.591	28097
810.733	27930
810.875	27774
811.016	27789
811.158	27781
811.299	27949
811.441	28051
811.582	27960
811.724	27808
811.865	27720
812.007	27857
812.148	27694
812.29	27732
812.431	28010
812.573	28139
812.714	28109
812.855	28272
812.997	28291
813.138	28660
813.279	28500
813.421	28440
813.562	28386
813.703	28268
813.845	27941
813.986	27587
814.127	27587
814.268	27515
814.41	27564
814.551	27477
814.692	27542
814.833	27519
814.974	27397
815.115	27481
815.256	27306
815.397	27302
815.539	27447
815.68	27199
815.821	27104
815.962	27344
816.103	27294
816.244	27150
816.385	27009
816.526	27005
816.666	26872
816.807	26724
816.948	26876
817.089	26800
817.23	26762
817.371	26663
817.512	26906
817.653	26602
817.793	26682
817.934	26727
818.075	26727
818.216	26674
818.356	26708
818.497	26693
818.638	26488
818.778	26545
818.919	26549
819.06	26457
819.2	26518
819.341	26777
819.481	26598
819.622	26940
819.762	27142
819.903	26940
820.043	26956
820.184	26754
820.324	26944
820.465	26933
820.605	26845
820.746	26967
820.886	26788
821.026	26845
821.167	26872
821.307	26948
821.447	26735
821.588	26765
821.728	26602
821.868	26343
822.008	26259
822.149	26191
822.289	26271
822.429	25864
822.569	25902
822.709	25894
822.849	25776
822.99	25689
823.13	25658
823.27	25681
823.41	25620
823.55	25392
823.69	25514
823.83	25567
823.97	25438
824.11	25236
824.25	25358
824.389	25346
824.529	25540
824.669	25297
824.809	25499
824.949	25464
825.089	25419
825.228	25339
825.368	25362
825.508	25297
825.648	25339
825.787	25190
825.927	25194
826.067	25232
826.206	25247
826.346	25396
826.485	25232
826.625	25324
826.765	25285
826.904	25259
827.044	25000
827.183	24996
827.323	24772
827.462	24943
827.601	25012
827.741	24825
827.88	24981
828.02	24943
828.159	24901
828.298	24840
828.437	25084
828.577	24776
828.716	25065
828.855	24890
828.994	24658
829.134	24631
829.273	24715
829.412	24528
829.551	24547
829.69	24684
829.829	24688
829.968	24863
830.107	24650
830.246	24642
830.385	24536
830.524	24414
830.663	24471
830.802	24384
830.941	24194
831.08	24194
831.219	24300
831.357	24285
831.496	24391
831.635	24228
831.774	24220
831.913	24121
832.051	24102
832.19	24026
832.329	24079
832.467	24034
832.606	23821
832.744	23885
832.883	23916
833.022	23843
833.16	23836
833.299	23889
833.437	24072
833.576	23954
833.714	23874
833.852	23927
833.991	24018
834.129	23984
834.267	23996
834.406	23980
834.544	23980
834.682	23939
834.821	23954
834.959	24106
835.097	23855
835.235	24121
835.373	23840
835.511	23794
835.65	23813
835.788	23821
835.926	23630
836.064	23577
836.202	23672
836.34	23897
836.478	23942
836.615	23786
836.753	23687
836.891	23874
837.029	23950
837.167	23794
837.305	23642
837.443	23748
837.58	23729
837.718	23737
837.856	23665
837.993	23741
838.131	23619
838.269	23490
838.406	23524
838.544	23493
838.681	23292
838.819	23315
838.956	23086
839.094	23029
839.231	23128
839.369	23334
839.506	23535
839.643	23311
839.781	23094
839.918	23029
840.055	23105
840.193	23067
840.33	23094
840.467	23121
840.604	23083
840.742	23292
840.879	22972
841.016	23067
841.153	22968
841.29	23083
841.427	23102
841.564	23079
841.701	23037
841.838	22949
841.975	22896
842.112	22892
842.249	22911
842.385	22774
842.522	22930
842.659	22801
842.796	22729
842.933	22812
843.069	22805
843.206	22729
843.343	22809
843.479	22759
843.616	22634
843.752	22531
843.889	22519
844.025	22672
844.162	22500
844.298	22611
844.435	22485
844.571	22653
844.708	22569
844.844	22626
844.98	22675
845.117	22706
845.253	22523
845.389	22478
845.525	22432
845.661	22363
845.798	22306
845.934	22337
846.07	22166
846.206	22440
846.342	22451
846.478	22386
846.614	22116
846.75	22021
846.886	22101
847.022	22040
847.158	21994
847.294	22093
847.429	22006
847.565	21991
847.701	22322
847.837	21717
847.972	21717
848.108	21739
848.244	21797
848.379	21709
848.515	21641
848.65	21534
848.786	21622
848.921	21686
849.057	21736
849.192	21774
849.328	21587
849.463	21603
849.598	21477
849.734	21553
849.869	21466
850.004	21298
850.14	21348
850.275	21367
850.41	21260
850.545	21332
850.68	21241
850.815	21397
850.95	21359
851.085	21534
851.22	21507
851.355	21454
851.49	21321
851.625	21340
851.76	21389
851.895	21260
852.03	21302
852.165	21469
852.299	21462
852.434	21462
852.569	21378
852.703	21389
852.838	21507
852.973	21603
853.107	21477
853.242	21287
853.376	21252
853.511	21005
853.645	21062
853.78	21363
853.914	21199
854.048	21184
854.183	21104
854.317	21279
854.451	21382
854.585	21260
854.72	21272
854.854	21252
854.988	21180
855.122	21230
855.256	21123
855.39	21135
855.524	21241
855.658	21218
855.792	21233
855.926	21260
856.06	21233
856.194	21180
856.327	21218
856.461	21112
856.595	21112
856.729	21203
856.862	21226
856.996	21241
857.13	21268
857.263	21336
857.397	21283
857.53	21127
857.664	21298
857.797	21268
857.931	21344
858.064	21195
858.197	21302
858.331	21173
858.464	21184
858.597	21066
858.731	21085
858.864	21043
858.997	21138
859.13	21127
859.263	21252
859.396	21313
859.529	21173
859.662	21188
859.795	21089
859.928	21051
860.061	21435
860.194	21401
860.327	21252
860.46	21214
860.592	21298
860.725	21469
860.858	21344
860.99	21192
861.123	21085
861.256	21039
861.388	21287
861.521	21835
861.653	21051
861.786	21058
861.918	20979
862.05	20921
862.183	21100
862.315	21104
862.447	21176
862.58	21081
862.712	20830
862.844	20868
862.976	20990
863.108	20967
863.24	21363
863.372	20895
863.504	20944
863.636	20883
863.768	20960
863.9	20941
864.032	20826
864.164	20861
864.296	20906
864.428	20941
864.559	20880
864.691	20998
864.823	20990
864.954	20975
865.086	20872
865.217	20807
865.349	20750
865.48	20796
865.612	20842
865.743	20990
865.875	20796
866.006	20743
866.137	20910
866.269	20773
866.4	20708
866.531	20758
866.662	20644
866.793	20712
866.924	20613
867.055	20663
867.186	20674
867.317	20750
867.448	20693
867.579	20769
867.71	20492
867.841	20693
867.972	20743
868.103	20762
868.233	20731
868.364	20781
868.495	20815
868.625	21017
868.756	21001
868.886	20925
869.017	20918
869.147	21089
869.278	21093
869.408	21066
869.539	20925
869.669	21017
869.799	20998
869.929	21131
870.06	21055
870.19	21298
870.32	21329
870.45	21405
870.58	21340
870.71	21553
870.84	21389
870.97	21401
871.1	21386
871.23	21637
871.36	21629
871.489	21469
871.619	21572
871.749	21477
871.879	21580
872.008	21747
872.138	21542
872.267	21485
872.397	21496
872.526	21370
872.656	21420
872.785	21507
872.915	21587
873.044	21625
873.173	21629
873.303	21644
873.432	21633
873.561	21564
873.69	21614
873.819	21606
873.948	21736
874.077	21557
874.206	21580
874.335	21614
874.464	21743
874.593	21854
874.722	21804
874.851	21915
874.979	21808
875.108	21827
875.237	21762
875.365	21713
875.494	21770
875.623	21918
875.751	21743
875.88	21766
876.008	21789
876.136	22013
876.265	22363
876.393	22295
876.521	22303
876.65	22238
876.778	22268
876.906	22166
877.034	22162
877.162	22238
877.29	22048
877.418	22093
877.546	22192
877.674	22124
877.802	22147
877.93	22135
878.058	22078
878.185	21998
878.313	22204
878.441	22051
878.568	21922
878.696	22067
878.824	22196
878.951	22204
879.079	22291
879.206	22519
879.333	22386
879.461	22211
879.588	22318
879.715	22470
879.842	22424
879.97	22147
880.097	22070
880.224	21888
880.351	22051
880.478	22063
880.605	21903
880.732	22006
880.859	22246
880.986	21983
881.112	22044
881.239	21918
881.366	21759
881.493	21629
881.619	21625
881.746	21622
881.872	21568
881.999	21515
882.125	21538
882.252	21603
882.378	21679
882.505	21713
882.631	21492
882.757	21374
882.883	21321
883.01	21389
883.136	21291
883.262	21146
883.388	21112
883.514	21310
883.64	21428
883.766	21135
883.892	21028
884.018	21195
884.143	21218
884.269	21351
884.395	21085
884.52	20918
884.646	20902
884.772	20796
884.897	20918
885.023	21005
885.148	21032
885.274	21051
885.399	21055
885.524	20952
885.65	20975
885.775	21055
885.9	20956
886.025	21055
886.15	20899
886.275	20880
886.4	20842
886.525	20967
886.65	20788
886.775	20857
886.9	21005
887.025	21123
887.149	20986
887.274	20701
887.399	20750
887.523	20686
887.648	20667
887.773	20629
887.897	20773
888.021	20868
888.146	20697
888.27	20872
888.395	20796
888.519	20659
888.643	20769
888.767	20769
888.891	20682
889.015	20503
889.139	20473
889.263	20541
889.387	20587
889.511	20674
889.635	20629
889.759	20473
889.883	20518
890.006	20457
890.13	20651
890.254	20419
890.377	20469
890.501	20210
890.624	20130
890.748	20221
890.871	20168
890.995	20092
891.118	20054
891.241	20088
891.364	20024
891.488	20168
891.611	20020
891.734	20077
891.857	20043
891.98	19986
892.103	20020
892.226	20031
892.349	20008
892.471	19898
892.594	20035
892.717	20043
892.839	20012
892.962	20035
893.085	20039
893.207	20046
893.33	19887
893.452	19989
893.575	20020
893.697	19986
893.819	20107
893.941	20229
894.064	20142
894.186	19967
894.308	20005
894.43	19986
894.552	20172
894.674	20012
894.796	19898
894.918	20012
895.04	19784
895.161	20088
895.283	20012
895.405	19890
895.526	19982
895.648	19902
895.769	20050
895.891	20024
896.012	20149
896.134	20058
896.255	19993
896.376	20016
896.498	20054
896.619	19955
896.74	19917
896.861	20077
896.982	20161
897.103	20438
897.224	20267
897.345	20278
897.466	20180
897.587	20282
897.708	20347
897.828	20229
897.949	20145
898.07	20161
898.19	20103
898.311	20267
898.431	20233
898.552	20339
898.672	20237
898.792	20256
898.913	20111
899.033	20214
899.153	20043
899.273	19814
899.393	20058
899.513	20024
899.633	20035
899.753	20027
899.873	20016
899.993	19967
900.113	19974
900.232	19868
900.352	19906
900.472	19765
900.591	19731
900.711	19826
900.83	19628
900.95	19913
901.069	19932
901.189	19563
901.308	19316
901.427	19339
901.546	19324
901.665	19365
901.784	19251
901.904	19171
902.023	19225
902.141	18939
902.26	18993
902.379	18920
902.498	18871
902.617	18844
902.735	18913
902.854	18753
902.973	18749
903.091	18578
903.21	18547
903.328	18475
903.446	18395
903.565	18315
903.683	18422
903.801	18136
903.919	18277
904.038	18178
904.156	18098
904.274	18247
904.392	18079
904.51	18076
904.627	18098
904.745	18060
904.863	18270
904.981	17927
905.098	17710
905.216	17786
905.334	17809
905.451	17824
905.569	17756
905.686	17809
905.803	17775
905.921	17471
906.038	17699
906.155	17646
906.272	17395
906.389	17539
906.506	17273
906.623	17368
906.74	17353
906.857	17216
906.974	17280
907.091	17440
907.208	17402
907.324	17242
907.441	17223
907.557	17029
907.674	16987
907.79	16972
907.907	16949
908.023	17060
908.139	16980
908.256	16942
908.372	16892
908.488	16904
908.604	16786
908.72	16694
908.836	16801
908.952	16649
909.068	16736
909.184	16934
909.3	16759
909.415	16797
909.531	16672
909.647	16481
909.762	16447
909.878	16398
909.993	16409
910.108	16478
910.224	16398
910.339	16443
910.454	16337
910.57	16238
910.685	16268
910.8	16409
910.915	16352
911.03	16333
911.145	16097
911.259	16025
911.374	16048
911.489	15983
911.604	15922
911.718	15663
911.833	15789
911.947	15751
912.062	15637
912.176	15876
912.291	15793
912.405	15888
912.519	15983
912.633	15884
912.748	15823
912.862	15743
912.976	15595
913.09	15302
913.204	15580
913.318	15545
913.431	15694
913.545	15667
913.659	15637
913.772	15542
913.886	15477
914	15397
914.113	15515
914.226	15466
914.34	15355
914.453	15336
914.566	15382
914.68	15302
914.793	15188
914.906	15108
915.019	15043
915.132	15081
915.245	15055
915.358	15097
915.47	15062
915.583	14921
915.696	15028
915.809	15013
915.921	15184
916.034	14910
916.146	14895
916.259	14902
916.371	14948
916.483	14918
916.595	14823
916.708	14864
916.82	14823
916.932	14769
917.044	14716
917.156	14750
917.268	14613
917.38	14708
917.491	14667
917.603	14651
917.715	14788
917.826	14796
917.938	14632
918.049	14537
918.161	14667
918.272	14785
918.384	14678
918.495	14659
918.606	14423
918.717	14400
918.828	14473
918.939	14457
919.05	14339
919.161	14442
919.272	14138
919.383	14233
919.494	14511
919.604	14610
919.715	14404
919.826	14339
919.936	14370
920.047	14503
920.157	14473
920.267	14613
920.378	14431
920.488	14343
920.598	14549
920.708	14708
920.818	14579
920.928	14610
921.038	14659
921.148	14629
921.258	14339
921.368	14248
921.477	14176
921.587	14149
921.697	13963
921.806	14058
921.916	14008
922.025	13814
922.134	13814
922.244	13868
922.353	13750
922.462	13693
922.571	13639
922.68	13575
922.789	13468
922.898	13510
923.007	13327
923.116	13518
923.224	13369
923.333	13396
923.442	13304
923.55	13209
923.659	13285
923.767	13259
923.876	13156
923.984	13335
924.092	13103
924.201	13091
924.309	13141
924.417	13179
924.525	13160
924.633	13050
924.741	13890
924.849	12943
924.956	13126
925.064	12840
925.172	12787
925.279	12734
925.387	12821
925.494	12890
925.602	13004
925.709	12871
925.816	12684
925.924	12863
926.031	12848
926.138	12852
926.245	12810
926.352	12749
926.459	12802
926.566	12916
926.673	12806
926.779	12604
926.886	12642
926.993	12448
927.099	12414
927.206	12475
927.312	12315
927.419	12525
927.525	12384
927.631	12426
927.737	12270
927.843	12258
927.95	12201
928.056	12235
928.162	12235
928.267	12216
928.373	12943
928.479	12270
928.585	12079
928.69	12148
928.796	12171
928.901	12136
929.007	11958
929.112	12133
929.218	12045
929.323	12041
929.428	11984
929.533	12140
929.638	11904
929.743	11965
929.848	11916
929.953	11889
930.058	11851
930.163	11726
930.267	11676
930.372	11824
930.477	11630
930.581	11840
930.685	11714
930.79	11619
930.894	11535
930.998	11554
931.103	11646
931.207	11330
931.311	11197
931.415	11151
931.519	10919
931.623	10953
