Data from test_V78500241_1051.txt Node
Date: Fri Mar 25 15:49:04 CST 2022
User: usil
Spectrometer: V785-0024
Trigger mode: 0
Integration Time (sec): 4.000000E-1
Scans to average: 1
Nonlinearity correction enabled: false
Boxcar width: 0
Storing dark spectrum: false
XAxis mode: Wavelengths
Number of Pixels in Spectrum: 1024
>>>>>Begin Spectral Data<<<<<
801.071	28538
801.214	28611
801.356	28207
801.499	28280
801.641	28010
801.783	28074
801.926	28109
802.068	28120
802.211	28063
802.353	28021
802.496	27880
802.638	27781
802.78	27701
802.923	27759
803.065	27755
803.208	27785
803.35	27781
803.492	27918
803.635	28044
803.777	27956
803.919	28025
804.061	28417
804.204	28082
804.346	27945
804.488	27865
804.63	27930
804.773	27911
804.915	27937
805.057	28135
805.199	27865
805.341	28112
805.483	28120
805.626	28162
805.768	28150
805.91	28207
806.052	28246
806.194	28013
806.336	28462
806.478	28200
806.62	28329
806.762	28337
806.904	28363
807.046	28721
807.188	28710
807.33	28611
807.472	28653
807.614	28622
807.756	28580
807.898	28447
808.04	28398
808.182	28375
808.324	28672
808.465	28538
808.607	28687
808.749	28904
808.891	29029
809.033	29056
809.174	28797
809.316	28908
809.458	28752
809.6	28828
809.741	28927
809.883	29090
810.025	29124
810.166	29162
810.308	29117
810.45	29185
810.591	29113
810.733	28858
810.875	28809
811.016	28691
811.158	28759
811.299	28984
811.441	29121
811.582	29052
811.724	28949
811.865	28831
812.007	28767
812.148	28858
812.29	28961
812.431	29048
812.573	29223
812.714	29330
812.855	29391
812.997	29547
813.138	29665
813.279	29531
813.421	29551
813.562	29368
813.703	29280
813.845	29140
813.986	28900
814.127	28771
814.268	28664
814.41	28679
814.551	28573
814.692	28679
814.833	28542
814.974	28565
815.115	28554
815.256	28443
815.397	28481
815.539	28344
815.68	28478
815.821	28325
815.962	28428
816.103	28478
816.244	28226
816.385	28337
816.526	28112
816.666	28074
816.807	28067
816.948	27960
817.089	28109
817.23	27994
817.371	27907
817.512	27899
817.653	27835
817.793	27907
817.934	27831
818.075	27922
818.216	27972
818.356	27934
818.497	27838
818.638	27530
818.778	27629
818.919	27686
819.06	27694
819.2	27690
819.341	27892
819.481	27979
819.622	28188
819.762	28242
819.903	28200
820.043	28101
820.184	27911
820.324	28048
820.465	28082
820.605	27899
820.746	28070
820.886	27861
821.026	28059
821.167	27964
821.307	28025
821.447	27960
821.588	27755
821.728	27755
821.868	27599
822.008	27439
822.149	27386
822.289	27545
822.429	27104
822.569	27203
822.709	27116
822.849	26804
822.99	26914
823.13	26906
823.27	26864
823.41	26815
823.55	26659
823.69	26762
823.83	26655
823.97	26609
824.11	26484
824.25	26602
824.389	26602
824.529	26533
824.669	26674
824.809	26731
824.949	26716
825.089	26670
825.228	26754
825.368	26511
825.508	26465
825.648	26602
825.787	26469
825.927	26568
826.067	26511
826.206	26412
826.346	26583
826.485	26461
826.625	26537
826.765	26427
826.904	26511
827.044	26431
827.183	26138
827.323	26054
827.462	26248
827.601	26259
827.741	26111
827.88	26164
828.02	26134
828.159	26126
828.298	26161
828.437	26278
828.577	26115
828.716	26172
828.855	25966
828.994	25940
829.134	25795
829.273	25864
829.412	25856
829.551	25818
829.69	25883
829.829	25868
829.968	25932
830.107	25955
830.246	25818
830.385	25928
830.524	25674
830.663	25658
830.802	25590
830.941	25502
831.08	25422
831.219	25624
831.357	25411
831.496	25677
831.635	25468
831.774	25324
831.913	25354
832.051	25179
832.19	25236
832.329	25293
832.467	25168
832.606	25129
832.744	25122
832.883	25088
833.022	25270
833.16	25175
833.299	25137
833.437	25107
833.576	25304
833.714	25114
833.852	25225
833.991	25293
834.129	25331
834.267	25282
834.406	25133
834.544	25301
834.682	25183
834.821	25266
834.959	25301
835.097	25156
835.235	25141
835.373	25156
835.511	25278
835.65	25164
835.788	25152
835.926	24905
836.064	24897
836.202	24966
836.34	24985
836.478	25118
836.615	25034
836.753	24966
836.891	25164
837.029	25019
837.167	24932
837.305	24928
837.443	24890
837.58	24848
837.718	24867
837.856	24764
837.993	24848
838.131	24798
838.269	24772
838.406	24722
838.544	24757
838.681	24388
838.819	24494
838.956	24296
839.094	24334
839.231	24388
839.369	24563
839.506	24639
839.643	24547
839.781	24350
839.918	24213
840.055	24300
840.193	24281
840.33	24194
840.467	24254
840.604	24285
840.742	24509
840.879	24159
841.016	24140
841.153	24018
841.29	24384
841.427	24163
841.564	24281
841.701	24190
841.838	24087
841.975	24216
842.112	24163
842.249	24018
842.385	24136
842.522	24167
842.659	24041
842.796	23904
842.933	24079
843.069	23988
843.206	23885
843.343	24095
843.479	23965
843.616	23923
843.752	23703
843.889	23752
844.025	23931
844.162	23687
844.298	23798
844.435	23638
844.571	23783
844.708	23756
844.844	23840
844.98	23969
845.117	23942
845.253	23707
845.389	23436
845.525	23615
845.661	23638
845.798	23463
845.934	23520
846.07	23520
846.206	23551
846.342	23687
846.478	23345
846.614	23318
846.75	23208
846.886	23170
847.022	23277
847.158	23162
847.294	23132
847.429	23227
847.565	23113
847.701	23425
847.837	22957
847.972	22896
848.108	22896
848.244	23151
848.379	22824
848.515	22820
848.65	22930
848.786	22923
848.921	22786
849.057	22908
849.192	22850
849.328	22854
849.463	22713
849.598	22698
849.734	22641
849.869	22656
850.004	22523
850.14	22687
850.275	22546
850.41	22527
850.545	22447
850.68	22550
850.815	22649
850.95	22573
851.085	22847
851.22	22702
851.355	22577
851.49	22527
851.625	22519
851.76	22675
851.895	22459
852.03	22447
852.165	22649
852.299	22615
852.434	22660
852.569	22527
852.703	22710
852.838	22668
852.973	22759
853.107	22596
853.242	22462
853.376	22428
853.511	22318
853.645	22341
853.78	22402
853.914	22421
854.048	22246
854.183	22413
854.317	22360
854.451	22500
854.585	22352
854.72	22314
854.854	22512
854.988	22394
855.122	22295
855.256	22268
855.39	22318
855.524	22379
855.658	22390
855.792	22341
855.926	22402
856.06	22459
856.194	22546
856.327	22322
856.461	22211
856.595	22238
856.729	22440
856.862	22489
856.996	22272
857.13	22447
857.263	22436
857.397	22478
857.53	22356
857.664	22386
857.797	22295
857.931	22459
858.064	22356
858.197	22470
858.331	22352
858.464	22379
858.597	22223
858.731	22268
858.864	22341
858.997	22303
859.13	22371
859.263	22390
859.396	22348
859.529	22337
859.662	22382
859.795	22268
859.928	22413
860.061	22489
860.194	22584
860.327	22405
860.46	22413
860.592	22569
860.725	22592
860.858	22390
860.99	22379
861.123	22390
861.256	22291
861.388	22276
861.521	23025
861.653	22188
861.786	22223
861.918	22135
862.05	22116
862.183	22367
862.315	22318
862.447	22508
862.58	22223
862.712	22139
862.844	22029
862.976	22147
863.108	22124
863.24	22516
863.372	21949
863.504	22116
863.636	21983
863.768	22048
863.9	22044
864.032	22025
864.164	21987
864.296	22044
864.428	22147
864.559	22147
864.691	22074
864.823	22139
864.954	22021
865.086	21972
865.217	22025
865.349	21873
865.48	21956
865.612	21903
865.743	22006
865.875	22040
866.006	21888
866.137	21956
866.269	21842
866.4	22032
866.531	21953
866.662	21895
866.793	21850
866.924	21899
867.055	21911
867.186	22036
867.317	21850
867.448	21759
867.579	21770
867.71	21804
867.841	21739
867.972	21930
868.103	21903
868.233	21915
868.364	21762
868.495	21998
868.625	22196
868.756	22226
868.886	22082
869.017	22169
869.147	22284
869.278	22295
869.408	22185
869.539	22120
869.669	22223
869.799	22150
869.929	22226
870.06	22192
870.19	22379
870.32	22470
870.45	22417
870.58	22527
870.71	22713
870.84	22516
870.97	22516
871.1	22516
871.23	22637
871.36	22645
871.489	22557
871.619	22729
871.749	22748
871.879	22725
872.008	22847
872.138	22797
872.267	22786
872.397	22592
872.526	22489
872.656	22538
872.785	22603
872.915	22733
873.044	22831
873.173	22675
873.303	22771
873.432	22763
873.561	22824
873.69	22748
873.819	22622
873.948	22854
874.077	22801
874.206	22755
874.335	22656
874.464	22797
874.593	22946
874.722	22877
874.851	23128
874.979	22987
875.108	23052
875.237	22866
875.365	22839
875.494	22896
875.623	23022
875.751	22843
875.88	22881
876.008	23029
876.136	23124
876.265	23322
876.393	23379
876.521	23406
876.65	23414
876.778	23379
876.906	23235
877.034	23265
877.162	23296
877.29	23372
877.418	23155
877.546	23170
877.674	23414
877.802	23246
877.93	23265
878.058	23311
878.185	23162
878.313	23212
878.441	23250
878.568	23136
878.696	23140
878.824	23292
878.951	23273
879.079	23505
879.206	23592
879.333	23345
879.461	23334
879.588	23414
879.715	23311
879.842	23570
879.97	23227
880.097	23098
880.224	23098
880.351	23185
880.478	23079
880.605	23056
880.732	23014
880.859	23227
880.986	23121
881.112	23174
881.239	22942
881.366	22793
881.493	22687
881.619	22733
881.746	22637
881.872	22660
881.999	22675
882.125	22573
882.252	22725
882.378	22649
882.505	22733
882.631	22500
882.757	22417
882.883	22409
883.01	22329
883.136	22303
883.262	22204
883.388	22124
883.514	22382
883.64	22325
883.766	22185
883.892	22192
884.018	22150
884.143	22333
884.269	22329
884.395	22101
884.52	21991
884.646	22143
884.772	21975
884.897	21979
885.023	21956
885.148	22101
885.274	22268
885.399	22093
885.524	21937
885.65	22036
885.775	21880
885.9	21964
886.025	22063
886.15	21979
886.275	21991
886.4	21846
886.525	22002
886.65	21899
886.775	21869
886.9	21960
887.025	22177
887.149	22074
887.274	21698
887.399	21778
887.523	21781
887.648	21751
887.773	21492
887.897	21827
888.021	21785
888.146	21743
888.27	21671
888.395	21709
888.519	21789
888.643	21812
888.767	21838
888.891	21644
889.015	21557
889.139	21679
889.263	21458
889.387	21743
889.511	21755
889.635	21759
889.759	21359
889.883	21488
890.006	21614
890.13	21492
890.254	21443
890.377	21466
890.501	21218
890.624	21218
890.748	21340
890.871	21230
890.995	21062
891.118	20960
891.241	21173
891.364	21222
891.488	21161
891.611	21154
891.734	21051
891.857	21169
891.98	21093
892.103	21135
892.226	20986
892.349	21123
892.471	20750
892.594	21055
892.717	21039
892.839	20929
892.962	20960
893.085	20921
893.207	20960
893.33	20785
893.452	20872
893.575	21108
893.697	20948
893.819	21131
893.941	21157
894.064	21085
894.186	20975
894.308	21028
894.43	21058
894.552	21146
894.674	21112
894.796	20769
894.918	20872
895.04	20857
895.161	21085
895.283	21001
895.405	20792
895.526	20975
895.648	20823
895.769	21043
895.891	21047
896.012	21024
896.134	21017
896.255	20880
896.376	20933
896.498	20819
896.619	21036
896.74	20830
896.861	20986
896.982	21256
897.103	21435
897.224	21359
897.345	21245
897.466	21028
897.587	21154
897.708	21272
897.828	21207
897.949	20982
898.07	20960
898.19	21119
898.311	21313
898.431	21100
898.552	21226
898.672	21150
898.792	21089
898.913	21214
899.033	21013
899.153	20979
899.273	20864
899.393	20876
899.513	20918
899.633	20895
899.753	20880
899.873	20960
899.993	20944
900.113	20724
900.232	20845
900.352	20792
900.472	20746
900.591	20724
900.711	20697
900.83	20632
900.95	20857
901.069	20815
901.189	20602
901.308	20336
901.427	20191
901.546	20313
901.665	20294
901.784	20202
901.904	20001
902.023	19936
902.141	19753
902.26	19727
902.379	19734
902.498	19860
902.617	19620
902.735	19780
902.854	19742
902.973	19590
903.091	19327
903.21	19396
903.328	19453
903.446	19270
903.565	19175
903.683	19228
903.801	19069
903.919	19038
904.038	19042
904.156	18970
904.274	18894
904.392	18867
904.51	18882
904.627	18886
904.745	19050
904.863	19046
904.981	18623
905.098	18532
905.216	18608
905.334	18677
905.451	18627
905.569	18555
905.686	18616
905.803	18559
905.921	18532
906.038	18566
906.155	18452
906.272	18247
906.389	18365
906.506	18125
906.623	18304
906.74	18213
906.857	18072
906.974	18117
907.091	18201
907.208	18247
907.324	18144
907.441	18076
907.557	17824
907.674	17920
907.79	17729
907.907	17859
908.023	17813
908.139	17931
908.256	17764
908.372	17767
908.488	17741
908.604	17653
908.72	17505
908.836	17615
908.952	17493
909.068	17554
909.184	17699
909.3	17501
909.415	17657
909.531	17512
909.647	17318
909.762	17334
909.878	17223
909.993	17273
910.108	17197
910.224	17208
910.339	17227
910.454	17204
910.57	16980
910.685	17045
910.8	17242
910.915	17132
911.03	17025
911.145	16976
911.259	16771
911.374	16847
911.489	16752
911.604	16717
911.718	16618
911.833	16615
911.947	16443
912.062	16451
912.176	16702
912.291	16611
912.405	16550
912.519	16801
912.633	16740
912.748	16630
912.862	16580
912.976	16398
913.09	16246
913.204	16295
913.318	16382
913.431	16489
913.545	16394
913.659	16459
913.772	16360
913.886	16234
914	16188
914.113	16268
914.226	16291
914.34	16287
914.453	16055
914.566	16166
914.68	16055
914.793	15968
914.906	15941
915.019	15724
915.132	15724
915.245	15766
915.358	15679
915.47	15709
915.583	15739
915.696	15717
915.809	15819
915.921	15869
916.034	15690
916.146	15660
916.259	15633
916.371	15819
916.483	15739
916.595	15523
916.708	15549
916.82	15591
916.932	15587
917.044	15557
917.156	15500
917.268	15401
917.38	15397
917.491	15386
917.603	15367
917.715	15477
917.826	15481
917.938	15344
918.049	15218
918.161	15272
918.272	15523
918.384	15462
918.495	15397
918.606	15173
918.717	15032
918.828	15165
918.939	15169
919.05	15100
919.161	15062
919.272	14895
919.383	14876
919.494	15176
919.604	15256
919.715	15100
919.826	14952
919.936	14933
920.047	15135
920.157	15100
920.267	15325
920.378	15001
920.488	14960
920.598	15325
920.708	15374
920.818	15252
920.928	15097
921.038	15370
921.148	15321
921.258	14994
921.368	14902
921.477	14861
921.587	14830
921.697	14743
921.806	14830
921.916	14648
922.025	14564
922.134	14507
922.244	14431
922.353	14549
922.462	14366
922.571	14244
922.68	14096
922.789	14210
922.898	14050
923.007	14046
923.116	14145
923.224	14134
923.333	13982
923.442	14054
923.55	13826
923.659	13871
923.767	13959
923.876	13890
923.984	13944
924.092	13826
924.201	13772
924.309	13799
924.417	13830
924.525	13685
924.633	13807
924.741	14457
924.849	13590
924.956	13666
925.064	13441
925.172	13518
925.279	13476
925.387	13525
925.494	13476
925.602	13563
925.709	13373
925.816	13320
925.924	13411
926.031	13392
926.138	13373
926.245	13343
926.352	13282
926.459	13396
926.566	13438
926.673	13365
926.779	13285
926.886	13126
926.993	13004
927.099	13027
927.206	12993
927.312	12901
927.419	13084
927.525	13031
927.631	13091
927.737	12840
927.843	12833
927.95	12779
928.056	12814
928.162	12878
928.267	12909
928.373	13422
928.479	12966
928.585	12715
928.69	12833
928.796	12764
928.901	12711
929.007	12547
929.112	12642
929.218	12669
929.323	12570
929.428	12525
929.533	12650
929.638	12372
929.743	12540
929.848	12525
929.953	12448
930.058	12391
930.163	12300
930.267	12186
930.372	12330
930.477	12171
930.581	12376
930.685	12220
930.79	12041
930.894	12114
930.998	12125
931.103	12235
931.207	11843
931.311	11798
931.415	11688
931.519	11410
931.623	11482
