Data from test_V78500241_2663.txt Node
Date: Fri Mar 25 16:00:14 CST 2022
User: usil
Spectrometer: V785-0024
Trigger mode: 0
Integration Time (sec): 4.000000E-1
Scans to average: 1
Nonlinearity correction enabled: false
Boxcar width: 0
Storing dark spectrum: false
XAxis mode: Wavelengths
Number of Pixels in Spectrum: 1024
>>>>>Begin Spectral Data<<<<<
801.071	28801
801.214	28717
801.356	28649
801.499	28508
801.641	28371
801.783	28432
801.926	28538
802.068	28462
802.211	28310
802.353	28261
802.496	28173
802.638	28135
802.78	28059
802.923	27953
803.065	27876
803.208	28147
803.35	27987
803.492	28181
803.635	28303
803.777	28249
803.919	28295
804.061	28683
804.204	28234
804.346	28367
804.488	28322
804.63	28421
804.773	28348
804.915	28299
805.057	28451
805.199	28219
805.341	28401
805.483	28478
805.626	28474
805.768	28246
805.91	28470
806.052	28550
806.194	28401
806.336	28615
806.478	28687
806.62	28592
806.762	28668
806.904	28847
807.046	29128
807.188	28942
807.33	28961
807.472	28919
807.614	28911
807.756	28900
807.898	28740
808.04	28729
808.182	28858
808.324	28679
808.465	29037
808.607	29022
808.749	29204
808.891	29391
809.033	29261
809.174	29220
809.316	29113
809.458	28938
809.6	29143
809.741	29269
809.883	29364
810.025	29444
810.166	29512
810.308	29383
810.45	29471
810.591	29452
810.733	29315
810.875	29242
811.016	29121
811.158	29181
811.299	29220
811.441	29444
811.582	29299
811.724	29250
811.865	29155
812.007	29174
812.148	29185
812.29	29212
812.431	29554
812.573	29444
812.714	29680
812.855	29726
812.997	29980
813.138	29870
813.279	29878
813.421	29771
813.562	29642
813.703	29524
813.845	29448
813.986	29151
814.127	29102
814.268	28980
814.41	28930
814.551	28965
814.692	29079
814.833	28771
814.974	28839
815.115	29025
815.256	28938
815.397	28710
815.539	28850
815.68	28710
815.821	28561
815.962	28656
816.103	28637
816.244	28649
816.385	28622
816.526	28618
816.666	28360
816.807	28272
816.948	28306
817.089	28360
817.23	28246
817.371	28306
817.512	28257
817.653	28246
817.793	28105
817.934	28154
818.075	28249
818.216	28215
818.356	28379
818.497	28143
818.638	27964
818.778	27979
818.919	27941
819.06	28002
819.2	28211
819.341	28371
819.481	28306
819.622	28344
819.762	28596
819.903	28516
820.043	28474
820.184	28462
820.324	28360
820.465	28519
820.605	28348
820.746	28440
820.886	28162
821.026	28401
821.167	28261
821.307	28375
821.447	28238
821.588	28173
821.728	27911
821.868	27835
822.008	27781
822.149	27671
822.289	27728
822.429	27427
822.569	27389
822.709	27424
822.849	27283
822.99	27241
823.13	27161
823.27	27230
823.41	27138
823.55	27028
823.69	27096
823.83	27127
823.97	26906
824.11	26883
824.25	26838
824.389	26937
824.529	26940
824.669	26933
824.809	27001
824.949	27013
825.089	27013
825.228	27009
825.368	26724
825.508	26686
825.648	26754
825.787	26842
825.927	26918
826.067	26701
826.206	26857
826.346	26731
826.485	26929
826.625	26773
826.765	26731
826.904	26906
827.044	26594
827.183	26648
827.323	26370
827.462	26560
827.601	26541
827.741	26457
827.88	26549
828.02	26480
828.159	26495
828.298	26560
828.437	26560
828.577	26469
828.716	26564
828.855	26431
828.994	26244
829.134	26199
829.273	26275
829.412	26111
829.551	26092
829.69	26202
829.829	26218
829.968	26206
830.107	26202
830.246	26210
830.385	26145
830.524	26012
830.663	26092
830.802	25963
830.941	25833
831.08	25700
831.219	25921
831.357	25944
831.496	25974
831.635	25833
831.774	25947
831.913	25696
832.051	25674
832.19	25521
832.329	25734
832.467	25339
832.606	25479
832.744	25514
832.883	25483
833.022	25499
833.16	25369
833.299	25575
833.437	25464
833.576	25529
833.714	25578
833.852	25521
833.991	25533
834.129	25655
834.267	25616
834.406	25597
834.544	25594
834.682	25590
834.821	25502
834.959	25738
835.097	25449
835.235	25495
835.373	25597
835.511	25506
835.65	25514
835.788	25453
835.926	25289
836.064	25129
836.202	25225
836.34	25460
836.478	25483
836.615	25396
836.753	25247
836.891	25377
837.029	25301
837.167	25304
837.305	25297
837.443	25217
837.58	25244
837.718	25297
837.856	25183
837.993	25168
838.131	25236
838.269	24951
838.406	25133
838.544	25023
838.681	24970
838.819	24802
838.956	24661
839.094	24745
839.231	24711
839.369	24871
839.506	25099
839.643	24905
839.781	24673
839.918	24593
840.055	24642
840.193	24730
840.33	24658
840.467	24768
840.604	24608
840.742	24772
840.879	24422
841.016	24582
841.153	24338
841.29	24768
841.427	24536
841.564	24635
841.701	24677
841.838	24521
841.975	24388
842.112	24437
842.249	24460
842.385	24247
842.522	24547
842.659	24376
842.796	24407
842.933	24330
843.069	24289
843.206	24334
843.343	24350
843.479	24380
843.616	24304
843.752	24064
843.889	24076
844.025	24262
844.162	23973
844.298	24201
844.435	24049
844.571	24095
844.708	24079
844.844	24220
844.98	24186
845.117	24140
845.253	23958
845.389	23946
845.525	23897
845.661	23931
845.798	23832
845.934	23851
846.07	23840
846.206	23832
846.342	23999
846.478	23783
846.614	23718
846.75	23566
846.886	23570
847.022	23585
847.158	23474
847.294	23653
847.429	23592
847.565	23547
847.701	23832
847.837	23261
847.972	23303
848.108	23410
848.244	23315
848.379	23060
848.515	23151
848.65	23113
848.786	23064
848.921	23124
849.057	23170
849.192	23337
849.328	23200
849.463	23086
849.598	23014
849.734	23086
849.869	22942
850.004	22976
850.14	22938
850.275	22995
850.41	22828
850.545	22862
850.68	22885
850.815	22862
850.95	22774
851.085	23052
851.22	23033
851.355	22984
851.49	22763
851.625	22816
851.76	22858
851.895	22812
852.03	22763
852.165	22972
852.299	22949
852.434	23052
852.569	22877
852.703	22816
852.838	22911
852.973	23083
853.107	22949
853.242	22812
853.376	22710
853.511	22694
853.645	22672
853.78	22782
853.914	22797
854.048	22660
854.183	22694
854.317	22835
854.451	22869
854.585	22713
854.72	22778
854.854	22717
854.988	22660
855.122	22801
855.256	22588
855.39	22615
855.524	22869
855.658	22828
855.792	22588
855.926	22778
856.06	22694
856.194	22904
856.327	22698
856.461	22694
856.595	22592
856.729	22584
856.862	22858
856.996	22786
857.13	22721
857.263	22877
857.397	22843
857.53	22645
857.664	22607
857.797	22812
857.931	22744
858.064	22782
858.197	22828
858.331	22649
858.464	22649
858.597	22596
858.731	22683
858.864	22493
858.997	22805
859.13	22691
859.263	22653
859.396	22786
859.529	22767
859.662	22569
859.795	22672
859.928	22683
860.061	22881
860.194	22942
860.327	22809
860.46	22759
860.592	22767
860.725	22904
860.858	22908
860.99	22729
861.123	22615
861.256	22660
861.388	22615
861.521	23573
861.653	22478
861.786	22504
861.918	22592
862.05	22542
862.183	22641
862.315	22607
862.447	22736
862.58	22527
862.712	22440
862.844	22379
862.976	22493
863.108	22455
863.24	22793
863.372	22363
863.504	22531
863.636	22436
863.768	22493
863.9	22421
864.032	22348
864.164	22268
864.296	22455
864.428	22531
864.559	22546
864.691	22478
864.823	22451
864.954	22367
865.086	22390
865.217	22223
865.349	22196
865.48	22303
865.612	22242
865.743	22447
865.875	22257
866.006	22329
866.137	22356
866.269	22379
866.4	22238
866.531	22226
866.662	22177
866.793	22154
866.924	22246
867.055	22230
867.186	22223
867.317	22230
867.448	22128
867.579	22131
867.71	22173
867.841	22154
867.972	22196
868.103	22097
868.233	22226
868.364	22329
868.495	22352
868.625	22599
868.756	22691
868.886	22508
869.017	22466
869.147	22481
869.278	22531
869.408	22428
869.539	22474
869.669	22474
869.799	22542
869.929	22592
870.06	22500
870.19	22778
870.32	22793
870.45	22797
870.58	22965
870.71	22965
870.84	23025
870.97	22858
871.1	22869
871.23	23014
871.36	23083
871.489	22934
871.619	22949
871.749	23075
871.879	23128
872.008	23212
872.138	23147
872.267	23090
872.397	23014
872.526	22949
872.656	22869
872.785	22942
872.915	23132
873.044	23197
873.173	23258
873.303	23151
873.432	23079
873.561	23185
873.69	23010
873.819	23117
873.948	23136
874.077	23094
874.206	23022
874.335	23117
874.464	23090
874.593	23280
874.722	23235
874.851	23223
874.979	23322
875.108	23379
875.237	23288
875.365	23204
875.494	23151
875.623	23360
875.751	23322
875.88	23246
876.008	23410
876.136	23364
876.265	23687
876.393	23843
876.521	23703
876.65	23615
876.778	23745
876.906	23547
877.034	23604
877.162	23695
877.29	23600
877.418	23714
877.546	23604
877.674	23562
877.802	23585
877.93	23600
878.058	23539
878.185	23638
878.313	23474
878.441	23638
878.568	23486
878.696	23627
878.824	23634
878.951	23630
879.079	23851
879.206	23939
879.333	23767
879.461	23767
879.588	23783
879.715	23901
879.842	23904
879.97	23771
880.097	23467
880.224	23376
880.351	23524
880.478	23474
880.605	23471
880.732	23482
880.859	23684
880.986	23433
881.112	23436
881.239	23220
881.366	23269
881.493	23105
881.619	23105
881.746	22942
881.872	23037
881.999	22957
882.125	23014
882.252	23014
882.378	23041
882.505	23197
882.631	22847
882.757	22641
882.883	22885
883.01	22641
883.136	22653
883.262	22577
883.388	22497
883.514	22637
883.64	22672
883.766	22538
883.892	22451
884.018	22417
884.143	22637
884.269	22683
884.395	22417
884.52	22341
884.646	22337
884.772	22268
884.897	22329
885.023	22226
885.148	22405
885.274	22360
885.399	22265
885.524	22371
885.65	22299
885.775	22375
885.9	22204
886.025	22428
886.15	22352
886.275	22299
886.4	22249
886.525	22109
886.65	22139
886.775	22390
886.9	22436
887.025	22497
887.149	22196
887.274	22097
887.399	22029
887.523	21975
887.648	22048
887.773	21850
887.897	22192
888.021	22116
888.146	22082
888.27	22154
888.395	22177
888.519	21934
888.643	22162
888.767	22143
888.891	21869
889.015	21903
889.139	21956
889.263	21755
889.387	21960
889.511	22032
889.635	21907
889.759	21865
889.883	21793
890.006	21960
890.13	21960
890.254	21827
890.377	21690
890.501	21583
890.624	21606
890.748	21603
890.871	21500
890.995	21572
891.118	21340
891.241	21203
891.364	21412
891.488	21564
891.611	21340
891.734	21378
891.857	21405
891.98	21336
892.103	21469
892.226	21401
892.349	21397
892.471	21264
892.594	21302
892.717	21245
892.839	21192
892.962	21252
893.085	21443
893.207	21348
893.33	21272
893.452	21184
893.575	21344
893.697	21237
893.819	21462
893.941	21447
894.064	21382
894.186	21241
894.308	21222
894.43	21378
894.552	21412
894.674	21359
894.796	21146
894.918	21272
895.04	21188
895.161	21435
895.283	21321
895.405	21268
895.526	21359
895.648	21264
895.769	21260
895.891	21260
896.012	21313
896.134	21222
896.255	21367
896.376	21275
896.498	21260
896.619	21329
896.74	21165
896.861	21382
896.982	21523
897.103	21637
897.224	21454
897.345	21485
897.466	21469
897.587	21454
897.708	21549
897.828	21424
897.949	21534
898.07	21218
898.19	21545
898.311	21561
898.431	21424
898.552	21454
898.672	21355
898.792	21469
898.913	21507
899.033	21226
899.153	21207
899.273	21116
899.393	21226
899.513	21298
899.633	21184
899.753	21332
899.873	21203
899.993	21169
900.113	21032
900.232	21096
900.352	21116
900.472	20925
900.591	20948
900.711	20925
900.83	20979
900.95	20994
901.069	20982
901.189	20849
901.308	20564
901.427	20560
901.546	20533
901.665	20488
901.784	20594
901.904	20332
902.023	20233
902.141	20020
902.26	19997
902.379	20043
902.498	20065
902.617	19967
902.735	20092
902.854	19921
902.973	19826
903.091	19731
903.21	19738
903.328	19704
903.446	19499
903.565	19525
903.683	19445
903.801	19304
903.919	19400
904.038	19400
904.156	19362
904.274	19274
904.392	19179
904.51	19183
904.627	19358
904.745	19168
904.863	19255
904.981	19080
905.098	18943
905.216	18897
905.334	18905
905.451	18829
905.569	18878
905.686	18890
905.803	18844
905.921	18623
906.038	18665
906.155	18829
906.272	18620
906.389	18681
906.506	18426
906.623	18380
906.74	18513
906.857	18273
906.974	18372
907.091	18429
907.208	18658
907.324	18429
907.441	18467
907.557	18232
907.674	18125
907.79	18121
907.907	18072
908.023	18117
908.139	18091
908.256	18136
908.372	18015
908.488	17996
908.604	17916
908.72	17882
908.836	17920
908.952	17817
909.068	17942
909.184	17920
909.3	17885
909.415	17923
909.531	17843
909.647	17630
909.762	17566
909.878	17512
909.993	17551
910.108	17562
910.224	17592
910.339	17528
910.454	17417
910.57	17417
910.685	17364
910.8	17551
910.915	17501
911.03	17398
911.145	17288
911.259	17200
911.374	17109
911.489	17067
911.604	17105
911.718	16946
911.833	16904
911.947	16839
912.062	16801
912.176	16831
912.291	16885
912.405	16847
912.519	17064
912.633	17094
912.748	16869
912.862	16660
912.976	16694
913.09	16535
913.204	16710
913.318	16729
913.431	16710
913.545	16835
913.659	16691
913.772	16523
913.886	16493
914	16386
914.113	16554
914.226	16565
914.34	16516
914.453	16329
914.566	16443
914.68	16356
914.793	16185
914.906	16131
915.019	16032
915.132	16010
915.245	16097
915.358	16063
915.47	16116
915.583	16101
915.696	16002
915.809	16147
915.921	16204
916.034	15937
916.146	15915
916.259	15869
916.371	15960
916.483	16017
916.595	15842
916.708	15876
916.82	15819
916.932	15781
917.044	15892
917.156	15770
917.268	15682
917.38	15679
917.491	15580
917.603	15595
917.715	15663
917.826	15717
917.938	15500
918.049	15526
918.161	15545
918.272	15739
918.384	15759
918.495	15637
918.606	15420
918.717	15313
918.828	15355
918.939	15397
919.05	15332
919.161	15355
919.272	15176
919.383	15241
919.494	15416
919.604	15462
919.715	15378
919.826	15344
919.936	15378
920.047	15428
920.157	15370
920.267	15507
920.378	15412
920.488	15256
920.598	15568
920.708	15610
920.818	15526
920.928	15443
921.038	15561
921.148	15553
921.258	15302
921.368	15211
921.477	15093
921.587	15104
921.697	14906
921.806	15051
921.916	14937
922.025	14796
922.134	14807
922.244	14648
922.353	14731
922.462	14621
922.571	14560
922.68	14336
922.789	14393
922.898	14275
923.007	14275
923.116	14400
923.224	14328
923.333	14309
923.442	14263
923.55	14214
923.659	14176
923.767	14233
923.876	14043
923.984	14149
924.092	14088
924.201	14084
924.309	14069
924.417	14001
924.525	13947
924.633	13932
924.741	14849
924.849	13833
924.956	13932
925.064	13826
925.172	13681
925.279	13658
925.387	13696
925.494	13738
925.602	13757
925.709	13731
925.816	13613
925.924	13597
926.031	13723
926.138	13620
926.245	13677
926.352	13609
926.459	13647
926.566	13666
926.673	13601
926.779	13438
926.886	13464
926.993	13247
927.099	13209
927.206	13209
927.312	13160
927.419	13289
927.525	13274
927.631	13251
927.737	13183
927.843	13133
927.95	12996
928.056	13080
928.162	13038
928.267	13076
928.373	13616
928.479	13118
928.585	12932
928.69	13012
928.796	13137
928.901	12939
929.007	12745
929.112	12962
929.218	12894
929.323	12810
929.428	12760
929.533	12920
929.638	12650
929.743	12703
929.848	12806
929.953	12650
930.058	12612
930.163	12388
930.267	12448
930.372	12601
930.477	12308
930.581	12585
930.685	12486
930.79	12327
930.894	12350
930.998	12270
931.103	12407
931.207	12068
931.311	11893
931.415	11817
931.519	11657
931.623	11611
