Data from test_V78500241_2367.txt Node
Date: Fri Mar 25 15:58:11 CST 2022
User: usil
Spectrometer: V785-0024
Trigger mode: 0
Integration Time (sec): 4.000000E-1
Scans to average: 1
Nonlinearity correction enabled: false
Boxcar width: 0
Storing dark spectrum: false
XAxis mode: Wavelengths
Number of Pixels in Spectrum: 1024
>>>>>Begin Spectral Data<<<<<
801.071	28363
801.214	28268
801.356	28074
801.499	28105
801.641	28013
801.783	27880
801.926	27922
802.068	27831
802.211	27880
802.353	27694
802.496	27633
802.638	27610
802.78	27606
802.923	27481
803.065	27397
803.208	27462
803.35	27526
803.492	27751
803.635	27781
803.777	27663
803.919	27644
804.061	28040
804.204	27914
804.346	27656
804.488	27606
804.63	27732
804.773	27656
804.915	27876
805.057	27991
805.199	27679
805.341	27892
805.483	27873
805.626	27816
805.768	27762
805.91	27854
806.052	27914
806.194	27816
806.336	28067
806.478	27987
806.62	27956
806.762	28063
806.904	28181
807.046	28318
807.188	28424
807.33	28382
807.472	28440
807.614	28367
807.756	28284
807.898	28261
808.04	28078
808.182	28230
808.324	28310
808.465	28295
808.607	28462
808.749	28489
808.891	28535
809.033	28729
809.174	28561
809.316	28519
809.458	28599
809.6	28443
809.741	28710
809.883	28790
810.025	28862
810.166	28843
810.308	28858
810.45	28790
810.591	28755
810.733	28622
810.875	28447
811.016	28371
811.158	28561
811.299	28668
811.441	28683
811.582	28759
811.724	28569
811.865	28538
812.007	28683
812.148	28592
812.29	28702
812.431	28592
812.573	28980
812.714	29003
812.855	29075
812.997	29136
813.138	29220
813.279	29208
813.421	29128
813.562	28930
813.703	28987
813.845	28763
813.986	28508
814.127	28337
814.268	28310
814.41	28390
814.551	28246
814.692	28310
814.833	28135
814.974	28276
815.115	28341
815.256	28097
815.397	28029
815.539	28181
815.68	28090
815.821	27979
815.962	28169
816.103	28010
816.244	27835
816.385	27819
816.526	27953
816.666	27671
816.807	27454
816.948	27583
817.089	27694
817.23	27542
817.371	27622
817.512	27564
817.653	27526
817.793	27637
817.934	27633
818.075	27500
818.216	27580
818.356	27606
818.497	27374
818.638	27283
818.778	27260
818.919	27386
819.06	27340
819.2	27660
819.341	27538
819.481	27587
819.622	27774
819.762	27949
819.903	27861
820.043	27739
820.184	27698
820.324	27747
820.465	27808
820.605	27694
820.746	27519
820.886	27466
821.026	27724
821.167	27523
821.307	27736
821.447	27572
821.588	27477
821.728	27462
821.868	27256
822.008	27001
822.149	27127
822.289	26963
822.429	26693
822.569	26659
822.709	26842
822.849	26568
822.99	26560
823.13	26609
823.27	26484
823.41	26480
823.55	26191
823.69	26313
823.83	26328
823.97	26366
824.11	26294
824.25	26240
824.389	26240
824.529	26298
824.669	26202
824.809	26233
824.949	26248
825.089	26221
825.228	26233
825.368	26199
825.508	26122
825.648	26100
825.787	26088
825.927	26073
826.067	25997
826.206	25955
826.346	26119
826.485	26183
826.625	25997
826.765	26126
826.904	26016
827.044	25837
827.183	25700
827.323	25693
827.462	25856
827.601	25856
827.741	25712
827.88	25887
828.02	25795
828.159	25784
828.298	25723
828.437	25738
828.577	25833
828.716	25799
828.855	25738
828.994	25441
829.134	25559
829.273	25453
829.412	25411
829.551	25430
829.69	25400
829.829	25499
829.968	25521
830.107	25540
830.246	25483
830.385	25434
830.524	25358
830.663	25244
830.802	25164
830.941	25114
831.08	24951
831.219	25084
831.357	25084
831.496	25346
831.635	25084
831.774	24844
831.913	24951
832.051	24932
832.19	24848
832.329	24951
832.467	24795
832.606	24719
832.744	24677
832.883	24722
833.022	24734
833.16	24806
833.299	24894
833.437	24825
833.576	24806
833.714	24738
833.852	24848
833.991	24916
834.129	24848
834.267	24829
834.406	24677
834.544	24829
834.682	24779
834.821	24684
834.959	24901
835.097	24707
835.235	24905
835.373	24768
835.511	24749
835.65	24665
835.788	24635
835.926	24582
836.064	24464
836.202	24479
836.34	24703
836.478	24722
836.615	24612
836.753	24589
836.891	24635
837.029	24688
837.167	24681
837.305	24498
837.443	24483
837.58	24544
837.718	24513
837.856	24601
837.993	24448
838.131	24479
838.269	24315
838.406	24437
838.544	24270
838.681	24114
838.819	23996
838.956	23942
839.094	23855
839.231	24057
839.369	24140
839.506	24311
839.643	24053
839.781	23866
839.918	23889
840.055	23863
840.193	23923
840.33	23771
840.467	23855
840.604	23847
840.742	24125
840.879	23764
841.016	23726
841.153	23703
841.29	23874
841.427	23707
841.564	23817
841.701	23882
841.838	23790
841.975	23760
842.112	23767
842.249	23718
842.385	23615
842.522	23786
842.659	23585
842.796	23726
842.933	23630
843.069	23543
843.206	23646
843.343	23653
843.479	23638
843.616	23608
843.752	23379
843.889	23368
844.025	23493
844.162	23406
844.298	23501
844.435	23303
844.571	23349
844.708	23368
844.844	23608
844.98	23467
845.117	23452
845.253	23261
845.389	23159
845.525	23204
845.661	23242
845.798	23010
845.934	23075
846.07	23113
846.206	23128
846.342	23117
846.478	23044
846.614	22965
846.75	22858
846.886	22854
847.022	22790
847.158	22862
847.294	22744
847.429	22854
847.565	22744
847.701	22949
847.837	22713
847.972	22630
848.108	22592
848.244	22664
848.379	22508
848.515	22436
848.65	22356
848.786	22440
848.921	22478
849.057	22478
849.192	22447
849.328	22390
849.463	22272
849.598	22310
849.734	22375
849.869	22299
850.004	22055
850.14	22185
850.275	22272
850.41	22131
850.545	22215
850.68	22143
850.815	22284
850.95	22230
851.085	22306
851.22	22200
851.355	22177
851.49	22147
851.625	22109
851.76	22116
851.895	22147
852.03	22128
852.165	22124
852.299	22196
852.434	22268
852.569	22207
852.703	22253
852.838	22181
852.973	22249
853.107	22382
853.242	22044
853.376	21876
853.511	21827
853.645	21998
853.78	22086
853.914	22090
854.048	22010
854.183	22025
854.317	22036
854.451	22143
854.585	22036
854.72	21922
854.854	22120
854.988	22025
855.122	22067
855.256	21751
855.39	22063
855.524	22093
855.658	21918
855.792	22002
855.926	22032
856.06	22090
856.194	22025
856.327	21953
856.461	21876
856.595	21895
856.729	21918
856.862	22048
856.996	21979
857.13	22116
857.263	22181
857.397	22154
857.53	21823
857.664	22025
857.797	22025
857.931	22097
858.064	22093
858.197	22158
858.331	21880
858.464	22010
858.597	21854
858.731	22002
858.864	21850
858.997	21941
859.13	22036
859.263	22067
859.396	22059
859.529	21991
859.662	21987
859.795	22029
859.928	22006
860.061	22006
860.194	22253
860.327	22082
860.46	21934
860.592	22101
860.725	22181
860.858	22226
860.99	21994
861.123	21972
861.256	21941
861.388	21895
861.521	22664
861.653	21888
861.786	21816
861.918	21789
862.05	21903
862.183	22002
862.315	21831
862.447	21876
862.58	21949
862.712	21690
862.844	21625
862.976	21804
863.108	21812
863.24	22246
863.372	21614
863.504	21736
863.636	21857
863.768	21682
863.9	21728
864.032	21625
864.164	21739
864.296	21644
864.428	21781
864.559	21911
864.691	21831
864.823	21701
864.954	21682
865.086	21656
865.217	21618
865.349	21378
865.48	21652
865.612	21618
865.743	21663
865.875	21701
866.006	21599
866.137	21568
866.269	21622
866.4	21477
866.531	21515
866.662	21580
866.793	21428
866.924	21500
867.055	21610
867.186	21515
867.317	21507
867.448	21397
867.579	21481
867.71	21492
867.841	21393
867.972	21526
868.103	21496
868.233	21519
868.364	21557
868.495	21534
868.625	21720
868.756	21732
868.886	21625
869.017	21717
869.147	21884
869.278	21819
869.408	21865
869.539	21732
869.669	21739
869.799	21778
869.929	21854
870.06	21899
870.19	22139
870.32	22059
870.45	22143
870.58	22219
870.71	22223
870.84	22276
870.97	22116
871.1	22226
871.23	22459
871.36	22352
871.489	22223
871.619	22322
871.749	22265
871.879	22451
872.008	22386
872.138	22314
872.267	22348
872.397	22242
872.526	22196
872.656	22192
872.785	22158
872.915	22314
873.044	22478
873.173	22367
873.303	22478
873.432	22497
873.561	22504
873.69	22329
873.819	22421
873.948	22375
874.077	22337
874.206	22211
874.335	22367
874.464	22493
874.593	22649
874.722	22664
874.851	22653
874.979	22573
875.108	22592
875.237	22538
875.365	22436
875.494	22656
875.623	22641
875.751	22527
875.88	22615
876.008	22824
876.136	22904
876.265	23086
876.393	23041
876.521	23102
876.65	23022
876.778	23041
876.906	22984
877.034	22930
877.162	22957
877.29	22908
877.418	22946
877.546	23025
877.674	22915
877.802	22949
877.93	22965
878.058	22866
878.185	22782
878.313	22972
878.441	22896
878.568	22786
878.696	22934
878.824	22923
878.951	23006
879.079	23018
879.206	23258
879.333	22953
879.461	22991
879.588	23052
879.715	23208
879.842	23189
879.97	23022
880.097	22706
880.224	22771
880.351	22771
880.478	22820
880.605	22702
880.732	22778
880.859	22934
880.986	22771
881.112	22843
881.239	22497
881.366	22474
881.493	22405
881.619	22405
881.746	22413
881.872	22348
881.999	22375
882.125	22181
882.252	22333
882.378	22394
882.505	22386
882.631	22219
882.757	22070
882.883	22021
883.01	22010
883.136	22067
883.262	21960
883.388	21793
883.514	22010
883.64	22101
883.766	21888
883.892	21838
884.018	21770
884.143	21895
884.269	22078
884.395	21892
884.52	21663
884.646	21720
884.772	21625
884.897	21682
885.023	21667
885.148	21690
885.274	21720
885.399	21728
885.524	21644
885.65	21652
885.775	21682
885.9	21549
886.025	21724
886.15	21682
886.275	21625
886.4	21618
886.525	21500
886.65	21629
886.775	21629
886.9	21804
887.025	21831
887.149	21530
887.274	21492
887.399	21462
887.523	21454
887.648	21454
887.773	21382
887.897	21530
888.021	21481
888.146	21348
888.27	21534
888.395	21485
888.519	21405
888.643	21523
888.767	21473
888.891	21188
889.015	21184
889.139	21344
889.263	21058
889.387	21408
889.511	21268
889.635	21317
889.759	21127
889.883	21207
890.006	21100
890.13	21344
890.254	21085
890.377	21039
890.501	20986
890.624	20864
890.748	20971
890.871	20883
890.995	20792
891.118	20842
891.241	20693
891.364	20777
891.488	20804
891.611	20899
891.734	20739
891.857	20883
891.98	20735
892.103	20792
892.226	20651
892.349	20834
892.471	20530
892.594	20667
892.717	20712
892.839	20689
892.962	20625
893.085	20689
893.207	20537
893.33	20507
893.452	20590
893.575	20636
893.697	20568
893.819	20735
893.941	20804
894.064	20826
894.186	20648
894.308	20575
894.43	20636
894.552	20819
894.674	20587
894.796	20533
894.918	20648
895.04	20720
895.161	20701
895.283	20682
895.405	20518
895.526	20674
895.648	20746
895.769	20651
895.891	20651
896.012	20781
896.134	20807
896.255	20724
896.376	20644
896.498	20621
896.619	20800
896.74	20636
896.861	20636
896.982	21020
897.103	21104
897.224	20952
897.345	20838
897.466	20750
897.587	20895
897.708	20941
897.828	20941
897.949	20781
898.07	20743
898.19	20743
898.311	20902
898.431	20823
898.552	20758
898.672	20883
898.792	20823
898.913	20826
899.033	20804
899.153	20667
899.273	20590
899.393	20556
899.513	20480
899.633	20648
899.753	20556
899.873	20590
899.993	20518
900.113	20503
900.232	20648
900.352	20518
900.472	20343
900.591	20343
900.711	20423
900.83	20244
900.95	20522
901.069	20465
901.189	20290
901.308	20069
901.427	20008
901.546	19864
901.665	19978
901.784	19986
901.904	19906
902.023	19628
902.141	19582
902.26	19529
902.379	19537
902.498	19472
902.617	19464
902.735	19468
902.854	19537
902.973	19293
903.091	19122
903.21	19183
903.328	18989
903.446	19069
903.565	19004
903.683	18840
903.801	18837
903.919	18837
904.038	18859
904.156	18665
904.274	18696
904.392	18734
904.51	18703
904.627	18604
904.745	18726
904.863	18810
904.981	18490
905.098	18456
905.216	18422
905.334	18308
905.451	18422
905.569	18289
905.686	18376
905.803	18258
905.921	18060
906.038	18228
906.155	18171
906.272	18034
906.389	17988
906.506	17817
906.623	17908
906.74	17939
906.857	17764
906.974	17802
907.091	17992
907.208	17980
907.324	17874
907.441	17783
907.557	17539
907.674	17566
907.79	17600
907.907	17433
908.023	17509
908.139	17604
908.256	17524
908.372	17539
908.488	17440
908.604	17364
908.72	17296
908.836	17311
908.952	17265
909.068	17204
909.184	17414
909.3	17303
909.415	17326
909.531	17265
909.647	17010
909.762	16999
909.878	17014
909.993	16972
910.108	16976
910.224	17018
910.339	16961
910.454	16809
910.57	16858
910.685	16649
910.8	16995
910.915	16972
911.03	16736
911.145	16713
911.259	16527
911.374	16531
911.489	16459
911.604	16489
911.718	16306
911.833	16265
911.947	16215
912.062	16131
912.176	16333
912.291	16299
912.405	16360
912.519	16535
912.633	16424
912.748	16303
912.862	16318
912.976	16226
913.09	15964
913.204	16158
913.318	16200
913.431	16234
913.545	16158
913.659	16230
913.772	16093
913.886	15945
914	15911
914.113	16013
914.226	16032
914.34	15911
914.453	15698
914.566	15911
914.68	15884
914.793	15755
914.906	15641
915.019	15500
915.132	15545
915.245	15507
915.358	15549
915.47	15538
915.583	15656
915.696	15542
915.809	15576
915.921	15595
916.034	15412
916.146	15428
916.259	15351
916.371	15576
916.483	15424
916.595	15348
916.708	15378
916.82	15401
916.932	15329
917.044	15374
917.156	15252
917.268	15249
917.38	15260
917.491	15165
917.603	15264
917.715	15268
917.826	15283
917.938	15169
918.049	14971
918.161	15100
918.272	15291
918.384	15252
918.495	15051
918.606	14906
918.717	14887
918.828	14880
918.939	14960
919.05	14864
919.161	14921
919.272	14769
919.383	14739
919.494	14853
919.604	15108
919.715	14899
919.826	14746
919.936	14834
920.047	14910
920.157	14883
920.267	15047
920.378	14899
920.488	14819
920.598	15020
920.708	15154
920.818	15062
920.928	14998
921.038	15211
921.148	15119
921.258	14815
921.368	14762
921.477	14606
921.587	14522
921.697	14465
921.806	14590
921.916	14370
922.025	14313
922.134	14244
922.244	14225
922.353	14282
922.462	14096
922.571	14161
922.68	13928
922.789	13928
922.898	13890
923.007	13852
923.116	13940
923.224	13818
923.333	13791
923.442	13704
923.55	13639
923.659	13818
923.767	13734
923.876	13689
923.984	13761
924.092	13636
924.201	13563
924.309	13495
924.417	13655
924.525	13491
924.633	13655
924.741	14461
924.849	13327
924.956	13449
925.064	13335
925.172	13259
925.279	13194
925.387	13316
925.494	13327
925.602	13381
925.709	13316
925.816	13160
925.924	13278
926.031	13293
926.138	13209
926.245	13168
926.352	13000
926.459	13358
926.566	13320
926.673	13114
926.779	13034
926.886	13000
926.993	12817
927.099	12856
927.206	12798
927.312	12795
927.419	12901
927.525	12764
927.631	12890
927.737	12741
927.843	12642
927.95	12601
928.056	12555
928.162	12582
928.267	12722
928.373	13304
928.479	12749
928.585	12544
928.69	12673
928.796	12707
928.901	12441
929.007	12399
929.112	12445
929.218	12502
929.323	12281
929.428	12384
929.533	12429
929.638	12319
929.743	12334
929.848	12418
929.953	12410
930.058	12232
930.163	11954
930.267	12121
930.372	12205
930.477	11988
930.581	12182
930.685	12091
930.79	11885
930.894	11958
930.998	11813
931.103	12015
931.207	11634
931.311	11608
931.415	11497
931.519	11353
931.623	11318
