Data from test_V78500241_1856.txt Node
Date: Fri Mar 25 15:54:39 CST 2022
User: usil
Spectrometer: V785-0024
Trigger mode: 0
Integration Time (sec): 4.000000E-1
Scans to average: 1
Nonlinearity correction enabled: false
Boxcar width: 0
Storing dark spectrum: false
XAxis mode: Wavelengths
Number of Pixels in Spectrum: 1024
>>>>>Begin Spectral Data<<<<<
801.071	28447
801.214	28417
801.356	28032
801.499	27960
801.641	27876
801.783	27854
801.926	28025
802.068	27846
802.211	27892
802.353	27797
802.496	27717
802.638	27629
802.78	27576
802.923	27534
803.065	27408
803.208	27542
803.35	27568
803.492	27682
803.635	27899
803.777	27694
803.919	27895
804.061	28135
804.204	27930
804.346	27789
804.488	27770
804.63	27857
804.773	27800
804.915	27816
805.057	27983
805.199	27785
805.341	27953
805.483	27937
805.626	28017
805.768	27785
805.91	27884
806.052	27949
806.194	27949
806.336	27869
806.478	28013
806.62	27930
806.762	28192
806.904	28303
807.046	28645
807.188	28417
807.33	28398
807.472	28417
807.614	28379
807.756	28363
807.898	28246
808.04	28257
808.182	28219
808.324	28287
808.465	28291
808.607	28447
808.749	28565
808.891	28740
809.033	28888
809.174	28850
809.316	28512
809.458	28683
809.6	28569
809.741	28672
809.883	28911
810.025	28828
810.166	28934
810.308	28885
810.45	28953
810.591	28934
810.733	28660
810.875	28637
811.016	28584
811.158	28557
811.299	28713
811.441	28915
811.582	28869
811.724	28538
811.865	28451
812.007	28557
812.148	28736
812.29	28554
812.431	28919
812.573	28930
812.714	29064
812.855	29159
812.997	29311
813.138	29448
813.279	29162
813.421	29159
813.562	29102
813.703	28919
813.845	28759
813.986	28493
814.127	28432
814.268	28344
814.41	28405
814.551	28398
814.692	28386
814.833	28207
814.974	28249
815.115	28508
815.256	28200
815.397	28299
815.539	28086
815.68	28112
815.821	28025
815.962	28086
816.103	28150
816.244	27880
816.385	27895
816.526	27964
816.666	27705
816.807	27694
816.948	27660
817.089	27770
817.23	27629
817.371	27633
817.512	27557
817.653	27606
817.793	27625
817.934	27568
818.075	27580
818.216	27557
818.356	27625
818.497	27485
818.638	27447
818.778	27370
818.919	27389
819.06	27401
819.2	27488
819.341	27637
819.481	27606
819.622	27732
819.762	27945
819.903	27876
820.043	27816
820.184	27873
820.324	27736
820.465	27835
820.605	27812
820.746	27720
820.886	27583
821.026	27766
821.167	27686
821.307	27857
821.447	27739
821.588	27534
821.728	27469
821.868	27302
822.008	27211
822.149	27131
822.289	27066
822.429	26735
822.569	26743
822.709	26948
822.849	26697
822.99	26663
823.13	26537
823.27	26575
823.41	26355
823.55	26412
823.69	26434
823.83	26457
823.97	26336
824.11	26206
824.25	26259
824.389	26275
824.529	26385
824.669	26221
824.809	26309
824.949	26434
825.089	26473
825.228	26286
825.368	26027
825.508	26088
825.648	26020
825.787	26309
825.927	26122
826.067	26103
826.206	26240
826.346	26278
826.485	26256
826.625	26130
826.765	26225
826.904	26176
827.044	26001
827.183	25822
827.323	25814
827.462	25947
827.601	25811
827.741	25784
827.88	25906
828.02	25723
828.159	25791
828.298	25807
828.437	25742
828.577	25723
828.716	25997
828.855	25719
828.994	25483
829.134	25491
829.273	25731
829.412	25502
829.551	25567
829.69	25616
829.829	25479
829.968	25670
830.107	25597
830.246	25613
830.385	25601
830.524	25472
830.663	25396
830.802	25301
830.941	25152
831.08	25145
831.219	25206
831.357	25358
831.496	25388
831.635	25160
831.774	25057
831.913	25065
832.051	24886
832.19	24981
832.329	24989
832.467	24833
832.606	24795
832.744	24802
832.883	24810
833.022	24776
833.16	24772
833.299	24913
833.437	24745
833.576	24973
833.714	24848
833.852	24985
833.991	24939
834.129	24947
834.267	25027
834.406	24913
834.544	25004
834.682	24897
834.821	24875
834.959	25023
835.097	24970
835.235	24909
835.373	24932
835.511	24901
835.65	24745
835.788	24745
835.926	24661
836.064	24418
836.202	24532
836.34	24901
836.478	24833
836.615	24661
836.753	24650
836.891	24684
837.029	24760
837.167	24593
837.305	24555
837.443	24635
837.58	24604
837.718	24456
837.856	24612
837.993	24369
838.131	24585
838.269	24410
838.406	24464
838.544	24445
838.681	24266
838.819	24228
838.956	23939
839.094	23954
839.231	23980
839.369	24239
839.506	24456
839.643	24289
839.781	24060
839.918	23923
840.055	23912
840.193	23882
840.33	23920
840.467	23965
840.604	24007
840.742	24186
840.879	23840
841.016	23859
841.153	23764
841.29	23969
841.427	23847
841.564	23935
841.701	23901
841.838	23889
841.975	23798
842.112	23984
842.249	23752
842.385	23657
842.522	23950
842.659	23756
842.796	23726
842.933	23695
843.069	23665
843.206	23501
843.343	23779
843.479	23710
843.616	23703
843.752	23452
843.889	23531
844.025	23604
844.162	23406
844.298	23531
844.435	23345
844.571	23288
844.708	23539
844.844	23570
844.98	23554
845.117	23528
845.253	23452
845.389	23345
845.525	23315
845.661	23345
845.798	23109
845.934	23322
846.07	23220
846.206	23303
846.342	23395
846.478	23246
846.614	23037
846.75	22858
846.886	22869
847.022	22900
847.158	22850
847.294	22812
847.429	23022
847.565	22927
847.701	23235
847.837	22611
847.972	22694
848.108	22759
848.244	22660
848.379	22394
848.515	22478
848.65	22447
848.786	22481
848.921	22546
849.057	22634
849.192	22557
849.328	22546
849.463	22508
849.598	22580
849.734	22428
849.869	22333
850.004	22291
850.14	22291
850.275	22329
850.41	22219
850.545	22162
850.68	22211
850.815	22226
850.95	22173
851.085	22462
851.22	22550
851.355	22257
851.49	22303
851.625	22238
851.76	22272
851.895	22147
852.03	22166
852.165	22284
852.299	22356
852.434	22306
852.569	22215
852.703	22421
852.838	22390
852.973	22356
853.107	22527
853.242	22276
853.376	22188
853.511	22070
853.645	22021
853.78	22249
853.914	21994
854.048	21994
854.183	22097
854.317	22097
854.451	22215
854.585	22025
854.72	22120
854.854	22147
854.988	22029
855.122	22215
855.256	21922
855.39	22006
855.524	22067
855.658	22082
855.792	22143
855.926	22173
856.06	22158
856.194	22238
856.327	22097
856.461	22017
856.595	21998
856.729	22124
856.862	22185
856.996	22063
857.13	22109
857.263	22192
857.397	22192
857.53	22097
857.664	22169
857.797	22131
857.931	22234
858.064	22128
858.197	22177
858.331	22017
858.464	22116
858.597	21983
858.731	22044
858.864	21876
858.997	22090
859.13	22109
859.263	22169
859.396	22128
859.529	22128
859.662	22021
859.795	22040
859.928	22074
860.061	22249
860.194	22344
860.327	22143
860.46	22093
860.592	22253
860.725	22299
860.858	22185
860.99	22135
861.123	21941
861.256	22070
861.388	22196
861.521	22949
861.653	21987
861.786	22048
861.918	21880
862.05	22017
862.183	22029
862.315	21934
862.447	22101
862.58	21987
862.712	21789
862.844	21663
862.976	21937
863.108	21770
863.24	22207
863.372	21686
863.504	21797
863.636	21720
863.768	21751
863.9	21865
864.032	21675
864.164	21743
864.296	21842
864.428	21816
864.559	21770
864.691	21861
864.823	21728
864.954	21717
865.086	21747
865.217	21804
865.349	21667
865.48	21736
865.612	21603
865.743	21747
865.875	21652
866.006	21652
866.137	21705
866.269	21701
866.4	21629
866.531	21595
866.662	21587
866.793	21549
866.924	21648
867.055	21614
867.186	21561
867.317	21614
867.448	21477
867.579	21500
867.71	21599
867.841	21545
867.972	21519
868.103	21652
868.233	21629
868.364	21629
868.495	21709
868.625	21880
868.756	21949
868.886	21793
869.017	21717
869.147	21987
869.278	22002
869.408	21823
869.539	21842
869.669	21941
869.799	21945
869.929	21975
870.06	21941
870.19	22226
870.32	22188
870.45	22139
870.58	22211
870.71	22344
870.84	22440
870.97	22112
871.1	22253
871.23	22432
871.36	22398
871.489	22322
871.619	22409
871.749	22371
871.879	22322
872.008	22550
872.138	22382
872.267	22371
872.397	22249
872.526	22246
872.656	22257
872.785	22394
872.915	22356
873.044	22542
873.173	22413
873.303	22519
873.432	22451
873.561	22611
873.69	22421
873.819	22462
873.948	22497
874.077	22527
874.206	22466
874.335	22382
874.464	22500
874.593	22683
874.722	22812
874.851	22698
874.979	22774
875.108	22706
875.237	22664
875.365	22531
875.494	22679
875.623	22744
875.751	22721
875.88	22672
876.008	22797
876.136	22790
876.265	23079
876.393	23159
876.521	22957
876.65	23113
876.778	23029
876.906	23052
877.034	23033
877.162	23090
877.29	23056
877.418	23086
877.546	23064
877.674	23041
877.802	23132
877.93	23048
878.058	23037
878.185	22831
878.313	22953
878.441	22995
878.568	22946
878.696	22968
878.824	23117
878.951	23227
879.079	23265
879.206	23208
879.333	23353
879.461	23109
879.588	23193
879.715	23128
879.842	23337
879.97	23162
880.097	22923
880.224	22881
880.351	22816
880.478	22839
880.605	22812
880.732	22892
880.859	23090
880.986	22847
881.112	22968
881.239	22698
881.366	22557
881.493	22478
881.619	22424
881.746	22493
881.872	22405
881.999	22512
882.125	22474
882.252	22466
882.378	22375
882.505	22516
882.631	22367
882.757	22196
882.883	22131
883.01	22128
883.136	22067
883.262	22048
883.388	21937
883.514	22204
883.64	22230
883.766	21991
883.892	21869
884.018	21903
884.143	22051
884.269	22173
884.395	21698
884.52	21759
884.646	21759
884.772	21766
884.897	21698
885.023	21736
885.148	21941
885.274	22029
885.399	21899
885.524	21701
885.65	21804
885.775	21857
885.9	21823
886.025	21846
886.15	21785
886.275	21629
886.4	21736
886.525	21724
886.65	21724
886.775	21728
886.9	21785
887.025	21945
887.149	21781
887.274	21526
887.399	21557
887.523	21485
887.648	21504
887.773	21363
887.897	21614
888.021	21511
888.146	21389
888.27	21595
888.395	21511
888.519	21458
888.643	21504
888.767	21526
888.891	21477
889.015	21313
889.139	21321
889.263	21355
889.387	21466
889.511	21450
889.635	21443
889.759	21245
889.883	21351
890.006	21180
890.13	21363
890.254	21298
890.377	21256
890.501	21074
890.624	20956
890.748	21089
890.871	20986
890.995	20845
891.118	20857
891.241	20823
891.364	20895
891.488	21017
891.611	20883
891.734	20861
891.857	20800
891.98	20872
892.103	20880
892.226	20960
892.349	20785
892.471	20640
892.594	20689
892.717	20895
892.839	20667
892.962	20796
893.085	20697
893.207	20815
893.33	20689
893.452	20674
893.575	20811
893.697	20750
893.819	21062
893.941	20845
894.064	20842
894.186	20853
894.308	20617
894.43	20830
894.552	20918
894.674	20853
894.796	20640
894.918	20716
895.04	20773
895.161	20724
895.283	20883
895.405	20819
895.526	20674
895.648	20697
895.769	20876
895.891	20701
896.012	20899
896.134	20781
896.255	20758
896.376	20632
896.498	20788
896.619	20853
896.74	20765
896.861	20781
896.982	21055
897.103	21222
897.224	21066
897.345	20937
897.466	20857
897.587	20941
897.708	21039
897.828	20834
897.949	20963
898.07	20845
898.19	20853
898.311	20880
898.431	20887
898.552	20994
898.672	21074
898.792	21001
898.913	20933
899.033	20910
899.153	20826
899.273	20609
899.393	20727
899.513	20804
899.633	20716
899.753	20815
899.873	20507
899.993	20765
900.113	20731
900.232	20701
900.352	20621
900.472	20575
900.591	20492
900.711	20408
900.83	20362
900.95	20632
901.069	20594
901.189	20370
901.308	20176
901.427	20016
901.546	20027
901.665	19982
901.784	20145
901.904	19921
902.023	19734
902.141	19563
902.26	19594
902.379	19647
902.498	19552
902.617	19552
902.735	19525
902.854	19533
902.973	19472
903.091	19236
903.21	19331
903.328	19198
903.446	19190
903.565	19000
903.683	19008
903.801	18947
903.919	18939
904.038	18935
904.156	18768
904.274	18897
904.392	18684
904.51	18726
904.627	18829
904.745	18711
904.863	18745
904.981	18570
905.098	18460
905.216	18604
905.334	18502
905.451	18460
905.569	18365
905.686	18521
905.803	18281
905.921	18235
906.038	18311
906.155	18216
906.272	18030
906.389	18239
906.506	18022
906.623	18034
906.74	17912
906.857	17908
906.974	17821
907.091	18076
907.208	17977
907.324	17996
907.441	17821
907.557	17691
907.674	17691
907.79	17646
907.907	17699
908.023	17722
908.139	17767
908.256	17676
908.372	17524
908.488	17566
908.604	17296
908.72	17349
908.836	17322
908.952	17330
909.068	17387
909.184	17455
909.3	17330
909.415	17318
909.531	17471
909.647	17010
909.762	17071
909.878	17083
909.993	17166
910.108	17018
910.224	16987
910.339	17037
910.454	16885
910.57	16896
910.685	16828
910.8	17052
910.915	16995
911.03	16843
911.145	16748
911.259	16622
911.374	16554
911.489	16649
911.604	16584
911.718	16432
911.833	16379
911.947	16348
912.062	16325
912.176	16421
912.291	16577
912.405	16325
912.519	16607
912.633	16611
912.748	16451
912.862	16371
912.976	16257
913.09	16078
913.204	16253
913.318	16196
913.431	16352
913.545	16219
913.659	16287
913.772	16173
913.886	16048
914	16002
914.113	16029
914.226	16082
914.34	16025
914.453	15956
914.566	15968
914.68	15876
914.793	15869
914.906	15641
915.019	15625
915.132	15557
915.245	15603
915.358	15599
915.47	15564
915.583	15694
915.696	15603
915.809	15747
915.921	15656
916.034	15568
916.146	15450
916.259	15397
916.371	15561
916.483	15504
916.595	15424
916.708	15568
916.82	15389
916.932	15344
917.044	15325
917.156	15363
917.268	15207
917.38	15344
917.491	15119
917.603	15344
917.715	15351
917.826	15367
917.938	15180
918.049	15043
918.161	15176
918.272	15336
918.384	15325
918.495	15230
918.606	15047
918.717	14998
918.828	15039
918.939	15043
919.05	14956
919.161	14921
919.272	14864
919.383	14906
919.494	15055
919.604	15226
919.715	15013
919.826	14785
919.936	14971
920.047	15062
920.157	15055
920.267	15218
920.378	14941
920.488	14918
920.598	15146
920.708	15283
920.818	15165
920.928	15081
921.038	15161
921.148	15165
921.258	14838
921.368	14735
921.477	14644
921.587	14746
921.697	14602
921.806	14705
921.916	14533
922.025	14400
922.134	14320
922.244	14290
922.353	14313
922.462	14263
922.571	14221
922.68	13993
922.789	14024
922.898	13936
923.007	13906
923.116	14012
923.224	13932
923.333	13898
923.442	13788
923.55	13795
923.659	13784
923.767	13750
923.876	13757
923.984	13795
924.092	13628
924.201	13753
924.309	13670
924.417	13689
924.525	13567
924.633	13628
924.741	14404
924.849	13369
924.956	13559
925.064	13381
925.172	13320
925.279	13259
925.387	13320
925.494	13441
925.602	13472
925.709	13320
925.816	13213
925.924	13358
926.031	13407
926.138	13301
926.245	13320
926.352	13202
926.459	13270
926.566	13362
926.673	13247
926.779	13141
926.886	13171
926.993	12970
927.099	12897
927.206	12856
927.312	12924
927.419	12996
927.525	12947
927.631	12913
927.737	12806
927.843	12757
927.95	12585
928.056	12688
928.162	12703
928.267	12787
928.373	13350
928.479	12779
928.585	12464
928.69	12688
928.796	12662
928.901	12536
929.007	12433
929.112	12517
929.218	12502
929.323	12494
929.428	12399
929.533	12414
929.638	12327
929.743	12475
929.848	12464
929.953	12418
930.058	12315
930.163	12140
930.267	12159
930.372	12247
930.477	12106
930.581	12216
930.685	12148
930.79	11942
930.894	12114
930.998	11958
931.103	12015
931.207	11775
931.311	11592
931.415	11592
931.519	11345
931.623	11341
