Data from test_V78500241_1498.txt Node
Date: Fri Mar 25 15:52:10 CST 2022
User: usil
Spectrometer: V785-0024
Trigger mode: 0
Integration Time (sec): 4.000000E-1
Scans to average: 1
Nonlinearity correction enabled: false
Boxcar width: 0
Storing dark spectrum: false
XAxis mode: Wavelengths
Number of Pixels in Spectrum: 1024
>>>>>Begin Spectral Data<<<<<
801.071	27899
801.214	27934
801.356	27523
801.499	27622
801.641	27439
801.783	27386
801.926	27454
802.068	27469
802.211	27443
802.353	27294
802.496	27184
802.638	27135
802.78	27176
802.923	27085
803.065	26998
803.208	27077
803.35	27001
803.492	27344
803.635	27237
803.777	27241
803.919	27302
804.061	27671
804.204	27458
804.346	27222
804.488	27165
804.63	27397
804.773	27310
804.915	27447
805.057	27424
805.199	27363
805.341	27435
805.483	27477
805.626	27488
805.768	27325
805.91	27523
806.052	27591
806.194	27348
806.336	27637
806.478	27504
806.62	27485
806.762	27572
806.904	27736
807.046	28063
807.188	27816
807.33	27945
807.472	27926
807.614	27869
807.756	27819
807.898	27755
808.04	27549
808.182	27743
808.324	27861
808.465	27831
808.607	28143
808.749	28036
808.891	28253
809.033	28207
809.174	28173
809.316	27876
809.458	28120
809.6	28017
809.741	28166
809.883	28322
810.025	28440
810.166	28265
810.308	28363
810.45	28249
810.591	28379
810.733	28090
810.875	28124
811.016	28029
811.158	28025
811.299	28246
811.441	28242
811.582	28344
811.724	28078
811.865	28112
812.007	28109
812.148	28051
812.29	28181
812.431	28386
812.573	28405
812.714	28538
812.855	28641
812.997	28637
813.138	29010
813.279	28744
813.421	28615
813.562	28542
813.703	28504
813.845	28390
813.986	28059
814.127	27808
814.268	27698
814.41	27880
814.551	27797
814.692	27888
814.833	27835
814.974	27956
815.115	27861
815.256	27682
815.397	27690
815.539	27603
815.68	27671
815.821	27450
815.962	27667
816.103	27568
816.244	27473
816.385	27405
816.526	27313
816.666	27279
816.807	27028
816.948	27252
817.089	27146
817.23	27211
817.371	27093
817.512	27089
817.653	27036
817.793	27043
817.934	27081
818.075	26925
818.216	26902
818.356	27085
818.497	26948
818.638	26872
818.778	26750
818.919	26777
819.06	26872
819.2	26944
819.341	27047
819.481	27020
819.622	27131
819.762	27173
819.903	27336
820.043	27287
820.184	27199
820.324	27302
820.465	27150
820.605	27188
820.746	27211
820.886	27051
821.026	27081
821.167	27070
821.307	27207
821.447	27028
821.588	27089
821.728	26849
821.868	26739
822.008	26583
822.149	26560
822.289	26575
822.429	26301
822.569	26134
822.709	26240
822.849	25963
822.99	26149
823.13	26027
823.27	26050
823.41	25822
823.55	25738
823.69	25951
823.83	25890
823.97	25856
824.11	25719
824.25	25818
824.389	25662
824.529	25750
824.669	25571
824.809	25970
824.949	25715
825.089	25761
825.228	25769
825.368	25613
825.508	25552
825.648	25510
825.787	25563
825.927	25575
826.067	25666
826.206	25529
826.346	25658
826.485	25540
826.625	25567
826.765	25620
826.904	25662
827.044	25278
827.183	25369
827.323	25209
827.462	25327
827.601	25244
827.741	25350
827.88	25244
828.02	25240
828.159	25244
828.298	25449
828.437	25343
828.577	25168
828.716	25293
828.855	25343
828.994	25088
829.134	24924
829.273	24958
829.412	25065
829.551	24928
829.69	24996
829.829	25038
829.968	25012
830.107	24970
830.246	24939
830.385	24947
830.524	24924
830.663	24703
830.802	24681
830.941	24585
831.08	24631
831.219	24646
831.357	24684
831.496	24749
831.635	24589
831.774	24403
831.913	24456
832.051	24479
832.19	24403
832.329	24399
832.467	24304
832.606	24289
832.744	24186
832.883	24140
833.022	24186
833.16	24228
833.299	24258
833.437	24232
833.576	24239
833.714	24357
833.852	24407
833.991	24490
834.129	24197
834.267	24509
834.406	24273
834.544	24315
834.682	24342
834.821	24365
834.959	24467
835.097	24281
835.235	24399
835.373	24254
835.511	24197
835.65	24277
835.788	24273
835.926	24049
836.064	23908
836.202	23965
836.34	24243
836.478	24338
836.615	24079
836.753	24129
836.891	24136
837.029	24213
837.167	24235
837.305	24095
837.443	24015
837.58	23988
837.718	24049
837.856	23954
837.993	23878
838.131	24011
838.269	23824
838.406	23840
838.544	23809
838.681	23638
838.819	23646
838.956	23440
839.094	23539
839.231	23558
839.369	23627
839.506	23821
839.643	23691
839.781	23509
839.918	23360
840.055	23543
840.193	23436
840.33	23406
840.467	23273
840.604	23524
840.742	23726
840.879	23284
841.016	23421
841.153	23170
841.29	23478
841.427	23299
841.564	23284
841.701	23322
841.838	23353
841.975	23181
842.112	23277
842.249	23155
842.385	23231
842.522	23311
842.659	23159
842.796	23178
842.933	23086
843.069	23052
843.206	23006
843.343	23174
843.479	23193
843.616	23128
843.752	22934
843.889	22877
844.025	23064
844.162	22915
844.298	22946
844.435	23006
844.571	22820
844.708	22991
844.844	23029
844.98	22987
845.117	23075
845.253	22820
845.389	22828
845.525	22816
845.661	22683
845.798	22546
845.934	22660
846.07	22554
846.206	22649
846.342	22675
846.478	22668
846.614	22455
846.75	22238
846.886	22329
847.022	22508
847.158	22390
847.294	22379
847.429	22367
847.565	22436
847.701	22645
847.837	22150
847.972	22177
848.108	22169
848.244	22112
848.379	22017
848.515	21979
848.65	21892
848.786	21964
848.921	22006
849.057	22093
849.192	22067
849.328	22109
849.463	21915
849.598	21915
849.734	21800
849.869	21823
850.004	21690
850.14	21701
850.275	21880
850.41	21644
850.545	21709
850.68	21595
850.815	21652
850.95	21732
851.085	21873
851.22	21835
851.355	21679
851.49	21679
851.625	21690
851.76	21690
851.895	21717
852.03	21595
852.165	21682
852.299	21724
852.434	21892
852.569	21679
852.703	21663
852.838	21671
852.973	21781
853.107	21800
853.242	21614
853.376	21618
853.511	21393
853.645	21523
853.78	21515
853.914	21549
854.048	21492
854.183	21629
854.317	21561
854.451	21751
854.585	21412
854.72	21599
854.854	21610
854.988	21603
855.122	21572
855.256	21397
855.39	21458
855.524	21656
855.658	21572
855.792	21557
855.926	21599
856.06	21576
856.194	21690
856.327	21553
856.461	21462
856.595	21549
856.729	21614
856.862	21618
856.996	21515
857.13	21561
857.263	21679
857.397	21644
857.53	21549
857.664	21572
857.797	21637
857.931	21622
858.064	21755
858.197	21576
858.331	21603
858.464	21469
858.597	21424
858.731	21576
858.864	21530
858.997	21583
859.13	21557
859.263	21526
859.396	21504
859.529	21564
859.662	21671
859.795	21534
859.928	21450
860.061	21698
860.194	21709
860.327	21637
860.46	21587
860.592	21804
860.725	21652
860.858	21694
860.99	21557
861.123	21481
861.256	21485
861.388	21492
861.521	22177
861.653	21306
861.786	21332
861.918	21355
862.05	21507
862.183	21507
862.315	21477
862.447	21538
862.58	21466
862.712	21279
862.844	21157
862.976	21332
863.108	21283
863.24	21694
863.372	21233
863.504	21268
863.636	21211
863.768	21340
863.9	21222
864.032	21169
864.164	21188
864.296	21154
864.428	21382
864.559	21298
864.691	21294
864.823	21340
864.954	21199
865.086	21180
865.217	21157
865.349	21077
865.48	21180
865.612	21146
865.743	21359
865.875	21294
866.006	21119
866.137	21058
866.269	21195
866.4	21199
866.531	21218
866.662	21055
866.793	21017
866.924	20948
867.055	21093
867.186	21089
867.317	21184
867.448	20982
867.579	21089
867.71	20960
867.841	20891
867.972	21146
868.103	20872
868.233	20963
868.364	21108
868.495	21119
868.625	21382
868.756	21397
868.886	21256
869.017	21313
869.147	21466
869.278	21424
869.408	21321
869.539	21275
869.669	21325
869.799	21329
869.929	21428
870.06	21416
870.19	21538
870.32	21637
870.45	21660
870.58	21656
870.71	21857
870.84	21842
870.97	21641
871.1	21778
871.23	21850
871.36	21930
871.489	21880
871.619	21816
871.749	21861
871.879	21915
872.008	22051
872.138	21789
872.267	21911
872.397	21857
872.526	21774
872.656	21903
872.785	21850
872.915	21994
873.044	21884
873.173	21903
873.303	22032
873.432	22051
873.561	22017
873.69	21937
873.819	21819
873.948	22036
874.077	21991
874.206	21915
874.335	21972
874.464	22021
874.593	22143
874.722	22276
874.851	22253
874.979	22249
875.108	22128
875.237	22063
875.365	22021
875.494	22120
875.623	22325
875.751	22063
875.88	22143
876.008	22166
876.136	22303
876.265	22554
876.393	22740
876.521	22569
876.65	22679
876.778	22573
876.906	22596
877.034	22523
877.162	22592
877.29	22493
877.418	22535
877.546	22428
877.674	22588
877.802	22432
877.93	22478
878.058	22535
878.185	22447
878.313	22405
878.441	22413
878.568	22287
878.696	22447
878.824	22603
878.951	22618
879.079	22797
879.206	22763
879.333	22763
879.461	22531
879.588	22592
879.715	22698
879.842	22733
879.97	22626
880.097	22375
880.224	22310
880.351	22341
880.478	22443
880.605	22390
880.732	22284
880.859	22580
880.986	22337
881.112	22417
881.239	22169
881.366	22082
881.493	21903
881.619	21979
881.746	21956
881.872	21934
881.999	21899
882.125	21915
882.252	22021
882.378	21903
882.505	21983
882.631	21785
882.757	21599
882.883	21698
883.01	21511
883.136	21599
883.262	21519
883.388	21469
883.514	21652
883.64	21542
883.766	21568
883.892	21397
884.018	21397
884.143	21682
884.269	21690
884.395	21218
884.52	21291
884.646	21279
884.772	21230
884.897	21173
885.023	21131
885.148	21272
885.274	21542
885.399	21397
885.524	21195
885.65	21294
885.775	21386
885.9	21157
886.025	21363
886.15	21313
886.275	21146
886.4	21100
886.525	21192
886.65	21142
886.775	21131
886.9	21370
887.025	21359
887.149	21154
887.274	21051
887.399	21024
887.523	21062
887.648	20979
887.773	20830
887.897	21089
888.021	20979
888.146	20963
888.27	21199
888.395	21081
888.519	21096
888.643	21028
888.767	21058
888.891	20895
889.015	20861
889.139	20880
889.263	20853
889.387	20967
889.511	21039
889.635	20914
889.759	20792
889.883	20750
890.006	20750
890.13	20876
890.254	20629
890.377	20792
890.501	20545
890.624	20450
890.748	20545
890.871	20442
890.995	20362
891.118	20351
891.241	20396
891.364	20396
891.488	20556
891.611	20381
891.734	20419
891.857	20514
891.98	20457
892.103	20370
892.226	20492
892.349	20309
892.471	20191
892.594	20218
892.717	20294
892.839	20191
892.962	20309
893.085	20408
893.207	20320
893.33	20157
893.452	20138
893.575	20298
893.697	20282
893.819	20461
893.941	20571
894.064	20556
894.186	20202
894.308	20191
894.43	20358
894.552	20339
894.674	20377
894.796	20263
894.918	20267
895.04	20157
895.161	20419
895.283	20358
895.405	20271
895.526	20240
895.648	20317
895.769	20339
895.891	20339
896.012	20423
896.134	20278
896.255	20301
896.376	20328
896.498	20210
896.619	20415
896.74	20294
896.861	20320
896.982	20552
897.103	20693
897.224	20545
897.345	20552
897.466	20324
897.587	20374
897.708	20701
897.828	20594
897.949	20355
898.07	20328
898.19	20492
898.311	20503
898.431	20476
898.552	20514
898.672	20549
898.792	20579
898.913	20480
899.033	20244
899.153	20294
899.273	20195
899.393	20206
899.513	20385
899.633	20183
899.753	20244
899.873	20161
899.993	20221
900.113	20206
900.232	20122
900.352	20157
900.472	20054
900.591	20046
900.711	20084
900.83	19986
900.95	20183
901.069	20027
901.189	19868
901.308	19868
901.427	19681
901.546	19655
901.665	19559
901.784	19677
901.904	19449
902.023	19381
902.141	19221
902.26	19175
902.379	19099
902.498	19133
902.617	19084
902.735	19099
902.854	19042
902.973	19015
903.091	18932
903.21	18764
903.328	18707
903.446	18623
903.565	18555
903.683	18574
903.801	18479
903.919	18498
904.038	18418
904.156	18384
904.274	18452
904.392	18330
904.51	18315
904.627	18376
904.745	18403
904.863	18350
904.981	18064
905.098	18049
905.216	17965
905.334	18049
905.451	18015
905.569	17927
905.686	18041
905.803	17969
905.921	17695
906.038	17843
906.155	17901
906.272	17756
906.389	17668
906.506	17547
906.623	17524
906.74	17554
906.857	17429
906.974	17482
907.091	17600
907.208	17684
907.324	17562
907.441	17398
907.557	17151
907.674	17307
907.79	17235
907.907	17261
908.023	17284
908.139	17284
908.256	17216
908.372	17140
908.488	17102
908.604	16984
908.72	16991
908.836	16968
908.952	16984
909.068	17010
909.184	17113
909.3	16976
909.415	16946
909.531	16999
909.647	16725
909.762	16683
909.878	16725
909.993	16706
910.108	16653
910.224	16702
910.339	16672
910.454	16618
910.57	16394
910.685	16314
910.8	16626
910.915	16683
911.03	16489
911.145	16337
911.259	16291
911.374	16272
911.489	16234
911.604	16166
911.718	16071
911.833	16082
911.947	15953
912.062	16029
912.176	16044
912.291	15953
912.405	16158
912.519	16219
912.633	16185
912.748	15972
912.862	15930
912.976	15835
913.09	15873
913.204	15671
913.318	15880
913.431	15983
913.545	15827
913.659	15930
913.772	15732
913.886	15671
914	15606
914.113	15709
914.226	15755
914.34	15663
914.453	15454
914.566	15679
914.68	15603
914.793	15485
914.906	15393
915.019	15279
915.132	15165
915.245	15192
915.358	15279
915.47	15268
915.583	15329
915.696	15264
915.809	15313
915.921	15329
916.034	15154
916.146	15085
916.259	15127
916.371	15272
916.483	15230
916.595	15013
916.708	15146
916.82	15005
916.932	15051
917.044	15074
917.156	15055
917.268	14853
917.38	14933
917.491	14845
917.603	14933
917.715	15020
917.826	14937
917.938	14826
918.049	14670
918.161	14880
918.272	14967
918.384	14845
918.495	14769
918.606	14739
918.717	14625
918.828	14625
918.939	14689
919.05	14590
919.161	14556
919.272	14374
919.383	14442
919.494	14746
919.604	14826
919.715	14617
919.826	14499
919.936	14587
920.047	14739
920.157	14663
920.267	14739
920.378	14511
920.488	14579
920.598	14864
920.708	14864
920.818	14663
920.928	14674
921.038	14899
921.148	14800
921.258	14590
921.368	14446
921.477	14313
921.587	14362
921.697	14218
921.806	14343
921.916	14244
922.025	14050
922.134	14027
922.244	13883
922.353	13959
922.462	13902
922.571	13666
922.68	13700
922.789	13613
922.898	13658
923.007	13582
923.116	13761
923.224	13575
923.333	13632
923.442	13510
923.55	13434
923.659	13559
923.767	13491
923.876	13278
923.984	13521
924.092	13320
924.201	13358
924.309	13384
924.417	13445
924.525	13285
924.633	13388
924.741	14225
924.849	13099
924.956	13263
925.064	13076
925.172	13034
925.279	12962
925.387	13004
925.494	12977
925.602	13126
925.709	13171
925.816	12970
925.924	13038
926.031	13023
926.138	13019
926.245	13069
926.352	12871
926.459	13076
926.566	13053
926.673	12989
926.779	12764
926.886	12814
926.993	12635
927.099	12627
927.206	12623
927.312	12464
927.419	12601
927.525	12623
927.631	12616
927.737	12471
927.843	12475
927.95	12277
928.056	12532
928.162	12441
928.267	12429
928.373	13012
928.479	12475
928.585	12369
928.69	12388
928.796	12475
928.901	12304
929.007	12144
929.112	12266
929.218	12258
929.323	12213
929.428	12186
929.533	12205
929.638	12095
929.743	12057
929.848	12102
929.953	12110
930.058	11988
930.163	11790
930.267	11904
930.372	11980
930.477	11752
930.581	12049
930.685	11870
930.79	11729
930.894	11771
930.998	11745
931.103	11920
931.207	11471
931.311	11429
931.415	11292
931.519	11048
931.623	11075
