Data from test_V78500241_1544.txt Node
Date: Fri Mar 25 15:52:29 CST 2022
User: usil
Spectrometer: V785-0024
Trigger mode: 0
Integration Time (sec): 4.000000E-1
Scans to average: 1
Nonlinearity correction enabled: false
Boxcar width: 0
Storing dark spectrum: false
XAxis mode: Wavelengths
Number of Pixels in Spectrum: 1024
>>>>>Begin Spectral Data<<<<<
801.071	27542
801.214	27618
801.356	27340
801.499	27207
801.641	27051
801.783	27180
801.926	27100
802.068	27062
802.211	27104
802.353	26872
802.496	26773
802.638	26678
802.78	26632
802.923	26697
803.065	26613
803.208	26617
803.35	26731
803.492	26697
803.635	26944
803.777	26842
803.919	26815
804.061	27116
804.204	26937
804.346	26906
804.488	26785
804.63	26868
804.773	26883
804.915	26937
805.057	26979
805.199	27043
805.341	26845
805.483	26948
805.626	27009
805.768	27032
805.91	26960
806.052	27055
806.194	26853
806.336	27131
806.478	27032
806.62	27013
806.762	27104
806.904	27264
807.046	27462
807.188	27329
807.33	27370
807.472	27481
807.614	27401
807.756	27481
807.898	27237
808.04	27081
808.182	27207
808.324	27256
808.465	27355
808.607	27351
808.749	27557
808.891	27637
809.033	27827
809.174	27633
809.316	27667
809.458	27625
809.6	27599
809.741	27816
809.883	27781
810.025	27892
810.166	27800
810.308	27770
810.45	27888
810.591	27789
810.733	27736
810.875	27648
811.016	27530
811.158	27500
811.299	27641
811.441	27755
811.582	27701
811.724	27530
811.865	27629
812.007	27618
812.148	27534
812.29	27553
812.431	27838
812.573	27762
812.714	27930
812.855	28158
812.997	28120
813.138	28356
813.279	28207
813.421	28086
813.562	28013
813.703	28143
813.845	27850
813.986	27690
814.127	27511
814.268	27245
814.41	27279
814.551	27306
814.692	27370
814.833	27245
814.974	27272
815.115	27275
815.256	27173
815.397	27260
815.539	27184
815.68	27062
815.821	26937
815.962	27127
816.103	27074
816.244	26921
816.385	26826
816.526	26792
816.666	26746
816.807	26564
816.948	26537
817.089	26602
817.23	26575
817.371	26537
817.512	26499
817.653	26552
817.793	26579
817.934	26659
818.075	26724
818.216	26613
818.356	26537
818.497	26408
818.638	26374
818.778	26233
818.919	26419
819.06	26389
819.2	26503
819.341	26431
819.481	26564
819.622	26716
819.762	26929
819.903	26826
820.043	26758
820.184	26689
820.324	26750
820.465	26655
820.605	26735
820.746	26693
820.886	26507
821.026	26762
821.167	26602
821.307	26754
821.447	26579
821.588	26355
821.728	26465
821.868	26229
822.008	26024
822.149	26012
822.289	26046
822.429	25723
822.569	25696
822.709	25715
822.849	25514
822.99	25624
823.13	25578
823.27	25449
823.41	25381
823.55	25171
823.69	25350
823.83	25464
823.97	25346
824.11	25206
824.25	25236
824.389	25171
824.529	25270
824.669	25103
824.809	25358
824.949	25232
825.089	25289
825.228	25194
825.368	25107
825.508	24992
825.648	24977
825.787	25103
825.927	24992
826.067	24970
826.206	25027
826.346	25107
826.485	25061
826.625	25004
826.765	25137
826.904	25057
827.044	24989
827.183	24867
827.323	24696
827.462	24741
827.601	24726
827.741	24707
827.88	24703
828.02	24639
828.159	24639
828.298	24692
828.437	24715
828.577	24631
828.716	24798
828.855	24688
828.994	24513
829.134	24498
829.273	24399
829.412	24395
829.551	24319
829.69	24407
829.829	24620
829.968	24486
830.107	24517
830.246	24456
830.385	24285
830.524	24289
830.663	24289
830.802	24251
830.941	24038
831.08	24155
831.219	24106
831.357	24125
831.496	24292
831.635	24102
831.774	23973
831.913	24064
832.051	23863
832.19	23855
832.329	23836
832.467	23665
832.606	23695
832.744	23764
832.883	23794
833.022	23684
833.16	23687
833.299	23798
833.437	23824
833.576	23855
833.714	23843
833.852	23916
833.991	23836
834.129	23836
834.267	23851
834.406	23771
834.544	23794
834.682	23798
834.821	23764
834.959	23935
835.097	23634
835.235	23863
835.373	23714
835.511	23707
835.65	23520
835.788	23592
835.926	23604
836.064	23372
836.202	23391
836.34	23657
836.478	23752
836.615	23570
836.753	23695
836.891	23608
837.029	23627
837.167	23516
837.305	23379
837.443	23402
837.58	23376
837.718	23493
837.856	23478
837.993	23356
838.131	23421
838.269	23341
838.406	23474
838.544	23261
838.681	23121
838.819	23151
838.956	22934
839.094	22847
839.231	22987
839.369	23155
839.506	23311
839.643	23105
839.781	22965
839.918	22885
840.055	23033
840.193	22896
840.33	22843
840.467	22881
840.604	22957
840.742	23029
840.879	22702
841.016	22653
841.153	22782
841.29	22889
841.427	22896
841.564	22801
841.701	22850
841.838	22881
841.975	22710
842.112	22717
842.249	22668
842.385	22630
842.522	22816
842.659	22683
842.796	22565
842.933	22554
843.069	22542
843.206	22557
843.343	22748
843.479	22550
843.616	22542
843.752	22409
843.889	22310
844.025	22565
844.162	22322
844.298	22440
844.435	22329
844.571	22409
844.708	22459
844.844	22432
844.98	22546
845.117	22489
845.253	22341
845.389	22169
845.525	22261
845.661	22306
845.798	22032
845.934	22173
846.07	22013
846.206	22120
846.342	22204
846.478	21975
846.614	21975
846.75	21808
846.886	21690
847.022	21949
847.158	21937
847.294	21804
847.429	21838
847.565	21884
847.701	22093
847.837	21618
847.972	21572
848.108	21736
848.244	21625
848.379	21435
848.515	21367
848.65	21393
848.786	21363
848.921	21317
849.057	21618
849.192	21542
849.328	21439
849.463	21515
849.598	21466
849.734	21325
849.869	21294
850.004	21154
850.14	21260
850.275	21169
850.41	21203
850.545	21131
850.68	21184
850.815	21313
850.95	21180
851.085	21317
851.22	21386
851.355	21233
851.49	21161
851.625	21176
851.76	21161
851.895	21256
852.03	21131
852.165	21245
852.299	21260
852.434	21329
852.569	21218
852.703	21260
852.838	21279
852.973	21211
853.107	21416
853.242	21154
853.376	21058
853.511	20975
853.645	20937
853.78	21199
853.914	21017
854.048	20948
854.183	21085
854.317	21028
854.451	21165
854.585	21028
854.72	21032
854.854	21039
854.988	20902
855.122	20975
855.256	21005
855.39	20998
855.524	21096
855.658	20986
855.792	21161
855.926	21093
856.06	21135
856.194	21180
856.327	20982
856.461	20944
856.595	20963
856.729	21028
856.862	21150
856.996	21085
857.13	21028
857.263	21119
857.397	21077
857.53	20918
857.664	21104
857.797	21142
857.931	21032
858.064	20979
858.197	21062
858.331	21058
858.464	20963
858.597	20994
858.731	20902
858.864	20990
858.997	21036
859.13	21001
859.263	20963
859.396	21195
859.529	20948
859.662	20998
859.795	20914
859.928	21112
860.061	21135
860.194	21264
860.327	21074
860.46	21138
860.592	21184
860.725	21188
860.858	21108
860.99	21047
861.123	20956
861.256	20967
861.388	21032
861.521	21561
861.653	20842
861.786	20773
861.918	20914
862.05	20914
862.183	21017
862.315	20895
862.447	20899
862.58	20857
862.712	20743
862.844	20587
862.976	20716
863.108	20781
863.24	21173
863.372	20762
863.504	20807
863.636	20602
863.768	20754
863.9	20659
864.032	20560
864.164	20724
864.296	20785
864.428	20853
864.559	20819
864.691	21009
864.823	20807
864.954	20769
865.086	20720
865.217	20773
865.349	20617
865.48	20686
865.612	20590
865.743	20838
865.875	20625
866.006	20727
866.137	20625
866.269	20644
866.4	20651
866.531	20583
866.662	20590
866.793	20617
866.924	20530
867.055	20522
867.186	20644
867.317	20511
867.448	20488
867.579	20473
867.71	20473
867.841	20473
867.972	20587
868.103	20556
868.233	20670
868.364	20659
868.495	20606
868.625	20826
868.756	20906
868.886	20682
869.017	20834
869.147	20982
869.278	20902
869.408	20868
869.539	20872
869.669	20746
869.799	20929
869.929	21028
870.06	20994
870.19	21116
870.32	21009
870.45	21085
870.58	21135
870.71	21336
870.84	21386
870.97	21222
871.1	21279
871.23	21485
871.36	21405
871.489	21363
871.619	21321
871.749	21344
871.879	21344
872.008	21660
872.138	21443
872.267	21405
872.397	21161
872.526	21192
872.656	21321
872.785	21199
872.915	21519
873.044	21488
873.173	21397
873.303	21488
873.432	21481
873.561	21606
873.69	21557
873.819	21405
873.948	21557
874.077	21420
874.206	21416
874.335	21450
874.464	21591
874.593	21793
874.722	21591
874.851	21751
874.979	21698
875.108	21694
875.237	21686
875.365	21557
875.494	21595
875.623	21751
875.751	21591
875.88	21675
876.008	21846
876.136	21842
876.265	22063
876.393	22173
876.521	22150
876.65	22059
876.778	22063
876.906	21975
877.034	21987
877.162	22040
877.29	21869
877.418	22128
877.546	21975
877.674	21972
877.802	22029
877.93	21953
878.058	21979
878.185	21895
878.313	21991
878.441	22040
878.568	21789
878.696	21922
878.824	22013
878.951	22090
879.079	22257
879.206	22295
879.333	22090
879.461	22044
879.588	22109
879.715	22177
879.842	22306
879.97	22116
880.097	21895
880.224	21819
880.351	21842
880.478	21869
880.605	21797
880.732	21812
880.859	22025
880.986	21922
881.112	21869
881.239	21808
881.366	21545
881.493	21523
881.619	21515
881.746	21549
881.872	21523
881.999	21428
882.125	21374
882.252	21458
882.378	21454
882.505	21614
882.631	21325
882.757	21123
882.883	21233
883.01	21252
883.136	21013
883.262	20982
883.388	20921
883.514	21173
883.64	21291
883.766	20986
883.892	20982
884.018	20971
884.143	21150
884.269	21260
884.395	20952
884.52	20701
884.646	20785
884.772	20769
884.897	20701
885.023	20845
885.148	20731
885.274	20842
885.399	20872
885.524	20868
885.65	20899
885.775	20807
885.9	20765
886.025	20883
886.15	20834
886.275	20686
886.4	20667
886.525	20746
886.65	20689
886.775	20754
886.9	20914
887.025	20948
887.149	20686
887.274	20454
887.399	20568
887.523	20541
887.648	20438
887.773	20503
887.897	20617
888.021	20598
888.146	20473
888.27	20568
888.395	20705
888.519	20667
888.643	20632
888.767	20625
888.891	20465
889.015	20313
889.139	20507
889.263	20317
889.387	20434
889.511	20636
889.635	20450
889.759	20434
889.883	20298
890.006	20298
890.13	20358
890.254	20389
890.377	20324
890.501	20103
890.624	20081
890.748	20195
890.871	20088
890.995	19898
891.118	19883
891.241	19925
891.364	19997
891.488	20100
891.611	19913
891.734	20005
891.857	19978
891.98	19883
892.103	19967
892.226	20012
892.349	19883
892.471	19723
892.594	19940
892.717	19871
892.839	19875
892.962	19849
893.085	19940
893.207	19753
893.33	19750
893.452	19837
893.575	19902
893.697	19837
893.819	19963
893.941	20035
894.064	19913
894.186	19757
894.308	19696
894.43	19997
894.552	20145
894.674	19852
894.796	19814
894.918	19890
895.04	19750
895.161	19856
895.283	19913
895.405	19708
895.526	19833
895.648	19746
895.769	19921
895.891	19875
896.012	20024
896.134	19902
896.255	19841
896.376	19753
896.498	19852
896.619	19925
896.74	19780
896.861	19978
896.982	20218
897.103	20336
897.224	20092
897.345	20103
897.466	20008
897.587	20183
897.708	20176
897.828	20119
897.949	20100
898.07	19887
898.19	19959
898.311	20065
898.431	20005
898.552	20016
898.672	20073
898.792	20187
898.913	20084
899.033	19955
899.153	19921
899.273	19814
899.393	19917
899.513	19963
899.633	19799
899.753	19860
899.873	19803
899.993	19856
900.113	19906
900.232	19791
900.352	19658
900.472	19681
900.591	19567
900.711	19666
900.83	19540
900.95	19658
901.069	19746
901.189	19540
901.308	19263
901.427	19118
901.546	19282
901.665	19179
901.784	19213
901.904	19126
902.023	19015
902.141	18783
902.26	18825
902.379	18726
902.498	18757
902.617	18631
902.735	18642
902.854	18745
902.973	18650
903.091	18452
903.21	18407
903.328	18342
903.446	18365
903.565	18254
903.683	18186
903.801	18155
903.919	18102
904.038	18133
904.156	18003
904.274	17973
904.392	17980
904.51	17908
904.627	17996
904.745	18007
904.863	18007
904.981	17767
905.098	17718
905.216	17729
905.334	17600
905.451	17684
905.569	17642
905.686	17665
905.803	17623
905.921	17459
906.038	17505
906.155	17395
906.272	17387
906.389	17307
906.506	17273
906.623	17136
906.74	17216
906.857	17010
906.974	17117
907.091	17250
907.208	17220
907.324	17204
907.441	17079
907.557	16885
907.674	16892
907.79	16752
907.907	16816
908.023	16980
908.139	16843
908.256	16908
908.372	16938
908.488	16755
908.604	16706
908.72	16687
908.836	16542
908.952	16569
909.068	16599
909.184	16691
909.3	16596
909.415	16653
909.531	16542
909.647	16329
909.762	16379
909.878	16310
909.993	16337
910.108	16261
910.224	16272
910.339	16276
910.454	16204
910.57	16234
910.685	16078
910.8	16318
910.915	16291
911.03	16116
911.145	15945
911.259	15915
911.374	15861
911.489	15835
911.604	15819
911.718	15701
911.833	15739
911.947	15557
912.062	15603
912.176	15564
912.291	15701
912.405	15717
912.519	15861
912.633	15736
912.748	15728
912.862	15591
912.976	15367
913.09	15435
913.204	15405
913.318	15469
913.431	15523
913.545	15614
913.659	15553
913.772	15420
913.886	15287
914	15272
914.113	15450
914.226	15378
914.34	15420
914.453	15214
914.566	15287
914.68	15154
914.793	15100
914.906	15028
915.019	14861
915.132	14765
915.245	14899
915.358	14883
915.47	14880
915.583	14902
915.696	14971
915.809	14963
915.921	15043
916.034	14811
916.146	14807
916.259	14670
916.371	14891
916.483	14819
916.595	14667
916.708	14750
916.82	14735
916.932	14629
917.044	14754
917.156	14663
917.268	14640
917.38	14530
917.491	14469
917.603	14530
917.715	14644
917.826	14651
917.938	14495
918.049	14393
918.161	14469
918.272	14598
918.384	14537
918.495	14408
918.606	14434
918.717	14400
918.828	14362
918.939	14347
919.05	14256
919.161	14294
919.272	14039
919.383	14237
919.494	14343
919.604	14480
919.715	14309
919.826	14202
919.936	14309
920.047	14248
920.157	14278
920.267	14476
920.378	14286
920.488	14347
920.598	14450
920.708	14640
920.818	14492
920.928	14457
921.038	14556
921.148	14514
921.258	14252
921.368	14149
921.477	14020
921.587	14050
921.697	13841
921.806	14016
921.916	13921
922.025	13704
922.134	13715
922.244	13616
922.353	13731
922.462	13548
922.571	13506
922.68	13430
922.789	13285
922.898	13369
923.007	13259
923.116	13381
923.224	13346
923.333	13278
923.442	13168
923.55	13285
923.659	13110
923.767	13118
923.876	13118
923.984	13198
924.092	13046
924.201	13110
924.309	13141
924.417	13023
924.525	13023
924.633	13023
924.741	13989
924.849	12776
924.956	13004
925.064	12821
925.172	12631
925.279	12662
925.387	12829
925.494	12703
925.602	12829
925.709	12833
925.816	12726
925.924	12654
926.031	12776
926.138	12703
926.245	12745
926.352	12589
926.459	12726
926.566	12817
926.673	12574
926.779	12464
926.886	12498
926.993	12308
927.099	12380
927.206	12346
927.312	12289
927.419	12372
927.525	12292
927.631	12407
927.737	12258
927.843	12186
927.95	12076
928.056	12159
928.162	12121
928.267	12194
928.373	12871
928.479	12232
928.585	12038
928.69	12159
928.796	12163
928.901	12007
929.007	11878
929.112	12011
929.218	12022
929.323	11916
929.428	11779
929.533	12007
929.638	11942
929.743	11813
929.848	11870
929.953	11897
930.058	11657
930.163	11566
930.267	11608
930.372	11756
930.477	11459
930.581	11798
930.685	11646
930.79	11444
930.894	11547
930.998	11429
931.103	11600
931.207	11227
931.311	11185
931.415	10999
931.519	10877
931.623	10854
