Data from test_V78500241_12.txt Node
Date: Fri Mar 25 15:41:53 CST 2022
User: usil
Spectrometer: V785-0024
Trigger mode: 0
Integration Time (sec): 4.000000E-1
Scans to average: 1
Nonlinearity correction enabled: false
Boxcar width: 0
Storing dark spectrum: false
XAxis mode: Wavelengths
Number of Pixels in Spectrum: 1024
>>>>>Begin Spectral Data<<<<<
801.071	27214
801.214	27077
801.356	26849
801.499	26648
801.641	26613
801.783	26446
801.926	26583
802.068	26370
802.211	26286
802.353	26180
802.496	26214
802.638	26138
802.78	26058
802.923	25986
803.065	25917
803.208	25959
803.35	25894
803.492	26256
803.635	26164
803.777	26046
803.919	26073
804.061	26267
804.204	26210
804.346	26027
804.488	25875
804.63	25940
804.773	25875
804.915	25791
805.057	25974
805.199	26054
805.341	26122
805.483	26008
805.626	26180
805.768	25936
805.91	26134
806.052	26065
806.194	25833
806.336	26142
806.478	26130
806.62	25963
806.762	26069
806.904	26244
807.046	26434
807.188	26503
807.33	26301
807.472	26389
807.614	26347
807.756	26370
807.898	26225
808.04	26088
808.182	26046
808.324	26191
808.465	26012
808.607	26252
808.749	26522
808.891	26522
809.033	26545
809.174	26469
809.316	26465
809.458	26476
809.6	26370
809.741	26579
809.883	26446
810.025	26579
810.166	26701
810.308	26682
810.45	26724
810.591	26473
810.733	26328
810.875	26362
811.016	26294
811.158	26233
811.299	26313
811.441	26396
811.582	26530
811.724	26343
811.865	26187
812.007	26210
812.148	26214
812.29	26324
812.431	26377
812.573	26587
812.714	26674
812.855	26845
812.997	26769
813.138	27005
813.279	26876
813.421	26773
813.562	26629
813.703	26511
813.845	26492
813.986	26050
814.127	25909
814.268	25864
814.41	25841
814.551	25841
814.692	25978
814.833	25845
814.974	25769
815.115	25788
815.256	25529
815.397	25662
815.539	25582
815.68	25502
815.821	25365
815.962	25392
816.103	25388
816.244	25308
816.385	25187
816.526	25198
816.666	25019
816.807	24913
816.948	24935
817.089	24992
817.23	24973
817.371	24924
817.512	24791
817.653	24909
817.793	24844
817.934	24791
818.075	24787
818.216	24817
818.356	24749
818.497	24661
818.638	24517
818.778	24330
818.919	24650
819.06	24448
819.2	24608
819.341	24715
819.481	24544
819.622	24859
819.762	25012
819.903	24970
820.043	24795
820.184	24814
820.324	24757
820.465	24894
820.605	24738
820.746	24859
820.886	24650
821.026	24639
821.167	24753
821.307	24821
821.447	24715
821.588	24578
821.728	24448
821.868	24258
822.008	24098
822.149	24102
822.289	24098
822.429	23866
822.569	23710
822.709	23748
822.849	23585
822.99	23512
823.13	23615
823.27	23467
823.41	23326
823.55	23280
823.69	23414
823.83	23299
823.97	23341
824.11	23022
824.25	23121
824.389	23094
824.529	23075
824.669	23132
824.809	23094
824.949	23147
825.089	23136
825.228	23090
825.368	22991
825.508	23010
825.648	23044
825.787	22984
825.927	22980
826.067	22881
826.206	22793
826.346	22774
826.485	22869
826.625	22987
826.765	22946
826.904	22820
827.044	22641
827.183	22485
827.323	22440
827.462	22542
827.601	22577
827.741	22516
827.88	22512
828.02	22398
828.159	22493
828.298	22512
828.437	22443
828.577	22421
828.716	22596
828.855	22379
828.994	22272
829.134	22158
829.273	22284
829.412	22093
829.551	22295
829.69	22143
829.829	22158
829.968	22371
830.107	22314
830.246	22363
830.385	22067
830.524	22082
830.663	21922
830.802	21903
830.941	21770
831.08	21667
831.219	21915
831.357	21789
831.496	21838
831.635	21690
831.774	21652
831.913	21576
832.051	21488
832.19	21561
832.329	21564
832.467	21306
832.606	21363
832.744	21344
832.883	21412
833.022	21355
833.16	21412
833.299	21313
833.437	21370
833.576	21500
833.714	21408
833.852	21549
833.991	21435
834.129	21557
834.267	21504
834.406	21272
834.544	21291
834.682	21466
834.821	21317
834.959	21473
835.097	21214
835.235	21420
835.373	21408
835.511	21348
835.65	21249
835.788	21233
835.926	21169
836.064	20952
836.202	21074
836.34	21283
836.478	21226
836.615	21176
836.753	21256
836.891	21332
837.029	21230
837.167	21032
837.305	20933
837.443	21009
837.58	21062
837.718	21116
837.856	21043
837.993	21119
838.131	21024
838.269	20960
838.406	21017
838.544	20906
838.681	20785
838.819	20674
838.956	20454
839.094	20606
839.231	20495
839.369	20785
839.506	20838
839.643	20735
839.781	20465
839.918	20396
840.055	20465
840.193	20503
840.33	20465
840.467	20469
840.604	20324
840.742	20659
840.879	20347
841.016	20298
841.153	20286
841.29	20415
841.427	20450
841.564	20313
841.701	20347
841.838	20294
841.975	20225
842.112	20370
842.249	20195
842.385	20187
842.522	20237
842.659	20126
842.796	20027
842.933	20142
843.069	20016
843.206	19986
843.343	20153
843.479	20069
843.616	20096
843.752	19833
843.889	19826
844.025	19993
844.162	19814
844.298	19871
844.435	19807
844.571	19799
844.708	19890
844.844	20027
844.98	19959
845.117	19894
845.253	19830
845.389	19643
845.525	19731
845.661	19609
845.798	19609
845.934	19635
846.07	19464
846.206	19582
846.342	19632
846.478	19525
846.614	19255
846.75	19240
846.886	19312
847.022	19384
847.158	19301
847.294	19263
847.429	19365
847.565	19354
847.701	19552
847.837	18966
847.972	18966
848.108	19103
848.244	18981
848.379	18760
848.515	18814
848.65	18844
848.786	18920
848.921	18863
849.057	18905
849.192	18833
849.328	18825
849.463	18821
849.598	18764
849.734	18692
849.869	18589
850.004	18608
850.14	18650
850.275	18517
850.41	18547
850.545	18544
850.68	18426
850.815	18563
850.95	18486
851.085	18760
851.22	18612
851.355	18582
851.49	18437
851.625	18338
851.76	18445
851.895	18384
852.03	18388
852.165	18532
852.299	18547
852.434	18631
852.569	18582
852.703	18532
852.838	18574
852.973	18646
853.107	18608
853.242	18494
853.376	18452
853.511	18292
853.645	18338
853.78	18483
853.914	18365
854.048	18429
854.183	18232
854.317	18391
854.451	18525
854.585	18361
854.72	18315
854.854	18376
854.988	18308
855.122	18365
855.256	18133
855.39	18350
855.524	18369
855.658	18380
855.792	18403
855.926	18407
856.06	18410
856.194	18407
856.327	18395
856.461	18258
856.595	18319
856.729	18350
856.862	18410
856.996	18350
857.13	18479
857.263	18467
857.397	18357
857.53	18197
857.664	18498
857.797	18372
857.931	18441
858.064	18346
858.197	18456
858.331	18304
858.464	18102
858.597	18186
858.731	18224
858.864	18273
858.997	18228
859.13	18167
859.263	18369
859.396	18323
859.529	18304
859.662	18194
859.795	18186
859.928	18247
860.061	18376
860.194	18407
860.327	18277
860.46	18163
860.592	18330
860.725	18475
860.858	18365
860.99	18155
861.123	18182
861.256	18140
861.388	18140
861.521	18852
861.653	18091
861.786	18034
861.918	18171
862.05	18205
862.183	18388
862.315	18456
862.447	18429
862.58	18281
862.712	18076
862.844	17980
862.976	18117
863.108	17935
863.24	18395
863.372	18041
863.504	17954
863.636	17973
863.768	18007
863.9	17950
864.032	17927
864.164	17977
864.296	17973
864.428	18133
864.559	18045
864.691	18110
864.823	17973
864.954	17882
865.086	18064
865.217	17897
865.349	17832
865.48	17893
865.612	17958
865.743	17977
865.875	17961
866.006	17866
866.137	17904
866.269	17980
866.4	17897
866.531	17923
866.662	17771
866.793	17889
866.924	17931
867.055	17878
867.186	17889
867.317	17828
867.448	17802
867.579	17752
867.71	17798
867.841	17710
867.972	17874
868.103	17809
868.233	17836
868.364	17824
868.495	17992
868.625	18091
868.756	18205
868.886	18091
869.017	18022
869.147	18194
869.278	18095
869.408	18098
869.539	18197
869.669	18155
869.799	18167
869.929	18273
870.06	18319
870.19	18441
870.32	18323
870.45	18467
870.58	18506
870.71	18582
870.84	18620
870.97	18479
871.1	18479
871.23	18650
871.36	18722
871.489	18616
871.619	18642
871.749	18665
871.879	18719
872.008	18856
872.138	18821
872.267	18669
872.397	18566
872.526	18525
872.656	18506
872.785	18509
872.915	18665
873.044	18814
873.173	18684
873.303	18749
873.432	18738
873.561	18848
873.69	18673
873.819	18681
873.948	18909
874.077	18681
874.206	18749
874.335	18738
874.464	18947
874.593	19031
874.722	19034
874.851	19008
874.979	19107
875.108	18909
875.237	19034
875.365	18993
875.494	18905
875.623	19152
875.751	18909
875.88	19137
876.008	19244
876.136	19187
876.265	19384
876.393	19552
876.521	19537
876.65	19521
876.778	19430
876.906	19373
877.034	19377
877.162	19415
877.29	19339
877.418	19228
877.546	19476
877.674	19457
877.802	19438
877.93	19449
878.058	19293
878.185	19247
878.313	19308
878.441	19392
878.568	19301
878.696	19320
878.824	19441
878.951	19407
879.079	19597
879.206	19685
879.333	19628
879.461	19445
879.588	19518
879.715	19662
879.842	19674
879.97	19525
880.097	19179
880.224	19350
880.351	19225
880.478	19247
880.605	19091
880.732	19247
880.859	19449
880.986	19194
881.112	19301
881.239	19061
881.366	18973
881.493	19023
881.619	18890
881.746	18935
881.872	18806
881.999	18825
882.125	18726
882.252	18863
882.378	18977
882.505	19053
882.631	18764
882.757	18635
882.883	18783
883.01	18471
883.136	18544
883.262	18578
883.388	18471
883.514	18650
883.64	18715
883.766	18669
883.892	18388
884.018	18486
884.143	18631
884.269	18798
884.395	18441
884.52	18270
884.646	18384
884.772	18140
884.897	18098
885.023	18281
885.148	18464
885.274	18483
885.399	18471
885.524	18315
885.65	18315
885.775	18327
885.9	18228
886.025	18414
886.15	18300
886.275	18098
886.4	18186
886.525	18292
886.65	18072
886.775	18254
886.9	18315
887.025	18498
887.149	18258
887.274	18083
887.399	18064
887.523	17999
887.648	18167
887.773	17980
887.897	18007
888.021	17999
888.146	18102
888.27	18136
888.395	18136
888.519	18152
888.643	18087
888.767	18095
888.891	17965
889.015	17767
889.139	17916
889.263	17878
889.387	17885
889.511	18034
889.635	18053
889.759	17882
889.883	17809
890.006	17935
890.13	17954
890.254	17745
890.377	17726
890.501	17615
890.624	17691
890.748	17649
890.871	17665
890.995	17433
891.118	17474
891.241	17501
891.364	17482
891.488	17623
891.611	17467
891.734	17417
891.857	17577
891.98	17448
892.103	17452
892.226	17551
892.349	17539
892.471	17296
892.594	17471
892.717	17562
892.839	17448
892.962	17528
893.085	17493
893.207	17478
893.33	17345
893.452	17391
893.575	17440
893.697	17455
893.819	17657
893.941	17589
894.064	17680
894.186	17398
894.308	17330
894.43	17665
894.552	17714
894.674	17585
894.796	17410
894.918	17455
895.04	17345
895.161	17554
895.283	17581
895.405	17421
895.526	17566
895.648	17535
895.769	17539
895.891	17478
896.012	17672
896.134	17665
896.255	17562
896.376	17467
896.498	17573
896.619	17596
896.74	17577
896.861	17509
896.982	17901
897.103	18155
897.224	17965
897.345	17885
897.466	17710
897.587	17726
897.708	18022
897.828	17779
897.949	17832
898.07	17741
898.19	17642
898.311	17882
898.431	17855
898.552	17897
898.672	17783
898.792	17946
898.913	17794
899.033	17676
899.153	17619
899.273	17532
899.393	17589
899.513	17642
899.633	17615
899.753	17573
899.873	17528
899.993	17649
900.113	17608
900.232	17490
900.352	17444
900.472	17482
900.591	17395
900.711	17353
900.83	17452
900.95	17573
901.069	17573
901.189	17250
901.308	17083
901.427	17105
901.546	17102
901.665	16995
901.784	17022
901.904	16854
902.023	16759
902.141	16573
902.26	16470
902.379	16592
902.498	16588
902.617	16504
902.735	16508
902.854	16569
902.973	16440
903.091	16299
903.21	16226
903.328	16036
903.446	16246
903.565	16097
903.683	16078
903.801	16078
903.919	16025
904.038	16051
904.156	15793
904.274	15915
904.392	15789
904.51	15861
904.627	15876
904.745	15915
904.863	15899
904.981	15549
905.098	15492
905.216	15561
905.334	15424
905.451	15507
905.569	15507
905.686	15553
905.803	15485
905.921	15214
906.038	15378
906.155	15264
906.272	15321
906.389	15252
906.506	14998
906.623	15051
906.74	15047
906.857	14895
906.974	14899
907.091	15074
907.208	15226
907.324	15024
907.441	14933
907.557	14788
907.674	14731
907.79	14735
907.907	14708
908.023	14819
908.139	14701
908.256	14629
908.372	14651
908.488	14530
908.604	14492
908.72	14404
908.836	14450
908.952	14423
909.068	14484
909.184	14507
909.3	14431
909.415	14473
909.531	14419
909.647	14039
909.762	14195
909.878	14183
909.993	14123
910.108	14107
910.224	14157
910.339	14176
910.454	14115
910.57	14016
910.685	13830
910.8	14123
910.915	14111
911.03	13997
911.145	13826
911.259	13769
911.374	13761
911.489	13624
911.604	13624
911.718	13590
911.833	13582
911.947	13381
912.062	13460
912.176	13655
912.291	13643
912.405	13586
912.519	13742
912.633	13681
912.748	13506
912.862	13628
912.976	13396
913.09	13274
913.204	13320
913.318	13422
913.431	13464
913.545	13434
913.659	13430
913.772	13308
913.886	13255
914	13057
914.113	13244
914.226	13270
914.34	13403
914.453	13152
914.566	13282
914.68	13095
914.793	13107
914.906	12901
915.019	12856
915.132	12833
915.245	12894
915.358	12882
915.47	12863
915.583	12848
915.696	12909
915.809	13000
915.921	13061
916.034	12894
916.146	12783
916.259	12791
916.371	12916
916.483	12825
916.595	12665
916.708	12757
916.82	12791
916.932	12764
917.044	12688
917.156	12730
917.268	12563
917.38	12620
917.491	12604
917.603	12597
917.715	12741
917.826	12722
917.938	12578
918.049	12570
918.161	12540
918.272	12722
918.384	12749
918.495	12658
918.606	12399
918.717	12289
918.828	12479
918.939	12445
919.05	12273
919.161	12380
919.272	12110
919.383	12292
919.494	12372
919.604	12593
919.715	12403
919.826	12258
919.936	12330
920.047	12452
920.157	12456
920.267	12623
920.378	12357
920.488	12327
920.598	12612
920.708	12662
920.818	12593
920.928	12506
921.038	12688
921.148	12654
921.258	12365
921.368	12292
921.477	12167
921.587	12060
921.697	12072
921.806	12129
921.916	12003
922.025	11893
922.134	11817
922.244	11771
922.353	11771
922.462	11760
922.571	11642
922.68	11482
922.789	11448
922.898	11459
923.007	11429
923.116	11524
923.224	11455
923.333	11486
923.442	11326
923.55	11318
923.659	11360
923.767	11387
923.876	11208
923.984	11341
924.092	11277
924.201	11277
924.309	11296
924.417	11288
924.525	11227
924.633	11227
924.741	12266
924.849	10995
924.956	11170
925.064	11037
925.172	10976
925.279	10968
925.387	11048
925.494	10984
925.602	11117
925.709	11018
925.816	10934
925.924	11006
926.031	11025
926.138	11010
926.245	11014
926.352	10885
926.459	11090
926.566	11067
926.673	10892
926.779	10850
926.886	10934
926.993	10675
927.099	10683
927.206	10588
927.312	10489
927.419	10694
927.525	10694
927.631	10721
927.737	10519
927.843	10527
927.95	10341
928.056	10512
928.162	10519
928.267	10599
928.373	11140
928.479	10546
928.585	10409
928.69	10485
928.796	10497
928.901	10329
929.007	10238
929.112	10405
929.218	10333
929.323	10284
929.428	10314
929.533	10424
929.638	10249
929.743	10227
929.848	10188
929.953	10268
930.058	10150
930.163	10059
930.267	10101
930.372	10082
930.477	9956
930.581	10204
930.685	10013
930.79	9880
930.894	9945
930.998	9873
931.103	9994
931.207	9724
931.311	9545
931.415	9466
931.519	9272
931.623	9294
