Data from test_V78500241_1405.txt Node
Date: Fri Mar 25 15:51:32 CST 2022
User: usil
Spectrometer: V785-0024
Trigger mode: 0
Integration Time (sec): 4.000000E-1
Scans to average: 1
Nonlinearity correction enabled: false
Boxcar width: 0
Storing dark spectrum: false
XAxis mode: Wavelengths
Number of Pixels in Spectrum: 1024
>>>>>Begin Spectral Data<<<<<
801.071	27895
801.214	27892
801.356	27743
801.499	27427
801.641	27576
801.783	27580
801.926	27549
802.068	27739
802.211	27500
802.353	27549
802.496	27230
802.638	27214
802.78	27306
802.923	27135
803.065	27157
803.208	27138
803.35	27325
803.492	27462
803.635	27245
803.777	27298
803.919	27427
804.061	27766
804.204	27534
804.346	27382
804.488	27321
804.63	27443
804.773	27374
804.915	27416
805.057	27553
805.199	27519
805.341	27568
805.483	27580
805.626	27701
805.768	27485
805.91	27557
806.052	27583
806.194	27454
806.336	27854
806.478	27652
806.62	27660
806.762	27736
806.904	27892
807.046	28204
807.188	28048
807.33	28059
807.472	28055
807.614	27888
807.756	27994
807.898	27998
808.04	27888
808.182	27819
808.324	27823
808.465	27888
808.607	28128
808.749	28147
808.891	28348
809.033	28356
809.174	28249
809.316	28299
809.458	28348
809.6	28295
809.741	28253
809.883	28428
810.025	28596
810.166	28626
810.308	28485
810.45	28523
810.591	28409
810.733	28257
810.875	28306
811.016	28268
811.158	28105
811.299	28375
811.441	28459
811.582	28363
811.724	28150
811.865	28109
812.007	28166
812.148	28211
812.29	28166
812.431	28348
812.573	28641
812.714	28694
812.855	28740
812.997	28908
813.138	28953
813.279	28812
813.421	28778
813.562	28641
813.703	28599
813.845	28500
813.986	28249
814.127	28006
814.268	27892
814.41	28131
814.551	27884
814.692	28032
814.833	27937
814.974	27831
815.115	28010
815.256	27762
815.397	27880
815.539	27797
815.68	27690
815.821	27800
815.962	27629
816.103	27660
816.244	27496
816.385	27481
816.526	27462
816.666	27195
816.807	27222
816.948	27173
817.089	27313
817.23	27157
817.371	27184
817.512	27325
817.653	27157
817.793	27180
817.934	27123
818.075	27131
818.216	27214
818.356	27184
818.497	27009
818.638	26982
818.778	26967
818.919	27017
819.06	27131
819.2	27161
819.341	27226
819.481	27222
819.622	27443
819.762	27564
819.903	27538
820.043	27393
820.184	27332
820.324	27382
820.465	27424
820.605	27203
820.746	27268
820.886	27222
821.026	27211
821.167	27214
821.307	27473
821.447	27165
821.588	27192
821.728	26952
821.868	26853
822.008	26765
822.149	26731
822.289	26556
822.429	26492
822.569	26396
822.709	26431
822.849	26180
822.99	26278
823.13	26096
823.27	26130
823.41	25989
823.55	25940
823.69	25940
823.83	26046
823.97	26024
824.11	25845
824.25	25696
824.389	25803
824.529	25811
824.669	25860
824.809	25890
824.949	25951
825.089	26039
825.228	25803
825.368	25552
825.508	25712
825.648	25727
825.787	25750
825.927	25738
826.067	25708
826.206	25731
826.346	25890
826.485	25635
826.625	25639
826.765	25727
826.904	25700
827.044	25544
827.183	25411
827.323	25407
827.462	25426
827.601	25506
827.741	25369
827.88	25362
828.02	25251
828.159	25381
828.298	25518
828.437	25335
828.577	25354
828.716	25468
828.855	25225
828.994	25171
829.134	25103
829.273	25095
829.412	25034
829.551	24954
829.69	25107
829.829	25209
829.968	25221
830.107	25095
830.246	25027
830.385	25145
830.524	24890
830.663	24844
830.802	24817
830.941	24684
831.08	24677
831.219	24665
831.357	24741
831.496	24875
831.635	24734
831.774	24559
831.913	24547
832.051	24490
832.19	24684
832.329	24563
832.467	24479
832.606	24350
832.744	24285
832.883	24319
833.022	24319
833.16	24330
833.299	24388
833.437	24376
833.576	24403
833.714	24410
833.852	24418
833.991	24483
834.129	24452
834.267	24578
834.406	24505
834.544	24403
834.682	24391
834.821	24399
834.959	24536
835.097	24391
835.235	24513
835.373	24372
835.511	24380
835.65	24384
835.788	24342
835.926	24266
836.064	24144
836.202	24110
836.34	24224
836.478	24342
836.615	24273
836.753	24114
836.891	24384
837.029	24281
837.167	24106
837.305	24072
837.443	24205
837.58	24026
837.718	24224
837.856	24034
837.993	23988
838.131	24053
838.269	23805
838.406	23893
838.544	23939
838.681	23642
838.819	23824
838.956	23539
839.094	23490
839.231	23604
839.369	23764
839.506	23859
839.643	23729
839.781	23596
839.918	23482
840.055	23668
840.193	23570
840.33	23524
840.467	23539
840.604	23676
840.742	23855
840.879	23410
841.016	23368
841.153	23414
841.29	23539
841.427	23490
841.564	23520
841.701	23364
841.838	23334
841.975	23417
842.112	23459
842.249	23421
842.385	23242
842.522	23471
842.659	23166
842.796	23261
842.933	23372
843.069	23067
843.206	23155
843.343	23231
843.479	23216
843.616	23261
843.752	23022
843.889	22961
844.025	23094
844.162	22953
844.298	23098
844.435	23132
844.571	22877
844.708	23022
844.844	23102
844.98	23159
845.117	23064
845.253	22938
845.389	22953
845.525	22805
845.661	22908
845.798	22744
845.934	22862
846.07	22797
846.206	22637
846.342	22919
846.478	22733
846.614	22379
846.75	22459
846.886	22474
847.022	22580
847.158	22565
847.294	22485
847.429	22508
847.565	22325
847.701	22702
847.837	22169
847.972	22226
848.108	22261
848.244	22246
848.379	22188
848.515	22063
848.65	22029
848.786	22093
848.921	22059
849.057	22166
849.192	22112
849.328	22082
849.463	21934
849.598	21983
849.734	21945
849.869	21945
850.004	21831
850.14	21884
850.275	21781
850.41	21766
850.545	21876
850.68	21781
850.815	21846
850.95	21751
851.085	21998
851.22	21926
851.355	21770
851.49	21800
851.625	21739
851.76	21694
851.895	21663
852.03	21770
852.165	21789
852.299	21854
852.434	21953
852.569	21835
852.703	21865
852.838	21876
852.973	21850
853.107	21991
853.242	21732
853.376	21694
853.511	21614
853.645	21591
853.78	21755
853.914	21739
854.048	21625
854.183	21629
854.317	21705
854.451	21854
854.585	21622
854.72	21682
854.854	21705
854.988	21644
855.122	21538
855.256	21557
855.39	21660
855.524	21698
855.658	21774
855.792	21762
855.926	21690
856.06	21884
856.194	21701
856.327	21679
856.461	21469
856.595	21587
856.729	21705
856.862	21785
856.996	21682
857.13	21709
857.263	21717
857.397	21797
857.53	21652
857.664	21698
857.797	21732
857.931	21720
858.064	21686
858.197	21785
858.331	21534
858.464	21564
858.597	21580
858.731	21599
858.864	21622
858.997	21530
859.13	21644
859.263	21663
859.396	21667
859.529	21690
859.662	21637
859.795	21515
859.928	21682
860.061	21838
860.194	21915
860.327	21800
860.46	21736
860.592	21812
860.725	21823
860.858	21686
860.99	21599
861.123	21599
861.256	21625
861.388	21583
861.521	22329
861.653	21507
861.786	21439
861.918	21519
862.05	21515
862.183	21633
862.315	21504
862.447	21648
862.58	21466
862.712	21454
862.844	21268
862.976	21416
863.108	21405
863.24	21816
863.372	21348
863.504	21279
863.636	21317
863.768	21408
863.9	21370
864.032	21245
864.164	21412
864.296	21332
864.428	21412
864.559	21332
864.691	21401
864.823	21351
864.954	21462
865.086	21287
865.217	21275
865.349	21237
865.48	21226
865.612	21313
865.743	21249
865.875	21340
866.006	21214
866.137	21268
866.269	21279
866.4	21176
866.531	21173
866.662	21104
866.793	21089
866.924	21184
867.055	21165
867.186	21176
867.317	21074
867.448	21017
867.579	21195
867.71	21173
867.841	21024
867.972	21249
868.103	21154
868.233	21150
868.364	21268
868.495	21165
868.625	21443
868.756	21587
868.886	21348
869.017	21488
869.147	21545
869.278	21538
869.408	21462
869.539	21363
869.669	21523
869.799	21481
869.929	21538
870.06	21542
870.19	21679
870.32	21747
870.45	21808
870.58	21755
870.71	21778
870.84	21945
870.97	21789
871.1	21778
871.23	21907
871.36	21975
871.489	21816
871.619	22036
871.749	22162
871.879	22006
872.008	22067
872.138	21975
872.267	21934
872.397	21918
872.526	21812
872.656	21892
872.785	21827
872.915	21926
873.044	22169
873.173	22090
873.303	22181
873.432	22067
873.561	22112
873.69	22169
873.819	22196
873.948	22181
874.077	22025
874.206	22013
874.335	22135
874.464	22139
874.593	22188
874.722	22211
874.851	22363
874.979	22318
875.108	22440
875.237	22390
875.365	22177
875.494	22223
875.623	22356
875.751	22386
875.88	22287
876.008	22405
876.136	22493
876.265	22645
876.393	22862
876.521	22759
876.65	22774
876.778	22653
876.906	22577
877.034	22660
877.162	22561
877.29	22497
877.418	22702
877.546	22622
877.674	22603
877.802	22630
877.93	22630
878.058	22516
878.185	22546
878.313	22649
878.441	22641
878.568	22504
878.696	22580
878.824	22767
878.951	22607
879.079	22820
879.206	22961
879.333	22812
879.461	22592
879.588	22793
879.715	22816
879.842	22900
879.97	22778
880.097	22375
880.224	22398
880.351	22535
880.478	22440
880.605	22447
880.732	22485
880.859	22694
880.986	22504
881.112	22531
881.239	22287
881.366	22158
881.493	22135
881.619	22147
881.746	22010
881.872	22086
881.999	22048
882.125	21953
882.252	21972
882.378	22029
882.505	22188
882.631	21857
882.757	21857
882.883	21812
883.01	21778
883.136	21747
883.262	21690
883.388	21439
883.514	21671
883.64	21728
883.766	21675
883.892	21545
884.018	21519
884.143	21667
884.269	21770
884.395	21397
884.52	21389
884.646	21408
884.772	21180
884.897	21230
885.023	21515
885.148	21469
885.274	21523
885.399	21447
885.524	21344
885.65	21401
885.775	21329
885.9	21359
886.025	21416
886.15	21275
886.275	21431
886.4	21203
886.525	21378
886.65	21283
886.775	21272
886.9	21431
887.025	21614
887.149	21344
887.274	21058
887.399	21192
887.523	21195
887.648	21154
887.773	21039
887.897	21298
888.021	21058
888.146	21165
888.27	21260
888.395	21218
888.519	21112
888.643	21142
888.767	21165
888.891	20963
889.015	20891
889.139	20998
889.263	20994
889.387	20933
889.511	21085
889.635	21009
889.759	20750
889.883	20773
890.006	20902
890.13	20918
890.254	20861
890.377	20853
890.501	20724
890.624	20625
890.748	20724
890.871	20560
890.995	20522
891.118	20438
891.241	20541
891.364	20461
891.488	20575
891.611	20442
891.734	20514
891.857	20484
891.98	20396
892.103	20522
892.226	20530
892.349	20499
892.471	20263
892.594	20412
892.717	20469
892.839	20400
892.962	20385
893.085	20415
893.207	20343
893.33	20294
893.452	20389
893.575	20381
893.697	20176
893.819	20476
893.941	20617
894.064	20412
894.186	20419
894.308	20294
894.43	20442
894.552	20423
894.674	20454
894.796	20275
894.918	20343
895.04	20396
895.161	20461
895.283	20495
895.405	20221
895.526	20282
895.648	20328
895.769	20294
895.891	20355
896.012	20469
896.134	20533
896.255	20309
896.376	20298
896.498	20343
896.619	20457
896.74	20339
896.861	20469
896.982	20663
897.103	20823
897.224	20769
897.345	20670
897.466	20575
897.587	20594
897.708	20644
897.828	20609
897.949	20560
898.07	20450
898.19	20503
898.311	20640
898.431	20446
898.552	20476
898.672	20594
898.792	20659
898.913	20583
899.033	20473
899.153	20343
899.273	20233
899.393	20328
899.513	20415
899.633	20256
899.753	20355
899.873	20278
899.993	20366
900.113	20377
900.232	20309
900.352	20172
900.472	20005
900.591	20084
900.711	20103
900.83	20008
900.95	20176
901.069	20115
901.189	19944
901.308	19925
901.427	19693
901.546	19738
901.665	19818
901.784	19613
901.904	19548
902.023	19419
902.141	19244
902.26	19247
902.379	19327
902.498	19217
902.617	19179
902.735	19240
902.854	19133
902.973	19046
903.091	18871
903.21	18829
903.328	18764
903.446	18745
903.565	18677
903.683	18703
903.801	18616
903.919	18627
904.038	18597
904.156	18414
904.274	18460
904.392	18372
904.51	18365
904.627	18429
904.745	18380
904.863	18460
904.981	18174
905.098	18060
905.216	18076
905.334	18213
905.451	18072
905.569	18121
905.686	18087
905.803	18102
905.921	17821
906.038	18114
906.155	17813
906.272	17817
906.389	17718
906.506	17745
906.623	17646
906.74	17767
906.857	17535
906.974	17554
907.091	17729
907.208	17733
907.324	17672
907.441	17471
907.557	17410
907.674	17349
907.79	17410
907.907	17337
908.023	17307
908.139	17311
908.256	17360
908.372	17246
908.488	17261
908.604	17128
908.72	17045
908.836	16946
908.952	17003
909.068	17117
909.184	17143
909.3	17014
909.415	17045
909.531	17018
909.647	16873
909.762	16774
909.878	16725
909.993	16790
910.108	16717
910.224	16634
910.339	16755
910.454	16626
910.57	16546
910.685	16516
910.8	16809
910.915	16740
911.03	16546
911.145	16371
911.259	16432
911.374	16314
911.489	16226
911.604	16169
911.718	16097
911.833	16071
911.947	16036
912.062	15922
912.176	16078
912.291	16120
912.405	16006
912.519	16348
912.633	16268
912.748	16181
912.862	15991
912.976	15964
913.09	15865
913.204	15915
913.318	15907
913.431	16067
913.545	15983
913.659	16029
913.772	15766
913.886	15751
914	15709
914.113	15846
914.226	15751
914.34	15766
914.453	15682
914.566	15808
914.68	15485
914.793	15538
914.906	15344
915.019	15355
915.132	15310
915.245	15256
915.358	15378
915.47	15306
915.583	15317
915.696	15386
915.809	15370
915.921	15321
916.034	15192
916.146	15245
916.259	15131
916.371	15264
916.483	15226
916.595	15180
916.708	15275
916.82	15081
916.932	15127
917.044	15017
917.156	15123
917.268	14944
917.38	14899
917.491	14891
917.603	14967
917.715	15100
917.826	14952
917.938	14868
918.049	14792
918.161	14921
918.272	14941
918.384	15005
918.495	14906
918.606	14765
918.717	14743
918.828	14724
918.939	14750
919.05	14644
919.161	14667
919.272	14507
919.383	14583
919.494	14686
919.604	14929
919.715	14693
919.826	14629
919.936	14590
920.047	14689
920.157	14602
920.267	14792
920.378	14769
920.488	14644
920.598	14849
920.708	14975
920.818	14682
920.928	14788
921.038	15039
921.148	14918
921.258	14629
921.368	14457
921.477	14419
921.587	14343
921.697	14317
921.806	14400
921.916	14202
922.025	14058
922.134	14081
922.244	13974
922.353	14043
922.462	13986
922.571	13864
922.68	13674
922.789	13715
922.898	13704
923.007	13643
923.116	13693
923.224	13651
923.333	13681
923.442	13487
923.55	13529
923.659	13476
923.767	13552
923.876	13457
923.984	13537
924.092	13487
924.201	13495
924.309	13552
924.417	13464
924.525	13415
924.633	13346
924.741	14149
924.849	13187
924.956	13206
925.064	13209
925.172	13084
925.279	13057
925.387	13080
925.494	13076
925.602	13206
925.709	13027
925.816	13088
925.924	13129
926.031	13080
926.138	12985
926.245	13065
926.352	12973
926.459	13095
926.566	13122
926.673	13034
926.779	12852
926.886	12791
926.993	12726
927.099	12772
927.206	12616
927.312	12631
927.419	12623
927.525	12597
927.631	12707
927.737	12521
927.843	12525
927.95	12422
928.056	12452
928.162	12403
928.267	12490
928.373	13141
928.479	12536
928.585	12273
928.69	12330
928.796	12513
928.901	12353
929.007	12197
929.112	12300
929.218	12232
929.323	12171
929.428	12213
929.533	12251
929.638	12136
929.743	12159
929.848	12175
929.953	12140
930.058	12034
930.163	11870
930.267	11859
930.372	12041
930.477	11840
930.581	12144
930.685	11817
930.79	11779
930.894	11779
930.998	11798
931.103	11912
931.207	11524
931.311	11383
931.415	11284
931.519	11132
931.623	11197
