Data from test_V78500241_1489.txt Node
Date: Fri Mar 25 15:52:06 CST 2022
User: usil
Spectrometer: V785-0024
Trigger mode: 0
Integration Time (sec): 4.000000E-1
Scans to average: 1
Nonlinearity correction enabled: false
Boxcar width: 0
Storing dark spectrum: false
XAxis mode: Wavelengths
Number of Pixels in Spectrum: 1024
>>>>>Begin Spectral Data<<<<<
801.071	28021
801.214	27888
801.356	27766
801.499	27557
801.641	27538
801.783	27534
801.926	27511
802.068	27466
802.211	27454
802.353	27435
802.496	27241
802.638	27142
802.78	27077
802.923	27157
803.065	27089
803.208	27138
803.35	27032
803.492	27298
803.635	27397
803.777	27279
803.919	27386
804.061	27549
804.204	27469
804.346	27275
804.488	27260
804.63	27237
804.773	27173
804.915	27515
805.057	27500
805.199	27458
805.341	27515
805.483	27450
805.626	27545
805.768	27374
805.91	27641
806.052	27542
806.194	27477
806.336	27682
806.478	27633
806.62	27526
806.762	27591
806.904	27762
807.046	28078
807.188	27991
807.33	27884
807.472	28029
807.614	27953
807.756	27991
807.898	27751
808.04	27751
808.182	27895
808.324	27701
808.465	27827
808.607	28032
808.749	28017
808.891	28067
809.033	28280
809.174	28265
809.316	28029
809.458	28230
809.6	28143
809.741	28337
809.883	28428
810.025	28367
810.166	28375
810.308	28424
810.45	28459
810.591	28276
810.733	28116
810.875	28086
811.016	27979
811.158	27994
811.299	28135
811.441	28314
811.582	28314
811.724	28116
811.865	28078
812.007	28162
812.148	28124
812.29	28284
812.431	28459
812.573	28341
812.714	28462
812.855	28649
812.997	28721
813.138	28862
813.279	28824
813.421	28592
813.562	28622
813.703	28554
813.845	28363
813.986	28131
814.127	27994
814.268	27781
814.41	27804
814.551	27800
814.692	27876
814.833	27816
814.974	27816
815.115	27880
815.256	27709
815.397	27732
815.539	27770
815.68	27610
815.821	27568
815.962	27572
816.103	27679
816.244	27515
816.385	27492
816.526	27336
816.666	27138
816.807	27093
816.948	27279
817.089	27199
817.23	27058
817.371	27233
817.512	27024
817.653	27161
817.793	27028
817.934	27100
818.075	27165
818.216	27131
818.356	26872
818.497	27028
818.638	26815
818.778	26895
818.919	26864
819.06	26925
819.2	27009
819.341	27036
819.481	27218
819.622	27264
819.762	27473
819.903	27363
820.043	27306
820.184	27272
820.324	27268
820.465	27378
820.605	27256
820.746	27241
820.886	27093
821.026	27279
821.167	27081
821.307	27310
821.447	27222
821.588	27131
821.728	26838
821.868	26754
822.008	26617
822.149	26514
822.289	26450
822.429	26415
822.569	26343
822.709	26328
822.849	26168
822.99	26103
823.13	26100
823.27	25978
823.41	25845
823.55	25898
823.69	25940
823.83	25944
823.97	25807
824.11	25830
824.25	25677
824.389	25841
824.529	25780
824.669	25696
824.809	25727
824.949	25791
825.089	25696
825.228	25902
825.368	25613
825.508	25677
825.648	25525
825.787	25731
825.927	25559
826.067	25556
826.206	25677
826.346	25696
826.485	25655
826.625	25635
826.765	25738
826.904	25628
827.044	25487
827.183	25438
827.323	25354
827.462	25426
827.601	25293
827.741	25369
827.88	25270
828.02	25160
828.159	25327
828.298	25373
828.437	25255
828.577	25213
828.716	25441
828.855	25270
828.994	25031
829.134	25031
829.273	25061
829.412	25103
829.551	25027
829.69	24973
829.829	25000
829.968	25069
830.107	25000
830.246	25148
830.385	24939
830.524	24890
830.663	24840
830.802	24700
830.941	24722
831.08	24555
831.219	24635
831.357	24646
831.496	24779
831.635	24452
831.774	24521
831.913	24544
832.051	24456
832.19	24483
832.329	24486
832.467	24243
832.606	24163
832.744	24292
832.883	24361
833.022	24292
833.16	24315
833.299	24380
833.437	24407
833.576	24441
833.714	24361
833.852	24437
833.991	24395
834.129	24471
834.267	24555
834.406	24391
834.544	24467
834.682	24467
834.821	24353
834.959	24494
835.097	24178
835.235	24388
835.373	24437
835.511	24433
835.65	24228
835.788	24285
835.926	24117
836.064	24064
836.202	24079
836.34	24201
836.478	24209
836.615	24136
836.753	24289
836.891	24247
837.029	24174
837.167	24057
837.305	24186
837.443	24011
837.58	23912
837.718	24129
837.856	23923
837.993	23840
838.131	23923
838.269	23859
838.406	23961
838.544	23885
838.681	23676
838.819	23581
838.956	23592
839.094	23630
839.231	23516
839.369	23608
839.506	23916
839.643	23790
839.781	23436
839.918	23379
840.055	23539
840.193	23482
840.33	23406
840.467	23512
840.604	23322
840.742	23596
840.879	23364
841.016	23452
841.153	23334
841.29	23474
841.427	23379
841.564	23455
841.701	23402
841.838	23414
841.975	23296
842.112	23284
842.249	23246
842.385	23128
842.522	23250
842.659	23147
842.796	23003
842.933	23094
843.069	23231
843.206	23014
843.343	23246
843.479	23113
843.616	23071
843.752	22980
843.889	22885
844.025	23033
844.162	22938
844.298	23124
844.435	22904
844.571	22938
844.708	22938
844.844	22892
844.98	23003
845.117	22984
845.253	22946
845.389	22793
845.525	22812
845.661	22820
845.798	22649
845.934	22706
846.07	22645
846.206	22626
846.342	22748
846.478	22660
846.614	22573
846.75	22314
846.886	22257
847.022	22516
847.158	22443
847.294	22481
847.429	22386
847.565	22455
847.701	22577
847.837	22124
847.972	22059
848.108	22188
848.244	22303
848.379	21953
848.515	21949
848.65	21979
848.786	22150
848.921	22029
849.057	22124
849.192	21915
849.328	22048
849.463	21911
849.598	22002
849.734	21842
849.869	21713
850.004	21797
850.14	21667
850.275	21861
850.41	21743
850.545	21751
850.68	21679
850.815	21774
850.95	21827
851.085	21991
851.22	21892
851.355	21793
851.49	21808
851.625	21812
851.76	21698
851.895	21682
852.03	21648
852.165	21679
852.299	21842
852.434	21720
852.569	21835
852.703	21838
852.838	21766
852.973	21880
853.107	21911
853.242	21736
853.376	21698
853.511	21549
853.645	21568
853.78	21739
853.914	21644
854.048	21443
854.183	21428
854.317	21694
854.451	21869
854.585	21599
854.72	21458
854.854	21637
854.988	21511
855.122	21599
855.256	21393
855.39	21603
855.524	21705
855.658	21682
855.792	21644
855.926	21679
856.06	21671
856.194	21770
856.327	21500
856.461	21561
856.595	21519
856.729	21603
856.862	21694
856.996	21663
857.13	21606
857.263	21660
857.397	21667
857.53	21606
857.664	21583
857.797	21675
857.931	21747
858.064	21618
858.197	21724
858.331	21599
858.464	21504
858.597	21576
858.731	21534
858.864	21564
858.997	21488
859.13	21644
859.263	21625
859.396	21682
859.529	21606
859.662	21469
859.795	21504
859.928	21477
860.061	21770
860.194	21800
860.327	21747
860.46	21561
860.592	21762
860.725	21762
860.858	21690
860.99	21568
861.123	21477
861.256	21526
861.388	21568
861.521	22356
861.653	21511
861.786	21393
861.918	21401
862.05	21485
862.183	21447
862.315	21401
862.447	21549
862.58	21420
862.712	21252
862.844	21310
862.976	21370
863.108	21355
863.24	21781
863.372	21287
863.504	21169
863.636	21199
863.768	21466
863.9	21428
864.032	21256
864.164	21321
864.296	21351
864.428	21374
864.559	21397
864.691	21408
864.823	21264
864.954	21310
865.086	21439
865.217	21176
865.349	21112
865.48	21222
865.612	21230
865.743	21294
865.875	21195
866.006	21127
866.137	21081
866.269	21161
866.4	21199
866.531	21192
866.662	21066
866.793	21146
866.924	21173
867.055	21211
867.186	21119
867.317	21028
867.448	21142
867.579	21047
867.71	20998
867.841	21047
867.972	21165
868.103	21142
868.233	21180
868.364	21188
868.495	21154
868.625	21412
868.756	21359
868.886	21378
869.017	21481
869.147	21492
869.278	21401
869.408	21447
869.539	21359
869.669	21523
869.799	21389
869.929	21526
870.06	21462
870.19	21701
870.32	21606
870.45	21694
870.58	21785
870.71	21850
870.84	21766
870.97	21778
871.1	21785
871.23	22010
871.36	22006
871.489	21899
871.619	21983
871.749	21934
871.879	21975
872.008	22150
872.138	21926
872.267	21960
872.397	21797
872.526	21842
872.656	21854
872.785	21793
872.915	22131
873.044	22181
873.173	21926
873.303	22021
873.432	22021
873.561	22139
873.69	22055
873.819	21991
873.948	22025
874.077	21991
874.206	21956
874.335	22036
874.464	22211
874.593	22322
874.722	22280
874.851	22120
874.979	22207
875.108	22287
875.237	22192
875.365	22173
875.494	22219
875.623	22390
875.751	22272
875.88	22253
876.008	22230
876.136	22421
876.265	22478
876.393	22634
876.521	22713
876.65	22687
876.778	22649
876.906	22641
877.034	22504
877.162	22637
877.29	22519
877.418	22497
877.546	22641
877.674	22630
877.802	22557
877.93	22569
878.058	22504
878.185	22493
878.313	22523
878.441	22565
878.568	22508
878.696	22611
878.824	22607
878.951	22630
879.079	22820
879.206	22987
879.333	22672
879.461	22569
879.588	22706
879.715	22664
879.842	22778
879.97	22679
880.097	22451
880.224	22341
880.351	22390
880.478	22382
880.605	22329
880.732	22246
880.859	22607
880.986	22348
881.112	22394
881.239	22238
881.366	22063
881.493	21998
881.619	21876
881.746	22017
881.872	22078
881.999	21835
882.125	21846
882.252	21869
882.378	21846
882.505	21983
882.631	21819
882.757	21671
882.883	21766
883.01	21652
883.136	21583
883.262	21526
883.388	21488
883.514	21679
883.64	21618
883.766	21549
883.892	21412
884.018	21492
884.143	21614
884.269	21644
884.395	21291
884.52	21184
884.646	21268
884.772	21321
884.897	21154
885.023	21367
885.148	21469
885.274	21435
885.399	21378
885.524	21332
885.65	21321
885.775	21222
885.9	21329
886.025	21386
886.15	21386
886.275	21321
886.4	21154
886.525	21268
886.65	21275
886.775	21199
886.9	21431
887.025	21477
887.149	21226
887.274	21157
887.399	21066
887.523	21051
887.648	20902
887.773	20975
887.897	21154
888.021	21077
888.146	21009
888.27	21108
888.395	21104
888.519	20967
888.643	21104
888.767	21093
888.891	20956
889.015	20872
889.139	20891
889.263	20823
889.387	20982
889.511	21112
889.635	21009
889.759	20861
889.883	20861
890.006	20792
890.13	21017
890.254	20758
890.377	20693
890.501	20552
890.624	20530
890.748	20617
890.871	20450
890.995	20317
891.118	20328
891.241	20484
891.364	20374
891.488	20625
891.611	20385
891.734	20438
891.857	20465
891.98	20480
892.103	20434
892.226	20465
892.349	20317
892.471	20176
892.594	20294
892.717	20290
892.839	20313
892.962	20320
893.085	20419
893.207	20286
893.33	20237
893.452	20168
893.575	20301
893.697	20256
893.819	20533
893.941	20533
894.064	20415
894.186	20161
894.308	20320
894.43	20408
894.552	20450
894.674	20332
894.796	20233
894.918	20286
895.04	20202
895.161	20431
895.283	20355
895.405	20237
895.526	20282
895.648	20324
895.769	20301
895.891	20309
896.012	20355
896.134	20389
896.255	20339
896.376	20275
896.498	20347
896.619	20290
896.74	20355
896.861	20461
896.982	20655
897.103	20644
897.224	20632
897.345	20518
897.466	20469
897.587	20476
897.708	20594
897.828	20575
897.949	20473
898.07	20358
898.19	20514
898.311	20648
898.431	20461
898.552	20602
898.672	20617
898.792	20560
898.913	20575
899.033	20461
899.153	20328
899.273	20103
899.393	20339
899.513	20313
899.633	20389
899.753	20278
899.873	20218
899.993	20210
900.113	20115
900.232	20263
900.352	20183
900.472	20164
900.591	19989
900.711	20107
900.83	19959
900.95	20142
901.069	20107
901.189	19822
901.308	19750
901.427	19704
901.546	19533
901.665	19620
901.784	19685
901.904	19468
902.023	19403
902.141	19274
902.26	19080
902.379	19198
902.498	19114
902.617	19202
902.735	19244
902.854	19122
902.973	18966
903.091	18833
903.21	18848
903.328	18821
903.446	18741
903.565	18540
903.683	18700
903.801	18479
903.919	18528
904.038	18456
904.156	18281
904.274	18494
904.392	18422
904.51	18384
904.627	18365
904.745	18361
904.863	18437
904.981	18106
905.098	18022
905.216	18087
905.334	18102
905.451	18060
905.569	18140
905.686	18148
905.803	18110
905.921	17767
906.038	17965
906.155	17931
906.272	17760
906.389	17764
906.506	17638
906.623	17474
906.74	17726
906.857	17490
906.974	17642
907.091	17627
907.208	17699
907.324	17551
907.441	17383
907.557	17368
907.674	17387
907.79	17212
907.907	17231
908.023	17261
908.139	17326
908.256	17216
908.372	17109
908.488	17204
908.604	16987
908.72	17014
908.836	17025
908.952	17033
909.068	17147
909.184	17143
909.3	17037
909.415	17090
909.531	16972
909.647	16771
909.762	16725
909.878	16573
909.993	16721
910.108	16721
910.224	16630
910.339	16717
910.454	16611
910.57	16516
910.685	16478
910.8	16702
910.915	16710
911.03	16489
911.145	16474
911.259	16337
911.374	16287
911.489	16143
911.604	16162
911.718	16044
911.833	16112
911.947	15911
912.062	15915
912.176	16002
912.291	16067
912.405	15991
912.519	16158
912.633	16295
912.748	16059
912.862	16006
912.976	15846
913.09	15785
913.204	15865
913.318	15880
913.431	16010
913.545	15953
913.659	15968
913.772	15819
913.886	15713
914	15762
914.113	15781
914.226	15800
914.34	15694
914.453	15599
914.566	15747
914.68	15515
914.793	15507
914.906	15348
915.019	15302
915.132	15272
915.245	15294
915.358	15310
915.47	15192
915.583	15260
915.696	15294
915.809	15348
915.921	15405
916.034	15222
916.146	15222
916.259	15150
916.371	15230
916.483	15211
916.595	15032
916.708	15062
916.82	15119
916.932	15097
917.044	15146
917.156	15039
917.268	14876
917.38	14933
917.491	14830
917.603	14941
917.715	15036
917.826	14998
917.938	14906
918.049	14712
918.161	14819
918.272	15077
918.384	14982
918.495	14838
918.606	14682
918.717	14659
918.828	14674
918.939	14716
919.05	14564
919.161	14746
919.272	14560
919.383	14530
919.494	14739
919.604	14864
919.715	14663
919.826	14568
919.936	14610
920.047	14686
920.157	14674
920.267	14762
920.378	14575
920.488	14564
920.598	14883
920.708	14933
920.818	14792
920.928	14826
921.038	14826
921.148	14887
921.258	14556
921.368	14492
921.477	14343
921.587	14332
921.697	14328
921.806	14317
921.916	14168
922.025	14005
922.134	14084
922.244	13963
922.353	14008
922.462	13955
922.571	13742
922.68	13616
922.789	13662
922.898	13655
923.007	13609
923.116	13674
923.224	13590
923.333	13605
923.442	13506
923.55	13502
923.659	13483
923.767	13582
923.876	13438
923.984	13438
924.092	13293
924.201	13407
924.309	13327
924.417	13468
924.525	13289
924.633	13320
924.741	14134
924.849	13152
924.956	13232
925.064	13042
925.172	13027
925.279	13023
925.387	13133
925.494	13042
925.602	13206
925.709	13061
925.816	12954
925.924	13000
926.031	13095
926.138	12985
926.245	13015
926.352	12939
926.459	13012
926.566	13179
926.673	12890
926.779	12859
926.886	12825
926.993	12582
927.099	12544
927.206	12532
927.312	12494
927.419	12631
927.525	12563
927.631	12662
927.737	12597
927.843	12502
927.95	12330
928.056	12391
928.162	12407
928.267	12506
928.373	13061
928.479	12467
928.585	12220
928.69	12422
928.796	12388
928.901	12365
929.007	12216
929.112	12338
929.218	12235
929.323	12152
929.428	12133
929.533	12270
929.638	12022
929.743	12125
929.848	12121
929.953	12190
930.058	12007
930.163	11802
930.267	11851
930.372	11984
930.477	11798
930.581	12038
930.685	11931
930.79	11764
930.894	11741
930.998	11676
931.103	11802
931.207	11532
931.311	11417
931.415	11383
931.519	11128
931.623	11147
