Data from test_V78500241_2548.txt Node
Date: Fri Mar 25 15:59:27 CST 2022
User: usil
Spectrometer: V785-0024
Trigger mode: 0
Integration Time (sec): 4.000000E-1
Scans to average: 1
Nonlinearity correction enabled: false
Boxcar width: 0
Storing dark spectrum: false
XAxis mode: Wavelengths
Number of Pixels in Spectrum: 1024
>>>>>Begin Spectral Data<<<<<
801.071	28577
801.214	28542
801.356	28455
801.499	28242
801.641	28207
801.783	28109
801.926	28162
802.068	28162
802.211	28044
802.353	28070
802.496	27968
802.638	27899
802.78	27892
802.923	27785
803.065	27778
803.208	27842
803.35	27854
803.492	27892
803.635	28143
803.777	28070
803.919	28055
804.061	28447
804.204	28128
804.346	27945
804.488	28097
804.63	28082
804.773	28010
804.915	28166
805.057	28158
805.199	28044
805.341	28150
805.483	28257
805.626	28181
805.768	28135
805.91	28200
806.052	28242
806.194	28036
806.336	28371
806.478	28265
806.62	28196
806.762	28382
806.904	28573
807.046	28717
807.188	28565
807.33	28668
807.472	28759
807.614	28919
807.756	28790
807.898	28679
808.04	28478
808.182	28481
808.324	28519
808.465	28603
808.607	28744
808.749	28885
808.891	28938
809.033	28915
809.174	28877
809.316	29044
809.458	28824
809.6	28869
809.741	29006
809.883	29147
810.025	29204
810.166	29193
810.308	29337
810.45	29102
810.591	29193
810.733	28980
810.875	28885
811.016	28968
811.158	28923
811.299	29117
811.441	28999
811.582	29090
811.724	28850
811.865	28923
812.007	28877
812.148	28995
812.29	28923
812.431	29128
812.573	29292
812.714	29204
812.855	29277
812.997	29589
813.138	29665
813.279	29646
813.421	29531
813.562	29387
813.703	29200
813.845	29220
813.986	28972
814.127	28752
814.268	28687
814.41	28717
814.551	28618
814.692	28767
814.833	28596
814.974	28599
815.115	28637
815.256	28489
815.397	28424
815.539	28424
815.68	28436
815.821	28474
815.962	28401
816.103	28455
816.244	28284
816.385	28242
816.526	28162
816.666	28006
816.807	27960
816.948	27892
817.089	27945
817.23	28067
817.371	27907
817.512	27911
817.653	27892
817.793	27876
817.934	27865
818.075	27979
818.216	27911
818.356	27918
818.497	27732
818.638	27682
818.778	27485
818.919	27759
819.06	27622
819.2	27804
819.341	27914
819.481	28010
819.622	28120
819.762	28238
819.903	28166
820.043	28139
820.184	28211
820.324	28070
820.465	28082
820.605	28055
820.746	28128
820.886	27941
821.026	28150
821.167	27983
821.307	28154
821.447	28059
821.588	27736
821.728	27778
821.868	27515
822.008	27450
822.149	27564
822.289	27462
822.429	27146
822.569	27173
822.709	27138
822.849	26925
822.99	26902
823.13	26838
823.27	26823
823.41	26693
823.55	26765
823.69	26663
823.83	26746
823.97	26720
824.11	26571
824.25	26332
824.389	26644
824.529	26602
824.669	26575
824.809	26693
824.949	26636
825.089	26693
825.228	26575
825.368	26431
825.508	26412
825.648	26450
825.787	26598
825.927	26549
826.067	26370
826.206	26537
826.346	26431
826.485	26629
826.625	26377
826.765	26632
826.904	26415
827.044	26187
827.183	26122
827.323	26126
827.462	26214
827.601	26206
827.741	26134
827.88	26134
828.02	26016
828.159	26233
828.298	26157
828.437	26187
828.577	26069
828.716	26256
828.855	26130
828.994	25887
829.134	25830
829.273	25860
829.412	25856
829.551	25807
829.69	25887
829.829	25795
829.968	25887
830.107	25890
830.246	25765
830.385	25864
830.524	25738
830.663	25624
830.802	25727
830.941	25453
831.08	25384
831.219	25499
831.357	25548
831.496	25681
831.635	25430
831.774	25407
831.913	25247
832.051	25331
832.19	25141
832.329	25122
832.467	25118
832.606	25122
832.744	25069
832.883	25129
833.022	25099
833.16	25065
833.299	25145
833.437	25122
833.576	25088
833.714	25297
833.852	25206
833.991	25320
834.129	25343
834.267	25126
834.406	25247
834.544	25247
834.682	25168
834.821	25225
834.959	25285
835.097	25217
835.235	25232
835.373	25202
835.511	25080
835.65	24973
835.788	24996
835.926	24886
836.064	24848
836.202	24878
836.34	25038
836.478	25145
836.615	24954
836.753	24916
836.891	25027
837.029	24928
837.167	24817
837.305	25046
837.443	24886
837.58	24757
837.718	24913
837.856	24783
837.993	24837
838.131	24722
838.269	24711
838.406	24734
838.544	24642
838.681	24437
838.819	24410
838.956	24365
839.094	24270
839.231	24277
839.369	24407
839.506	24798
839.643	24547
839.781	24315
839.918	24194
840.055	24289
840.193	24224
840.33	24213
840.467	24155
840.604	24216
840.742	24426
840.879	24091
841.016	24106
841.153	24079
841.29	24228
841.427	24213
841.564	24243
841.701	24270
841.838	24148
841.975	24182
842.112	24102
842.249	24053
842.385	23733
842.522	24205
842.659	23996
842.796	23984
842.933	23965
843.069	23878
843.206	23851
843.343	24003
843.479	23916
843.616	23920
843.752	23695
843.889	23718
844.025	23946
844.162	23733
844.298	23954
844.435	23748
844.571	23737
844.708	23832
844.844	23794
844.98	23817
845.117	23946
845.253	23665
845.389	23543
845.525	23646
845.661	23539
845.798	23417
845.934	23505
846.07	23387
846.206	23452
846.342	23710
846.478	23349
846.614	23170
846.75	23147
846.886	23235
847.022	23269
847.158	23242
847.294	23090
847.429	23277
847.565	23159
847.701	23368
847.837	23003
847.972	22919
848.108	22938
848.244	23071
848.379	22748
848.515	22653
848.65	22691
848.786	22755
848.921	22858
849.057	22908
849.192	22847
849.328	22710
849.463	22850
849.598	22733
849.734	22656
849.869	22630
850.004	22630
850.14	22443
850.275	22527
850.41	22508
850.545	22493
850.68	22455
850.815	22516
850.95	22561
851.085	22767
851.22	22603
851.355	22500
851.49	22519
851.625	22580
851.76	22466
851.895	22462
852.03	22523
852.165	22607
852.299	22641
852.434	22698
852.569	22535
852.703	22470
852.838	22596
852.973	22675
853.107	22504
853.242	22615
853.376	22341
853.511	22131
853.645	22314
853.78	22390
853.914	22352
854.048	22341
854.183	22356
854.317	22428
854.451	22550
854.585	22356
854.72	22318
854.854	22500
854.988	22356
855.122	22386
855.256	22253
855.39	22341
855.524	22409
855.658	22462
855.792	22436
855.926	22443
856.06	22424
856.194	22375
856.327	22348
856.461	22249
856.595	22409
856.729	22462
856.862	22485
856.996	22440
857.13	22409
857.263	22508
857.397	22500
857.53	22436
857.664	22322
857.797	22443
857.931	22542
858.064	22455
858.197	22546
858.331	22360
858.464	22322
858.597	22348
858.731	22394
858.864	22421
858.997	22352
859.13	22382
859.263	22523
859.396	22436
859.529	22306
859.662	22306
859.795	22390
859.928	22478
860.061	22569
860.194	22577
860.327	22428
860.46	22379
860.592	22546
860.725	22630
860.858	22626
860.99	22356
861.123	22360
861.256	22341
861.388	22417
861.521	23029
861.653	22249
861.786	22139
861.918	22158
862.05	22310
862.183	22314
862.315	22337
862.447	22409
862.58	22303
862.712	22131
862.844	22109
862.976	22344
863.108	22112
863.24	22519
863.372	22112
863.504	22101
863.636	22135
863.768	22025
863.9	22105
864.032	22010
864.164	22086
864.296	22162
864.428	22318
864.559	22200
864.691	22067
864.823	22211
864.954	22067
865.086	22090
865.217	22063
865.349	21869
865.48	21850
865.612	21994
865.743	22070
865.875	22082
866.006	21979
866.137	21991
866.269	21869
866.4	22017
866.531	21808
866.662	21800
866.793	21926
866.924	21915
867.055	22002
867.186	21941
867.317	21880
867.448	21949
867.579	21892
867.71	21804
867.841	21766
867.972	22017
868.103	21937
868.233	21968
868.364	21838
868.495	22090
868.625	22192
868.756	22303
868.886	22086
869.017	22230
869.147	22246
869.278	22329
869.408	22188
869.539	22090
869.669	22287
869.799	22318
869.929	22253
870.06	22238
870.19	22375
870.32	22379
870.45	22447
870.58	22478
870.71	22622
870.84	22565
870.97	22573
871.1	22645
871.23	22626
871.36	22717
871.489	22519
871.619	22672
871.749	22763
871.879	22679
872.008	22713
872.138	22702
872.267	22809
872.397	22489
872.526	22618
872.656	22554
872.785	22584
872.915	22793
873.044	22816
873.173	22729
873.303	22717
873.432	22984
873.561	22885
873.69	22763
873.819	22847
873.948	22873
874.077	22809
874.206	22721
874.335	22835
874.464	22831
874.593	22995
874.722	22923
874.851	23113
874.979	23014
875.108	22984
875.237	22797
875.365	22919
875.494	22908
875.623	23056
875.751	22995
875.88	22911
876.008	23003
876.136	23143
876.265	23379
876.393	23334
876.521	23486
876.65	23459
876.778	23395
876.906	23284
877.034	23269
877.162	23292
877.29	23376
877.418	23326
877.546	23326
877.674	23398
877.802	23387
877.93	23322
878.058	23265
878.185	23235
878.313	23315
878.441	23288
878.568	23223
878.696	23303
878.824	23349
878.951	23376
879.079	23623
879.206	23619
879.333	23452
879.461	23341
879.588	23493
879.715	23512
879.842	23627
879.97	23410
880.097	23189
880.224	23155
880.351	23284
880.478	23277
880.605	23102
880.732	23197
880.859	23292
880.986	23223
881.112	23288
881.239	23037
881.366	22809
881.493	22858
881.619	22752
881.746	22782
881.872	22694
881.999	22641
882.125	22611
882.252	22698
882.378	22733
882.505	22664
882.631	22554
882.757	22428
882.883	22451
883.01	22451
883.136	22348
883.262	22325
883.388	22257
883.514	22284
883.64	22386
883.766	22314
883.892	22150
884.018	22185
884.143	22356
884.269	22428
884.395	22051
884.52	21895
884.646	22002
884.772	21922
884.897	21998
885.023	22002
885.148	22070
885.274	22147
885.399	22097
885.524	21895
885.65	22097
885.775	22074
885.9	21998
886.025	22082
886.15	22067
886.275	22029
886.4	21911
886.525	21972
886.65	21873
886.775	21945
886.9	22063
887.025	22287
887.149	21968
887.274	21812
887.399	21797
887.523	21766
887.648	21747
887.773	21739
887.897	21766
888.021	21804
888.146	21705
888.27	21865
888.395	21797
888.519	21762
888.643	21755
888.767	21679
888.891	21675
889.015	21576
889.139	21576
889.263	21583
889.387	21618
889.511	21739
889.635	21713
889.759	21420
889.883	21587
890.006	21526
890.13	21743
890.254	21485
890.377	21526
890.501	21359
890.624	21203
890.748	21370
890.871	21157
890.995	21157
891.118	21116
891.241	21176
891.364	21096
891.488	21146
891.611	21058
891.734	21146
891.857	21237
891.98	21096
892.103	21184
892.226	21116
892.349	21104
892.471	20872
892.594	20941
892.717	20975
892.839	21005
892.962	21009
893.085	21039
893.207	21051
893.33	20887
893.452	20933
893.575	21062
893.697	20952
893.819	21131
893.941	21173
894.064	21184
894.186	20982
894.308	20887
894.43	21161
894.552	21066
894.674	21096
894.796	20899
894.918	20887
895.04	20910
895.161	21138
895.283	21077
895.405	20982
895.526	21001
895.648	20967
895.769	20956
895.891	20990
896.012	21032
896.134	21047
896.255	20990
896.376	20883
896.498	20990
896.619	20921
896.74	21013
896.861	21089
896.982	21393
897.103	21412
897.224	21233
897.345	21089
897.466	21070
897.587	21127
897.708	21348
897.828	21279
897.949	21233
898.07	20990
898.19	21154
898.311	21245
898.431	21104
898.552	21157
898.672	21157
898.792	21173
898.913	21241
899.033	21062
899.153	20925
899.273	20872
899.393	20990
899.513	20960
899.633	20925
899.753	20849
899.873	20887
899.993	20963
900.113	20948
900.232	20937
900.352	20838
900.472	20705
900.591	20708
900.711	20815
900.83	20693
900.95	20960
901.069	20788
901.189	20602
901.308	20313
901.427	20214
901.546	20218
901.665	20282
901.784	20180
901.904	20077
902.023	20065
902.141	19951
902.26	19826
902.379	19936
902.498	19753
902.617	19723
902.735	19833
902.854	19685
902.973	19666
903.091	19597
903.21	19449
903.328	19377
903.446	19244
903.565	19232
903.683	19297
903.801	19145
903.919	19133
904.038	19179
904.156	18954
904.274	18962
904.392	18996
904.51	18973
904.627	18901
904.745	19046
904.863	19065
904.981	18787
905.098	18696
905.216	18692
905.334	18707
905.451	18730
905.569	18696
905.686	18642
905.803	18616
905.921	18395
906.038	18593
906.155	18445
906.272	18353
906.389	18410
906.506	18281
906.623	18235
906.74	18266
906.857	18034
906.974	18091
907.091	18251
907.208	18262
907.324	18159
907.441	18038
907.557	17958
907.674	17920
907.79	17893
907.907	17726
908.023	17859
908.139	17878
908.256	17756
908.372	17672
908.488	17733
908.604	17649
908.72	17615
908.836	17592
908.952	17547
909.068	17649
909.184	17687
909.3	17551
909.415	17562
909.531	17486
909.647	17292
909.762	17341
909.878	17246
909.993	17311
910.108	17220
910.224	17250
910.339	17273
910.454	17212
910.57	17064
910.685	17006
910.8	17345
910.915	17311
911.03	17140
911.145	16881
911.259	16816
911.374	16911
911.489	16896
911.604	16869
911.718	16634
911.833	16622
911.947	16569
912.062	16470
912.176	16584
912.291	16538
912.405	16656
912.519	16828
912.633	16824
912.748	16584
912.862	16596
912.976	16504
913.09	16360
913.204	16474
913.318	16379
913.431	16500
913.545	16348
913.659	16527
913.772	16284
913.886	16322
914	16181
914.113	16253
914.226	16234
914.34	16211
914.453	16147
914.566	16238
914.68	16021
914.793	16044
914.906	15945
915.019	15888
915.132	15759
915.245	15778
915.358	15941
915.47	15747
915.583	15694
915.696	15816
915.809	15907
915.921	15876
916.034	15903
916.146	15755
916.259	15629
916.371	15789
916.483	15724
916.595	15709
916.708	15564
916.82	15519
916.932	15667
917.044	15564
917.156	15500
917.268	15416
917.38	15530
917.491	15428
917.603	15519
917.715	15534
917.826	15466
917.938	15374
918.049	15306
918.161	15329
918.272	15469
918.384	15473
918.495	15374
918.606	15211
918.717	15176
918.828	15199
918.939	15169
919.05	15119
919.161	15180
919.272	14971
919.383	15127
919.494	15192
919.604	15363
919.715	15131
919.826	14914
919.936	15070
920.047	15195
920.157	15074
920.267	15321
920.378	15131
920.488	15020
920.598	15268
920.708	15439
920.818	15260
920.928	15245
921.038	15397
921.148	15317
921.258	15184
921.368	14963
921.477	14861
921.587	14891
921.697	14644
921.806	14842
921.916	14712
922.025	14579
922.134	14503
922.244	14545
922.353	14518
922.462	14275
922.571	14252
922.68	14202
922.789	14107
922.898	14115
923.007	13963
923.116	14195
923.224	14084
923.333	14115
923.442	13928
923.55	13963
923.659	13947
923.767	13970
923.876	13860
923.984	13928
924.092	13795
924.201	13894
924.309	13830
924.417	13890
924.525	13830
924.633	13753
924.741	14655
924.849	13514
924.956	13753
925.064	13502
925.172	13396
925.279	13491
925.387	13533
925.494	13529
925.602	13677
925.709	13540
925.816	13365
925.924	13460
926.031	13502
926.138	13354
926.245	13563
926.352	13365
926.459	13502
926.566	13460
926.673	13381
926.779	13247
926.886	13297
926.993	13091
927.099	13053
927.206	12966
927.312	12993
927.419	13080
927.525	12977
927.631	13069
927.737	12970
927.843	12875
927.95	12814
928.056	12825
928.162	12840
928.267	12989
928.373	13480
928.479	12924
928.585	12734
928.69	12760
928.796	12806
928.901	12722
929.007	12620
929.112	12734
929.218	12623
929.323	12662
929.428	12570
929.533	12692
929.638	12437
929.743	12502
929.848	12631
929.953	12426
930.058	12448
930.163	12228
930.267	12308
930.372	12376
930.477	12194
930.581	12433
930.685	12319
930.79	12098
930.894	12102
930.998	12178
931.103	12251
931.207	11923
931.311	11752
931.415	11707
931.519	11478
931.623	11532
