Data from test_V78500241_3732.txt Node
Date: Fri Mar 25 16:07:39 CST 2022
User: usil
Spectrometer: V785-0024
Trigger mode: 0
Integration Time (sec): 4.000000E-1
Scans to average: 1
Nonlinearity correction enabled: false
Boxcar width: 0
Storing dark spectrum: false
XAxis mode: Wavelengths
Number of Pixels in Spectrum: 1024
>>>>>Begin Spectral Data<<<<<
801.071	28204
801.214	28147
801.356	27838
801.499	27865
801.641	27827
801.783	27671
801.926	27949
802.068	27766
802.211	27618
802.353	27755
802.496	27420
802.638	27431
802.78	27420
802.923	27378
803.065	27310
803.208	27367
803.35	27481
803.492	27629
803.635	27610
803.777	27648
803.919	27762
804.061	27972
804.204	27800
804.346	27500
804.488	27557
804.63	27500
804.773	27477
804.915	27736
805.057	27686
805.199	27679
805.341	27713
805.483	27884
805.626	27850
805.768	27728
805.91	27816
806.052	27823
806.194	27751
806.336	27804
806.478	27926
806.62	27838
806.762	27991
806.904	28044
807.046	28367
807.188	28276
807.33	28143
807.472	28363
807.614	28272
807.756	28238
807.898	28101
808.04	27934
808.182	28051
808.324	28147
808.465	28051
808.607	28386
808.749	28462
808.891	28523
809.033	28717
809.174	28421
809.316	28398
809.458	28493
809.6	28375
809.741	28615
809.883	28599
810.025	28698
810.166	28763
810.308	28660
810.45	28603
810.591	28637
810.733	28481
810.875	28561
811.016	28462
811.158	28325
811.299	28565
811.441	28615
811.582	28542
811.724	28432
811.865	28535
812.007	28459
812.148	28542
812.29	28561
812.431	28782
812.573	28812
812.714	28835
812.855	29052
812.997	29143
813.138	29242
813.279	29151
813.421	28965
813.562	28987
813.703	28660
813.845	28729
813.986	28577
814.127	28325
814.268	28249
814.41	28112
814.551	28120
814.692	28249
814.833	28097
814.974	28124
815.115	28135
815.256	27964
815.397	28025
815.539	27945
815.68	27960
815.821	27884
815.962	28105
816.103	27914
816.244	27998
816.385	27846
816.526	27720
816.666	27427
816.807	27530
816.948	27492
817.089	27682
817.23	27500
817.371	27462
817.512	27302
817.653	27374
817.793	27412
817.934	27435
818.075	27515
818.216	27534
818.356	27416
818.497	27310
818.638	27188
818.778	27237
818.919	27195
819.06	27241
819.2	27344
819.341	27530
819.481	27416
819.622	27682
819.762	27876
819.903	27838
820.043	27576
820.184	27660
820.324	27587
820.465	27618
820.605	27610
820.746	27481
820.886	27504
821.026	27599
821.167	27538
821.307	27667
821.447	27374
821.588	27310
821.728	27329
821.868	27081
822.008	26914
822.149	26876
822.289	27058
822.429	26743
822.569	26674
822.709	26724
822.849	26503
822.99	26492
823.13	26522
823.27	26476
823.41	26229
823.55	26195
823.69	26229
823.83	26100
823.97	26229
824.11	26062
824.25	26142
824.389	26138
824.529	26161
824.669	26191
824.809	26202
824.949	26183
825.089	26271
825.228	26199
825.368	25917
825.508	25940
825.648	25913
825.787	26092
825.927	26119
826.067	25974
826.206	25970
826.346	26164
826.485	26073
826.625	25909
826.765	26138
826.904	25951
827.044	25674
827.183	25708
827.323	25639
827.462	25685
827.601	25734
827.741	25784
827.88	25674
828.02	25586
828.159	25658
828.298	25715
828.437	25757
828.577	25681
828.716	25913
828.855	25647
828.994	25327
829.134	25228
829.273	25502
829.412	25415
829.551	25407
829.69	25476
829.829	25438
829.968	25449
830.107	25506
830.246	25457
830.385	25365
830.524	25175
830.663	25225
830.802	25126
830.941	24928
831.08	25034
831.219	25122
831.357	25076
831.496	25164
831.635	25168
831.774	24928
831.913	24856
832.051	24741
832.19	24958
832.329	24760
832.467	24661
832.606	24486
832.744	24658
832.883	24661
833.022	24620
833.16	24684
833.299	24776
833.437	24844
833.576	24688
833.714	24684
833.852	24738
833.991	24738
834.129	24840
834.267	24753
834.406	24768
834.544	24806
834.682	24772
834.821	24802
834.959	24844
835.097	24620
835.235	24753
835.373	24806
835.511	24681
835.65	24536
835.788	24441
835.926	24380
836.064	24513
836.202	24422
836.34	24467
836.478	24612
836.615	24460
836.753	24604
836.891	24642
837.029	24551
837.167	24437
837.305	24369
837.443	24460
837.58	24304
837.718	24578
837.856	24445
837.993	24410
838.131	24365
838.269	24102
838.406	24281
838.544	24251
838.681	24114
838.819	23973
838.956	23707
839.094	23855
839.231	23798
839.369	24049
839.506	24205
839.643	24216
839.781	23805
839.918	23805
840.055	23870
840.193	23836
840.33	23779
840.467	23779
840.604	23870
840.742	24095
840.879	23642
841.016	23726
841.153	23752
841.29	23836
841.427	23809
841.564	23889
841.701	23832
841.838	23558
841.975	23634
842.112	23870
842.249	23699
842.385	23505
842.522	23794
842.659	23646
842.796	23562
842.933	23474
843.069	23406
843.206	23543
843.343	23539
843.479	23653
843.616	23520
843.752	23406
843.889	23307
844.025	23444
844.162	23360
844.298	23448
844.435	23242
844.571	23337
844.708	23277
844.844	23516
844.98	23345
845.117	23406
845.253	23318
845.389	23204
845.525	23136
845.661	23143
845.798	22961
845.934	23147
846.07	22999
846.206	23044
846.342	23140
846.478	23014
846.614	22778
846.75	22782
846.886	22900
847.022	22786
847.158	22805
847.294	22812
847.429	22900
847.565	22759
847.701	23033
847.837	22478
847.972	22398
848.108	22481
848.244	22424
848.379	22413
848.515	22249
848.65	22268
848.786	22249
848.921	22417
849.057	22436
849.192	22516
849.328	22447
849.463	22344
849.598	22295
849.734	22337
849.869	22101
850.004	22173
850.14	22268
850.275	22219
850.41	22040
850.545	22013
850.68	22196
850.815	22055
850.95	22124
851.085	22382
851.22	22215
851.355	22048
851.49	22029
851.625	22032
851.76	22105
851.895	22044
852.03	22010
852.165	22131
852.299	22093
852.434	22238
852.569	22280
852.703	22120
852.838	22238
852.973	22196
853.107	22223
853.242	22025
853.376	21838
853.511	21797
853.645	21797
853.78	21979
853.914	21949
854.048	21922
854.183	21934
854.317	21945
854.451	22154
854.585	21842
854.72	21922
854.854	22070
854.988	21835
855.122	21953
855.256	21873
855.39	21915
855.524	22048
855.658	22002
855.792	21903
855.926	21827
856.06	21979
856.194	22097
856.327	21907
856.461	21819
856.595	21918
856.729	21888
856.862	21994
856.996	21960
857.13	21937
857.263	22074
857.397	22109
857.53	21987
857.664	21884
857.797	22055
857.931	22109
858.064	21941
858.197	22013
858.331	21827
858.464	21922
858.597	21915
858.731	21956
858.864	21873
858.997	21895
859.13	21816
859.263	21998
859.396	22059
859.529	21850
859.662	21816
859.795	21899
859.928	22010
860.061	22112
860.194	22223
860.327	22006
860.46	21998
860.592	22093
860.725	22154
860.858	21968
860.99	21911
861.123	21819
861.256	21869
861.388	22010
861.521	22565
861.653	21808
861.786	21720
861.918	21781
862.05	21762
862.183	21869
862.315	21960
862.447	22013
862.58	21842
862.712	21732
862.844	21561
862.976	21800
863.108	21694
863.24	22090
863.372	21561
863.504	21633
863.636	21690
863.768	21686
863.9	21656
864.032	21526
864.164	21591
864.296	21580
864.428	21800
864.559	21739
864.691	21686
864.823	21705
864.954	21667
865.086	21519
865.217	21641
865.349	21443
865.48	21561
865.612	21656
865.743	21549
865.875	21591
866.006	21576
866.137	21572
866.269	21462
866.4	21507
866.531	21545
866.662	21466
866.793	21542
866.924	21523
867.055	21549
867.186	21363
867.317	21389
867.448	21454
867.579	21466
867.71	21329
867.841	21389
867.972	21473
868.103	21416
868.233	21408
868.364	21405
868.495	21500
868.625	21835
868.756	21800
868.886	21720
869.017	21698
869.147	21831
869.278	21873
869.408	21739
869.539	21690
869.669	21911
869.799	21698
869.929	21880
870.06	21797
870.19	22017
870.32	21987
870.45	22154
870.58	22067
870.71	22234
870.84	22166
870.97	22067
871.1	22105
871.23	22257
871.36	22238
871.489	22185
871.619	22246
871.749	22341
871.879	22386
872.008	22462
872.138	22325
872.267	22322
872.397	22128
872.526	22044
872.656	22177
872.785	22128
872.915	22215
873.044	22413
873.173	22226
873.303	22405
873.432	22447
873.561	22436
873.69	22382
873.819	22265
873.948	22318
874.077	22356
874.206	22204
874.335	22341
874.464	22531
874.593	22691
874.722	22672
874.851	22607
874.979	22577
875.108	22519
875.237	22489
875.365	22367
875.494	22607
875.623	22729
875.751	22451
875.88	22660
876.008	22767
876.136	22744
876.265	22839
876.393	22927
876.521	23071
876.65	22930
876.778	23037
876.906	22919
877.034	22866
877.162	22999
877.29	22801
877.418	22911
877.546	22915
877.674	22927
877.802	23006
877.93	22927
878.058	22885
878.185	22679
878.313	22843
878.441	22919
878.568	22691
878.696	22816
878.824	22904
878.951	22961
879.079	23174
879.206	23159
879.333	23060
879.461	22873
879.588	22896
879.715	23033
879.842	23170
879.97	22980
880.097	22889
880.224	22672
880.351	22801
880.478	22679
880.605	22752
880.732	22603
880.859	23014
880.986	22729
881.112	22793
881.239	22607
881.366	22474
881.493	22398
881.619	22447
881.746	22306
881.872	22405
881.999	22265
882.125	22188
882.252	22386
882.378	22185
882.505	22398
882.631	22135
882.757	22029
882.883	21998
883.01	21949
883.136	21991
883.262	21869
883.388	21793
883.514	22025
883.64	21907
883.766	21823
883.892	21774
884.018	21797
884.143	21922
884.269	21979
884.395	21728
884.52	21739
884.646	21660
884.772	21576
884.897	21504
885.023	21637
885.148	21717
885.274	21728
885.399	21656
885.524	21606
885.65	21599
885.775	21656
885.9	21572
886.025	21774
886.15	21644
886.275	21549
886.4	21454
886.525	21595
886.65	21656
886.775	21462
886.9	21732
887.025	21865
887.149	21515
887.274	21458
887.399	21351
887.523	21450
887.648	21310
887.773	21176
887.897	21450
888.021	21336
888.146	21306
888.27	21306
888.395	21416
888.519	21393
888.643	21367
888.767	21500
888.891	21252
889.015	21165
889.139	21264
889.263	21131
889.387	21367
889.511	21340
889.635	21306
889.759	21272
889.883	21112
890.006	21112
890.13	21351
890.254	21096
890.377	21055
890.501	20899
890.624	20982
890.748	20929
890.871	20705
890.995	20743
891.118	20788
891.241	20743
891.364	20765
891.488	20906
891.611	20815
891.734	20785
891.857	20815
891.98	20632
892.103	20701
892.226	20788
892.349	20644
892.471	20552
892.594	20682
892.717	20697
892.839	20640
892.962	20674
893.085	20701
893.207	20640
893.33	20594
893.452	20511
893.575	20606
893.697	20518
893.819	20845
893.941	20788
894.064	20678
894.186	20609
894.308	20549
894.43	20746
894.552	20746
894.674	20804
894.796	20606
894.918	20549
895.04	20594
895.161	20682
895.283	20655
895.405	20507
895.526	20663
895.648	20602
895.769	20667
895.891	20587
896.012	20724
896.134	20617
896.255	20701
896.376	20530
896.498	20655
896.619	20590
896.74	20583
896.861	20697
896.982	20956
897.103	21047
897.224	20918
897.345	20807
897.466	20800
897.587	20845
897.708	20910
897.828	20815
897.949	20769
898.07	20602
898.19	20899
898.311	20739
898.431	20743
898.552	20773
898.672	20727
898.792	20826
898.913	20864
899.033	20625
899.153	20621
899.273	20499
899.393	20537
899.513	20507
899.633	20545
899.753	20606
899.873	20518
899.993	20617
900.113	20526
900.232	20533
900.352	20518
900.472	20313
900.591	20343
900.711	20396
900.83	20237
900.95	20438
901.069	20507
901.189	20263
901.308	20077
901.427	19940
901.546	19830
901.665	19951
901.784	19864
901.904	19757
902.023	19700
902.141	19445
902.26	19449
902.379	19502
902.498	19449
902.617	19415
902.735	19362
902.854	19381
902.973	19331
903.091	19141
903.21	19114
903.328	19107
903.446	19015
903.565	18954
903.683	18989
903.801	18665
903.919	18795
904.038	18901
904.156	18650
904.274	18669
904.392	18681
904.51	18681
904.627	18608
904.745	18722
904.863	18582
904.981	18353
905.098	18380
905.216	18410
905.334	18407
905.451	18323
905.569	18304
905.686	18380
905.803	18205
905.921	18155
906.038	18133
906.155	18087
906.272	18034
906.389	17923
906.506	17828
906.623	17843
906.74	17828
906.857	17722
906.974	17863
907.091	17897
907.208	17939
907.324	17817
907.441	17661
907.557	17611
907.674	17539
907.79	17444
907.907	17547
908.023	17516
908.139	17581
908.256	17486
908.372	17455
908.488	17448
908.604	17307
908.72	17261
908.836	17334
908.952	17360
909.068	17303
909.184	17280
909.3	17277
909.415	17280
909.531	17258
909.647	17105
909.762	17045
909.878	16892
909.993	16930
910.108	16892
910.224	16904
910.339	16980
910.454	16881
910.57	16850
910.685	16721
910.8	16881
910.915	16957
911.03	16664
911.145	16618
911.259	16508
911.374	16554
911.489	16497
911.604	16451
911.718	16306
911.833	16261
911.947	16177
912.062	16166
912.176	16280
912.291	16261
912.405	16284
912.519	16478
912.633	16508
912.748	16318
912.862	16257
912.976	16166
913.09	15979
913.204	16078
913.318	16097
913.431	16207
913.545	16147
913.659	16253
913.772	16078
913.886	16021
914	15987
914.113	16006
914.226	16109
914.34	15937
914.453	15736
914.566	15915
914.68	15679
914.793	15690
914.906	15610
915.019	15458
915.132	15477
915.245	15492
915.358	15515
915.47	15496
915.583	15431
915.696	15435
915.809	15667
915.921	15705
916.034	15431
916.146	15431
916.259	15408
916.371	15466
916.483	15496
916.595	15287
916.708	15340
916.82	15401
916.932	15291
917.044	15264
917.156	15237
917.268	15058
917.38	15142
917.491	15100
917.603	15157
917.715	15199
917.826	15180
917.938	15070
918.049	14986
918.161	15077
918.272	15203
918.384	15142
918.495	14971
918.606	15020
918.717	14823
918.828	14971
918.939	14990
919.05	14819
919.161	14864
919.272	14655
919.383	14758
919.494	14914
919.604	15150
919.715	14891
919.826	14746
919.936	14834
920.047	14895
920.157	14853
920.267	15062
920.378	14868
920.488	14807
920.598	15058
920.708	15138
920.818	15039
920.928	14979
921.038	15195
921.148	15058
921.258	14792
921.368	14785
921.477	14530
921.587	14579
921.697	14332
921.806	14579
921.916	14423
922.025	14263
922.134	14195
922.244	14088
922.353	14256
922.462	14240
922.571	14020
922.68	13841
922.789	13883
922.898	13852
923.007	13864
923.116	13917
923.224	13719
923.333	13780
923.442	13693
923.55	13727
923.659	13609
923.767	13624
923.876	13715
923.984	13628
924.092	13613
924.201	13624
924.309	13559
924.417	13559
924.525	13499
924.633	13529
924.741	14210
924.849	13274
924.956	13525
925.064	13438
925.172	13270
925.279	13244
925.387	13152
925.494	13160
925.602	13362
925.709	13259
925.816	13122
925.924	13263
926.031	13304
926.138	13187
926.245	13274
926.352	13057
926.459	13141
926.566	13228
926.673	13065
926.779	12977
926.886	12970
926.993	12882
927.099	12783
927.206	12848
927.312	12817
927.419	12848
927.525	12840
927.631	12806
927.737	12654
927.843	12730
927.95	12445
928.056	12601
928.162	12700
928.267	12658
928.373	13331
928.479	12677
928.585	12475
928.69	12540
928.796	12544
928.901	12509
929.007	12330
929.112	12513
929.218	12464
929.323	12342
929.428	12399
929.533	12563
929.638	12319
929.743	12277
929.848	12285
929.953	12273
930.058	12167
930.163	11996
930.267	12102
930.372	12186
930.477	12038
930.581	12121
930.685	12030
930.79	11870
930.894	11942
930.998	11847
931.103	11961
931.207	11703
931.311	11600
931.415	11444
931.519	11330
931.623	11356
