Data from test_V78500241_3717.txt Node
Date: Fri Mar 25 16:07:33 CST 2022
User: usil
Spectrometer: V785-0024
Trigger mode: 0
Integration Time (sec): 4.000000E-1
Scans to average: 1
Nonlinearity correction enabled: false
Boxcar width: 0
Storing dark spectrum: false
XAxis mode: Wavelengths
Number of Pixels in Spectrum: 1024
>>>>>Begin Spectral Data<<<<<
801.071	28432
801.214	28253
801.356	28120
801.499	28017
801.641	28029
801.783	27937
801.926	27979
802.068	27911
802.211	27835
802.353	27743
802.496	27736
802.638	27511
802.78	27507
802.923	27561
803.065	27443
803.208	27561
803.35	27534
803.492	27679
803.635	27778
803.777	27572
803.919	27991
804.061	28147
804.204	27774
804.346	27660
804.488	27717
804.63	27759
804.773	27759
804.915	27892
805.057	27903
805.199	27914
805.341	27964
805.483	27850
805.626	28017
805.768	27831
805.91	27907
806.052	27888
806.194	27914
806.336	28143
806.478	28036
806.62	27930
806.762	28158
806.904	28284
807.046	28599
807.188	28424
807.33	28398
807.472	28531
807.614	28337
807.756	28291
807.898	28268
808.04	28025
808.182	28215
808.324	28314
808.465	28344
808.607	28451
808.749	28542
808.891	28630
809.033	28691
809.174	28721
809.316	28675
809.458	28603
809.6	28630
809.741	28793
809.883	28698
810.025	28915
810.166	29018
810.308	28908
810.45	28900
810.591	28812
810.733	28592
810.875	28637
811.016	28599
811.158	28493
811.299	28713
811.441	28809
811.582	28904
811.724	28565
811.865	28626
812.007	28805
812.148	28706
812.29	28649
812.431	28904
812.573	28980
812.714	28949
812.855	29147
812.997	29223
813.138	29368
813.279	29280
813.421	29220
813.562	29041
813.703	29033
813.845	28793
813.986	28554
814.127	28478
814.268	28386
814.41	28371
814.551	28238
814.692	28459
814.833	28223
814.974	28306
815.115	28470
815.256	28158
815.397	28261
815.539	28177
815.68	28238
815.821	28048
815.962	28207
816.103	28242
816.244	28025
816.385	27892
816.526	27899
816.666	27751
816.807	27698
816.948	27663
817.089	27774
817.23	27492
817.371	27557
817.512	27545
817.653	27561
817.793	27614
817.934	27846
818.075	27561
818.216	27747
818.356	27591
818.497	27515
818.638	27408
818.778	27416
818.919	27443
819.06	27355
819.2	27549
819.341	27591
819.481	27656
819.622	27903
819.762	28013
819.903	27823
820.043	27835
820.184	27789
820.324	27838
820.465	27755
820.605	27892
820.746	27736
820.886	27618
821.026	27675
821.167	27656
821.307	27686
821.447	27599
821.588	27576
821.728	27500
821.868	27218
822.008	27203
822.149	27116
822.289	27020
822.429	26849
822.569	26739
822.709	26701
822.849	26689
822.99	26587
823.13	26526
823.27	26629
823.41	26465
823.55	26252
823.69	26377
823.83	26275
823.97	26438
824.11	26252
824.25	26320
824.389	26225
824.529	26278
824.669	26267
824.809	26400
824.949	26377
825.089	26286
825.228	26427
825.368	26088
825.508	26043
825.648	26164
825.787	26111
825.927	26149
826.067	26233
826.206	26084
826.346	26195
826.485	26164
826.625	26153
826.765	26221
826.904	26161
827.044	25852
827.183	25849
827.323	25818
827.462	25986
827.601	25807
827.741	25845
827.88	26031
828.02	25818
828.159	25772
828.298	25868
828.437	25966
828.577	25845
828.716	25898
828.855	25761
828.994	25548
829.134	25499
829.273	25506
829.412	25639
829.551	25605
829.69	25556
829.829	25620
829.968	25639
830.107	25655
830.246	25635
830.385	25377
830.524	25392
830.663	25369
830.802	25187
830.941	25129
831.08	25183
831.219	25152
831.357	25304
831.496	25438
831.635	25152
831.774	25251
831.913	25137
832.051	24962
832.19	24916
832.329	24992
832.467	24890
832.606	24856
832.744	24684
832.883	24757
833.022	24787
833.16	24848
833.299	24947
833.437	24913
833.576	24947
833.714	24856
833.852	24856
833.991	24852
834.129	25038
834.267	24985
834.406	24802
834.544	24905
834.682	24852
834.821	24871
834.959	25145
835.097	24920
835.235	24909
835.373	24886
835.511	24905
835.65	24734
835.788	24760
835.926	24719
836.064	24490
836.202	24654
836.34	24711
836.478	24817
836.615	24623
836.753	24658
836.891	24719
837.029	24627
837.167	24627
837.305	24711
837.443	24525
837.58	24471
837.718	24696
837.856	24639
837.993	24395
838.131	24566
838.269	24559
838.406	24338
838.544	24376
838.681	24163
838.819	24190
838.956	23927
839.094	24091
839.231	23954
839.369	24213
839.506	24422
839.643	24209
839.781	23984
839.918	23931
840.055	24057
840.193	24015
840.33	23977
840.467	23969
840.604	24018
840.742	24266
840.879	23878
841.016	23809
841.153	23863
841.29	23969
841.427	23870
841.564	23950
841.701	23840
841.838	23813
841.975	23779
842.112	23817
842.249	23733
842.385	23657
842.522	23939
842.659	23874
842.796	23786
842.933	23771
843.069	23710
843.206	23570
843.343	23729
843.479	23619
843.616	23707
843.752	23402
843.889	23433
844.025	23672
844.162	23368
844.298	23497
844.435	23372
844.571	23395
844.708	23452
844.844	23665
844.98	23646
845.117	23486
845.253	23353
845.389	23364
845.525	23452
845.661	23345
845.798	23166
845.934	23349
846.07	23208
846.206	23239
846.342	23349
846.478	23204
846.614	22987
846.75	22911
846.886	22854
847.022	23003
847.158	22713
847.294	22991
847.429	23029
847.565	22957
847.701	23132
847.837	22630
847.972	22580
848.108	22816
848.244	22820
848.379	22485
848.515	22489
848.65	22367
848.786	22531
848.921	22557
849.057	22630
849.192	22683
849.328	22462
849.463	22508
849.598	22470
849.734	22344
849.869	22424
850.004	22219
850.14	22291
850.275	22215
850.41	22147
850.545	22303
850.68	22287
850.815	22223
850.95	22341
851.085	22470
851.22	22409
851.355	22390
851.49	22344
851.625	22124
851.76	22268
851.895	22116
852.03	22253
852.165	22341
852.299	22246
852.434	22341
852.569	22421
852.703	22314
852.838	22371
852.973	22417
853.107	22485
853.242	22295
853.376	22173
853.511	22032
853.645	22082
853.78	22230
853.914	22139
854.048	22124
854.183	22131
854.317	22097
854.451	22409
854.585	22139
854.72	22139
854.854	22268
854.988	21956
855.122	22143
855.256	22078
855.39	22082
855.524	22268
855.658	22272
855.792	22070
855.926	22124
856.06	22185
856.194	22314
856.327	22173
856.461	22101
856.595	22109
856.729	22093
856.862	22306
856.996	22169
857.13	22192
857.263	22219
857.397	22207
857.53	22166
857.664	22181
857.797	22234
857.931	22234
858.064	21979
858.197	22280
858.331	22154
858.464	22192
858.597	22010
858.731	22101
858.864	22158
858.997	22048
859.13	22188
859.263	22090
859.396	22211
859.529	22166
859.662	22154
859.795	22131
859.928	22086
860.061	22249
860.194	22344
860.327	22188
860.46	22196
860.592	22299
860.725	22196
860.858	22325
860.99	22128
861.123	22021
861.256	22147
861.388	22131
861.521	22778
861.653	22006
861.786	21937
861.918	21964
862.05	21998
862.183	21994
862.315	22051
862.447	22215
862.58	22166
862.712	21876
862.844	21800
862.976	21964
863.108	21766
863.24	22322
863.372	21854
863.504	21846
863.636	21827
863.768	21903
863.9	21930
864.032	21747
864.164	21838
864.296	21922
864.428	21953
864.559	21831
864.691	21876
864.823	21975
864.954	21850
865.086	21838
865.217	21835
865.349	21599
865.48	21918
865.612	21728
865.743	21732
865.875	21720
866.006	21736
866.137	21705
866.269	21766
866.4	21770
866.531	21557
866.662	21671
866.793	21488
866.924	21633
867.055	21709
867.186	21629
867.317	21557
867.448	21625
867.579	21523
867.71	21595
867.841	21542
867.972	21679
868.103	21603
868.233	21656
868.364	21629
868.495	21762
868.625	21778
868.756	22025
868.886	21804
869.017	21800
869.147	22036
869.278	21991
869.408	21918
869.539	21842
869.669	22055
869.799	21876
869.929	21979
870.06	21888
870.19	22158
870.32	22150
870.45	22162
870.58	22291
870.71	22344
870.84	22405
870.97	22310
871.1	22295
871.23	22653
871.36	22596
871.489	22341
871.619	22542
871.749	22470
871.879	22588
872.008	22546
872.138	22618
872.267	22573
872.397	22413
872.526	22386
872.656	22348
872.785	22280
872.915	22451
873.044	22687
873.173	22592
873.303	22683
873.432	22470
873.561	22577
873.69	22542
873.819	22489
873.948	22523
874.077	22459
874.206	22428
874.335	22523
874.464	22615
874.593	22820
874.722	22641
874.851	22790
874.979	22725
875.108	22835
875.237	22599
875.365	22611
875.494	22755
875.623	22809
875.751	22656
875.88	22843
876.008	22881
876.136	22854
876.265	23071
876.393	23360
876.521	23204
876.65	23231
876.778	23121
876.906	23155
877.034	23052
877.162	23121
877.29	23048
877.418	23124
877.546	23105
877.674	23029
877.802	22991
877.93	23174
878.058	23140
878.185	22953
878.313	23014
878.441	23132
878.568	22953
878.696	22965
878.824	23083
878.951	23200
879.079	23273
879.206	23410
879.333	23204
879.461	23151
879.588	23269
879.715	23345
879.842	23345
879.97	23140
880.097	22999
880.224	22987
880.351	22953
880.478	22999
880.605	22828
880.732	22930
880.859	23166
880.986	23060
881.112	23003
881.239	22691
881.366	22596
881.493	22497
881.619	22440
881.746	22398
881.872	22500
881.999	22341
882.125	22436
882.252	22489
882.378	22348
882.505	22470
882.631	22295
882.757	22204
882.883	22322
883.01	22207
883.136	22032
883.262	21869
883.388	22013
883.514	22109
883.64	22143
883.766	22059
883.892	21941
884.018	21994
884.143	22181
884.269	22169
884.395	21816
884.52	21838
884.646	21800
884.772	21766
884.897	21709
885.023	21831
885.148	21789
885.274	21861
885.399	21888
885.524	21759
885.65	21857
885.775	21720
885.9	21759
886.025	21945
886.15	21846
886.275	21732
886.4	21599
886.525	21755
886.65	21774
886.775	21663
886.9	21892
887.025	22120
887.149	21736
887.274	21682
887.399	21519
887.523	21412
887.648	21530
887.773	21572
887.897	21496
888.021	21511
888.146	21466
888.27	21622
888.395	21610
888.519	21488
888.643	21618
888.767	21469
888.891	21344
889.015	21355
889.139	21485
889.263	21428
889.387	21431
889.511	21538
889.635	21488
889.759	21195
889.883	21336
890.006	21329
890.13	21428
890.254	21283
890.377	21226
890.501	21093
890.624	21036
890.748	21207
890.871	20998
890.995	20880
891.118	20849
891.241	20910
891.364	20838
891.488	20963
891.611	20887
891.734	20952
891.857	20925
891.98	20933
892.103	20982
892.226	20849
892.349	20849
892.471	20686
892.594	20857
892.717	20823
892.839	20762
892.962	20845
893.085	20872
893.207	20769
893.33	20674
893.452	20651
893.575	20792
893.697	20788
893.819	20952
893.941	21051
894.064	20929
894.186	20785
894.308	20769
894.43	20819
894.552	20925
894.674	20887
894.796	20598
894.918	20689
895.04	20800
895.161	20849
895.283	20735
895.405	20663
895.526	20731
895.648	20746
895.769	20849
895.891	20807
896.012	20861
896.134	20807
896.255	20769
896.376	20712
896.498	20796
896.619	20845
896.74	20727
896.861	20769
896.982	21127
897.103	21131
897.224	21039
897.345	20948
897.466	20960
897.587	20952
897.708	21161
897.828	21058
897.949	20902
898.07	20731
898.19	21020
898.311	21005
898.431	21001
898.552	20880
898.672	21169
898.792	21001
898.913	21005
899.033	20830
899.153	20807
899.273	20678
899.393	20735
899.513	20697
899.633	20686
899.753	20796
899.873	20594
899.993	20777
900.113	20560
900.232	20716
900.352	20606
900.472	20598
900.591	20461
900.711	20530
900.83	20503
900.95	20526
901.069	20609
901.189	20370
901.308	20084
901.427	20039
901.546	20069
901.665	20142
901.784	20031
901.904	19826
902.023	19974
902.141	19738
902.26	19632
902.379	19708
902.498	19601
902.617	19445
902.735	19639
902.854	19632
902.973	19430
903.091	19259
903.21	19244
903.328	19270
903.446	19122
903.565	19065
903.683	19019
903.801	18951
903.919	19095
904.038	18947
904.156	18951
904.274	18973
904.392	18882
904.51	18711
904.627	18722
904.745	18833
904.863	18791
904.981	18635
905.098	18593
905.216	18521
905.334	18528
905.451	18582
905.569	18441
905.686	18528
905.803	18445
905.921	18182
906.038	18262
906.155	18232
906.272	18034
906.389	18121
906.506	18019
906.623	17961
906.74	17996
906.857	17901
906.974	17931
907.091	18091
907.208	18057
907.324	17965
907.441	17866
907.557	17745
907.674	17752
907.79	17676
907.907	17684
908.023	17684
908.139	17661
908.256	17729
908.372	17661
908.488	17512
908.604	17463
908.72	17356
908.836	17334
908.952	17322
909.068	17410
909.184	17490
909.3	17429
909.415	17421
909.531	17455
909.647	17181
909.762	17128
909.878	17128
909.993	17090
910.108	17174
910.224	16995
910.339	17052
910.454	16949
910.57	17029
910.685	16923
910.8	16976
910.915	16980
911.03	16858
911.145	16679
911.259	16675
911.374	16687
911.489	16668
911.604	16443
911.718	16459
911.833	16382
911.947	16379
912.062	16322
912.176	16417
912.291	16542
912.405	16344
912.519	16717
912.633	16691
912.748	16561
912.862	16386
912.976	16268
913.09	16219
913.204	16177
913.318	16325
913.431	16344
913.545	16303
913.659	16375
913.772	16192
913.886	16071
914	16120
914.113	16071
914.226	16082
914.34	16071
914.453	15956
914.566	16074
914.68	15941
914.793	15922
914.906	15701
915.019	15709
915.132	15488
915.245	15644
915.358	15679
915.47	15606
915.583	15713
915.696	15622
915.809	15713
915.921	15831
916.034	15591
916.146	15511
916.259	15458
916.371	15595
916.483	15568
916.595	15431
916.708	15374
916.82	15420
916.932	15450
917.044	15355
917.156	15473
917.268	15279
917.38	15332
917.491	15211
917.603	15370
917.715	15252
917.826	15351
917.938	15176
918.049	15100
918.161	15199
918.272	15279
918.384	15359
918.495	15188
918.606	15039
918.717	15009
918.828	15135
918.939	15017
919.05	14952
919.161	14975
919.272	14712
919.383	14918
919.494	15058
919.604	15211
919.715	14963
919.826	14830
919.936	14941
920.047	15081
920.157	14933
920.267	15093
920.378	14975
920.488	14918
920.598	15013
920.708	15214
920.818	15024
920.928	15074
921.038	15317
921.148	15138
921.258	14921
921.368	14876
921.477	14674
921.587	14765
921.697	14640
921.806	14670
921.916	14587
922.025	14415
922.134	14339
922.244	14298
922.353	14339
922.462	14195
922.571	14024
922.68	13932
922.789	14084
922.898	13993
923.007	13864
923.116	13986
923.224	13902
923.333	13959
923.442	13845
923.55	13852
923.659	13837
923.767	13898
923.876	13753
923.984	13868
924.092	13727
924.201	13734
924.309	13689
924.417	13590
924.525	13734
924.633	13544
924.741	14389
924.849	13476
924.956	13597
925.064	13339
925.172	13270
925.279	13377
925.387	13354
925.494	13419
925.602	13563
925.709	13438
925.816	13213
925.924	13335
926.031	13369
926.138	13308
926.245	13225
926.352	13194
926.459	13354
926.566	13308
926.673	13221
926.779	13099
926.886	13183
926.993	12924
927.099	12913
927.206	12859
927.312	12821
927.419	12928
927.525	12810
927.631	12947
927.737	12722
927.843	12795
927.95	12677
928.056	12726
928.162	12795
928.267	12795
928.373	13358
928.479	12768
928.585	12555
928.69	12665
928.796	12749
928.901	12646
929.007	12498
929.112	12521
929.218	12536
929.323	12369
929.428	12479
929.533	12490
929.638	12372
929.743	12391
929.848	12429
929.953	12388
930.058	12330
930.163	12091
930.267	12175
930.372	12327
930.477	12030
930.581	12350
930.685	12140
930.79	12007
930.894	12060
930.998	11946
931.103	12140
931.207	11676
931.311	11623
931.415	11600
931.519	11356
931.623	11353
