Data from test_V78500241_3757.txt Node
Date: Fri Mar 25 16:07:49 CST 2022
User: usil
Spectrometer: V785-0024
Trigger mode: 0
Integration Time (sec): 4.000000E-1
Scans to average: 1
Nonlinearity correction enabled: false
Boxcar width: 0
Storing dark spectrum: false
XAxis mode: Wavelengths
Number of Pixels in Spectrum: 1024
>>>>>Begin Spectral Data<<<<<
801.071	20161
801.214	20221
801.356	20016
801.499	20176
801.641	20176
801.783	20248
801.926	20320
802.068	20362
802.211	20484
802.353	20434
802.496	20362
802.638	20450
802.78	20446
802.923	20404
803.065	20450
803.208	20412
803.35	20648
803.492	20849
803.635	20864
803.777	20834
803.919	20933
804.061	21359
804.204	21157
804.346	20963
804.488	20986
804.63	21169
804.773	21165
804.915	21233
805.057	21313
805.199	21203
805.341	21317
805.483	21329
805.626	21363
805.768	21412
805.91	21557
806.052	21485
806.194	21367
806.336	21561
806.478	21462
806.62	21424
806.762	21576
806.904	21762
807.046	21869
807.188	21743
807.33	21865
807.472	21911
807.614	21823
807.756	21789
807.898	21610
808.04	21583
808.182	21610
808.324	21603
808.465	21663
808.607	21888
808.749	21994
808.891	21991
809.033	22010
809.174	21987
809.316	21915
809.458	21869
809.6	21888
809.741	21975
809.883	22059
810.025	22120
810.166	22097
810.308	22158
810.45	22025
810.591	21968
810.733	21903
810.875	21937
811.016	21759
811.158	21728
811.299	21884
811.441	21918
811.582	22021
811.724	21831
811.865	21850
812.007	21850
812.148	21774
812.29	21827
812.431	22017
812.573	22063
812.714	22287
812.855	22325
812.997	22481
813.138	22618
813.279	22443
813.421	22451
813.562	22215
813.703	22265
813.845	22124
813.986	21743
814.127	21728
814.268	21553
814.41	21511
814.551	21538
814.692	21583
814.833	21519
814.974	21488
815.115	21739
815.256	21466
815.397	21488
815.539	21485
815.68	21408
815.821	21302
815.962	21534
816.103	21401
816.244	21382
816.385	21214
816.526	21165
816.666	21123
816.807	20899
816.948	20941
817.089	21032
817.23	21013
817.371	21047
817.512	21066
817.653	20963
817.793	21024
817.934	21043
818.075	20952
818.216	21123
818.356	21093
818.497	21005
818.638	20796
818.778	20823
818.919	20925
819.06	20857
819.2	21089
819.341	21093
819.481	21104
819.622	21283
819.762	21568
819.903	21439
820.043	21260
820.184	21332
820.324	21310
820.465	21450
820.605	21363
820.746	21226
820.886	21355
821.026	21222
821.167	21428
821.307	21401
821.447	21355
821.588	21275
821.728	21230
821.868	21123
822.008	21089
822.149	20864
822.289	20883
822.429	20849
822.569	20514
822.709	20670
822.849	20442
822.99	20594
823.13	20442
823.27	20484
823.41	20275
823.55	20244
823.69	20214
823.83	20351
823.97	20202
824.11	20172
824.25	20119
824.389	20058
824.529	20237
824.669	20130
824.809	20275
824.949	20313
825.089	20252
825.228	20164
825.368	20157
825.508	20027
825.648	20153
825.787	20138
825.927	20199
826.067	20035
826.206	20001
826.346	20183
826.485	20138
826.625	20119
826.765	20362
826.904	20206
827.044	20001
827.183	19925
827.323	19791
827.462	19955
827.601	19932
827.741	20005
827.88	19928
828.02	19822
828.159	20008
828.298	19936
828.437	20062
828.577	20027
828.716	20073
828.855	19963
828.994	19788
829.134	19681
829.273	19856
829.412	19765
829.551	19814
829.69	19932
829.829	19887
829.968	19917
830.107	19963
830.246	20058
830.385	19841
830.524	19784
830.663	19685
830.802	19662
830.941	19552
831.08	19457
831.219	19575
831.357	19552
831.496	19723
831.635	19434
831.774	19563
831.913	19586
832.051	19369
832.19	19381
832.329	19415
832.467	19324
832.606	19259
832.744	19384
832.883	19320
833.022	19301
833.16	19282
833.299	19468
833.437	19396
833.576	19312
833.714	19415
833.852	19400
833.991	19548
834.129	19655
834.267	19613
834.406	19537
834.544	19609
834.682	19476
834.821	19567
834.959	19772
835.097	19483
835.235	19616
835.373	19647
835.511	19620
835.65	19491
835.788	19472
835.926	19339
836.064	19339
836.202	19358
836.34	19556
836.478	19715
836.615	19537
836.753	19601
836.891	19628
837.029	19639
837.167	19502
837.305	19426
837.443	19559
837.58	19384
837.718	19635
837.856	19590
837.993	19544
838.131	19552
838.269	19320
838.406	19384
838.544	19407
838.681	19297
838.819	19228
838.956	19171
839.094	19160
839.231	19179
839.369	19266
839.506	19521
839.643	19438
839.781	19126
839.918	19263
840.055	19209
840.193	19198
840.33	19179
840.467	19190
840.604	19251
840.742	19483
840.879	19152
841.016	19194
841.153	19259
841.29	19453
841.427	19202
841.564	19304
841.701	19422
841.838	19327
841.975	19202
842.112	19285
842.249	19251
842.385	19099
842.522	19358
842.659	19358
842.796	19122
842.933	19164
843.069	19065
843.206	19126
843.343	19278
843.479	19228
843.616	19316
843.752	18993
843.889	18958
844.025	19274
844.162	19103
844.298	19084
844.435	19148
844.571	19164
844.708	19160
844.844	19137
844.98	19308
845.117	19213
845.253	19008
845.389	19050
845.525	19091
845.661	19072
845.798	19027
845.934	19050
846.07	18932
846.206	19072
846.342	19023
846.478	18882
846.614	18825
846.75	18703
846.886	18741
847.022	18814
847.158	18859
847.294	18821
847.429	18886
847.565	18757
847.701	19065
847.837	18620
847.972	18559
848.108	18608
848.244	18604
848.379	18563
848.515	18399
848.65	18536
848.786	18441
848.921	18582
849.057	18566
849.192	18494
849.328	18464
849.463	18563
849.598	18399
849.734	18429
849.869	18266
850.004	18330
850.14	18270
850.275	18205
850.41	18353
850.545	18296
850.68	18308
850.815	18300
850.95	18376
851.085	18544
851.22	18334
851.355	18243
851.49	18258
851.625	18289
851.76	18251
851.895	18205
852.03	18205
852.165	18342
852.299	18346
852.434	18395
852.569	18391
852.703	18380
852.838	18517
852.973	18509
853.107	18540
853.242	18330
853.376	18228
853.511	18190
853.645	18201
853.78	18361
853.914	18197
854.048	18110
854.183	18273
854.317	18266
854.451	18330
854.585	18319
854.72	18209
854.854	18277
854.988	18174
855.122	18235
855.256	18068
855.39	18220
855.524	18266
855.658	18365
855.792	18258
855.926	18289
856.06	18380
856.194	18319
856.327	18258
856.461	18182
856.595	18174
856.729	18228
856.862	18422
856.996	18285
857.13	18445
857.263	18376
857.397	18380
857.53	18319
857.664	18281
857.797	18399
857.931	18369
858.064	18292
858.197	18357
858.331	18232
858.464	18262
858.597	18174
858.731	18296
858.864	18213
858.997	18365
859.13	18304
859.263	18327
859.396	18391
859.529	18239
859.662	18270
859.795	18277
859.928	18353
860.061	18445
860.194	18448
860.327	18232
860.46	18380
860.592	18376
860.725	18544
860.858	18464
860.99	18365
861.123	18319
861.256	18285
861.388	18300
861.521	19015
861.653	18209
861.786	18190
861.918	18163
862.05	18209
862.183	18273
862.315	18266
862.447	18361
862.58	18171
862.712	18121
862.844	18026
862.976	18155
863.108	18022
863.24	18654
863.372	18072
863.504	18201
863.636	18049
863.768	18087
863.9	18159
864.032	18136
864.164	18057
864.296	18083
864.428	18224
864.559	18201
864.691	18129
864.823	18003
864.954	18144
865.086	18155
865.217	18121
865.349	17965
865.48	18110
865.612	18133
865.743	18205
865.875	18079
866.006	18053
866.137	18045
866.269	18057
866.4	18072
866.531	18034
866.662	17965
866.793	18038
866.924	18182
867.055	17980
867.186	17950
867.317	17988
867.448	17847
867.579	17984
867.71	17935
867.841	17901
867.972	18114
868.103	17931
868.233	17984
868.364	17999
868.495	18064
868.625	18174
868.756	18342
868.886	18220
869.017	18232
869.147	18281
869.278	18410
869.408	18289
869.539	18273
869.669	18319
869.799	18235
869.929	18369
870.06	18350
870.19	18426
870.32	18661
870.45	18593
870.58	18711
870.71	18875
870.84	18753
870.97	18677
871.1	18665
871.23	18920
871.36	18848
871.489	18791
871.619	18924
871.749	18859
871.879	18833
872.008	19053
872.138	18897
872.267	18920
872.397	18745
872.526	18719
872.656	18776
872.785	18639
872.915	18829
873.044	19126
873.173	19034
873.303	18894
873.432	19015
873.561	18951
873.69	18890
873.819	18928
873.948	18924
874.077	19107
874.206	18878
874.335	18958
874.464	19152
874.593	19266
874.722	19171
874.851	19221
874.979	19179
875.108	19255
875.237	19148
875.365	19145
875.494	19190
875.623	19331
875.751	19103
875.88	19168
876.008	19369
876.136	19377
876.265	19567
876.393	19776
876.521	19620
876.65	19674
876.778	19632
876.906	19685
877.034	19525
877.162	19624
877.29	19552
877.418	19761
877.546	19605
877.674	19544
877.802	19514
877.93	19525
878.058	19651
878.185	19438
878.313	19537
878.441	19655
878.568	19434
878.696	19502
878.824	19674
878.951	19719
879.079	19852
879.206	19989
879.333	19715
879.461	19609
879.588	19826
879.715	19940
879.842	19909
879.97	19708
880.097	19510
880.224	19582
880.351	19620
880.478	19594
880.605	19415
880.732	19476
880.859	19784
880.986	19556
881.112	19571
881.239	19460
881.366	19346
881.493	19160
881.619	19088
881.746	19057
881.872	19099
881.999	19091
882.125	19046
882.252	19175
882.378	19084
882.505	19137
882.631	19038
882.757	18875
882.883	18909
883.01	18935
883.136	18894
883.262	18764
883.388	18650
883.514	18882
883.64	18913
883.766	18928
883.892	18608
884.018	18566
884.143	18840
884.269	18947
884.395	18604
884.52	18502
884.646	18570
884.772	18551
884.897	18448
885.023	18467
885.148	18525
885.274	18635
885.399	18726
885.524	18525
885.65	18494
885.775	18464
885.9	18448
886.025	18650
886.15	18608
886.275	18479
886.4	18346
886.525	18395
886.65	18395
886.775	18467
886.9	18601
887.025	18589
887.149	18525
887.274	18353
887.399	18285
887.523	18296
887.648	18262
887.773	18213
887.897	18338
888.021	18334
888.146	18285
888.27	18304
888.395	18380
888.519	18323
888.643	18281
888.767	18266
888.891	18213
889.015	18030
889.139	18098
889.263	18095
889.387	18171
889.511	18327
889.635	18194
889.759	18114
889.883	18003
890.006	18022
890.13	18167
890.254	17973
890.377	18038
890.501	17878
890.624	17786
890.748	17828
890.871	17786
890.995	17729
891.118	17611
891.241	17665
891.364	17668
891.488	17809
891.611	17737
891.734	17596
891.857	17695
891.98	17661
892.103	17733
892.226	17528
892.349	17573
892.471	17467
892.594	17551
892.717	17589
892.839	17600
892.962	17398
893.085	17543
893.207	17482
893.33	17398
893.452	17372
893.575	17566
893.697	17532
893.819	17627
893.941	17642
894.064	17627
894.186	17421
894.308	17398
894.43	17570
894.552	17646
894.674	17429
894.796	17235
894.918	17414
895.04	17330
895.161	17402
895.283	17368
895.405	17307
895.526	17410
895.648	17444
895.769	17368
895.891	17391
896.012	17383
896.134	17341
896.255	17303
896.376	17254
896.498	17322
896.619	17273
896.74	17277
896.861	17140
896.982	17562
897.103	17577
897.224	17421
897.345	17330
897.466	17204
897.587	17391
897.708	17414
897.828	17242
897.949	17155
898.07	17052
898.19	17200
898.311	17356
898.431	17071
898.552	17216
898.672	17185
898.792	17136
898.913	17235
899.033	16984
899.153	16862
899.273	16748
899.393	16721
899.513	16877
899.633	16843
899.753	16679
899.873	16622
899.993	16717
900.113	16691
900.232	16645
900.352	16668
900.472	16531
900.591	16558
900.711	16489
900.83	16481
900.95	16580
901.069	16664
901.189	16436
901.308	16246
901.427	16154
901.546	16086
901.665	16234
901.784	16257
901.904	16196
902.023	16055
902.141	15835
902.26	15911
902.379	16010
902.498	15911
902.617	15960
902.735	15857
902.854	15930
902.973	15873
903.091	15629
903.21	15652
903.328	15717
903.446	15606
903.565	15663
903.683	15610
903.801	15511
903.919	15660
904.038	15663
904.156	15492
904.274	15656
904.392	15359
904.51	15580
904.627	15606
904.745	15755
904.863	15713
904.981	15561
905.098	15302
905.216	15325
905.334	15329
905.451	15435
905.569	15507
905.686	15614
905.803	15454
905.921	15294
906.038	15462
906.155	15283
906.272	15321
906.389	15351
906.506	15176
906.623	15268
906.74	15260
906.857	15020
906.974	15157
907.091	15340
907.208	15367
907.324	15408
907.441	15184
907.557	15146
907.674	15093
907.79	14933
907.907	15097
908.023	15157
908.139	15036
908.256	15104
908.372	14994
908.488	15001
908.604	14933
908.72	14941
908.836	14845
908.952	14796
909.068	14933
909.184	15077
909.3	14914
909.415	14952
909.531	15043
909.647	14781
909.762	14697
909.878	14693
909.993	14689
910.108	14746
910.224	14720
910.339	14705
910.454	14701
910.57	14522
910.685	14476
910.8	14842
910.915	14773
911.03	14655
911.145	14431
911.259	14545
911.374	14446
911.489	14393
911.604	14320
911.718	14176
911.833	14157
911.947	14126
912.062	14092
912.176	14233
912.291	14221
912.405	14347
912.519	14499
912.633	14385
912.748	14294
912.862	14206
912.976	14142
913.09	14008
913.204	13989
913.318	13967
913.431	14153
913.545	14161
913.659	14244
913.772	14046
913.886	13978
914	14005
914.113	14077
914.226	14031
914.34	14039
914.453	13765
914.566	13989
914.68	13894
914.793	13849
914.906	13651
915.019	13548
915.132	13559
915.245	13715
915.358	13609
915.47	13586
915.583	13651
915.696	13689
915.809	13769
915.921	13811
916.034	13616
916.146	13586
916.259	13514
916.371	13521
916.483	13510
916.595	13510
916.708	13472
916.82	13392
916.932	13411
917.044	13384
917.156	13346
917.268	13331
917.38	13293
917.491	13289
917.603	13430
917.715	13381
917.826	13400
917.938	13285
918.049	13225
918.161	13293
918.272	13445
918.384	13502
918.495	13228
918.606	13202
918.717	13099
918.828	13076
918.939	13190
919.05	13050
919.161	13099
919.272	12973
919.383	12947
919.494	13221
919.604	13263
919.715	13183
919.826	13091
919.936	13012
920.047	13183
920.157	13175
920.267	13316
920.378	13110
920.488	13023
920.598	13327
920.708	13358
920.818	13171
920.928	13266
921.038	13468
921.148	13411
921.258	13072
921.368	13050
921.477	12932
921.587	12863
921.697	12878
921.806	12894
921.916	12688
922.025	12639
922.134	12551
922.244	12532
922.353	12555
922.462	12464
922.571	12399
922.68	12197
922.789	12209
922.898	12140
923.007	12190
923.116	12194
923.224	12228
923.333	12209
923.442	12106
923.55	12125
923.659	12091
923.767	12060
923.876	12102
923.984	12148
924.092	12022
924.201	11954
924.309	11965
924.417	12019
924.525	11893
924.633	12034
924.741	12856
924.849	11718
924.956	11882
925.064	11665
925.172	11535
925.279	11703
925.387	11821
925.494	11608
925.602	11836
925.709	11722
925.816	11573
925.924	11668
926.031	11691
926.138	11672
926.245	11695
926.352	11649
926.459	11646
926.566	11726
926.673	11585
926.779	11444
926.886	11440
926.993	11360
927.099	11349
927.206	11124
927.312	11292
927.419	11341
927.525	11288
927.631	11341
927.737	11197
927.843	11143
927.95	10999
928.056	11113
928.162	11105
928.267	11155
928.373	11847
928.479	11193
928.585	10953
928.69	10991
928.796	11174
928.901	10999
929.007	10877
929.112	10942
929.218	10965
929.323	10953
929.428	10904
929.533	11003
929.638	10812
929.743	10828
929.848	10828
929.953	10896
930.058	10740
930.163	10580
930.267	10618
930.372	10714
930.477	10584
930.581	10733
930.685	10622
930.79	10470
930.894	10455
930.998	10485
931.103	10584
931.207	10234
931.311	10223
931.415	10101
931.519	9865
931.623	9816
