Data from test_V78500241_2840.txt Node
Date: Fri Mar 25 16:01:28 CST 2022
User: usil
Spectrometer: V785-0024
Trigger mode: 0
Integration Time (sec): 4.000000E-1
Scans to average: 1
Nonlinearity correction enabled: false
Boxcar width: 0
Storing dark spectrum: false
XAxis mode: Wavelengths
Number of Pixels in Spectrum: 1024
>>>>>Begin Spectral Data<<<<<
801.071	29239
801.214	29181
801.356	28816
801.499	28896
801.641	28755
801.783	28710
801.926	28858
802.068	28812
802.211	28672
802.353	28771
802.496	28470
802.638	28508
802.78	28310
802.923	28382
803.065	28310
803.208	28409
803.35	28565
803.492	28713
803.635	28634
803.777	28573
803.919	28706
804.061	29029
804.204	28881
804.346	28649
804.488	28721
804.63	28713
804.773	28641
804.915	28881
805.057	28900
805.199	28755
805.341	28896
805.483	28965
805.626	28809
805.768	28828
805.91	29048
806.052	29033
806.194	28862
806.336	29048
806.478	28923
806.62	28968
806.762	29094
806.904	29250
807.046	29505
807.188	29375
807.33	29463
807.472	29410
807.614	29360
807.756	29490
807.898	29273
808.04	29022
808.182	29143
808.324	29246
808.465	29395
808.607	29356
808.749	29741
808.891	29634
809.033	29729
809.174	29726
809.316	29615
809.458	29672
809.6	29600
809.741	29745
809.883	29771
810.025	30015
810.166	29939
810.308	29885
810.45	29946
810.591	29904
810.733	29638
810.875	29687
811.016	29573
811.158	29554
811.299	29794
811.441	29695
811.582	29916
811.724	29741
811.865	29756
812.007	29566
812.148	29672
812.29	29760
812.431	29946
812.573	30060
812.714	30057
812.855	30319
812.997	30220
813.138	30475
813.279	30445
813.421	30102
813.562	30315
813.703	30030
813.845	29984
813.986	29668
814.127	29539
814.268	29322
814.41	29452
814.551	29410
814.692	29356
814.833	29421
814.974	29414
815.115	29322
815.256	29280
815.397	29242
815.539	29265
815.68	29197
815.821	29094
815.962	29193
816.103	29303
816.244	29132
816.385	28984
816.526	28858
816.666	28930
816.807	28649
816.948	28831
817.089	28892
817.23	28778
817.371	28729
817.512	28641
817.653	28653
817.793	28729
817.934	28687
818.075	28698
818.216	28733
818.356	28694
818.497	28675
818.638	28405
818.778	28405
818.919	28569
819.06	28599
819.2	28649
819.341	28733
819.481	28668
819.622	29014
819.762	28957
819.903	29018
820.043	28949
820.184	28835
820.324	28900
820.465	29003
820.605	28805
820.746	28797
820.886	28812
821.026	28824
821.167	28938
821.307	28828
821.447	28793
821.588	28656
821.728	28546
821.868	28542
822.008	28272
822.149	28341
822.289	28173
822.429	28029
822.569	27994
822.709	27941
822.849	27717
822.99	27644
823.13	27644
823.27	27667
823.41	27686
823.55	27462
823.69	27561
823.83	27568
823.97	27344
824.11	27279
824.25	27367
824.389	27260
824.529	27496
824.669	27454
824.809	27511
824.949	27431
825.089	27557
825.228	27511
825.368	27226
825.508	27199
825.648	27176
825.787	27313
825.927	27367
826.067	27249
826.206	27279
826.346	27260
826.485	27351
826.625	27272
826.765	27424
826.904	27245
827.044	26975
827.183	27226
827.323	26933
827.462	27051
827.601	26925
827.741	27062
827.88	27009
828.02	26857
828.159	27009
828.298	26933
828.437	26994
828.577	26857
828.716	27062
828.855	26804
828.994	26579
829.134	26735
829.273	26887
829.412	26625
829.551	26667
829.69	26735
829.829	26644
829.968	26849
830.107	26682
830.246	26705
830.385	26606
830.524	26568
830.663	26355
830.802	26404
830.941	26275
831.08	26225
831.219	26290
831.357	26282
831.496	26499
831.635	26180
831.774	26290
831.913	26225
832.051	25963
832.19	26126
832.329	26020
832.467	26016
832.606	25940
832.744	25868
832.883	25826
833.022	25864
833.16	26096
833.299	25974
833.437	26069
833.576	26138
833.714	26153
833.852	26081
833.991	25997
834.129	26115
834.267	26103
834.406	26115
834.544	25978
834.682	26062
834.821	25887
834.959	26199
835.097	26054
835.235	26024
835.373	25898
835.511	25955
835.65	25837
835.788	25852
835.926	25852
836.064	25605
836.202	25578
836.34	25966
836.478	25921
836.615	25784
836.753	25746
836.891	25913
837.029	25795
837.167	25784
837.305	25712
837.443	25670
837.58	25594
837.718	25807
837.856	25769
837.993	25529
838.131	25628
838.269	25460
838.406	25575
838.544	25495
838.681	25316
838.819	25202
838.956	25053
839.094	25122
839.231	25114
839.369	25373
839.506	25502
839.643	25419
839.781	25194
839.918	25088
840.055	25057
840.193	25145
840.33	25084
840.467	25038
840.604	25114
840.742	25339
840.879	24856
841.016	24894
841.153	24798
841.29	24939
841.427	25000
841.564	25023
841.701	25012
841.838	24943
841.975	24859
842.112	24871
842.249	24798
842.385	24837
842.522	24844
842.659	24848
842.796	24665
842.933	24817
843.069	24677
843.206	24806
843.343	24779
843.479	24745
843.616	24859
843.752	24547
843.889	24578
844.025	24817
844.162	24570
844.298	24612
844.435	24654
844.571	24464
844.708	24582
844.844	24734
844.98	24604
845.117	24627
845.253	24509
845.389	24551
845.525	24266
845.661	24342
845.798	24266
845.934	24235
846.07	24190
846.206	24350
846.342	24437
846.478	24277
846.614	24045
846.75	23912
846.886	23866
847.022	24060
847.158	24060
847.294	23889
847.429	24076
847.565	23996
847.701	24235
847.837	23672
847.972	23649
848.108	23923
848.244	23824
848.379	23695
848.515	23581
848.65	23543
848.786	23539
848.921	23566
849.057	23714
849.192	23634
849.328	23615
849.463	23516
849.598	23531
849.734	23471
849.869	23360
850.004	23421
850.14	23383
850.275	23364
850.41	23178
850.545	23311
850.68	23334
850.815	23379
850.95	23425
851.085	23505
851.22	23429
851.355	23398
851.49	23368
851.625	23421
851.76	23311
851.895	23200
852.03	23269
852.165	23421
852.299	23387
852.434	23433
852.569	23372
852.703	23315
852.838	23376
852.973	23539
853.107	23376
853.242	23345
853.376	23170
853.511	23083
853.645	23132
853.78	23330
853.914	23166
854.048	23052
854.183	23155
854.317	23105
854.451	23292
854.585	23170
854.72	23200
854.854	23174
854.988	23212
855.122	23227
855.256	23102
855.39	23208
855.524	23044
855.658	23121
855.792	23223
855.926	23159
856.06	23136
856.194	23162
856.327	23113
856.461	23029
856.595	23048
856.729	23174
856.862	23299
856.996	23185
857.13	23315
857.263	23181
857.397	23277
857.53	23132
857.664	23162
857.797	23280
857.931	23292
858.064	23197
858.197	23136
858.331	23151
858.464	23136
858.597	23086
858.731	23193
858.864	23128
858.997	23037
859.13	23105
859.263	23117
859.396	23208
859.529	23079
859.662	23204
859.795	23067
859.928	23071
860.061	23254
860.194	23433
860.327	23174
860.46	23189
860.592	23220
860.725	23402
860.858	23296
860.99	23315
861.123	23132
861.256	23060
861.388	23151
861.521	23874
861.653	23052
861.786	22892
861.918	23052
862.05	23033
862.183	23197
862.315	23014
862.447	23147
862.58	23075
862.712	22816
862.844	22774
862.976	23010
863.108	22946
863.24	23227
863.372	22740
863.504	22854
863.636	22748
863.768	22843
863.9	22889
864.032	22698
864.164	22805
864.296	22858
864.428	22889
864.559	22835
864.691	22904
864.823	22755
864.954	22869
865.086	22854
865.217	22748
865.349	22656
865.48	22740
865.612	22774
865.743	22873
865.875	22767
866.006	22801
866.137	22866
866.269	22752
866.4	22664
866.531	22637
866.662	22634
866.793	22565
866.924	22535
867.055	22599
867.186	22649
867.317	22694
867.448	22668
867.579	22634
867.71	22683
867.841	22485
867.972	22672
868.103	22645
868.233	22656
868.364	22615
868.495	22809
868.625	22934
868.756	22854
868.886	22820
869.017	22942
869.147	23029
869.278	22942
869.408	22892
869.539	22919
869.669	22942
869.799	22957
869.929	23090
870.06	23044
870.19	23166
870.32	23197
870.45	23155
870.58	23208
870.71	23322
870.84	23349
870.97	23227
871.1	23227
871.23	23558
871.36	23444
871.489	23307
871.619	23414
871.749	23440
871.879	23501
872.008	23486
872.138	23429
872.267	23543
872.397	23345
872.526	23178
872.656	23528
872.785	23322
872.915	23474
873.044	23638
873.173	23486
873.303	23452
873.432	23509
873.561	23786
873.69	23520
873.819	23520
873.948	23710
874.077	23528
874.206	23440
874.335	23471
874.464	23558
874.593	23558
874.722	23665
874.851	23649
874.979	23783
875.108	23760
875.237	23737
875.365	23608
875.494	23680
875.623	23798
875.751	23695
875.88	23729
876.008	23737
876.136	23893
876.265	24007
876.393	24174
876.521	24182
876.65	24102
876.778	24038
876.906	24079
877.034	24098
877.162	24038
877.29	23893
877.418	24030
877.546	23954
877.674	24030
877.802	24060
877.93	24053
878.058	23980
878.185	23889
878.313	24011
878.441	24041
878.568	23897
878.696	24087
878.824	24057
878.951	24133
879.079	24300
879.206	24323
879.333	24072
879.461	24114
879.588	24174
879.715	24182
879.842	24262
879.97	24155
880.097	23904
880.224	23764
880.351	23893
880.478	23840
880.605	23767
880.732	23882
880.859	24095
880.986	23832
881.112	23710
881.239	23809
881.366	23649
881.493	23566
881.619	23410
881.746	23478
881.872	23497
881.999	23444
882.125	23307
882.252	23356
882.378	23356
882.505	23528
882.631	23250
882.757	23086
882.883	23227
883.01	22987
883.136	22957
883.262	22908
883.388	22911
883.514	23140
883.64	23094
883.766	22987
883.892	22816
884.018	22904
884.143	22885
884.269	23197
884.395	22698
884.52	22584
884.646	22649
884.772	22516
884.897	22710
885.023	22752
885.148	22942
885.274	22778
885.399	22843
885.524	22672
885.65	22740
885.775	22691
885.9	22729
886.025	22759
886.15	22679
886.275	22759
886.4	22538
886.525	22713
886.65	22622
886.775	22550
886.9	22679
887.025	22908
887.149	22812
887.274	22348
887.399	22459
887.523	22341
887.648	22436
887.773	22268
887.897	22607
888.021	22432
888.146	22272
888.27	22561
888.395	22371
888.519	22516
888.643	22630
888.767	22405
888.891	22246
889.015	22169
889.139	22333
889.263	22276
889.387	22230
889.511	22322
889.635	22291
889.759	22238
889.883	22166
890.006	22196
890.13	22314
890.254	22112
890.377	22074
890.501	22067
890.624	21937
890.748	21968
890.871	21854
890.995	21686
891.118	21705
891.241	21835
891.364	21899
891.488	21850
891.611	21831
891.734	21641
891.857	21793
891.98	21663
892.103	21903
892.226	21717
892.349	21793
892.471	21610
892.594	21603
892.717	21618
892.839	21625
892.962	21675
893.085	21728
893.207	21701
893.33	21679
893.452	21561
893.575	21675
893.697	21633
893.819	21770
893.941	21698
894.064	21869
894.186	21759
894.308	21595
894.43	21599
894.552	21717
894.674	21774
894.796	21572
894.918	21564
895.04	21595
895.161	21603
895.283	21583
895.405	21572
895.526	21599
895.648	21603
895.769	21469
895.891	21595
896.012	21644
896.134	21667
896.255	21648
896.376	21568
896.498	21610
896.619	21599
896.74	21530
896.861	21656
896.982	21941
897.103	21994
897.224	21861
897.345	21888
897.466	21778
897.587	21899
897.708	21949
897.828	21762
897.949	21682
898.07	21698
898.19	21747
898.311	21968
898.431	21816
898.552	21812
898.672	21934
898.792	21994
898.913	21816
899.033	21698
899.153	21492
899.273	21401
899.393	21473
899.513	21561
899.633	21549
899.753	21564
899.873	21477
899.993	21481
900.113	21538
900.232	21583
900.352	21367
900.472	21313
900.591	21222
900.711	21302
900.83	21340
900.95	21447
901.069	21351
901.189	21089
901.308	20880
901.427	20868
901.546	20876
901.665	20807
901.784	20796
901.904	20773
902.023	20625
902.141	20427
902.26	20457
902.379	20461
902.498	20336
902.617	20290
902.735	20362
902.854	20339
902.973	20183
903.091	20008
903.21	20088
903.328	20020
903.446	19799
903.565	19833
903.683	19769
903.801	19624
903.919	19715
904.038	19734
904.156	19582
904.274	19708
904.392	19445
904.51	19483
904.627	19491
904.745	19468
904.863	19548
904.981	19285
905.098	19282
905.216	19232
905.334	19202
905.451	19175
905.569	19118
905.686	19156
905.803	19171
905.921	18882
906.038	19126
906.155	18935
906.272	18848
906.389	19008
906.506	18700
906.623	18642
906.74	18749
906.857	18483
906.974	18700
907.091	18901
907.208	18814
907.324	18745
907.441	18616
907.557	18540
907.674	18486
907.79	18388
907.907	18403
908.023	18433
908.139	18506
908.256	18422
908.372	18380
908.488	18296
908.604	18254
908.72	18121
908.836	18129
908.952	18148
909.068	18095
909.184	18277
909.3	18057
909.415	18083
909.531	18087
909.647	17889
909.762	17859
909.878	17843
909.993	17756
910.108	17760
910.224	17684
910.339	17760
910.454	17695
910.57	17627
910.685	17627
910.8	17840
910.915	17790
911.03	17627
911.145	17478
911.259	17459
911.374	17425
911.489	17368
911.604	17296
911.718	17159
911.833	17193
911.947	17113
912.062	17041
912.176	17128
912.291	17189
912.405	17174
912.519	17277
912.633	17349
912.748	17303
912.862	17056
912.976	16900
913.09	16949
913.204	16949
913.318	16934
913.431	17056
913.545	17025
913.659	17060
913.772	16889
913.886	16797
914	16774
914.113	16801
914.226	16877
914.34	16831
914.453	16729
914.566	16812
914.68	16558
914.793	16618
914.906	16348
915.019	16382
915.132	16272
915.245	16341
915.358	16348
915.47	16440
915.583	16371
915.696	16367
915.809	16504
915.921	16489
916.034	16223
916.146	16211
916.259	16268
916.371	16291
916.483	16265
916.595	16185
916.708	16135
916.82	16185
916.932	16162
917.044	16105
917.156	16029
917.268	15975
917.38	15979
917.491	15884
917.603	15941
917.715	16093
917.826	15994
917.938	15911
918.049	15812
918.161	15918
918.272	15998
918.384	15979
918.495	15884
918.606	15728
918.717	15713
918.828	15705
918.939	15755
919.05	15644
919.161	15743
919.272	15473
919.383	15557
919.494	15690
919.604	15888
919.715	15629
919.826	15603
919.936	15633
920.047	15732
920.157	15713
920.267	15774
920.378	15587
920.488	15591
920.598	15797
920.708	15873
920.818	15800
920.928	15709
921.038	15880
921.148	15732
921.258	15545
921.368	15477
921.477	15321
921.587	15321
921.697	15176
921.806	15245
921.916	15146
922.025	14990
922.134	14948
922.244	14902
922.353	14990
922.462	14819
922.571	14773
922.68	14659
922.789	14606
922.898	14556
923.007	14549
923.116	14556
923.224	14629
923.333	14568
923.442	14454
923.55	14514
923.659	14358
923.767	14526
923.876	14415
923.984	14495
924.092	14313
924.201	14381
924.309	14267
924.417	14195
924.525	14187
924.633	14199
924.741	15138
924.849	13970
924.956	14176
925.064	13970
925.172	13894
925.279	13967
925.387	14077
925.494	13913
925.602	14035
925.709	13955
925.816	13765
925.924	13947
926.031	13913
926.138	13944
926.245	13959
926.352	13689
926.459	13993
926.566	13993
926.673	13769
926.779	13742
926.886	13681
926.993	13499
927.099	13491
927.206	13392
927.312	13392
927.419	13495
927.525	13460
927.631	13407
927.737	13396
927.843	13339
927.95	13213
928.056	13270
928.162	13247
928.267	13316
928.373	13871
928.479	13354
928.585	13114
928.69	13175
928.796	13297
928.901	13107
929.007	12973
929.112	13004
929.218	13095
929.323	12977
929.428	12905
929.533	13091
929.638	12920
929.743	12928
929.848	12935
929.953	12985
930.058	12791
930.163	12604
930.267	12715
930.372	12719
930.477	12528
930.581	12768
930.685	12642
930.79	12532
930.894	12509
930.998	12486
931.103	12669
931.207	12213
931.311	12201
931.415	12098
931.519	11866
931.623	11843
