Data from test_V78500241_1090.txt Node
Date: Fri Mar 25 15:49:21 CST 2022
User: usil
Spectrometer: V785-0024
Trigger mode: 0
Integration Time (sec): 4.000000E-1
Scans to average: 1
Nonlinearity correction enabled: false
Boxcar width: 0
Storing dark spectrum: false
XAxis mode: Wavelengths
Number of Pixels in Spectrum: 1024
>>>>>Begin Spectral Data<<<<<
801.071	28466
801.214	28557
801.356	28379
801.499	28204
801.641	28063
801.783	27998
801.926	28173
802.068	28074
802.211	28029
802.353	27964
802.496	27827
802.638	27713
802.78	27701
802.923	27641
803.065	27686
803.208	27747
803.35	27797
803.492	27781
803.635	27930
803.777	27892
803.919	28021
804.061	28280
804.204	28044
804.346	27899
804.488	27934
804.63	27941
804.773	27789
804.915	27991
805.057	28139
805.199	27861
805.341	28013
805.483	28185
805.626	28101
805.768	27892
805.91	28158
806.052	28272
806.194	28002
806.336	28371
806.478	28291
806.62	28219
806.762	28249
806.904	28280
807.046	28687
807.188	28649
807.33	28527
807.472	28672
807.614	28432
807.756	28603
807.898	28421
808.04	28344
808.182	28306
808.324	28337
808.465	28493
808.607	28584
808.749	28615
808.891	28797
809.033	28999
809.174	28881
809.316	28759
809.458	28736
809.6	28797
809.741	28854
809.883	28999
810.025	29166
810.166	29223
810.308	29025
810.45	28999
810.591	28972
810.733	28748
810.875	28930
811.016	28771
811.158	28816
811.299	29018
811.441	28976
811.582	28900
811.724	28816
811.865	28790
812.007	28866
812.148	28755
812.29	28831
812.431	29109
812.573	29170
812.714	29299
812.855	29395
812.997	29493
813.138	29646
813.279	29414
813.421	29535
813.562	29414
813.703	29242
813.845	29033
813.986	28721
814.127	28691
814.268	28569
814.41	28618
814.551	28546
814.692	28672
814.833	28500
814.974	28634
815.115	28504
815.256	28451
815.397	28440
815.539	28363
815.68	28382
815.821	28261
815.962	28306
816.103	28497
816.244	28314
816.385	28078
816.526	28188
816.666	28002
816.807	27698
816.948	27899
817.089	28059
817.23	27861
817.371	27972
817.512	27914
817.653	27979
817.793	27720
817.934	27914
818.075	27934
818.216	27846
818.356	27766
818.497	27751
818.638	27667
818.778	27641
818.919	27644
819.06	27564
819.2	27686
819.341	27899
819.481	27808
819.622	28055
819.762	28204
819.903	28044
820.043	28006
820.184	28051
820.324	27941
820.465	28120
820.605	27892
820.746	27949
820.886	27739
821.026	28215
821.167	27865
821.307	28044
821.447	27903
821.588	27823
821.728	27682
821.868	27564
822.008	27408
822.149	27397
822.289	27272
822.429	27127
822.569	27009
822.709	27146
822.849	26940
822.99	26830
823.13	26788
823.27	26872
823.41	26887
823.55	26617
823.69	26750
823.83	26724
823.97	26670
824.11	26469
824.25	26427
824.389	26499
824.529	26598
824.669	26488
824.809	26678
824.949	26617
825.089	26579
825.228	26606
825.368	26423
825.508	26423
825.648	26298
825.787	26503
825.927	26484
826.067	26423
826.206	26492
826.346	26484
826.485	26492
826.625	26286
826.765	26533
826.904	26423
827.044	26103
827.183	26252
827.323	26103
827.462	26157
827.601	26202
827.741	26100
827.88	26221
828.02	25982
828.159	25959
828.298	26130
828.437	26157
828.577	26119
828.716	26214
828.855	26100
828.994	25830
829.134	25750
829.273	25917
829.412	25830
829.551	25734
829.69	25742
829.829	25833
829.968	25738
830.107	25765
830.246	25772
830.385	25696
830.524	25666
830.663	25571
830.802	25590
830.941	25453
831.08	25381
831.219	25601
831.357	25479
831.496	25632
831.635	25434
831.774	25403
831.913	25171
832.051	25415
832.19	25148
832.329	25217
832.467	25156
832.606	24943
832.744	25057
832.883	25076
833.022	25046
833.16	25000
833.299	25065
833.437	25175
833.576	25179
833.714	25080
833.852	25179
833.991	25206
834.129	25137
834.267	25187
834.406	25160
834.544	25183
834.682	25160
834.821	25091
834.959	25213
835.097	25099
835.235	25145
835.373	25072
835.511	25168
835.65	25012
835.788	24962
835.926	24867
836.064	24703
836.202	24764
836.34	24966
836.478	25164
836.615	24852
836.753	24875
836.891	25065
837.029	24958
837.167	24897
837.305	24837
837.443	24768
837.58	24894
837.718	24878
837.856	24829
837.993	24768
838.131	24810
838.269	24551
838.406	24741
838.544	24601
838.681	24540
838.819	24426
838.956	24319
839.094	24129
839.231	24315
839.369	24410
839.506	24555
839.643	24582
839.781	24167
839.918	24148
840.055	24330
840.193	24258
840.33	24194
840.467	24174
840.604	24209
840.742	24555
840.879	24072
841.016	24053
841.153	24140
841.29	24174
841.427	24053
841.564	24068
841.701	24194
841.838	23969
841.975	23996
842.112	24060
842.249	23973
842.385	23920
842.522	24110
842.659	23912
842.796	23874
842.933	23889
843.069	23912
843.206	23821
843.343	23908
843.479	23954
843.616	23828
843.752	23745
843.889	23756
844.025	23741
844.162	23680
844.298	23703
844.435	23657
844.571	23687
844.708	23611
844.844	23832
844.98	23729
845.117	23805
845.253	23596
845.389	23520
845.525	23726
845.661	23592
845.798	23284
845.934	23467
846.07	23398
846.206	23429
846.342	23528
846.478	23360
846.614	23220
846.75	23113
846.886	23022
847.022	23307
847.158	23128
847.294	23223
847.429	23223
847.565	23235
847.701	23406
847.837	22908
847.972	22862
848.108	22866
848.244	22835
848.379	22831
848.515	22694
848.65	22778
848.786	22679
848.921	22740
849.057	22771
849.192	22835
849.328	22740
849.463	22694
849.598	22729
849.734	22694
849.869	22725
850.004	22443
850.14	22531
850.275	22538
850.41	22485
850.545	22474
850.68	22459
850.815	22432
850.95	22512
851.085	22538
851.22	22561
851.355	22527
851.49	22459
851.625	22443
851.76	22500
851.895	22413
852.03	22432
852.165	22474
852.299	22489
852.434	22592
852.569	22493
852.703	22554
852.838	22565
852.973	22588
853.107	22516
853.242	22443
853.376	22341
853.511	22291
853.645	22341
853.78	22417
853.914	22322
854.048	22322
854.183	22386
854.317	22280
854.451	22546
854.585	22268
854.72	22337
854.854	22451
854.988	22150
855.122	22204
855.256	22185
855.39	22287
855.524	22371
855.658	22394
855.792	22329
855.926	22192
856.06	22394
856.194	22455
856.327	22219
856.461	22211
856.595	22310
856.729	22436
856.862	22478
856.996	22344
857.13	22303
857.263	22375
857.397	22436
857.53	22246
857.664	22443
857.797	22329
857.931	22424
858.064	22310
858.197	22409
858.331	22192
858.464	22204
858.597	22223
858.731	22291
858.864	22333
858.997	22276
859.13	22382
859.263	22371
859.396	22409
859.529	22394
859.662	22196
859.795	22363
859.928	22295
860.061	22371
860.194	22409
860.327	22413
860.46	22337
860.592	22531
860.725	22443
860.858	22451
860.99	22325
861.123	22280
861.256	22246
861.388	22348
861.521	23109
861.653	22291
861.786	22021
861.918	22158
862.05	22128
862.183	22306
862.315	22169
862.447	22402
862.58	22287
862.712	22128
862.844	21899
862.976	22067
863.108	22067
863.24	22546
863.372	21918
863.504	22013
863.636	21941
863.768	22090
863.9	21983
864.032	21880
864.164	21983
864.296	21972
864.428	22067
864.559	22063
864.691	22093
864.823	21975
864.954	22051
865.086	21884
865.217	21949
865.349	21808
865.48	21892
865.612	21846
865.743	21915
865.875	21972
866.006	21823
866.137	21975
866.269	21911
866.4	21857
866.531	21835
866.662	21766
866.793	21857
866.924	21861
867.055	21922
867.186	21850
867.317	21888
867.448	21720
867.579	21819
867.71	21728
867.841	21781
867.972	21831
868.103	21701
868.233	21819
868.364	21816
868.495	21808
868.625	22044
868.756	22147
868.886	21861
869.017	22078
869.147	22032
869.278	22207
869.408	22162
869.539	22029
869.669	22131
869.799	22112
869.929	22226
870.06	22086
870.19	22363
870.32	22310
870.45	22402
870.58	22470
870.71	22607
870.84	22535
870.97	22390
871.1	22390
871.23	22626
871.36	22687
871.489	22478
871.619	22573
871.749	22683
871.879	22634
872.008	22854
872.138	22717
872.267	22500
872.397	22489
872.526	22485
872.656	22447
872.785	22565
872.915	22809
873.044	22767
873.173	22622
873.303	22641
873.432	22752
873.561	22778
873.69	22668
873.819	22626
873.948	22786
874.077	22706
874.206	22710
874.335	22607
874.464	22763
874.593	22984
874.722	22904
874.851	22873
874.979	22927
875.108	22881
875.237	22896
875.365	22843
875.494	22938
875.623	22797
875.751	22892
875.88	22953
876.008	23086
876.136	23132
876.265	23368
876.393	23440
876.521	23334
876.65	23288
876.778	23341
876.906	23060
877.034	23200
877.162	23292
877.29	23121
877.418	23246
877.546	23254
877.674	23410
877.802	23170
877.93	23284
878.058	23181
878.185	23102
878.313	23121
878.441	23113
878.568	22946
878.696	23102
878.824	23269
878.951	23296
879.079	23318
879.206	23531
879.333	23440
879.461	23383
879.588	23318
879.715	23459
879.842	23505
879.97	23299
880.097	23006
880.224	23102
880.351	22972
880.478	22904
880.605	22961
880.732	22980
880.859	23143
880.986	23117
881.112	23162
881.239	22934
881.366	22797
881.493	22744
881.619	22573
881.746	22603
881.872	22694
881.999	22618
882.125	22580
882.252	22611
882.378	22607
882.505	22660
882.631	22561
882.757	22462
882.883	22333
883.01	22295
883.136	22272
883.262	22287
883.388	22204
883.514	22314
883.64	22318
883.766	22177
883.892	22112
884.018	22055
884.143	22154
884.269	22352
884.395	21937
884.52	21983
884.646	21854
884.772	21869
884.897	21827
885.023	21911
885.148	22010
885.274	22070
885.399	22010
885.524	21991
885.65	21937
885.775	21759
885.9	21876
886.025	21949
886.15	21911
886.275	21812
886.4	21915
886.525	21854
886.65	21808
886.775	21918
886.9	22067
887.025	22124
887.149	21907
887.274	21675
887.399	21656
887.523	21641
887.648	21622
887.773	21629
887.897	21785
888.021	21690
888.146	21625
888.27	21724
888.395	21781
888.519	21652
888.643	21690
888.767	21663
888.891	21538
889.015	21637
889.139	21580
889.263	21523
889.387	21549
889.511	21713
889.635	21603
889.759	21401
889.883	21367
890.006	21610
890.13	21530
890.254	21515
890.377	21348
890.501	21119
890.624	21226
890.748	21252
890.871	21150
890.995	21104
891.118	21013
891.241	21074
891.364	21146
891.488	21085
891.611	21036
891.734	21108
891.857	21093
891.98	21017
892.103	21096
892.226	21154
892.349	20986
892.471	20785
892.594	21028
892.717	20975
892.839	20906
892.962	21028
893.085	20918
893.207	20982
893.33	20823
893.452	20891
893.575	20944
893.697	20823
893.819	21085
893.941	21081
894.064	21028
894.186	20769
894.308	20788
894.43	20887
894.552	21047
894.674	21043
894.796	20811
894.918	20906
895.04	20853
895.161	20902
895.283	20952
895.405	20781
895.526	20933
895.648	20967
895.769	20933
895.891	20910
896.012	20990
896.134	20933
896.255	20864
896.376	20876
896.498	20914
896.619	20887
896.74	20883
896.861	20963
896.982	21260
897.103	21317
897.224	21116
897.345	21169
897.466	21127
897.587	21108
897.708	21218
897.828	21077
897.949	21123
898.07	20918
898.19	21123
898.311	21161
898.431	21066
898.552	21081
898.672	21108
898.792	21180
898.913	21135
899.033	20960
899.153	20929
899.273	20788
899.393	20762
899.513	20921
899.633	20845
899.753	20910
899.873	20716
899.993	20807
900.113	20838
900.232	20785
900.352	20708
900.472	20716
900.591	20564
900.711	20625
900.83	20473
900.95	20819
901.069	20632
901.189	20552
901.308	20214
901.427	20214
901.546	20233
901.665	20126
901.784	20111
901.904	19997
902.023	20001
902.141	19746
902.26	19799
902.379	19803
902.498	19605
902.617	19597
902.735	19666
902.854	19742
902.973	19575
903.091	19293
903.21	19289
903.328	19304
903.446	19225
903.565	19225
903.683	19126
903.801	18913
903.919	19179
904.038	19114
904.156	18928
904.274	18985
904.392	18848
904.51	18840
904.627	18844
904.745	18886
904.863	18913
904.981	18593
905.098	18601
905.216	18597
905.334	18604
905.451	18604
905.569	18654
905.686	18608
905.803	18483
905.921	18304
906.038	18418
906.155	18365
906.272	18262
906.389	18334
906.506	18098
906.623	18030
906.74	18194
906.857	18060
906.974	18057
907.091	18140
907.208	18171
907.324	18091
907.441	18038
907.557	17942
907.674	17847
907.79	17794
907.907	17916
908.023	17767
908.139	17760
908.256	17771
908.372	17722
908.488	17627
908.604	17577
908.72	17493
908.836	17505
908.952	17505
909.068	17417
909.184	17623
909.3	17551
909.415	17535
909.531	17524
909.647	17193
909.762	17212
909.878	17311
909.993	17246
910.108	17189
910.224	17288
910.339	17292
910.454	17086
910.57	17067
910.685	16961
910.8	17284
910.915	17113
911.03	16972
911.145	16934
911.259	16694
911.374	16782
911.489	16660
911.604	16702
911.718	16653
911.833	16478
911.947	16500
912.062	16379
912.176	16489
912.291	16596
912.405	16561
912.519	16759
912.633	16679
912.748	16516
912.862	16535
912.976	16379
913.09	16291
913.204	16242
913.318	16314
913.431	16436
913.545	16440
913.659	16462
913.772	16291
913.886	16268
914	16051
914.113	16295
914.226	16310
914.34	16188
914.453	16101
914.566	16124
914.68	16059
914.793	15888
914.906	15781
915.019	15671
915.132	15728
915.245	15686
915.358	15690
915.47	15865
915.583	15686
915.696	15701
915.809	15880
915.921	15949
916.034	15667
916.146	15618
916.259	15477
916.371	15766
916.483	15603
916.595	15591
916.708	15549
916.82	15519
916.932	15496
917.044	15488
917.156	15511
917.268	15393
917.38	15306
917.491	15321
917.603	15389
917.715	15443
917.826	15408
917.938	15336
918.049	15214
918.161	15405
918.272	15549
918.384	15348
918.495	15245
918.606	15157
918.717	15157
918.828	15184
918.939	15188
919.05	14975
919.161	15070
919.272	14929
919.383	14944
919.494	15001
919.604	15218
919.715	15077
919.826	14925
919.936	15108
920.047	15165
920.157	15062
920.267	15252
920.378	15165
920.488	14944
920.598	15184
920.708	15329
920.818	15138
920.928	15306
921.038	15340
921.148	15245
921.258	15017
921.368	14941
921.477	14842
921.587	14735
921.697	14579
921.806	14834
921.916	14636
922.025	14370
922.134	14408
922.244	14454
922.353	14400
922.462	14324
922.571	14180
922.68	14069
922.789	13951
922.898	14168
923.007	13947
923.116	14001
923.224	14027
923.333	14043
923.442	13921
923.55	13909
923.659	13921
923.767	13845
923.876	13826
923.984	13902
924.092	13753
924.201	13731
924.309	13719
924.417	13902
924.525	13719
924.633	13628
924.741	14545
924.849	13548
924.956	13533
925.064	13518
925.172	13449
925.279	13480
925.387	13472
925.494	13468
925.602	13582
925.709	13400
925.816	13316
925.924	13403
926.031	13350
926.138	13468
926.245	13388
926.352	13270
926.459	13426
926.566	13384
926.673	13350
926.779	13213
926.886	13171
926.993	13046
927.099	13023
927.206	13034
927.312	12913
927.419	13065
927.525	12973
927.631	13038
927.737	12875
927.843	12852
927.95	12692
928.056	12814
928.162	12852
928.267	12814
928.373	13331
928.479	12973
928.585	12700
928.69	12810
928.796	12783
928.901	12684
929.007	12540
929.112	12559
929.218	12646
929.323	12532
929.428	12532
929.533	12593
929.638	12433
929.743	12483
929.848	12475
929.953	12471
930.058	12365
930.163	12235
930.267	12194
930.372	12289
930.477	12148
930.581	12273
930.685	12262
930.79	12098
930.894	12091
930.998	12053
931.103	12125
931.207	11863
931.311	11783
931.415	11619
931.519	11482
931.623	11372
