Data from test_V78500241_165.txt Node
Date: Fri Mar 25 15:42:56 CST 2022
User: usil
Spectrometer: V785-0024
Trigger mode: 0
Integration Time (sec): 4.000000E-1
Scans to average: 1
Nonlinearity correction enabled: false
Boxcar width: 0
Storing dark spectrum: false
XAxis mode: Wavelengths
Number of Pixels in Spectrum: 1024
>>>>>Begin Spectral Data<<<<<
801.071	29501
801.214	29452
801.356	29113
801.499	28995
801.641	29003
801.783	29113
801.926	29147
802.068	28972
802.211	28961
802.353	28782
802.496	28531
802.638	28713
802.78	28538
802.923	28653
803.065	28554
803.208	28618
803.35	28713
803.492	28767
803.635	28717
803.777	28641
803.919	28786
804.061	29025
804.204	28710
804.346	28824
804.488	28763
804.63	28755
804.773	28443
804.915	28573
805.057	28740
805.199	28733
805.341	28641
805.483	28793
805.626	28698
805.768	28691
805.91	28843
806.052	28790
806.194	28839
806.336	28995
806.478	28831
806.62	28911
806.762	29037
806.904	29029
807.046	29334
807.188	29250
807.33	29284
807.472	29478
807.614	29003
807.756	29151
807.898	29056
808.04	28854
808.182	28828
808.324	28995
808.465	29037
808.607	29094
808.749	29326
808.891	29353
809.033	29440
809.174	29360
809.316	29417
809.458	29383
809.6	29383
809.741	29547
809.883	29417
810.025	29627
810.166	29661
810.308	29596
810.45	29535
810.591	29455
810.733	29372
810.875	29406
811.016	29334
811.158	29330
811.299	29455
811.441	29478
811.582	29406
811.724	29433
811.865	29330
812.007	29235
812.148	29227
812.29	29440
812.431	29471
812.573	29570
812.714	29649
812.855	29893
812.997	29996
813.138	29999
813.279	29874
813.421	29862
813.562	29558
813.703	29638
813.845	29520
813.986	29322
814.127	29010
814.268	29121
814.41	28843
814.551	28885
814.692	28946
814.833	29003
814.974	28847
815.115	28915
815.256	28854
815.397	28831
815.539	28641
815.68	28615
815.821	28706
815.962	28771
816.103	28774
816.244	28447
816.385	28379
816.526	28295
816.666	28440
816.807	28150
816.948	27979
817.089	28276
817.23	28067
817.371	28109
817.512	28067
817.653	28101
817.793	28105
817.934	28207
818.075	28120
818.216	28078
818.356	27960
818.497	27983
818.638	27785
818.778	27819
818.919	27911
819.06	27793
819.2	27964
819.341	28059
819.481	28051
819.622	28131
819.762	28318
819.903	28268
820.043	28017
820.184	28158
820.324	28192
820.465	28101
820.605	28128
820.746	28051
820.886	28082
821.026	28010
821.167	28158
821.307	28059
821.447	28002
821.588	27747
821.728	27739
821.868	27545
822.008	27264
822.149	27492
822.289	27435
822.429	27313
822.569	27024
822.709	26971
822.849	26872
822.99	26940
823.13	27055
823.27	26864
823.41	26712
823.55	26473
823.69	26648
823.83	26762
823.97	26590
824.11	26461
824.25	26507
824.389	26598
824.529	26629
824.669	26492
824.809	26507
824.949	26469
825.089	26621
825.228	26552
825.368	26126
825.508	26301
825.648	26298
825.787	26370
825.927	26309
826.067	26225
826.206	26282
826.346	26362
826.485	26461
826.625	26248
826.765	26355
826.904	26252
827.044	26008
827.183	26054
827.323	25852
827.462	26058
827.601	25928
827.741	25871
827.88	25966
828.02	25841
828.159	25906
828.298	25917
828.437	25970
828.577	25841
828.716	26020
828.855	25719
828.994	25651
829.134	25670
829.273	25674
829.412	25670
829.551	25548
829.69	25586
829.829	25647
829.968	25632
830.107	25658
830.246	25601
830.385	25628
830.524	25548
830.663	25377
830.802	25225
830.941	25175
831.08	25228
831.219	25206
831.357	25297
831.496	25365
831.635	25236
831.774	25046
831.913	25038
832.051	24992
832.19	24954
832.329	24909
832.467	24825
832.606	24726
832.744	24741
832.883	24882
833.022	24692
833.16	24787
833.299	24962
833.437	24905
833.576	24749
833.714	24867
833.852	24897
833.991	24810
834.129	24890
834.267	24863
834.406	24783
834.544	24909
834.682	24741
834.821	24650
834.959	25000
835.097	24635
835.235	24734
835.373	24745
835.511	24772
835.65	24817
835.788	24696
835.926	24498
836.064	24334
836.202	24414
836.34	24650
836.478	24627
836.615	24582
836.753	24620
836.891	24711
837.029	24646
837.167	24589
837.305	24536
837.443	24642
837.58	24475
837.718	24433
837.856	24399
837.993	24490
838.131	24323
838.269	24228
838.406	24270
838.544	24178
838.681	24152
838.819	24083
838.956	23942
839.094	23878
839.231	23901
839.369	23931
839.506	24140
839.643	24178
839.781	23870
839.918	23832
840.055	23923
840.193	23855
840.33	23748
840.467	23790
840.604	23847
840.742	24159
840.879	23760
841.016	23608
841.153	23722
841.29	23748
841.427	23657
841.564	23566
841.701	23794
841.838	23710
841.975	23573
842.112	23608
842.249	23535
842.385	23512
842.522	23676
842.659	23490
842.796	23478
842.933	23353
843.069	23364
843.206	23280
843.343	23459
843.479	23429
843.616	23372
843.752	23178
843.889	23227
844.025	23311
844.162	23113
844.298	23170
844.435	23227
844.571	23143
844.708	23178
844.844	23360
844.98	23231
845.117	23250
845.253	23029
845.389	23075
845.525	23094
845.661	22984
845.798	22889
845.934	22873
846.07	22961
846.206	22843
846.342	22961
846.478	22858
846.614	22649
846.75	22577
846.886	22569
847.022	22668
847.158	22622
847.294	22645
847.429	22588
847.565	22626
847.701	22771
847.837	22238
847.972	22185
848.108	22379
848.244	22375
848.379	22158
848.515	22063
848.65	22196
848.786	22109
848.921	22086
849.057	22329
849.192	22272
849.328	22166
849.463	22169
849.598	22055
849.734	22070
849.869	21937
850.004	21861
850.14	21857
850.275	21812
850.41	21793
850.545	21819
850.68	21945
850.815	21884
850.95	21835
851.085	22074
851.22	21949
851.355	21759
851.49	21778
851.625	21835
851.76	21755
851.895	21606
852.03	21736
852.165	21846
852.299	21785
852.434	21865
852.569	21895
852.703	21857
852.838	21930
852.973	21918
853.107	21926
853.242	21854
853.376	21717
853.511	21485
853.645	21572
853.78	21842
853.914	21610
854.048	21686
854.183	21694
854.317	21701
854.451	21869
854.585	21682
854.72	21603
854.854	21755
854.988	21660
855.122	21675
855.256	21519
855.39	21736
855.524	21854
855.658	21759
855.792	21618
855.926	21633
856.06	21755
856.194	21922
856.327	21610
856.461	21610
856.595	21507
856.729	21614
856.862	21705
856.996	21633
857.13	21739
857.263	21698
857.397	21732
857.53	21663
857.664	21667
857.797	21660
857.931	21644
858.064	21694
858.197	21743
858.331	21614
858.464	21564
858.597	21492
858.731	21572
858.864	21504
858.997	21568
859.13	21530
859.263	21538
859.396	21644
859.529	21595
859.662	21561
859.795	21454
859.928	21530
860.061	21629
860.194	21709
860.327	21500
860.46	21591
860.592	21614
860.725	21682
860.858	21819
860.99	21580
861.123	21450
861.256	21648
861.388	21492
861.521	22337
861.653	21553
861.786	21428
861.918	21428
862.05	21500
862.183	21500
862.315	21580
862.447	21603
862.58	21622
862.712	21249
862.844	21256
862.976	21336
863.108	21310
863.24	21724
863.372	21199
863.504	21332
863.636	21348
863.768	21287
863.9	21222
864.032	21180
864.164	21070
864.296	21207
864.428	21275
864.559	21252
864.691	21386
864.823	21313
864.954	21142
865.086	21135
865.217	21165
865.349	21165
865.48	21104
865.612	21119
865.743	21207
865.875	21089
866.006	21047
866.137	21230
866.269	21287
866.4	21058
866.531	21074
866.662	21070
866.793	21070
866.924	21165
867.055	21089
867.186	21051
867.317	21001
867.448	20899
867.579	21051
867.71	20883
867.841	20925
867.972	21116
868.103	21104
868.233	21096
868.364	21081
868.495	21218
868.625	21233
868.756	21382
868.886	21226
869.017	21226
869.147	21428
869.278	21416
869.408	21283
869.539	21203
869.669	21428
869.799	21256
869.929	21325
870.06	21291
870.19	21633
870.32	21656
870.45	21751
870.58	21743
870.71	21812
870.84	21857
870.97	21778
871.1	21770
871.23	21926
871.36	21930
871.489	21732
871.619	21895
871.749	21831
871.879	21953
872.008	21934
872.138	21800
872.267	21808
872.397	21800
872.526	21701
872.656	21759
872.785	21709
872.915	21907
873.044	22040
873.173	21873
873.303	21983
873.432	21895
873.561	22006
873.69	21983
873.819	21831
873.948	22105
874.077	21987
874.206	21998
874.335	21884
874.464	22067
874.593	22169
874.722	22059
874.851	22230
874.979	22181
875.108	22169
875.237	22128
875.365	22135
875.494	22196
875.623	22074
875.751	22169
875.88	22082
876.008	22295
876.136	22303
876.265	22603
876.393	22702
876.521	22611
876.65	22550
876.778	22531
876.906	22386
877.034	22466
877.162	22546
877.29	22466
877.418	22637
877.546	22421
877.674	22493
877.802	22538
877.93	22447
878.058	22474
878.185	22386
878.313	22306
878.441	22474
878.568	22379
878.696	22451
878.824	22405
878.951	22622
879.079	22675
879.206	22748
879.333	22580
879.461	22519
879.588	22546
879.715	22672
879.842	22767
879.97	22440
880.097	22341
880.224	22325
880.351	22303
880.478	22352
880.605	22173
880.732	22314
880.859	22596
880.986	22333
881.112	22246
881.239	22295
881.366	22124
881.493	21994
881.619	21964
881.746	21854
881.872	21838
881.999	21884
882.125	21812
882.252	22070
882.378	21873
882.505	22036
882.631	21823
882.757	21682
882.883	21717
883.01	21663
883.136	21603
883.262	21492
883.388	21469
883.514	21576
883.64	21568
883.766	21568
883.892	21386
884.018	21428
884.143	21496
884.269	21701
884.395	21321
884.52	21252
884.646	21237
884.772	21108
884.897	21150
885.023	21283
885.148	21412
885.274	21367
885.399	21389
885.524	21169
885.65	21207
885.775	21374
885.9	21116
886.025	21466
886.15	21378
886.275	21112
886.4	21135
886.525	21135
886.65	21146
886.775	21058
886.9	21264
887.025	21458
887.149	21119
887.274	21051
887.399	21039
887.523	20895
887.648	20823
887.773	20868
887.897	21043
888.021	21116
888.146	20956
888.27	20929
888.395	21176
888.519	20929
888.643	21036
888.767	21017
888.891	20880
889.015	20735
889.139	20674
889.263	20746
889.387	20910
889.511	20872
889.635	20921
889.759	20781
889.883	20739
890.006	20724
890.13	20838
890.254	20682
890.377	20701
890.501	20488
890.624	20568
890.748	20587
890.871	20393
890.995	20286
891.118	20164
891.241	20393
891.364	20358
891.488	20499
891.611	20282
891.734	20301
891.857	20484
891.98	20256
892.103	20396
892.226	20370
892.349	20214
892.471	20062
892.594	20252
892.717	20328
892.839	20275
892.962	20199
893.085	20229
893.207	20176
893.33	20103
893.452	20149
893.575	20332
893.697	20168
893.819	20320
893.941	20431
894.064	20328
894.186	20199
894.308	20122
894.43	20240
894.552	20370
894.674	20286
894.796	20073
894.918	20149
895.04	20149
895.161	20256
895.283	20157
895.405	20275
895.526	20168
895.648	20103
895.769	20256
895.891	20248
896.012	20389
896.134	20248
896.255	20206
896.376	20244
896.498	20351
896.619	20336
896.74	20324
896.861	20275
896.982	20617
897.103	20781
897.224	20518
897.345	20412
897.466	20362
897.587	20415
897.708	20606
897.828	20552
897.949	20377
898.07	20263
898.19	20377
898.311	20526
898.431	20370
898.552	20404
898.672	20480
898.792	20427
898.913	20412
899.033	20229
899.153	20290
899.273	20069
899.393	20214
899.513	20263
899.633	20145
899.753	20202
899.873	20088
899.993	20092
900.113	20050
900.232	20233
900.352	20065
900.472	19989
900.591	19932
900.711	20005
900.83	19932
900.95	19978
901.069	19963
901.189	19879
901.308	19609
901.427	19495
901.546	19575
901.665	19537
901.784	19518
901.904	19457
902.023	19266
902.141	19095
902.26	18996
902.379	19152
902.498	19084
902.617	18863
902.735	19202
902.854	19019
902.973	18844
903.091	18563
903.21	18642
903.328	18688
903.446	18544
903.565	18574
903.683	18612
903.801	18285
903.919	18433
904.038	18319
904.156	18251
904.274	18346
904.392	18273
904.51	18247
904.627	18171
904.745	18133
904.863	18205
904.981	18030
905.098	17824
905.216	17923
905.334	17942
905.451	17916
905.569	17874
905.686	17920
905.803	17843
905.921	17646
906.038	17722
906.155	17630
906.272	17509
906.389	17570
906.506	17474
906.623	17353
906.74	17452
906.857	17353
906.974	17345
907.091	17467
907.208	17501
907.324	17417
907.441	17284
907.557	17079
907.674	17128
907.79	17121
907.907	17094
908.023	17029
908.139	17124
908.256	17010
908.372	16976
908.488	16904
908.604	16911
908.72	16797
908.836	16911
908.952	16710
909.068	16820
909.184	16904
909.3	16782
909.415	16786
909.531	16793
909.647	16523
909.762	16329
909.878	16417
909.993	16462
910.108	16470
910.224	16398
910.339	16394
910.454	16303
910.57	16306
910.685	16226
910.8	16428
910.915	16367
911.03	16276
911.145	16032
911.259	16166
911.374	16093
911.489	16044
911.604	15899
911.718	15835
911.833	15770
911.947	15759
912.062	15545
912.176	15819
912.291	15857
912.405	15941
912.519	15956
912.633	15991
912.748	15876
912.862	15808
912.976	15618
913.09	15450
913.204	15530
913.318	15561
913.431	15724
913.545	15698
913.659	15690
913.772	15568
913.886	15477
914	15428
914.113	15511
914.226	15500
914.34	15530
914.453	15298
914.566	15473
914.68	15302
914.793	15283
914.906	15039
915.019	14979
915.132	14975
915.245	15017
915.358	15062
915.47	15013
915.583	15036
915.696	14975
915.809	15116
915.921	15070
916.034	14998
916.146	14967
916.259	14845
916.371	14960
916.483	15009
916.595	14788
916.708	14891
916.82	14834
916.932	14807
917.044	14830
917.156	14701
917.268	14720
917.38	14598
917.491	14663
917.603	14674
917.715	14682
917.826	14785
917.938	14568
918.049	14457
918.161	14640
918.272	14712
918.384	14708
918.495	14587
918.606	14431
918.717	14336
918.828	14473
918.939	14423
919.05	14278
919.161	14332
919.272	14210
919.383	14195
919.494	14400
919.604	14537
919.715	14336
919.826	14278
919.936	14301
920.047	14404
920.157	14423
920.267	14507
920.378	14484
920.488	14351
920.598	14556
920.708	14632
920.818	14526
920.928	14438
921.038	14659
921.148	14590
921.258	14317
921.368	14244
921.477	14081
921.587	14027
921.697	13913
921.806	14126
921.916	13978
922.025	13761
922.134	13712
922.244	13662
922.353	13830
922.462	13567
922.571	13563
922.68	13400
922.789	13346
922.898	13381
923.007	13255
923.116	13365
923.224	13339
923.333	13350
923.442	13129
923.55	13160
923.659	13240
923.767	13183
923.876	13065
923.984	13240
924.092	13065
924.201	13152
924.309	13091
924.417	13103
924.525	12996
924.633	13034
924.741	13780
924.849	12935
924.956	12890
925.064	12798
925.172	12795
925.279	12802
925.387	12814
925.494	12817
925.602	12909
925.709	12806
925.816	12635
925.924	12749
926.031	12852
926.138	12597
926.245	12741
926.352	12719
926.459	12719
926.566	12745
926.673	12623
926.779	12532
926.886	12475
926.993	12448
927.099	12338
927.206	12292
927.312	12281
927.419	12433
927.525	12399
927.631	12479
927.737	12262
927.843	12209
927.95	12087
928.056	12102
928.162	12171
928.267	12228
928.373	12882
928.479	12175
928.585	11996
928.69	12167
928.796	12220
928.901	12007
929.007	11920
929.112	12030
929.218	11988
929.323	11931
929.428	11893
929.533	12011
929.638	11752
929.743	11775
929.848	11897
929.953	11832
930.058	11668
930.163	11634
930.267	11600
930.372	11699
930.477	11490
930.581	11722
930.685	11661
930.79	11406
930.894	11554
930.998	11376
931.103	11558
931.207	11242
931.311	11079
931.415	11010
931.519	10797
931.623	10896
