Data from test_V78500241_577.txt Node
Date: Fri Mar 25 15:45:47 CST 2022
User: usil
Spectrometer: V785-0024
Trigger mode: 0
Integration Time (sec): 4.000000E-1
Scans to average: 1
Nonlinearity correction enabled: false
Boxcar width: 0
Storing dark spectrum: false
XAxis mode: Wavelengths
Number of Pixels in Spectrum: 1024
>>>>>Begin Spectral Data<<<<<
801.071	27641
801.214	27583
801.356	27393
801.499	27416
801.641	27138
801.783	27195
801.926	27096
802.068	27237
802.211	27001
802.353	27127
802.496	26845
802.638	26906
802.78	26872
802.923	26731
803.065	26792
803.208	26876
803.35	26659
803.492	26864
803.635	27119
803.777	26921
803.919	26887
804.061	27317
804.204	26895
804.346	26933
804.488	26929
804.63	27142
804.773	26891
804.915	27001
805.057	27108
805.199	26963
805.341	27020
805.483	27131
805.626	27055
805.768	27039
805.91	27150
806.052	27036
806.194	27081
806.336	27264
806.478	27123
806.62	27173
806.762	27104
806.904	27397
807.046	27660
807.188	27507
807.33	27561
807.472	27724
807.614	27439
807.756	27553
807.898	27534
808.04	27443
808.182	27332
808.324	27382
808.465	27348
808.607	27587
808.749	27857
808.891	27755
809.033	27812
809.174	27846
809.316	27865
809.458	27812
809.6	27747
809.741	27793
809.883	28040
810.025	28044
810.166	28021
810.308	28040
810.45	27987
810.591	28097
810.733	27724
810.875	27686
811.016	27610
811.158	27682
811.299	27865
811.441	27972
811.582	27930
811.724	27743
811.865	27675
812.007	27717
812.148	27785
812.29	27808
812.431	27983
812.573	28207
812.714	28322
812.855	28341
812.997	28363
813.138	28493
813.279	28599
813.421	28306
813.562	28356
813.703	28044
813.845	27903
813.986	27694
814.127	27557
814.268	27401
814.41	27561
814.551	27306
814.692	27435
814.833	27279
814.974	27397
815.115	27500
815.256	27367
815.397	27378
815.539	27370
815.68	27332
815.821	27188
815.962	27252
816.103	27066
816.244	27077
816.385	27077
816.526	26971
816.666	26762
816.807	26651
816.948	26606
817.089	26834
817.23	26815
817.371	26765
817.512	26762
817.653	26629
817.793	26579
817.934	26834
818.075	26838
818.216	26644
818.356	26602
818.497	26629
818.638	26446
818.778	26526
818.919	26419
819.06	26476
819.2	26632
819.341	26693
819.481	26678
819.622	26899
819.762	26982
819.903	26940
820.043	26921
820.184	26754
820.324	26773
820.465	26857
820.605	26921
820.746	26906
820.886	26621
821.026	26754
821.167	26838
821.307	26777
821.447	26746
821.588	26693
821.728	26556
821.868	26286
822.008	26233
822.149	26043
822.289	26206
822.429	26008
822.569	25860
822.709	25780
822.849	25696
822.99	25795
823.13	25655
823.27	25647
823.41	25575
823.55	25381
823.69	25407
823.83	25495
823.97	25472
824.11	25263
824.25	25339
824.389	25247
824.529	25457
824.669	25247
824.809	25499
824.949	25278
825.089	25308
825.228	25403
825.368	25141
825.508	25301
825.648	25175
825.787	25426
825.927	25365
826.067	25080
826.206	25179
826.346	25289
826.485	25194
826.625	25247
826.765	25320
826.904	25209
827.044	24871
827.183	24817
827.323	24943
827.462	24954
827.601	24981
827.741	24905
827.88	24954
828.02	24772
828.159	24840
828.298	24890
828.437	24909
828.577	24802
828.716	24989
828.855	24829
828.994	24665
829.134	24749
829.273	24498
829.412	24517
829.551	24593
829.69	24479
829.829	24669
829.968	24677
830.107	24665
830.246	24547
830.385	24570
830.524	24498
830.663	24426
830.802	24357
830.941	24201
831.08	24049
831.219	24296
831.357	24243
831.496	24388
831.635	24224
831.774	24121
831.913	24026
832.051	24041
832.19	24030
832.329	24015
832.467	23798
832.606	23885
832.744	23722
832.883	23927
833.022	23840
833.16	23874
833.299	23950
833.437	24026
833.576	23954
833.714	23882
833.852	23996
833.991	24038
834.129	23999
834.267	24030
834.406	23893
834.544	24015
834.682	23878
834.821	23885
834.959	24057
835.097	23821
835.235	24041
835.373	23958
835.511	23824
835.65	23733
835.788	23672
835.926	23699
836.064	23490
836.202	23608
836.34	23916
836.478	23775
836.615	23676
836.753	23843
836.891	23779
837.029	23916
837.167	23741
837.305	23680
837.443	23752
837.58	23627
837.718	23649
837.856	23752
837.993	23501
838.131	23535
838.269	23486
838.406	23524
838.544	23395
838.681	23185
838.819	23220
838.956	23044
839.094	23071
839.231	23102
839.369	23227
839.506	23436
839.643	23406
839.781	23006
839.918	23037
840.055	23121
840.193	23075
840.33	22942
840.467	23029
840.604	23193
840.742	23330
840.879	22809
841.016	22919
841.153	22987
841.29	23162
841.427	22801
841.564	22995
841.701	23025
841.838	22968
841.975	22866
842.112	22904
842.249	22839
842.385	22786
842.522	22911
842.659	22755
842.796	22790
842.933	22752
843.069	22725
843.206	22763
843.343	22797
843.479	22702
843.616	22721
843.752	22599
843.889	22542
844.025	22736
844.162	22455
844.298	22592
844.435	22455
844.571	22557
844.708	22569
844.844	22603
844.98	22694
845.117	22588
845.253	22527
845.389	22314
845.525	22443
845.661	22379
845.798	22257
845.934	22329
846.07	22253
846.206	22306
846.342	22204
846.478	22177
846.614	22032
846.75	22021
846.886	21964
847.022	21979
847.158	21903
847.294	22040
847.429	22055
847.565	21892
847.701	22158
847.837	21656
847.972	21759
848.108	21736
848.244	21808
848.379	21587
848.515	21557
848.65	21485
848.786	21519
848.921	21595
849.057	21618
849.192	21698
849.328	21641
849.463	21625
849.598	21568
849.734	21424
849.869	21416
850.004	21329
850.14	21359
850.275	21351
850.41	21283
850.545	21329
850.68	21317
850.815	21325
850.95	21382
851.085	21568
851.22	21515
851.355	21367
851.49	21374
851.625	21321
851.76	21317
851.895	21256
852.03	21321
852.165	21401
852.299	21389
852.434	21447
852.569	21374
852.703	21397
852.838	21378
852.973	21561
853.107	21336
853.242	21169
853.376	21367
853.511	21108
853.645	21207
853.78	21169
853.914	21161
854.048	21142
854.183	21184
854.317	21089
854.451	21355
854.585	21268
854.72	21039
854.854	21233
854.988	21058
855.122	21104
855.256	20990
855.39	21195
855.524	21317
855.658	21260
855.792	21116
855.926	21195
856.06	21138
856.194	21150
856.327	21161
856.461	21081
856.595	21127
856.729	21203
856.862	21325
856.996	21245
857.13	21214
857.263	21279
857.397	21233
857.53	21108
857.664	21241
857.797	21176
857.931	21226
858.064	21226
858.197	21306
858.331	21036
858.464	21104
858.597	21058
858.731	21127
858.864	21146
858.997	21062
859.13	21150
859.263	21100
859.396	21214
859.529	21211
859.662	21184
859.795	21150
859.928	21123
860.061	21291
860.194	21374
860.327	21233
860.46	21138
860.592	21317
860.725	21230
860.858	21310
860.99	21104
861.123	21093
861.256	21138
861.388	21180
861.521	21675
861.653	21013
861.786	21009
861.918	20998
862.05	21074
862.183	21028
862.315	21093
862.447	21150
862.58	21096
862.712	20834
862.844	20811
862.976	20944
863.108	20960
863.24	21355
863.372	20891
863.504	20838
863.636	20807
863.768	20929
863.9	20868
864.032	20891
864.164	20838
864.296	20929
864.428	20944
864.559	20971
864.691	20925
864.823	20849
864.954	20864
865.086	20883
865.217	20845
865.349	20674
865.48	20838
865.612	20769
865.743	20891
865.875	20804
866.006	20762
866.137	20788
866.269	20819
866.4	20689
866.531	20682
866.662	20743
866.793	20655
866.924	20804
867.055	20746
867.186	20735
867.317	20678
867.448	20560
867.579	20655
867.71	20697
867.841	20594
867.972	20674
868.103	20746
868.233	20689
868.364	20693
868.495	20891
868.625	20845
868.756	21058
868.886	20910
869.017	21009
869.147	21157
869.278	21043
869.408	21009
869.539	20979
869.669	20960
869.799	20948
869.929	21039
870.06	21077
870.19	21378
870.32	21237
870.45	21412
870.58	21279
870.71	21401
870.84	21351
870.97	21496
871.1	21428
871.23	21660
871.36	21572
871.489	21515
871.619	21610
871.749	21530
871.879	21538
872.008	21606
872.138	21492
872.267	21481
872.397	21576
872.526	21344
872.656	21397
872.785	21363
872.915	21542
873.044	21523
873.173	21564
873.303	21629
873.432	21557
873.561	21747
873.69	21728
873.819	21572
873.948	21610
874.077	21595
874.206	21530
874.335	21534
874.464	21686
874.593	21759
874.722	21876
874.851	21880
874.979	21812
875.108	21781
875.237	21739
875.365	21572
875.494	21899
875.623	21850
875.751	21797
875.88	21808
876.008	21907
876.136	22025
876.265	22284
876.393	22303
876.521	22219
876.65	22158
876.778	22059
876.906	22059
877.034	22131
877.162	22131
877.29	22166
877.418	22204
877.546	22029
877.674	22059
877.802	22078
877.93	22177
878.058	22070
878.185	21926
878.313	22051
878.441	22200
878.568	21964
878.696	22029
878.824	22200
878.951	22265
879.079	22303
879.206	22440
879.333	22322
879.461	22063
879.588	22348
879.715	22333
879.842	22398
879.97	22242
880.097	21994
880.224	21861
880.351	21975
880.478	21998
880.605	21819
880.732	21979
880.859	22333
880.986	21888
881.112	22059
881.239	21850
881.366	21690
881.493	21701
881.619	21515
881.746	21576
881.872	21424
881.999	21595
882.125	21450
882.252	21595
882.378	21534
882.505	21679
882.631	21408
882.757	21123
882.883	21249
883.01	21230
883.136	21245
883.262	21135
883.388	21058
883.514	21241
883.64	21340
883.766	21154
883.892	21024
884.018	20937
884.143	21218
884.269	21291
884.395	20971
884.52	20918
884.646	20952
884.772	20853
884.897	20826
885.023	20941
885.148	21058
885.274	21093
885.399	20921
885.524	20872
885.65	20861
885.775	20887
885.9	20826
886.025	20975
886.15	21024
886.275	20887
886.4	20899
886.525	20918
886.65	20777
886.775	20941
886.9	20971
887.025	21062
887.149	20838
887.274	20724
887.399	20659
887.523	20720
887.648	20556
887.773	20541
887.897	20720
888.021	20739
888.146	20629
888.27	20735
888.395	20876
888.519	20849
888.643	20716
888.767	20773
888.891	20663
889.015	20537
889.139	20492
889.263	20393
889.387	20625
889.511	20629
889.635	20609
889.759	20404
889.883	20442
890.006	20476
890.13	20571
890.254	20431
890.377	20396
890.501	20157
890.624	20107
890.748	20233
890.871	20069
890.995	19978
891.118	20088
891.241	20122
891.364	20100
891.488	20187
891.611	20092
891.734	20050
891.857	20088
891.98	19993
892.103	20164
892.226	20062
892.349	19925
892.471	19928
892.594	20062
892.717	19989
892.839	19879
892.962	19944
893.085	19951
893.207	20020
893.33	19902
893.452	19845
893.575	20012
893.697	19868
893.819	19997
893.941	20221
894.064	20183
894.186	19811
894.308	19883
894.43	19963
894.552	20050
894.674	20046
894.796	19864
894.918	19963
895.04	19951
895.161	20001
895.283	20016
895.405	19963
895.526	19868
895.648	19890
895.769	20058
895.891	20043
896.012	20077
896.134	20005
896.255	20058
896.376	19944
896.498	19883
896.619	19974
896.74	20001
896.861	20031
896.982	20240
897.103	20404
897.224	20263
897.345	20305
897.466	20161
897.587	20210
897.708	20381
897.828	20145
897.949	20218
898.07	19913
898.19	20103
898.311	20309
898.431	20073
898.552	20256
898.672	20195
898.792	20267
898.913	20153
899.033	20138
899.153	19974
899.273	19875
899.393	19868
899.513	19978
899.633	19936
899.753	19940
899.873	19776
899.993	19963
900.113	19864
900.232	19845
900.352	19921
900.472	19731
900.591	19677
900.711	19765
900.83	19666
900.95	19928
901.069	19769
901.189	19567
901.308	19384
901.427	19278
901.546	19331
901.665	19419
901.784	19232
901.904	19175
902.023	19050
902.141	18821
902.26	18798
902.379	18951
902.498	18821
902.617	18840
902.735	18745
902.854	18757
902.973	18738
903.091	18582
903.21	18509
903.328	18513
903.446	18410
903.565	18232
903.683	18330
903.801	18273
903.919	18281
904.038	18270
904.156	18117
904.274	18095
904.392	18140
904.51	18026
904.627	18072
904.745	18053
904.863	18068
904.981	17817
905.098	17630
905.216	17745
905.334	17775
905.451	17722
905.569	17726
905.686	17779
905.803	17737
905.921	17653
906.038	17665
906.155	17585
906.272	17421
906.389	17535
906.506	17372
906.623	17242
906.74	17448
906.857	17155
906.974	17136
907.091	17307
907.208	17459
907.324	17296
907.441	17147
907.557	17041
907.674	17064
907.79	16934
907.907	16850
908.023	16915
908.139	16991
908.256	16892
908.372	16934
908.488	16843
908.604	16782
908.72	16733
908.836	16748
908.952	16607
909.068	16767
909.184	16828
909.3	16668
909.415	16786
909.531	16740
909.647	16474
909.762	16447
909.878	16394
909.993	16421
910.108	16314
910.224	16249
910.339	16367
910.454	16246
910.57	16139
910.685	16234
910.8	16413
910.915	16333
911.03	16105
911.145	16063
911.259	16105
911.374	15975
911.489	15778
911.604	15895
911.718	15644
911.833	15728
911.947	15625
912.062	15637
912.176	15774
912.291	15797
912.405	15759
912.519	15937
912.633	15876
912.748	15770
912.862	15781
912.976	15538
913.09	15454
913.204	15454
913.318	15584
913.431	15686
913.545	15656
913.659	15663
913.772	15420
913.886	15477
914	15359
914.113	15458
914.226	15488
914.34	15488
914.453	15302
914.566	15393
914.68	15306
914.793	15237
914.906	15070
915.019	14902
915.132	14883
915.245	14895
915.358	15009
915.47	15028
915.583	15013
915.696	15116
915.809	15055
915.921	15161
916.034	14921
916.146	14807
916.259	14956
916.371	14960
916.483	14921
916.595	14872
916.708	14758
916.82	14895
916.932	14781
917.044	14815
917.156	14705
917.268	14686
917.38	14682
917.491	14689
917.603	14651
917.715	14750
917.826	14727
917.938	14648
918.049	14571
918.161	14632
918.272	14720
918.384	14655
918.495	14564
918.606	14450
918.717	14343
918.828	14457
918.939	14431
919.05	14339
919.161	14419
919.272	14164
919.383	14278
919.494	14484
919.604	14625
919.715	14495
919.826	14362
919.936	14351
920.047	14492
920.157	14473
920.267	14450
920.378	14408
920.488	14343
920.598	14640
920.708	14674
920.818	14541
920.928	14632
921.038	14743
921.148	14556
921.258	14431
921.368	14298
921.477	14164
921.587	14119
921.697	14065
921.806	14062
921.916	14016
922.025	13852
922.134	13852
922.244	13799
922.353	13871
922.462	13719
922.571	13636
922.68	13586
922.789	13460
922.898	13499
923.007	13430
923.116	13502
923.224	13480
923.333	13491
923.442	13236
923.55	13187
923.659	13289
923.767	13460
923.876	13354
923.984	13312
924.092	13179
924.201	13244
924.309	13232
924.417	13244
924.525	13164
924.633	13088
924.741	14145
924.849	12954
924.956	13069
925.064	12954
925.172	12764
925.279	12821
925.387	12833
925.494	12856
925.602	13004
925.709	12932
925.816	12719
925.924	12890
926.031	12966
926.138	12700
926.245	12901
926.352	12745
926.459	12966
926.566	12905
926.673	12715
926.779	12593
926.886	12620
926.993	12433
927.099	12395
927.206	12448
927.312	12445
927.419	12521
927.525	12448
927.631	12517
927.737	12277
927.843	12304
927.95	12171
928.056	12228
928.162	12285
928.267	12330
928.373	13000
928.479	12399
928.585	12091
928.69	12292
928.796	12243
928.901	12079
929.007	11942
929.112	12045
929.218	12079
929.323	12038
929.428	12011
929.533	12117
929.638	11996
929.743	11954
929.848	11939
929.953	11961
930.058	11832
930.163	11577
930.267	11748
930.372	11893
930.477	11611
930.581	11912
930.685	11733
930.79	11532
930.894	11596
930.998	11478
931.103	11680
931.207	11315
931.311	11292
931.415	11197
931.519	11006
931.623	10957
