Data from test_V78500241_214.txt Node
Date: Fri Mar 25 15:43:17 CST 2022
User: usil
Spectrometer: V785-0024
Trigger mode: 0
Integration Time (sec): 4.000000E-1
Scans to average: 1
Nonlinearity correction enabled: false
Boxcar width: 0
Storing dark spectrum: false
XAxis mode: Wavelengths
Number of Pixels in Spectrum: 1024
>>>>>Begin Spectral Data<<<<<
801.071	29779
801.214	29965
801.356	29623
801.499	29493
801.641	29375
801.783	29235
801.926	29493
802.068	29353
802.211	29197
802.353	29193
802.496	29098
802.638	29006
802.78	29060
802.923	29086
803.065	29041
803.208	28927
803.35	29067
803.492	29056
803.635	29159
803.777	29014
803.919	29181
804.061	29558
804.204	29250
804.346	29109
804.488	29003
804.63	29018
804.773	28942
804.915	29204
805.057	29250
805.199	29159
805.341	29288
805.483	29330
805.626	29231
805.768	29090
805.91	29273
806.052	29242
806.194	29212
806.336	29474
806.478	29311
806.62	29220
806.762	29414
806.904	29440
807.046	29604
807.188	29657
807.33	29543
807.472	29695
807.614	29566
807.756	29562
807.898	29486
808.04	29455
808.182	29421
808.324	29646
808.465	29551
808.607	29737
808.749	29764
808.891	29859
809.033	30015
809.174	29847
809.316	29942
809.458	29931
809.6	29737
809.741	29912
809.883	29912
810.025	30155
810.166	30015
810.308	30285
810.45	30087
810.591	30049
810.733	29862
810.875	29916
811.016	29699
811.158	29760
811.299	29977
811.441	30007
811.582	30015
811.724	29897
811.865	29847
812.007	29699
812.148	29908
812.29	29901
812.431	30064
812.573	29984
812.714	30129
812.855	30460
812.997	30467
813.138	30639
813.279	30517
813.421	30338
813.562	30216
813.703	30053
813.845	30095
813.986	29638
814.127	29627
814.268	29509
814.41	29539
814.551	29570
814.692	29539
814.833	29509
814.974	29383
815.115	29307
815.256	29254
815.397	29284
815.539	29258
815.68	29235
815.821	29265
815.962	29223
816.103	29239
816.244	29010
816.385	29052
816.526	29025
816.666	28729
816.807	28675
816.948	28767
817.089	28771
817.23	28717
817.371	28527
817.512	28535
817.653	28675
817.793	28675
817.934	28744
818.075	28710
818.216	28603
818.356	28550
818.497	28504
818.638	28405
818.778	28303
818.919	28341
819.06	28474
819.2	28432
819.341	28554
819.481	28523
819.622	28599
819.762	28930
819.903	28957
820.043	28710
820.184	28744
820.324	28729
820.465	28721
820.605	28763
820.746	28542
820.886	28592
821.026	28698
821.167	28588
821.307	28573
821.447	28424
821.588	28394
821.728	28360
821.868	28162
822.008	28086
822.149	28029
822.289	27831
822.429	27766
822.569	27671
822.709	27774
822.849	27526
822.99	27416
823.13	27439
823.27	27386
823.41	27218
823.55	27081
823.69	27249
823.83	27211
823.97	27184
824.11	26921
824.25	27089
824.389	27074
824.529	27184
824.669	26990
824.809	27188
824.949	27180
825.089	27116
825.228	27096
825.368	26861
825.508	26929
825.648	26944
825.787	26921
825.927	26967
826.067	26944
826.206	26887
826.346	26883
826.485	27100
826.625	26754
826.765	26880
826.904	26994
827.044	26754
827.183	26621
827.323	26606
827.462	26541
827.601	26530
827.741	26495
827.88	26655
828.02	26514
828.159	26549
828.298	26533
828.437	26503
828.577	26518
828.716	26670
828.855	26484
828.994	26320
829.134	26229
829.273	26294
829.412	26153
829.551	26138
829.69	26130
829.829	26142
829.968	26259
830.107	26309
830.246	26149
830.385	26145
830.524	26115
830.663	26024
830.802	25951
830.941	25769
831.08	25906
831.219	25902
831.357	25887
831.496	26008
831.635	25704
831.774	25704
831.913	25582
832.051	25533
832.19	25445
832.329	25693
832.467	25537
832.606	25464
832.744	25388
832.883	25464
833.022	25407
833.16	25449
833.299	25525
833.437	25354
833.576	25533
833.714	25521
833.852	25460
833.991	25460
834.129	25449
834.267	25624
834.406	25411
834.544	25350
834.682	25434
834.821	25464
834.959	25556
835.097	25240
835.235	25438
835.373	25495
835.511	25365
835.65	25240
835.788	25335
835.926	25065
836.064	25061
836.202	25057
836.34	25244
836.478	25274
836.615	25213
836.753	25171
836.891	25282
837.029	25240
837.167	25156
837.305	25209
837.443	25084
837.58	25148
837.718	25156
837.856	24962
837.993	25057
838.131	25069
838.269	24882
838.406	24871
838.544	24787
838.681	24867
838.819	24623
838.956	24525
839.094	24414
839.231	24547
839.369	24536
839.506	24825
839.643	24642
839.781	24486
839.918	24422
840.055	24471
840.193	24342
840.33	24407
840.467	24585
840.604	24464
840.742	24658
840.879	24182
841.016	24220
841.153	24239
841.29	24464
841.427	24277
841.564	24460
841.701	24334
841.838	24194
841.975	24270
842.112	24148
842.249	24247
842.385	24102
842.522	24152
842.659	24121
842.796	23923
842.933	24038
843.069	24087
843.206	23863
843.343	24022
843.479	24049
843.616	24022
843.752	23904
843.889	23729
844.025	24003
844.162	23756
844.298	23874
844.435	23783
844.571	23695
844.708	23859
844.844	23923
844.98	23996
845.117	23832
845.253	23764
845.389	23608
845.525	23596
845.661	23634
845.798	23547
845.934	23490
846.07	23444
846.206	23448
846.342	23573
846.478	23486
846.614	23250
846.75	23208
846.886	23090
847.022	23227
847.158	23239
847.294	23083
847.429	23250
847.565	23193
847.701	23436
847.837	22968
847.972	22866
848.108	22938
848.244	22938
848.379	22748
848.515	22565
848.65	22717
848.786	22816
848.921	22809
849.057	22889
849.192	22736
849.328	22805
849.463	22675
849.598	22755
849.734	22641
849.869	22706
850.004	22485
850.14	22512
850.275	22599
850.41	22295
850.545	22432
850.68	22592
850.815	22584
850.95	22542
851.085	22664
851.22	22607
851.355	22523
851.49	22504
851.625	22592
851.76	22474
851.895	22409
852.03	22356
852.165	22561
852.299	22459
852.434	22611
852.569	22432
852.703	22440
852.838	22382
852.973	22535
853.107	22504
853.242	22535
853.376	22398
853.511	22078
853.645	22325
853.78	22379
853.914	22223
854.048	22352
854.183	22276
854.317	22299
854.451	22394
854.585	22219
854.72	22318
854.854	22474
854.988	22276
855.122	22265
855.256	22185
855.39	22284
855.524	22379
855.658	22226
855.792	22299
855.926	22310
856.06	22303
856.194	22421
856.327	22188
856.461	22177
856.595	22177
856.729	22280
856.862	22303
856.996	22276
857.13	22257
857.263	22363
857.397	22363
857.53	22219
857.664	22333
857.797	22329
857.931	22287
858.064	22207
858.197	22268
858.331	22280
858.464	22078
858.597	22139
858.731	22211
858.864	22097
858.997	22166
859.13	22192
859.263	22124
859.396	22166
859.529	22284
859.662	22124
859.795	22070
859.928	22169
860.061	22428
860.194	22306
860.327	22291
860.46	22234
860.592	22322
860.725	22440
860.858	22371
860.99	22078
861.123	22135
861.256	22048
861.388	22223
861.521	22862
861.653	22032
861.786	21964
861.918	22040
862.05	22196
862.183	22253
862.315	22257
862.447	22166
862.58	22105
862.712	21975
862.844	21945
862.976	21998
863.108	21960
863.24	22428
863.372	21762
863.504	21884
863.636	21895
863.768	21918
863.9	21899
864.032	21793
864.164	21857
864.296	21949
864.428	21964
864.559	21930
864.691	21960
864.823	21907
864.954	21903
865.086	21884
865.217	21762
865.349	21660
865.48	21789
865.612	21762
865.743	22002
865.875	21857
866.006	21663
866.137	21838
866.269	21785
866.4	21713
866.531	21675
866.662	21663
866.793	21755
866.924	21637
867.055	21789
867.186	21793
867.317	21690
867.448	21553
867.579	21732
867.71	21557
867.841	21637
867.972	21724
868.103	21747
868.233	21694
868.364	21698
868.495	21797
868.625	21903
868.756	22051
868.886	21812
869.017	21892
869.147	22112
869.278	21953
869.408	21968
869.539	21888
869.669	22013
869.799	21903
869.929	22051
870.06	22105
870.19	22299
870.32	22207
870.45	22352
870.58	22306
870.71	22398
870.84	22436
870.97	22150
871.1	22409
871.23	22497
871.36	22485
871.489	22394
871.619	22398
871.749	22542
871.879	22443
872.008	22546
872.138	22550
872.267	22447
872.397	22367
872.526	22242
872.656	22257
872.785	22329
872.915	22546
873.044	22569
873.173	22523
873.303	22459
873.432	22618
873.561	22611
873.69	22584
873.819	22516
873.948	22546
874.077	22596
874.206	22569
874.335	22466
874.464	22573
874.593	22717
874.722	22752
874.851	22672
874.979	22828
875.108	22774
875.237	22622
875.365	22641
875.494	22694
875.623	22831
875.751	22767
875.88	22774
876.008	22828
876.136	22927
876.265	23117
876.393	23265
876.521	23113
876.65	23136
876.778	23102
876.906	23147
877.034	23231
877.162	23090
877.29	23067
877.418	23174
877.546	23128
877.674	23029
877.802	23124
877.93	22976
878.058	23041
878.185	23006
878.313	23033
878.441	23052
878.568	22934
878.696	23014
878.824	23102
878.951	23155
879.079	23239
879.206	23368
879.333	23258
879.461	23307
879.588	23277
879.715	23288
879.842	23273
879.97	23181
880.097	22889
880.224	22843
880.351	22900
880.478	22911
880.605	22892
880.732	22881
880.859	23121
880.986	22919
881.112	22934
881.239	22763
881.366	22729
881.493	22565
881.619	22523
881.746	22519
881.872	22500
881.999	22375
882.125	22443
882.252	22550
882.378	22500
882.505	22421
882.631	22261
882.757	22200
882.883	22215
883.01	22166
883.136	22131
883.262	22169
883.388	21968
883.514	22162
883.64	22139
883.766	21998
883.892	21911
884.018	22002
884.143	22082
884.269	22253
884.395	21907
884.52	21854
884.646	21846
884.772	21736
884.897	21587
885.023	21857
885.148	21972
885.274	22032
885.399	21857
885.524	21766
885.65	21842
885.775	21781
885.9	21751
886.025	21968
886.15	21823
886.275	21572
886.4	21800
886.525	21751
886.65	21679
886.775	21595
886.9	21964
887.025	22067
887.149	21762
887.274	21580
887.399	21618
887.523	21595
887.648	21443
887.773	21481
887.897	21641
888.021	21549
888.146	21488
888.27	21682
888.395	21606
888.519	21507
888.643	21583
888.767	21576
888.891	21355
889.015	21370
889.139	21367
889.263	21359
889.387	21481
889.511	21599
889.635	21359
889.759	21344
889.883	21340
890.006	21515
890.13	21389
890.254	21332
890.377	21112
890.501	21039
890.624	21028
890.748	21047
890.871	21047
890.995	21017
891.118	20918
891.241	20914
891.364	20845
891.488	20994
891.611	20941
891.734	20735
891.857	20902
891.98	20895
892.103	20948
892.226	20819
892.349	20872
892.471	20716
892.594	20800
892.717	20868
892.839	20746
892.962	20902
893.085	20842
893.207	20758
893.33	20724
893.452	20727
893.575	20861
893.697	20743
893.819	20998
893.941	21020
894.064	20849
894.186	20792
894.308	20705
894.43	20880
894.552	20941
894.674	20724
894.796	20720
894.918	20682
895.04	20746
895.161	20902
895.283	20845
895.405	20750
895.526	20853
895.648	20739
895.769	20834
895.891	20750
896.012	20792
896.134	20720
896.255	20743
896.376	20773
896.498	20826
896.619	20845
896.74	20781
896.861	21020
896.982	21188
897.103	21287
897.224	21184
897.345	21005
897.466	21169
897.587	21058
897.708	21237
897.828	20948
897.949	20902
898.07	20758
898.19	20960
898.311	21093
898.431	20967
898.552	20921
898.672	21028
898.792	20933
898.913	20948
899.033	20842
899.153	20815
899.273	20617
899.393	20579
899.513	20701
899.633	20708
899.753	20587
899.873	20545
899.993	20663
900.113	20488
900.232	20689
900.352	20545
900.472	20511
900.591	20438
900.711	20541
900.83	20465
900.95	20503
901.069	20651
901.189	20374
901.308	20065
901.427	20050
901.546	20092
901.665	20062
901.784	20164
901.904	19925
902.023	19784
902.141	19480
902.26	19594
902.379	19586
902.498	19529
902.617	19453
902.735	19514
902.854	19438
902.973	19487
903.091	19110
903.21	19213
903.328	19133
903.446	19103
903.565	19023
903.683	18973
903.801	18722
903.919	19012
904.038	18859
904.156	18749
904.274	18840
904.392	18722
904.51	18627
904.627	18639
904.745	18715
904.863	18684
904.981	18384
905.098	18391
905.216	18506
905.334	18464
905.451	18369
905.569	18308
905.686	18338
905.803	18407
905.921	18163
906.038	18334
906.155	18060
906.272	18007
906.389	18095
906.506	17821
906.623	17878
906.74	17958
906.857	17737
906.974	17802
907.091	17882
907.208	18007
907.324	17885
907.441	17805
907.557	17687
907.674	17653
907.79	17661
907.907	17543
908.023	17516
908.139	17558
908.256	17463
908.372	17482
908.488	17444
908.604	17288
908.72	17227
908.836	17258
908.952	17124
909.068	17235
909.184	17322
909.3	17261
909.415	17227
909.531	17261
909.647	16995
909.762	16953
909.878	16991
909.993	16972
910.108	17033
910.224	16828
910.339	16949
910.454	16923
910.57	16691
910.685	16645
910.8	16999
910.915	16873
911.03	16786
911.145	16603
911.259	16497
911.374	16527
911.489	16413
911.604	16478
911.718	16303
911.833	16253
911.947	16230
912.062	16242
912.176	16333
912.291	16341
912.405	16310
912.519	16512
912.633	16379
912.748	16291
912.862	16284
912.976	16109
913.09	15918
913.204	16029
913.318	16086
913.431	16116
913.545	16200
913.659	16139
913.772	16097
913.886	16017
914	15781
914.113	15907
914.226	15915
914.34	15987
914.453	15682
914.566	15983
914.68	15816
914.793	15694
914.906	15587
915.019	15458
915.132	15401
915.245	15420
915.358	15473
915.47	15389
915.583	15435
915.696	15424
915.809	15458
915.921	15561
916.034	15397
916.146	15447
916.259	15348
916.371	15447
916.483	15447
916.595	15317
916.708	15294
916.82	15252
916.932	15112
917.044	15245
917.156	15195
917.268	15112
917.38	15051
917.491	15055
917.603	15074
917.715	15256
917.826	15161
917.938	15047
918.049	14887
918.161	15070
918.272	15199
918.384	15150
918.495	14979
918.606	15017
918.717	14872
918.828	14952
918.939	14864
919.05	14648
919.161	14750
919.272	14648
919.383	14693
919.494	14944
919.604	15036
919.715	14800
919.826	14712
919.936	14720
920.047	14891
920.157	14788
920.267	15001
920.378	14754
920.488	14724
920.598	14918
920.708	15024
920.818	14872
920.928	14861
921.038	14975
921.148	14910
921.258	14670
921.368	14655
921.477	14469
921.587	14552
921.697	14415
921.806	14522
921.916	14237
922.025	14130
922.134	14191
922.244	14050
922.353	14149
922.462	14092
922.571	13887
922.68	13841
922.789	13799
922.898	13734
923.007	13715
923.116	13719
923.224	13803
923.333	13643
923.442	13594
923.55	13540
923.659	13575
923.767	13681
923.876	13449
923.984	13449
924.092	13457
924.201	13616
924.309	13514
924.417	13460
924.525	13388
924.633	13415
924.741	14286
924.849	13289
924.956	13335
925.064	13187
925.172	13103
925.279	13110
925.387	13122
925.494	13145
925.602	13255
925.709	13240
925.816	13057
925.924	13145
926.031	13156
926.138	13091
926.245	13091
926.352	13053
926.459	13122
926.566	13175
926.673	12970
926.779	12943
926.886	12958
926.993	12669
927.099	12681
927.206	12631
927.312	12650
927.419	12745
927.525	12623
927.631	12715
927.737	12551
927.843	12544
927.95	12456
928.056	12403
928.162	12631
928.267	12559
928.373	13088
928.479	12585
928.585	12350
928.69	12490
928.796	12528
928.901	12289
929.007	12239
929.112	12350
929.218	12376
929.323	12266
929.428	12300
929.533	12426
929.638	12159
929.743	12125
929.848	12194
929.953	12270
930.058	12095
930.163	11954
930.267	11923
930.372	12064
930.477	11874
930.581	12041
930.685	11935
930.79	11802
930.894	11790
930.998	11714
931.103	11916
931.207	11581
931.311	11440
931.415	11372
931.519	11174
931.623	11071
