Data from test_V78500241_1579.txt Node
Date: Fri Mar 25 15:52:44 CST 2022
User: usil
Spectrometer: V785-0024
Trigger mode: 0
Integration Time (sec): 4.000000E-1
Scans to average: 1
Nonlinearity correction enabled: false
Boxcar width: 0
Storing dark spectrum: false
XAxis mode: Wavelengths
Number of Pixels in Spectrum: 1024
>>>>>Begin Spectral Data<<<<<
801.071	28067
801.214	27937
801.356	27618
801.499	27542
801.641	27511
801.783	27401
801.926	27511
802.068	27408
802.211	27462
802.353	27382
802.496	27279
802.638	27226
802.78	27165
802.923	27173
803.065	27207
803.208	27039
803.35	27184
803.492	27256
803.635	27367
803.777	27180
803.919	27321
804.061	27614
804.204	27336
804.346	27355
804.488	27188
804.63	27382
804.773	27275
804.915	27488
805.057	27557
805.199	27458
805.341	27321
805.483	27595
805.626	27526
805.768	27336
805.91	27561
806.052	27545
806.194	27439
806.336	27709
806.478	27557
806.62	27564
806.762	27587
806.904	27819
807.046	27998
807.188	27968
807.33	27979
807.472	28029
807.614	27895
807.756	27979
807.898	27812
808.04	27861
808.182	27667
808.324	27800
808.465	27854
808.607	27941
808.749	28093
808.891	28219
809.033	28219
809.174	28192
809.316	28177
809.458	28188
809.6	28169
809.741	28234
809.883	28287
810.025	28409
810.166	28382
810.308	28440
810.45	28367
810.591	28261
810.733	28211
810.875	28219
811.016	28029
811.158	28025
811.299	28204
811.441	28295
811.582	28322
811.724	28150
811.865	28154
812.007	28143
812.148	27945
812.29	28135
812.431	28310
812.573	28341
812.714	28577
812.855	28637
812.997	28949
813.138	28843
813.279	28645
813.421	28653
813.562	28569
813.703	28474
813.845	28280
813.986	28181
814.127	28044
814.268	27838
814.41	27899
814.551	27781
814.692	27804
814.833	27743
814.974	27861
815.115	27816
815.256	27675
815.397	27854
815.539	27675
815.68	27591
815.821	27500
815.962	27625
816.103	27625
816.244	27397
816.385	27485
816.526	27412
816.666	27146
816.807	27142
816.948	27275
817.089	27127
817.23	27184
817.371	27192
817.512	27100
817.653	26971
817.793	27039
817.934	27089
818.075	26956
818.216	27142
818.356	27009
818.497	27032
818.638	26826
818.778	26876
818.919	26929
819.06	26861
819.2	26982
819.341	27146
819.481	27195
819.622	27275
819.762	27401
819.903	27492
820.043	27203
820.184	27176
820.324	27169
820.465	27283
820.605	27180
820.746	27108
820.886	27142
821.026	27260
821.167	27218
821.307	27272
821.447	27169
821.588	27070
821.728	26849
821.868	26838
822.008	26648
822.149	26663
822.289	26507
822.429	26358
822.569	26286
822.709	26351
822.849	26035
822.99	26138
823.13	26081
823.27	25986
823.41	25860
823.55	25822
823.69	25811
823.83	26027
823.97	25921
824.11	25677
824.25	25681
824.389	25738
824.529	25795
824.669	25807
824.809	25841
824.949	25917
825.089	25898
825.228	25753
825.368	25483
825.508	25609
825.648	25753
825.787	25613
825.927	25575
826.067	25681
826.206	25552
826.346	25693
826.485	25700
826.625	25590
826.765	25685
826.904	25510
827.044	25346
827.183	25415
827.323	25346
827.462	25240
827.601	25335
827.741	25350
827.88	25381
828.02	25228
828.159	25270
828.298	25335
828.437	25343
828.577	25289
828.716	25377
828.855	25240
828.994	25091
829.134	24992
829.273	24989
829.412	24920
829.551	24962
829.69	24901
829.829	24878
829.968	25012
830.107	25213
830.246	24924
830.385	24897
830.524	24996
830.663	24764
830.802	24734
830.941	24688
831.08	24635
831.219	24696
831.357	24639
831.496	24913
831.635	24650
831.774	24620
831.913	24445
832.051	24365
832.19	24502
832.329	24505
832.467	24319
832.606	24285
832.744	24350
832.883	24327
833.022	24194
833.16	24365
833.299	24285
833.437	24239
833.576	24388
833.714	24292
833.852	24490
833.991	24369
834.129	24391
834.267	24627
834.406	24376
834.544	24410
834.682	24372
834.821	24330
834.959	24429
835.097	24266
835.235	24399
835.373	24357
835.511	24254
835.65	24311
835.788	24197
835.926	24152
836.064	23969
836.202	24003
836.34	24133
836.478	24235
836.615	24083
836.753	24129
836.891	24285
837.029	24155
837.167	24064
837.305	24018
837.443	24060
837.58	24011
837.718	23992
837.856	24114
837.993	24007
838.131	24018
838.269	23893
838.406	23878
838.544	23809
838.681	23642
838.819	23589
838.956	23482
839.094	23444
839.231	23528
839.369	23630
839.506	23885
839.643	23642
839.781	23547
839.918	23482
840.055	23493
840.193	23440
840.33	23444
840.467	23334
840.604	23433
840.742	23634
840.879	23280
841.016	23322
841.153	23356
841.29	23490
841.427	23501
841.564	23398
841.701	23402
841.838	23448
841.975	23334
842.112	23200
842.249	23326
842.385	23086
842.522	23448
842.659	23379
842.796	23235
842.933	23189
843.069	23094
843.206	23086
843.343	23044
843.479	23242
843.616	23140
843.752	22812
843.889	23159
844.025	22968
844.162	22847
844.298	22923
844.435	22965
844.571	22930
844.708	22961
844.844	23136
844.98	23071
845.117	23083
845.253	22927
845.389	22919
845.525	22866
845.661	22828
845.798	22664
845.934	22755
846.07	22660
846.206	22660
846.342	22713
846.478	22557
846.614	22580
846.75	22398
846.886	22318
847.022	22474
847.158	22493
847.294	22455
847.429	22409
847.565	22497
847.701	22634
847.837	22226
847.972	22162
848.108	22249
848.244	22226
848.379	22147
848.515	22059
848.65	22017
848.786	22173
848.921	22097
849.057	22051
849.192	22101
849.328	21994
849.463	22074
849.598	22010
849.734	21956
849.869	21846
850.004	21884
850.14	21755
850.275	21793
850.41	21720
850.545	21717
850.68	21660
850.815	21743
850.95	21755
851.085	21918
851.22	21846
851.355	21766
851.49	21743
851.625	21736
851.76	21656
851.895	21759
852.03	21770
852.165	21804
852.299	21800
852.434	21785
852.569	21751
852.703	21705
852.838	21732
852.973	21918
853.107	21816
853.242	21663
853.376	21599
853.511	21526
853.645	21629
853.78	21736
853.914	21599
854.048	21622
854.183	21447
854.317	21667
854.451	21747
854.585	21686
854.72	21561
854.854	21667
854.988	21526
855.122	21561
855.256	21397
855.39	21667
855.524	21625
855.658	21606
855.792	21694
855.926	21507
856.06	21587
856.194	21762
856.327	21641
856.461	21469
856.595	21450
856.729	21622
856.862	21823
856.996	21641
857.13	21671
857.263	21633
857.397	21682
857.53	21557
857.664	21686
857.797	21637
857.931	21686
858.064	21667
858.197	21736
858.331	21675
858.464	21469
858.597	21443
858.731	21614
858.864	21519
858.997	21504
859.13	21526
859.263	21603
859.396	21724
859.529	21549
859.662	21656
859.795	21622
859.928	21500
860.061	21732
860.194	21816
860.327	21679
860.46	21618
860.592	21743
860.725	21739
860.858	21739
860.99	21660
861.123	21538
861.256	21545
861.388	21720
861.521	22188
861.653	21408
861.786	21370
861.918	21469
862.05	21473
862.183	21496
862.315	21637
862.447	21774
862.58	21431
862.712	21294
862.844	21275
862.976	21439
863.108	21420
863.24	21759
863.372	21184
863.504	21340
863.636	21317
863.768	21298
863.9	21374
864.032	21180
864.164	21317
864.296	21294
864.428	21382
864.559	21450
864.691	21504
864.823	21207
864.954	21329
865.086	21401
865.217	21199
865.349	21165
865.48	21142
865.612	21291
865.743	21340
865.875	21306
866.006	21268
866.137	21211
866.269	21131
866.4	21207
866.531	21112
866.662	21226
866.793	21195
866.924	21036
867.055	21142
867.186	21176
867.317	21043
867.448	21089
867.579	21108
867.71	21005
867.841	21062
867.972	21051
868.103	21017
868.233	21165
868.364	21127
868.495	21279
868.625	21332
868.756	21557
868.886	21306
869.017	21408
869.147	21424
869.278	21538
869.408	21363
869.539	21397
869.669	21481
869.799	21481
869.929	21599
870.06	21545
870.19	21542
870.32	21633
870.45	21755
870.58	21823
870.71	21918
870.84	21899
870.97	21766
871.1	21804
871.23	21953
871.36	21964
871.489	21941
871.619	21876
871.749	22044
871.879	21915
872.008	22112
872.138	21972
872.267	21972
872.397	21903
872.526	21781
872.656	21800
872.785	21816
872.915	21945
873.044	22226
873.173	22070
873.303	22002
873.432	22086
873.561	22215
873.69	21911
873.819	22044
873.948	22135
874.077	22036
874.206	21975
874.335	21994
874.464	22253
874.593	22242
874.722	22086
874.851	22211
874.979	22150
875.108	22242
875.237	22131
875.365	22169
875.494	22143
875.623	22363
875.751	22196
875.88	22139
876.008	22318
876.136	22402
876.265	22592
876.393	22782
876.521	22774
876.65	22710
876.778	22519
876.906	22546
877.034	22668
877.162	22493
877.29	22455
877.418	22542
877.546	22512
877.674	22603
877.802	22588
877.93	22592
878.058	22531
878.185	22390
878.313	22599
878.441	22538
878.568	22333
878.696	22405
878.824	22596
878.951	22500
879.079	22698
879.206	22843
879.333	22778
879.461	22691
879.588	22740
879.715	22698
879.842	22702
879.97	22561
880.097	22428
880.224	22333
880.351	22386
880.478	22489
880.605	22341
880.732	22192
880.859	22516
880.986	22409
881.112	22325
881.239	22310
881.366	21930
881.493	22067
881.619	21907
881.746	21975
881.872	22070
881.999	21854
882.125	21888
882.252	22032
882.378	21808
882.505	22070
882.631	21953
882.757	21774
882.883	21797
883.01	21679
883.136	21485
883.262	21519
883.388	21477
883.514	21644
883.64	21698
883.766	21603
883.892	21496
884.018	21603
884.143	21447
884.269	21667
884.395	21363
884.52	21161
884.646	21329
884.772	21100
884.897	21146
885.023	21279
885.148	21264
885.274	21367
885.399	21359
885.524	21237
885.65	21325
885.775	21249
885.9	21340
886.025	21401
886.15	21264
886.275	21150
886.4	21287
886.525	21268
886.65	21138
886.775	21138
886.9	21340
887.025	21549
887.149	21081
887.274	21077
887.399	21070
887.523	21116
887.648	20891
887.773	20944
887.897	21127
888.021	21138
888.146	20906
888.27	21169
888.395	21173
888.519	21093
888.643	21028
888.767	21150
888.891	20956
889.015	20754
889.139	20830
889.263	20998
889.387	20921
889.511	21089
889.635	21024
889.759	20830
889.883	20750
890.006	20765
890.13	20864
890.254	20830
890.377	20819
890.501	20663
890.624	20552
890.748	20602
890.871	20564
890.995	20347
891.118	20366
891.241	20408
891.364	20488
891.488	20495
891.611	20328
891.734	20495
891.857	20442
891.98	20317
892.103	20404
892.226	20446
892.349	20423
892.471	20138
892.594	20298
892.717	20309
892.839	20309
892.962	20328
893.085	20377
893.207	20324
893.33	20256
893.452	20259
893.575	20362
893.697	20282
893.819	20438
893.941	20499
894.064	20495
894.186	20172
894.308	20290
894.43	20366
894.552	20381
894.674	20533
894.796	20164
894.918	20259
895.04	20069
895.161	20336
895.283	20412
895.405	20317
895.526	20275
895.648	20301
895.769	20355
895.891	20358
896.012	20393
896.134	20286
896.255	20278
896.376	20320
896.498	20233
896.619	20336
896.74	20244
896.861	20396
896.982	20648
897.103	20830
897.224	20625
897.345	20556
897.466	20450
897.587	20587
897.708	20682
897.828	20518
897.949	20347
898.07	20294
898.19	20438
898.311	20686
898.431	20431
898.552	20469
898.672	20739
898.792	20590
898.913	20579
899.033	20427
899.153	20343
899.273	20164
899.393	20229
899.513	20172
899.633	20256
899.753	20267
899.873	20176
899.993	20237
900.113	20256
900.232	20259
900.352	20180
900.472	20149
900.591	20035
900.711	20130
900.83	19982
900.95	20176
901.069	20069
901.189	19989
901.308	19700
901.427	19772
901.546	19544
901.665	19586
901.784	19605
901.904	19502
902.023	19354
902.141	19190
902.26	19076
902.379	19202
902.498	19171
902.617	19160
902.735	19183
902.854	19046
902.973	19126
903.091	18856
903.21	18848
903.328	18722
903.446	18700
903.565	18593
903.683	18547
903.801	18460
903.919	18635
904.038	18525
904.156	18391
904.274	18471
904.392	18452
904.51	18369
904.627	18357
904.745	18353
904.863	18323
904.981	18224
905.098	18117
905.216	18095
905.334	18129
905.451	18057
905.569	17935
905.686	18095
905.803	18098
905.921	17813
906.038	17992
906.155	17824
906.272	17707
906.389	17741
906.506	17596
906.623	17642
906.74	17577
906.857	17436
906.974	17558
907.091	17627
907.208	17714
907.324	17619
907.441	17566
907.557	17280
907.674	17296
907.79	17246
907.907	17220
908.023	17299
908.139	17311
908.256	17200
908.372	17204
908.488	17143
908.604	16961
908.72	16942
908.836	17048
908.952	17052
909.068	17003
909.184	17117
909.3	16991
909.415	17117
909.531	16984
909.647	16774
909.762	16710
909.878	16763
909.993	16687
910.108	16645
910.224	16637
910.339	16615
910.454	16546
910.57	16440
910.685	16451
910.8	16778
910.915	16603
911.03	16462
911.145	16322
911.259	16261
911.374	16246
911.489	16169
911.604	16139
911.718	15941
911.833	15998
911.947	15998
912.062	15964
912.176	16097
912.291	16051
912.405	16154
912.519	16246
912.633	16230
912.748	15918
912.862	16078
912.976	15869
913.09	15816
913.204	15762
913.318	15892
913.431	15972
913.545	15930
913.659	15922
913.772	15785
913.886	15694
914	15675
914.113	15823
914.226	15747
914.34	15804
914.453	15614
914.566	15732
914.68	15485
914.793	15496
914.906	15408
915.019	15157
915.132	15119
915.245	15252
915.358	15310
915.47	15249
915.583	15256
915.696	15363
915.809	15363
915.921	15511
916.034	15241
916.146	15218
916.259	15081
916.371	15226
916.483	15230
916.595	15211
916.708	15119
916.82	15195
916.932	15112
917.044	15135
917.156	15036
917.268	14956
917.38	15085
917.491	14918
917.603	15001
917.715	14925
917.826	14994
917.938	14834
918.049	14842
918.161	14918
918.272	15085
918.384	14994
918.495	14853
918.606	14701
918.717	14648
918.828	14765
918.939	14735
919.05	14587
919.161	14708
919.272	14469
919.383	14533
919.494	14758
919.604	14929
919.715	14807
919.826	14632
919.936	14663
920.047	14769
920.157	14686
920.267	14842
920.378	14773
920.488	14674
920.598	14781
920.708	15020
920.818	14853
920.928	14800
921.038	14982
921.148	15074
921.258	14537
921.368	14522
921.477	14305
921.587	14362
921.697	14267
921.806	14423
921.916	14267
922.025	14126
922.134	13997
922.244	13993
922.353	14077
922.462	13959
922.571	13868
922.68	13776
922.789	13731
922.898	13704
923.007	13693
923.116	13597
923.224	13784
923.333	13658
923.442	13518
923.55	13518
923.659	13647
923.767	13651
923.876	13495
923.984	13449
924.092	13400
924.201	13362
924.309	13480
924.417	13400
924.525	13285
924.633	13244
924.741	14286
924.849	13114
924.956	13285
925.064	13156
925.172	12989
925.279	13152
925.387	13110
925.494	13107
925.602	13152
925.709	13107
925.816	13004
925.924	12954
926.031	13080
926.138	13034
926.245	13103
926.352	12981
926.459	13099
926.566	13190
926.673	12943
926.779	12859
926.886	12878
926.993	12669
927.099	12631
927.206	12627
927.312	12635
927.419	12715
927.525	12528
927.631	12631
927.737	12589
927.843	12528
927.95	12422
928.056	12494
928.162	12369
928.267	12475
928.373	13137
928.479	12517
928.585	12346
928.69	12410
928.796	12566
928.901	12452
929.007	12175
929.112	12277
929.218	12243
929.323	12273
929.428	12296
929.533	12334
929.638	12163
929.743	12155
929.848	12270
929.953	12068
930.058	12049
930.163	11908
930.267	11950
930.372	12083
930.477	11836
930.581	12079
930.685	11942
930.79	11737
930.894	11809
930.998	11726
931.103	11893
931.207	11528
931.311	11471
931.415	11318
931.519	11258
931.623	11181
