Data from test_V78500241_3700.txt Node
Date: Fri Mar 25 16:07:25 CST 2022
User: usil
Spectrometer: V785-0024
Trigger mode: 0
Integration Time (sec): 4.000000E-1
Scans to average: 1
Nonlinearity correction enabled: false
Boxcar width: 0
Storing dark spectrum: false
XAxis mode: Wavelengths
Number of Pixels in Spectrum: 1024
>>>>>Begin Spectral Data<<<<<
801.071	28401
801.214	28215
801.356	28040
801.499	28185
801.641	27827
801.783	27846
801.926	27949
802.068	27991
802.211	27884
802.353	27953
802.496	27705
802.638	27778
802.78	27625
802.923	27492
803.065	27534
803.208	27496
803.35	27622
803.492	27743
803.635	27888
803.777	27682
803.919	27914
804.061	28253
804.204	27850
804.346	27926
804.488	27789
804.63	27914
804.773	27629
804.915	27907
805.057	27831
805.199	27918
805.341	28029
805.483	28036
805.626	28040
805.768	27804
805.91	27899
806.052	27888
806.194	27827
806.336	28162
806.478	28177
806.62	28059
806.762	28006
806.904	28325
807.046	28493
807.188	28401
807.33	28523
807.472	28455
807.614	28333
807.756	28341
807.898	28299
808.04	28257
808.182	28306
808.324	28207
808.465	28344
808.607	28481
808.749	28733
808.891	28729
809.033	28759
809.174	28683
809.316	28615
809.458	28599
809.6	28645
809.741	28733
809.883	28774
810.025	28896
810.166	28957
810.308	28911
810.45	28919
810.591	28915
810.733	28763
810.875	28721
811.016	28500
811.158	28554
811.299	28729
811.441	28744
811.582	28854
811.724	28687
811.865	28656
812.007	28752
812.148	28569
812.29	28656
812.431	29003
812.573	29025
812.714	29025
812.855	29140
812.997	29398
813.138	29501
813.279	29307
813.421	29246
813.562	29052
813.703	29048
813.845	28885
813.986	28615
814.127	28417
814.268	28367
814.41	28557
814.551	28337
814.692	28428
814.833	28097
814.974	28504
815.115	28440
815.256	28352
815.397	28109
815.539	28246
815.68	28147
815.821	28070
815.962	28192
816.103	28109
816.244	28063
816.385	27979
816.526	27941
816.666	27705
816.807	27663
816.948	27816
817.089	27812
817.23	27641
817.371	27644
817.512	27576
817.653	27606
817.793	27519
817.934	27816
818.075	27641
818.216	27698
818.356	27603
818.497	27526
818.638	27412
818.778	27454
818.919	27313
819.06	27641
819.2	27591
819.341	27682
819.481	27641
819.622	27736
819.762	28086
819.903	27895
820.043	27888
820.184	27785
820.324	27895
820.465	27759
820.605	27747
820.746	27682
820.886	27591
821.026	27739
821.167	27717
821.307	27808
821.447	27747
821.588	27519
821.728	27386
821.868	27378
822.008	27306
822.149	27222
822.289	27173
822.429	26921
822.569	26807
822.709	26876
822.849	26811
822.99	26689
823.13	26663
823.27	26583
823.41	26358
823.55	26396
823.69	26453
823.83	26457
823.97	26381
824.11	26275
824.25	26252
824.389	26317
824.529	26278
824.669	26282
824.809	26434
824.949	26480
825.089	26480
825.228	26332
825.368	26096
825.508	26278
825.648	26145
825.787	26305
825.927	26172
826.067	26210
826.206	26149
826.346	26294
826.485	26134
826.625	26347
826.765	26320
826.904	26305
827.044	26031
827.183	26043
827.323	25894
827.462	25925
827.601	25826
827.741	25845
827.88	25997
828.02	25712
828.159	25913
828.298	25780
828.437	26005
828.577	25799
828.716	25921
828.855	25788
828.994	25567
829.134	25750
829.273	25601
829.412	25643
829.551	25632
829.69	25689
829.829	25647
829.968	25765
830.107	25609
830.246	25605
830.385	25434
830.524	25533
830.663	25453
830.802	25225
830.941	25221
831.08	25133
831.219	25343
831.357	25278
831.496	25419
831.635	25194
831.774	25122
831.913	25088
832.051	25065
832.19	24962
832.329	24989
832.467	24871
832.606	24749
832.744	24821
832.883	24806
833.022	24928
833.16	24916
833.299	24920
833.437	25012
833.576	24943
833.714	24985
833.852	24916
833.991	25004
834.129	25110
834.267	24932
834.406	24996
834.544	24962
834.682	24924
834.821	24875
834.959	25122
835.097	24913
835.235	24951
835.373	24935
835.511	24985
835.65	24802
835.788	24806
835.926	24776
836.064	24734
836.202	24616
836.34	24814
836.478	24798
836.615	24688
836.753	24814
836.891	24859
837.029	24856
837.167	24715
837.305	24692
837.443	24639
837.58	24452
837.718	24715
837.856	24589
837.993	24483
838.131	24498
838.269	24483
838.406	24483
838.544	24418
838.681	24194
838.819	24243
838.956	24053
839.094	24038
839.231	24167
839.369	24308
839.506	24471
839.643	24384
839.781	24072
839.918	23977
840.055	24076
840.193	24022
840.33	23927
840.467	23969
840.604	24011
840.742	24106
840.879	23798
841.016	23946
841.153	23904
841.29	24129
841.427	23954
841.564	24125
841.701	23901
841.838	24045
841.975	23920
842.112	23836
842.249	23878
842.385	23802
842.522	23950
842.659	23866
842.796	23741
842.933	23718
843.069	23665
843.206	23668
843.343	23794
843.479	23847
843.616	23589
843.752	23600
843.889	23558
844.025	23676
844.162	23505
844.298	23520
844.435	23539
844.571	23322
844.708	23543
844.844	23589
844.98	23687
845.117	23714
845.253	23474
845.389	23330
845.525	23414
845.661	23280
845.798	23204
845.934	23368
846.07	23364
846.206	23356
846.342	23334
846.478	23250
846.614	23029
846.75	22927
846.886	22919
847.022	22965
847.158	22957
847.294	23006
847.429	22991
847.565	22987
847.701	23181
847.837	22592
847.972	22675
848.108	22839
848.244	22759
848.379	22599
848.515	22428
848.65	22557
848.786	22557
848.921	22504
849.057	22729
849.192	22596
849.328	22478
849.463	22470
849.598	22413
849.734	22413
849.869	22485
850.004	22303
850.14	22459
850.275	22417
850.41	22253
850.545	22276
850.68	22211
850.815	22443
850.95	22246
851.085	22542
851.22	22386
851.355	22398
851.49	22318
851.625	22211
851.76	22272
851.895	22166
852.03	22257
852.165	22390
852.299	22360
852.434	22272
852.569	22322
852.703	22341
852.838	22348
852.973	22481
853.107	22394
853.242	22280
853.376	22200
853.511	22055
853.645	22128
853.78	22192
853.914	22112
854.048	22082
854.183	22101
854.317	22200
854.451	22234
854.585	22109
854.72	22051
854.854	22238
854.988	22154
855.122	22078
855.256	21987
855.39	22207
855.524	22295
855.658	22147
855.792	22192
855.926	22154
856.06	22128
856.194	22287
856.327	22120
856.461	22158
856.595	22147
856.729	22059
856.862	22242
856.996	22101
857.13	22234
857.263	22246
857.397	22185
857.53	22093
857.664	22276
857.797	22131
857.931	22249
858.064	22188
858.197	22265
858.331	22192
858.464	22070
858.597	22070
858.731	22074
858.864	22128
858.997	22029
859.13	22211
859.263	22120
859.396	22154
859.529	22192
859.662	22120
859.795	22128
859.928	22188
860.061	22284
860.194	22249
860.327	22223
860.46	22188
860.592	22147
860.725	22356
860.858	22276
860.99	22169
861.123	22082
861.256	22120
861.388	22230
861.521	22904
861.653	21975
861.786	21979
861.918	22029
862.05	22074
862.183	21994
862.315	22131
862.447	22211
862.58	21964
862.712	21827
862.844	21797
862.976	21979
863.108	22040
863.24	22322
863.372	21857
863.504	21728
863.636	21915
863.768	21880
863.9	21819
864.032	21785
864.164	21732
864.296	21861
864.428	21972
864.559	22006
864.691	21915
864.823	21755
864.954	21827
865.086	21800
865.217	21789
865.349	21576
865.48	21739
865.612	21728
865.743	21759
865.875	21633
866.006	21694
866.137	21785
866.269	21755
866.4	21720
866.531	21648
866.662	21595
866.793	21701
866.924	21682
867.055	21728
867.186	21679
867.317	21701
867.448	21538
867.579	21542
867.71	21667
867.841	21485
867.972	21660
868.103	21648
868.233	21667
868.364	21572
868.495	21717
868.625	21918
868.756	22086
868.886	21831
869.017	21964
869.147	22029
869.278	21987
869.408	21934
869.539	21922
869.669	21915
869.799	21930
869.929	22036
870.06	22013
870.19	22223
870.32	22139
870.45	22154
870.58	22333
870.71	22386
870.84	22432
870.97	22352
871.1	22325
871.23	22531
871.36	22561
871.489	22436
871.619	22565
871.749	22417
871.879	22603
872.008	22588
872.138	22535
872.267	22653
872.397	22371
872.526	22318
872.656	22379
872.785	22436
872.915	22675
873.044	22527
873.173	22561
873.303	22527
873.432	22550
873.561	22626
873.69	22424
873.819	22531
873.948	22630
874.077	22577
874.206	22478
874.335	22481
874.464	22706
874.593	22733
874.722	22683
874.851	22755
874.979	22782
875.108	22717
875.237	22603
875.365	22637
875.494	22717
875.623	22809
875.751	22672
875.88	22805
876.008	22873
876.136	22847
876.265	23143
876.393	23337
876.521	23178
876.65	23155
876.778	23090
876.906	23029
877.034	22892
877.162	23132
877.29	22953
877.418	23033
877.546	23147
877.674	23239
877.802	23022
877.93	23113
878.058	23098
878.185	22930
878.313	23029
878.441	23037
878.568	22911
878.696	23033
878.824	23155
878.951	23105
879.079	23334
879.206	23345
879.333	23326
879.461	23098
879.588	23200
879.715	23261
879.842	23528
879.97	23102
880.097	22911
880.224	22957
880.351	22908
880.478	22965
880.605	22854
880.732	23014
880.859	23208
880.986	22858
881.112	22999
881.239	22710
881.366	22660
881.493	22531
881.619	22573
881.746	22519
881.872	22440
881.999	22466
882.125	22451
882.252	22569
882.378	22535
882.505	22478
882.631	22352
882.757	22196
882.883	22291
883.01	22116
883.136	22215
883.262	21937
883.388	21937
883.514	22192
883.64	22166
883.766	21987
883.892	22025
884.018	22021
884.143	22120
884.269	22177
884.395	21808
884.52	21816
884.646	21755
884.772	21728
884.897	21633
885.023	21781
885.148	21922
885.274	22063
885.399	21865
885.524	21812
885.65	21778
885.775	21911
885.9	21690
886.025	22017
886.15	21842
886.275	21751
886.4	21679
886.525	21800
886.65	21629
886.775	21686
886.9	21770
887.025	22010
887.149	21804
887.274	21568
887.399	21500
887.523	21561
887.648	21625
887.773	21443
887.897	21641
888.021	21549
888.146	21473
888.27	21781
888.395	21652
888.519	21572
888.643	21564
888.767	21591
888.891	21386
889.015	21462
889.139	21389
889.263	21306
889.387	21367
889.511	21557
889.635	21504
889.759	21302
889.883	21317
890.006	21431
890.13	21473
890.254	21268
890.377	21382
890.501	20990
890.624	20979
890.748	21028
890.871	21039
890.995	20948
891.118	20887
891.241	20876
891.364	20929
891.488	21009
891.611	20925
891.734	20929
891.857	20982
891.98	20990
892.103	20960
892.226	20929
892.349	20921
892.471	20716
892.594	20823
892.717	20773
892.839	20720
892.962	20739
893.085	20712
893.207	20758
893.33	20667
893.452	20655
893.575	20883
893.697	20807
893.819	20948
893.941	20899
894.064	20925
894.186	20689
894.308	20781
894.43	20857
894.552	20937
894.674	20941
894.796	20640
894.918	20826
895.04	20648
895.161	20891
895.283	20845
895.405	20750
895.526	20743
895.648	20686
895.769	20845
895.891	20834
896.012	20880
896.134	20876
896.255	20716
896.376	20781
896.498	20739
896.619	20853
896.74	20815
896.861	20788
896.982	21184
897.103	21233
897.224	21005
897.345	21081
897.466	20929
897.587	21020
897.708	21085
897.828	21135
897.949	20880
898.07	20834
898.19	20815
898.311	21154
898.431	20960
898.552	21081
898.672	21047
898.792	21146
898.913	21001
899.033	20845
899.153	20705
899.273	20693
899.393	20735
899.513	20708
899.633	20796
899.753	20659
899.873	20739
899.993	20670
900.113	20682
900.232	20739
900.352	20625
900.472	20644
900.591	20556
900.711	20571
900.83	20427
900.95	20613
901.069	20537
901.189	20396
901.308	20199
901.427	20164
901.546	20092
901.665	20039
901.784	20122
901.904	19913
902.023	19841
902.141	19540
902.26	19552
902.379	19799
902.498	19658
902.617	19487
902.735	19689
902.854	19514
902.973	19605
903.091	19301
903.21	19270
903.328	19179
903.446	19175
903.565	19019
903.683	19069
903.801	18981
903.919	19042
904.038	18962
904.156	18787
904.274	18939
904.392	18764
904.51	18703
904.627	18779
904.745	18829
904.863	18749
904.981	18623
905.098	18353
905.216	18433
905.334	18597
905.451	18407
905.569	18513
905.686	18593
905.803	18498
905.921	18251
906.038	18456
906.155	18281
906.272	18140
906.389	18098
906.506	17984
906.623	18019
906.74	17893
906.857	17882
906.974	17996
907.091	18015
907.208	17961
907.324	18095
907.441	17897
907.557	17661
907.674	17775
907.79	17676
907.907	17672
908.023	17729
908.139	17726
908.256	17710
908.372	17630
908.488	17634
908.604	17440
908.72	17398
908.836	17474
908.952	17383
909.068	17459
909.184	17467
909.3	17433
909.415	17440
909.531	17376
909.647	17258
909.762	17109
909.878	17090
909.993	17189
910.108	17041
910.224	16987
910.339	17094
910.454	16957
910.57	16881
910.685	16793
910.8	17117
910.915	17056
911.03	16740
911.145	16736
911.259	16702
911.374	16710
911.489	16653
911.604	16512
911.718	16451
911.833	16519
911.947	16341
912.062	16299
912.176	16542
912.291	16398
912.405	16409
912.519	16687
912.633	16637
912.748	16443
912.862	16489
912.976	16230
913.09	16188
913.204	16238
913.318	16204
913.431	16333
913.545	16356
913.659	16272
913.772	16219
913.886	16074
914	16040
914.113	16185
914.226	16154
914.34	16086
914.453	15987
914.566	16116
914.68	16010
914.793	15934
914.906	15751
915.019	15584
915.132	15637
915.245	15614
915.358	15587
915.47	15637
915.583	15656
915.696	15625
915.809	15709
915.921	15812
916.034	15614
916.146	15428
916.259	15530
916.371	15701
916.483	15599
916.595	15439
916.708	15393
916.82	15458
916.932	15389
917.044	15363
917.156	15370
917.268	15306
917.38	15332
917.491	15370
917.603	15283
917.715	15275
917.826	15332
917.938	15230
918.049	14990
918.161	15203
918.272	15241
918.384	15306
918.495	15195
918.606	15100
918.717	14982
918.828	15013
918.939	15142
919.05	14861
919.161	15081
919.272	14697
919.383	14758
919.494	15138
919.604	15245
919.715	14971
919.826	14857
919.936	14914
920.047	15055
920.157	15047
920.267	15192
920.378	14883
920.488	14982
920.598	15138
920.708	15245
920.818	15112
920.928	15047
921.038	15207
921.148	15222
921.258	14883
921.368	14693
921.477	14750
921.587	14743
921.697	14571
921.806	14708
921.916	14518
922.025	14438
922.134	14370
922.244	14332
922.353	14301
922.462	14210
922.571	14221
922.68	13989
922.789	13989
922.898	14008
923.007	13913
923.116	14058
923.224	13967
923.333	13906
923.442	13860
923.55	13776
923.659	13761
923.767	13887
923.876	13753
923.984	13811
924.092	13689
924.201	13696
924.309	13712
924.417	13681
924.525	13666
924.633	13761
924.741	14465
924.849	13316
924.956	13556
925.064	13426
925.172	13316
925.279	13339
925.387	13282
925.494	13350
925.602	13506
925.709	13430
925.816	13297
925.924	13301
926.031	13411
926.138	13308
926.245	13381
926.352	13160
926.459	13293
926.566	13468
926.673	13194
926.779	13175
926.886	13069
926.993	12977
927.099	12890
927.206	12878
927.312	12852
927.419	12901
927.525	12856
927.631	12909
927.737	12814
927.843	12760
927.95	12639
928.056	12734
928.162	12867
928.267	12798
928.373	13407
928.479	12779
928.585	12597
928.69	12665
928.796	12665
928.901	12604
929.007	12357
929.112	12536
929.218	12574
929.323	12456
929.428	12490
929.533	12623
929.638	12319
929.743	12304
929.848	12426
929.953	12403
930.058	12243
930.163	12159
930.267	12133
930.372	12254
930.477	12171
930.581	12232
930.685	12186
930.79	11984
930.894	11992
930.998	12003
931.103	12152
931.207	11741
931.311	11649
931.415	11589
931.519	11364
931.623	11410
