Data from test_V78500241_983.txt Node
Date: Fri Mar 25 15:48:36 CST 2022
User: usil
Spectrometer: V785-0024
Trigger mode: 0
Integration Time (sec): 4.000000E-1
Scans to average: 1
Nonlinearity correction enabled: false
Boxcar width: 0
Storing dark spectrum: false
XAxis mode: Wavelengths
Number of Pixels in Spectrum: 1024
>>>>>Begin Spectral Data<<<<<
801.071	28573
801.214	28447
801.356	28215
801.499	28185
801.641	28078
801.783	28188
801.926	28188
802.068	28021
802.211	28147
802.353	27838
802.496	27869
802.638	27713
802.78	27804
802.923	27774
803.065	27736
803.208	27766
803.35	27800
803.492	27739
803.635	28002
803.777	27873
803.919	28105
804.061	28310
804.204	28002
804.346	27914
804.488	27816
804.63	27975
804.773	27846
804.915	28010
805.057	28135
805.199	27926
805.341	28120
805.483	28082
805.626	28268
805.768	28029
805.91	28234
806.052	28166
806.194	28162
806.336	28341
806.478	28162
806.62	28051
806.762	28314
806.904	28440
807.046	28668
807.188	28527
807.33	28516
807.472	28626
807.614	28542
807.756	28527
807.898	28440
808.04	28462
808.182	28466
808.324	28485
808.465	28432
808.607	28660
808.749	28748
808.891	28942
809.033	29048
809.174	28816
809.316	28847
809.458	28866
809.6	28702
809.741	29071
809.883	29098
810.025	29147
810.166	29189
810.308	29079
810.45	29121
810.591	29132
810.733	28900
810.875	28786
811.016	28839
811.158	28797
811.299	28957
811.441	29048
811.582	29056
811.724	28919
811.865	28908
812.007	28904
812.148	28843
812.29	28976
812.431	29143
812.573	29067
812.714	29246
812.855	29452
812.997	29554
813.138	29509
813.279	29535
813.421	29463
813.562	29429
813.703	29326
813.845	29162
813.986	28831
814.127	28706
814.268	28538
814.41	28672
814.551	28573
814.692	28664
814.833	28550
814.974	28405
815.115	28649
815.256	28497
815.397	28348
815.539	28459
815.68	28424
815.821	28337
815.962	28470
816.103	28398
816.244	28223
816.385	28303
816.526	28112
816.666	28025
816.807	27873
816.948	27991
817.089	28147
817.23	27983
817.371	27937
817.512	27850
817.653	27876
817.793	27747
817.934	27797
818.075	27983
818.216	27876
818.356	27770
818.497	27781
818.638	27713
818.778	27572
818.919	27713
819.06	27797
819.2	27774
819.341	27778
819.481	27808
819.622	28116
819.762	28204
819.903	28154
820.043	28086
820.184	28010
820.324	28109
820.465	28063
820.605	27953
820.746	28010
820.886	28029
821.026	27861
821.167	27888
821.307	28036
821.447	27876
821.588	27888
821.728	27747
821.868	27705
822.008	27431
822.149	27329
822.289	27302
822.429	27093
822.569	27055
822.709	27093
822.849	26895
822.99	26876
823.13	26788
823.27	26902
823.41	26765
823.55	26674
823.69	26632
823.83	26762
823.97	26781
824.11	26488
824.25	26488
824.389	26579
824.529	26689
824.669	26640
824.809	26663
824.949	26598
825.089	26625
825.228	26480
825.368	26415
825.508	26298
825.648	26526
825.787	26518
825.927	26457
826.067	26438
826.206	26473
826.346	26442
826.485	26606
826.625	26480
826.765	26419
826.904	26427
827.044	26176
827.183	26267
827.323	26187
827.462	26263
827.601	26183
827.741	26126
827.88	26199
828.02	26119
828.159	26115
828.298	26157
828.437	26305
828.577	26195
828.716	26161
828.855	25974
828.994	25746
829.134	26031
829.273	25814
829.412	25769
829.551	25906
829.69	25936
829.829	25932
829.968	25818
830.107	25936
830.246	25784
830.385	25628
830.524	25772
830.663	25601
830.802	25571
830.941	25487
831.08	25476
831.219	25624
831.357	25495
831.496	25769
831.635	25491
831.774	25217
831.913	25187
832.051	25206
832.19	25327
832.329	25225
832.467	25099
832.606	25065
832.744	25141
832.883	25114
833.022	25126
833.16	25080
833.299	25202
833.437	25164
833.576	25209
833.714	25190
833.852	25244
833.991	25217
834.129	25289
834.267	25392
834.406	25148
834.544	25263
834.682	25232
834.821	25080
834.959	25403
835.097	25164
835.235	25202
835.373	25141
835.511	25141
835.65	24958
835.788	25084
835.926	24810
836.064	24962
836.202	24681
836.34	25190
836.478	25042
836.615	24875
836.753	25042
836.891	25038
837.029	25019
837.167	24996
837.305	24894
837.443	24890
837.58	24722
837.718	24886
837.856	24913
837.993	24719
838.131	24711
838.269	24661
838.406	24730
838.544	24578
838.681	24475
838.819	24563
838.956	24285
839.094	24186
839.231	24369
839.369	24528
839.506	24589
839.643	24612
839.781	24330
839.918	24194
840.055	24262
840.193	24190
840.33	24228
840.467	24224
840.604	24148
840.742	24464
840.879	24041
841.016	24194
841.153	24182
841.29	24190
841.427	24273
841.564	24194
841.701	24186
841.838	24110
841.975	24110
842.112	24038
842.249	23958
842.385	23901
842.522	24098
842.659	24144
842.796	23980
842.933	23931
843.069	23863
843.206	24011
843.343	23996
843.479	23950
843.616	23920
843.752	23646
843.889	23703
844.025	23817
844.162	23691
844.298	23859
844.435	23832
844.571	23691
844.708	23615
844.844	23885
844.98	23764
845.117	23843
845.253	23653
845.389	23649
845.525	23562
845.661	23516
845.798	23406
845.934	23566
846.07	23436
846.206	23459
846.342	23604
846.478	23474
846.614	23303
846.75	23109
846.886	23102
847.022	23269
847.158	23223
847.294	23044
847.429	23170
847.565	23010
847.701	23425
847.837	22968
847.972	22873
848.108	22995
848.244	22862
848.379	22759
848.515	22702
848.65	22816
848.786	22710
848.921	22782
849.057	22847
849.192	22831
849.328	22767
849.463	22729
849.598	22710
849.734	22641
849.869	22542
850.004	22451
850.14	22523
850.275	22599
850.41	22375
850.545	22508
850.68	22440
850.815	22679
850.95	22481
851.085	22702
851.22	22637
851.355	22565
851.49	22569
851.625	22485
851.76	22580
851.895	22413
852.03	22466
852.165	22436
852.299	22516
852.434	22694
852.569	22519
852.703	22596
852.838	22603
852.973	22535
853.107	22679
853.242	22485
853.376	22223
853.511	22284
853.645	22314
853.78	22344
853.914	22375
854.048	22287
854.183	22497
854.317	22424
854.451	22432
854.585	22382
854.72	22303
854.854	22394
854.988	22253
855.122	22405
855.256	22219
855.39	22493
855.524	22398
855.658	22421
855.792	22265
855.926	22348
856.06	22424
856.194	22478
856.327	22265
856.461	22265
856.595	22303
856.729	22314
856.862	22394
856.996	22337
857.13	22390
857.263	22493
857.397	22512
857.53	22322
857.664	22344
857.797	22413
857.931	22417
858.064	22405
858.197	22443
858.331	22261
858.464	22337
858.597	22207
858.731	22299
858.864	22318
858.997	22234
859.13	22295
859.263	22204
859.396	22462
859.529	22238
859.662	22265
859.795	22291
859.928	22356
860.061	22474
860.194	22531
860.327	22424
860.46	22344
860.592	22508
860.725	22569
860.858	22504
860.99	22287
861.123	22303
861.256	22295
861.388	22253
861.521	23022
861.653	22135
861.786	22158
861.918	22135
862.05	22337
862.183	22333
862.315	22375
862.447	22390
862.58	22215
862.712	22032
862.844	21972
862.976	22093
863.108	22109
863.24	22440
863.372	21983
863.504	21956
863.636	22070
863.768	22055
863.9	22207
864.032	22010
864.164	21972
864.296	22059
864.428	22124
864.559	22051
864.691	22029
864.823	22116
864.954	21941
865.086	22032
865.217	21892
865.349	21922
865.48	21983
865.612	22078
865.743	22078
865.875	21941
866.006	22036
866.137	21857
866.269	21880
866.4	21869
866.531	21846
866.662	21865
866.793	21713
866.924	21975
867.055	21915
867.186	21880
867.317	21850
867.448	21667
867.579	21850
867.71	21568
867.841	21823
867.972	21865
868.103	21827
868.233	21861
868.364	21865
868.495	21949
868.625	22044
868.756	22192
868.886	21975
869.017	22109
869.147	22223
869.278	22257
869.408	22025
869.539	22131
869.669	22204
869.799	22051
869.929	22238
870.06	22124
870.19	22500
870.32	22443
870.45	22402
870.58	22504
870.71	22497
870.84	22618
870.97	22554
871.1	22421
871.23	22713
871.36	22706
871.489	22512
871.619	22713
871.749	22660
871.879	22755
872.008	22649
872.138	22672
872.267	22592
872.397	22596
872.526	22554
872.656	22519
872.785	22538
872.915	22694
873.044	22835
873.173	22816
873.303	22729
873.432	22721
873.561	22748
873.69	22710
873.819	22618
873.948	22713
874.077	22679
874.206	22721
874.335	22801
874.464	22847
874.593	22900
874.722	23022
874.851	22881
874.979	23022
875.108	22919
875.237	22896
875.365	22801
875.494	22904
875.623	22828
875.751	22759
875.88	22877
876.008	23132
876.136	23102
876.265	23349
876.393	23455
876.521	23406
876.65	23414
876.778	23277
876.906	23197
877.034	23185
877.162	23288
877.29	23220
877.418	23231
877.546	23292
877.674	23220
877.802	23265
877.93	23208
878.058	23151
878.185	23025
878.313	23124
878.441	23212
878.568	23216
878.696	23296
878.824	23334
878.951	23299
879.079	23455
879.206	23566
879.333	23505
879.461	23417
879.588	23535
879.715	23448
879.842	23429
879.97	23364
880.097	23098
880.224	23086
880.351	23143
880.478	23200
880.605	23178
880.732	23071
880.859	23337
880.986	22923
881.112	23121
881.239	22953
881.366	22953
881.493	22755
881.619	22782
881.746	22805
881.872	22748
881.999	22774
882.125	22466
882.252	22672
882.378	22691
882.505	22729
882.631	22596
882.757	22341
882.883	22344
883.01	22394
883.136	22276
883.262	22242
883.388	22124
883.514	22432
883.64	22386
883.766	22268
883.892	22051
884.018	22234
884.143	22230
884.269	22303
884.395	22093
884.52	21918
884.646	22040
884.772	21949
884.897	21907
885.023	21922
885.148	22055
885.274	22207
885.399	22036
885.524	22109
885.65	22029
885.775	21975
885.9	22036
886.025	22040
886.15	22074
886.275	21975
886.4	21854
886.525	21934
886.65	21915
886.775	21915
886.9	22036
887.025	22230
887.149	21934
887.274	21720
887.399	21717
887.523	21778
887.648	21759
887.773	21755
887.897	21835
888.021	21671
888.146	21637
888.27	21831
888.395	21922
888.519	21857
888.643	21778
888.767	21755
888.891	21591
889.015	21561
889.139	21679
889.263	21439
889.387	21698
889.511	21751
889.635	21667
889.759	21485
889.883	21599
890.006	21492
890.13	21644
890.254	21374
890.377	21504
890.501	21359
890.624	21127
890.748	21268
890.871	21214
890.995	21066
891.118	21112
891.241	20944
891.364	21085
891.488	21165
891.611	21100
891.734	21108
891.857	21119
891.98	20994
892.103	21192
892.226	21017
892.349	20963
892.471	20948
892.594	21043
892.717	20979
892.839	20941
892.962	21036
893.085	21077
893.207	20971
893.33	20807
893.452	20921
893.575	21043
893.697	20925
893.819	21138
893.941	21165
894.064	21138
894.186	20883
894.308	20929
894.43	20986
894.552	21085
894.674	21089
894.796	20891
894.918	20906
895.04	20899
895.161	21077
895.283	20826
895.405	20944
895.526	20914
895.648	20815
895.769	20925
895.891	21005
896.012	21005
896.134	21077
896.255	20994
896.376	20941
896.498	20910
896.619	20853
896.74	20857
896.861	21047
896.982	21287
897.103	21382
897.224	21233
897.345	21302
897.466	21104
897.587	21199
897.708	21321
897.828	21188
897.949	21165
898.07	21024
898.19	21237
898.311	21192
898.431	21214
898.552	21116
898.672	21294
898.792	21180
898.913	21195
899.033	21039
899.153	21036
899.273	20864
899.393	20990
899.513	20956
899.633	20826
899.753	20781
899.873	20823
899.993	20921
900.113	20826
900.232	20807
900.352	20796
900.472	20735
900.591	20526
900.711	20663
900.83	20659
900.95	20731
901.069	20689
901.189	20499
901.308	20434
901.427	20210
901.546	20278
901.665	20278
901.784	20282
901.904	19974
902.023	20027
902.141	19727
902.26	19879
902.379	19784
902.498	19651
902.617	19727
902.735	19814
902.854	19613
902.973	19689
903.091	19510
903.21	19362
903.328	19419
903.446	19206
903.565	19126
903.683	19168
903.801	19065
903.919	19091
904.038	19232
904.156	18935
904.274	19076
904.392	19008
904.51	19031
904.627	19000
904.745	19008
904.863	19000
904.981	18696
905.098	18673
905.216	18597
905.334	18688
905.451	18745
905.569	18604
905.686	18601
905.803	18574
905.921	18445
906.038	18540
906.155	18334
906.272	18285
906.389	18388
906.506	18209
906.623	18216
906.74	18102
906.857	17988
906.974	18209
907.091	18144
907.208	18228
907.324	18144
907.441	18091
907.557	17923
907.674	17927
907.79	17817
907.907	17805
908.023	17923
908.139	17832
908.256	17798
908.372	17737
908.488	17699
908.604	17649
908.72	17577
908.836	17653
908.952	17501
909.068	17570
909.184	17661
909.3	17493
909.415	17608
909.531	17505
909.647	17303
909.762	17250
909.878	17220
909.993	17223
910.108	17258
910.224	17170
910.339	17200
910.454	17075
910.57	17014
910.685	17075
910.8	17345
910.915	17155
911.03	17067
911.145	16839
911.259	16828
911.374	16744
911.489	16896
911.604	16729
911.718	16634
911.833	16683
911.947	16546
912.062	16542
912.176	16500
912.291	16584
912.405	16687
912.519	16744
912.633	16698
912.748	16645
912.862	16535
912.976	16329
913.09	16299
913.204	16280
913.318	16386
913.431	16398
913.545	16565
913.659	16451
913.772	16253
913.886	16306
914	16082
914.113	16272
914.226	16295
914.34	16303
914.453	16006
914.566	16253
914.68	16074
914.793	16120
914.906	15747
915.019	15854
915.132	15732
915.245	15808
915.358	15793
915.47	15732
915.583	15789
915.696	15800
915.809	15823
915.921	15926
916.034	15717
916.146	15724
916.259	15694
916.371	15804
916.483	15675
916.595	15633
916.708	15675
916.82	15599
916.932	15553
917.044	15633
917.156	15549
917.268	15507
917.38	15477
917.491	15359
917.603	15332
917.715	15473
917.826	15405
917.938	15374
918.049	15291
918.161	15317
918.272	15500
918.384	15408
918.495	15237
918.606	15138
918.717	15230
918.828	15135
918.939	15199
919.05	15157
919.161	15154
919.272	15074
919.383	15062
919.494	15157
919.604	15302
919.715	15135
919.826	15028
919.936	15097
920.047	15176
920.157	15203
920.267	15283
920.378	15150
920.488	15142
920.598	15211
920.708	15359
920.818	15173
920.928	15157
921.038	15428
921.148	15275
921.258	15028
921.368	14872
921.477	14857
921.587	14796
921.697	14735
921.806	14899
921.916	14743
922.025	14571
922.134	14488
922.244	14404
922.353	14541
922.462	14313
922.571	14336
922.68	14088
922.789	14096
922.898	14046
923.007	14081
923.116	14107
923.224	14096
923.333	14035
923.442	14016
923.55	13909
923.659	13909
923.767	13959
923.876	13868
923.984	13826
924.092	13750
924.201	13894
924.309	13856
924.417	13902
924.525	13822
924.633	13712
924.741	14648
924.849	13491
924.956	13712
925.064	13525
925.172	13460
925.279	13514
925.387	13556
925.494	13449
925.602	13525
925.709	13537
925.816	13403
925.924	13358
926.031	13529
926.138	13343
926.245	13472
926.352	13331
926.459	13480
926.566	13518
926.673	13358
926.779	13133
926.886	13206
926.993	13168
927.099	13091
927.206	13015
927.312	12920
927.419	13072
927.525	13038
927.631	13076
927.737	12890
927.843	12932
927.95	12760
928.056	12871
928.162	12840
928.267	12901
928.373	13491
928.479	12951
928.585	12722
928.69	12776
928.796	12772
928.901	12734
929.007	12494
929.112	12745
929.218	12639
929.323	12566
929.428	12589
929.533	12620
929.638	12437
929.743	12502
929.848	12502
929.953	12532
930.058	12479
930.163	12346
930.267	12330
930.372	12376
930.477	12266
930.581	12369
930.685	12228
930.79	12159
930.894	12235
930.998	12072
931.103	12220
931.207	11863
931.311	11790
931.415	11741
931.519	11532
931.623	11535
