Data from test_V78500241_2855.txt Node
Date: Fri Mar 25 16:01:34 CST 2022
User: usil
Spectrometer: V785-0024
Trigger mode: 0
Integration Time (sec): 4.000000E-1
Scans to average: 1
Nonlinearity correction enabled: false
Boxcar width: 0
Storing dark spectrum: false
XAxis mode: Wavelengths
Number of Pixels in Spectrum: 1024
>>>>>Begin Spectral Data<<<<<
801.071	29083
801.214	29014
801.356	28702
801.499	28854
801.641	28550
801.783	28596
801.926	28733
802.068	28504
802.211	28443
802.353	28390
802.496	28318
802.638	28371
802.78	28337
802.923	28154
803.065	28192
803.208	28360
803.35	28417
803.492	28432
803.635	28668
803.777	28318
803.919	28592
804.061	28755
804.204	28679
804.346	28474
804.488	28542
804.63	28592
804.773	28401
804.915	28637
805.057	28672
805.199	28550
805.341	28607
805.483	28782
805.626	28557
805.768	28702
805.91	28839
806.052	28793
806.194	28664
806.336	28904
806.478	28763
806.62	28607
806.762	28900
806.904	29075
807.046	29124
807.188	29178
807.33	29250
807.472	29250
807.614	29056
807.756	29060
807.898	28999
808.04	28930
808.182	28942
808.324	29121
808.465	29197
808.607	29337
808.749	29433
808.891	29512
809.033	29452
809.174	29474
809.316	29493
809.458	29318
809.6	29455
809.741	29589
809.883	29562
810.025	29764
810.166	29722
810.308	29661
810.45	29581
810.591	29653
810.733	29509
810.875	29273
811.016	29383
811.158	29288
811.299	29691
811.441	29417
811.582	29672
811.724	29482
811.865	29505
812.007	29444
812.148	29501
812.29	29326
812.431	29585
812.573	29851
812.714	29859
812.855	30079
812.997	30079
813.138	30232
813.279	29988
813.421	30064
813.562	30022
813.703	29859
813.845	29703
813.986	29379
814.127	29398
814.268	29204
814.41	29174
814.551	29185
814.692	29117
814.833	29356
814.974	29003
815.115	29124
815.256	28888
815.397	29102
815.539	28999
815.68	28892
815.821	28904
815.962	28797
816.103	28866
816.244	28786
816.385	28736
816.526	28702
816.666	28710
816.807	28390
816.948	28504
817.089	28599
817.23	28535
817.371	28504
817.512	28489
817.653	28603
817.793	28459
817.934	28478
818.075	28649
818.216	28535
818.356	28371
818.497	28287
818.638	28185
818.778	28268
818.919	28162
819.06	28424
819.2	28337
819.341	28599
819.481	28512
819.622	28603
819.762	28946
819.903	28622
820.043	28664
820.184	28592
820.324	28675
820.465	28748
820.605	28691
820.746	28683
820.886	28401
821.026	28630
821.167	28519
821.307	28580
821.447	28569
821.588	28500
821.728	28344
821.868	28185
822.008	28010
822.149	27914
822.289	27972
822.429	27583
822.569	27583
822.709	27671
822.849	27473
822.99	27542
823.13	27424
823.27	27496
823.41	27154
823.55	27199
823.69	27321
823.83	27405
823.97	27291
824.11	27009
824.25	27047
824.389	27184
824.529	27184
824.669	27077
824.809	27207
824.949	27287
825.089	27222
825.228	27241
825.368	27119
825.508	26979
825.648	27066
825.787	27051
825.927	27100
826.067	26956
826.206	26937
826.346	26960
826.485	27043
826.625	26963
826.765	27081
826.904	26944
827.044	26735
827.183	26720
827.323	26769
827.462	26674
827.601	26712
827.741	26785
827.88	26682
828.02	26579
828.159	26720
828.298	26826
828.437	26785
828.577	26697
828.716	26902
828.855	26629
828.994	26526
829.134	26511
829.273	26434
829.412	26431
829.551	26362
829.69	26393
829.829	26400
829.968	26556
830.107	26438
830.246	26434
830.385	26408
830.524	26267
830.663	26138
830.802	26176
830.941	26122
831.08	25818
831.219	26138
831.357	26027
831.496	26377
831.635	25978
831.774	25928
831.913	25944
832.051	26008
832.19	25845
832.329	25830
832.467	25662
832.606	25559
832.744	25712
832.883	25795
833.022	25670
833.16	25632
833.299	25772
833.437	25780
833.576	25731
833.714	25788
833.852	25738
833.991	25868
834.129	25742
834.267	25670
834.406	25791
834.544	25799
834.682	25693
834.821	25791
834.959	25944
835.097	25780
835.235	25704
835.373	25856
835.511	25742
835.65	25609
835.788	25746
835.926	25438
836.064	25468
836.202	25392
836.34	25521
836.478	25651
836.615	25590
836.753	25468
836.891	25658
837.029	25681
837.167	25476
837.305	25445
837.443	25396
837.58	25411
837.718	25457
837.856	25502
837.993	25400
838.131	25434
838.269	25221
838.406	25426
838.544	25209
838.681	25012
838.819	24989
838.956	24958
839.094	24821
839.231	24825
839.369	24947
839.506	25187
839.643	25110
839.781	24913
839.918	24856
840.055	24886
840.193	24859
840.33	24711
840.467	24916
840.604	24863
840.742	25023
840.879	24730
841.016	24589
841.153	24585
841.29	24665
841.427	24738
841.564	24806
841.701	24711
841.838	24688
841.975	24700
842.112	24700
842.249	24532
842.385	24563
842.522	24817
842.659	24757
842.796	24467
842.933	24540
843.069	24471
843.206	24388
843.343	24513
843.479	24502
843.616	24593
843.752	24330
843.889	24292
844.025	24437
844.162	24178
844.298	24422
844.435	24258
844.571	24407
844.708	24388
844.844	24391
844.98	24460
845.117	24384
845.253	24201
845.389	24171
845.525	24155
845.661	24140
845.798	24003
845.934	24030
846.07	23984
846.206	24038
846.342	24163
846.478	23897
846.614	23866
846.75	23714
846.886	23737
847.022	23733
847.158	23760
847.294	23798
847.429	23760
847.565	23707
847.701	23961
847.837	23440
847.972	23478
848.108	23524
848.244	23611
848.379	23364
848.515	23379
848.65	23330
848.786	23448
848.921	23326
849.057	23531
849.192	23391
849.328	23429
849.463	23410
849.598	23235
849.734	23315
849.869	23090
850.004	23083
850.14	23204
850.275	23105
850.41	22965
850.545	23113
850.68	23086
850.815	23044
850.95	23044
851.085	23326
851.22	23223
851.355	23200
851.49	23060
851.625	23003
851.76	23056
851.895	23025
852.03	23109
852.165	23185
852.299	23140
852.434	23117
852.569	23121
852.703	23105
852.838	23193
852.973	23223
853.107	23109
853.242	23029
853.376	22919
853.511	22839
853.645	22919
853.78	22934
853.914	23067
854.048	23037
854.183	22987
854.317	22961
854.451	23181
854.585	22972
854.72	22869
854.854	23048
854.988	22805
855.122	22968
855.256	22873
855.39	22869
855.524	23003
855.658	22919
855.792	22896
855.926	22934
856.06	22961
856.194	22965
856.327	22881
856.461	22889
856.595	22904
856.729	22869
856.862	23067
856.996	22854
857.13	22995
857.263	23109
857.397	22991
857.53	22900
857.664	22930
857.797	22828
857.931	22995
858.064	22965
858.197	22953
858.331	22892
858.464	22847
858.597	22691
858.731	22896
858.864	22927
858.997	22873
859.13	22961
859.263	22934
859.396	23060
859.529	22961
859.662	22873
859.795	22908
859.928	22885
860.061	23105
860.194	23159
860.327	22812
860.46	22908
860.592	23094
860.725	23170
860.858	23071
860.99	22885
861.123	22824
861.256	22854
861.388	22946
861.521	23695
861.653	22786
861.786	22740
861.918	22755
862.05	22740
862.183	22915
862.315	22953
862.447	22949
862.58	22877
862.712	22622
862.844	22668
862.976	22771
863.108	22736
863.24	23044
863.372	22557
863.504	22599
863.636	22557
863.768	22740
863.9	22744
864.032	22508
864.164	22497
864.296	22733
864.428	22778
864.559	22691
864.691	22592
864.823	22538
864.954	22664
865.086	22512
865.217	22580
865.349	22474
865.48	22538
865.612	22569
865.743	22630
865.875	22519
866.006	22497
866.137	22516
866.269	22508
866.4	22474
866.531	22428
866.662	22344
866.793	22413
866.924	22451
867.055	22443
867.186	22333
867.317	22421
867.448	22287
867.579	22481
867.71	22421
867.841	22379
867.972	22447
868.103	22352
868.233	22481
868.364	22478
868.495	22531
868.625	22615
868.756	22675
868.886	22577
869.017	22694
869.147	22774
869.278	22683
869.408	22675
869.539	22637
869.669	22763
869.799	22698
869.929	22786
870.06	22835
870.19	22949
870.32	23033
870.45	22987
870.58	23033
870.71	23212
870.84	23155
870.97	23067
871.1	23147
871.23	23315
871.36	23166
871.489	23166
871.619	23315
871.749	23288
871.879	23364
872.008	23410
872.138	23315
872.267	23345
872.397	23181
872.526	23239
872.656	23041
872.785	23204
872.915	23284
873.044	23372
873.173	23379
873.303	23387
873.432	23315
873.561	23429
873.69	23204
873.819	23292
873.948	23379
874.077	23292
874.206	23132
874.335	23277
874.464	23501
874.593	23376
874.722	23531
874.851	23455
874.979	23528
875.108	23573
875.237	23516
875.365	23368
875.494	23486
875.623	23657
875.751	23433
875.88	23524
876.008	23627
876.136	23695
876.265	23935
876.393	24038
876.521	24007
876.65	23950
876.778	23965
876.906	23893
877.034	23935
877.162	23916
877.29	23851
877.418	23798
877.546	23897
877.674	23870
877.802	23836
877.93	23878
878.058	23752
878.185	23661
878.313	23741
878.441	23866
878.568	23649
878.696	23779
878.824	23786
878.951	23851
879.079	23973
879.206	24190
879.333	24038
879.461	23889
879.588	23893
879.715	24068
879.842	24045
879.97	23866
880.097	23687
880.224	23630
880.351	23726
880.478	23733
880.605	23604
880.732	23627
880.859	23874
880.986	23703
881.112	23783
881.239	23581
881.366	23448
881.493	23212
881.619	23079
881.746	23265
881.872	23440
881.999	23334
882.125	23044
882.252	23204
882.378	23303
882.505	23178
882.631	23048
882.757	22968
882.883	22946
883.01	23006
883.136	22831
883.262	22752
883.388	22752
883.514	22816
883.64	22790
883.766	23003
883.892	22615
884.018	22542
884.143	22736
884.269	22873
884.395	22653
884.52	22516
884.646	22607
884.772	22371
884.897	22329
885.023	22512
885.148	22527
885.274	22706
885.399	22592
885.524	22573
885.65	22557
885.775	22417
885.9	22398
886.025	22588
886.15	22561
886.275	22455
886.4	22390
886.525	22398
886.65	22428
886.775	22512
886.9	22603
887.025	22790
887.149	22386
887.274	22257
887.399	22219
887.523	22261
887.648	22341
887.773	22105
887.897	22249
888.021	22337
888.146	22215
888.27	22299
888.395	22440
888.519	22329
888.643	22310
888.767	22322
888.891	22070
889.015	22055
889.139	22139
889.263	22082
889.387	22101
889.511	22139
889.635	22166
889.759	22006
889.883	22067
890.006	22131
890.13	22067
890.254	22013
890.377	21968
890.501	21770
890.624	21751
890.748	21785
890.871	21789
890.995	21591
891.118	21561
891.241	21488
891.364	21614
891.488	21599
891.611	21599
891.734	21694
891.857	21519
891.98	21583
892.103	21473
892.226	21504
892.349	21454
892.471	21370
892.594	21454
892.717	21618
892.839	21450
892.962	21454
893.085	21439
893.207	21477
893.33	21348
893.452	21469
893.575	21549
893.697	21412
893.819	21682
893.941	21682
894.064	21515
894.186	21397
894.308	21507
894.43	21526
894.552	21576
894.674	21488
894.796	21405
894.918	21496
895.04	21431
895.161	21496
895.283	21485
895.405	21321
895.526	21340
895.648	21466
895.769	21439
895.891	21462
896.012	21538
896.134	21431
896.255	21492
896.376	21401
896.498	21557
896.619	21526
896.74	21439
896.861	21477
896.982	21717
897.103	21884
897.224	21648
897.345	21591
897.466	21618
897.587	21622
897.708	21698
897.828	21675
897.949	21515
898.07	21431
898.19	21660
898.311	21679
898.431	21660
898.552	21660
898.672	21705
898.792	21743
898.913	21526
899.033	21553
899.153	21374
899.273	21294
899.393	21294
899.513	21355
899.633	21355
899.753	21344
899.873	21367
899.993	21329
900.113	21283
900.232	21386
900.352	21119
900.472	21184
900.591	21108
900.711	21150
900.83	21135
900.95	21176
901.069	21180
901.189	21051
901.308	20826
901.427	20632
901.546	20731
901.665	20655
901.784	20659
901.904	20499
902.023	20438
902.141	20206
902.26	20244
902.379	20202
902.498	20195
902.617	20176
902.735	20187
902.854	20081
902.973	19959
903.091	19970
903.21	19868
903.328	19742
903.446	19635
903.565	19647
903.683	19567
903.801	19597
903.919	19586
904.038	19529
904.156	19472
904.274	19415
904.392	19308
904.51	19240
904.627	19384
904.745	19449
904.863	19373
904.981	19206
905.098	19110
905.216	19076
905.334	19023
905.451	19019
905.569	19072
905.686	19061
905.803	19072
905.921	18772
906.038	18993
906.155	18848
906.272	18825
906.389	18745
906.506	18711
906.623	18730
906.74	18544
906.857	18448
906.974	18517
907.091	18574
907.208	18722
907.324	18639
907.441	18422
907.557	18327
907.674	18251
907.79	18209
907.907	18205
908.023	18369
908.139	18254
908.256	18220
908.372	18201
908.488	18178
908.604	17927
908.72	17874
908.836	17992
908.952	17950
909.068	17965
909.184	18178
909.3	17965
909.415	18038
909.531	17885
909.647	17623
909.762	17691
909.878	17649
909.993	17783
910.108	17596
910.224	17687
910.339	17638
910.454	17581
910.57	17486
910.685	17391
910.8	17627
910.915	17528
911.03	17406
911.145	17273
911.259	17212
911.374	17258
911.489	17143
911.604	17121
911.718	17083
911.833	16919
911.947	17041
912.062	16790
912.176	17048
912.291	16980
912.405	17010
912.519	17185
912.633	17193
912.748	16991
912.862	16930
912.976	16839
913.09	16713
913.204	16767
913.318	16778
913.431	16873
913.545	16850
913.659	16919
913.772	16653
913.886	16626
914	16588
914.113	16706
914.226	16558
914.34	16691
914.453	16508
914.566	16668
914.68	16561
914.793	16371
914.906	16253
915.019	16181
915.132	15983
915.245	16105
915.358	16246
915.47	16143
915.583	16169
915.696	16211
915.809	16215
915.921	16147
916.034	16162
916.146	16128
916.259	16063
916.371	16158
916.483	16169
916.595	15876
916.708	15941
916.82	15804
916.932	15907
917.044	16029
917.156	15915
917.268	15797
917.38	15785
917.491	15755
917.603	15819
917.715	15895
917.826	15819
917.938	15652
918.049	15614
918.161	15797
918.272	15808
918.384	15873
918.495	15762
918.606	15599
918.717	15572
918.828	15538
918.939	15492
919.05	15507
919.161	15466
919.272	15268
919.383	15222
919.494	15584
919.604	15663
919.715	15447
919.826	15428
919.936	15405
920.047	15625
920.157	15435
920.267	15736
920.378	15435
920.488	15447
920.598	15675
920.708	15739
920.818	15625
920.928	15534
921.038	15663
921.148	15595
921.258	15428
921.368	15340
921.477	15256
921.587	15275
921.697	15089
921.806	15180
921.916	15119
922.025	14830
922.134	14823
922.244	14720
922.353	14845
922.462	14754
922.571	14648
922.68	14545
922.789	14446
922.898	14476
923.007	14381
923.116	14465
923.224	14446
923.333	14454
923.442	14259
923.55	14278
923.659	14347
923.767	14328
923.876	14229
923.984	14309
924.092	14145
924.201	14275
924.309	14092
924.417	14240
924.525	14107
924.633	14096
924.741	15028
924.849	13894
924.956	13913
925.064	13913
925.172	13761
925.279	13837
925.387	13871
925.494	13814
925.602	13902
925.709	13757
925.816	13696
925.924	13807
926.031	13879
926.138	13700
926.245	13784
926.352	13734
926.459	13818
926.566	13814
926.673	13632
926.779	13468
926.886	13499
926.993	13468
927.099	13362
927.206	13240
927.312	13247
927.419	13350
927.525	13358
927.631	13278
927.737	13293
927.843	13194
927.95	13061
928.056	13114
928.162	13194
928.267	13221
928.373	13723
928.479	13240
928.585	12977
928.69	13160
928.796	13129
928.901	13046
929.007	12875
929.112	13027
929.218	12886
929.323	12890
929.428	12859
929.533	12954
929.638	12802
929.743	12821
929.848	12833
929.953	12757
930.058	12787
930.163	12536
930.267	12589
930.372	12753
930.477	12456
930.581	12707
930.685	12494
930.79	12448
930.894	12437
930.998	12380
931.103	12509
931.207	12167
931.311	11988
931.415	11988
931.519	11764
931.623	11764
