Data from test_V78500241_2987.txt Node
Date: Fri Mar 25 16:02:29 CST 2022
User: usil
Spectrometer: V785-0024
Trigger mode: 0
Integration Time (sec): 4.000000E-1
Scans to average: 1
Nonlinearity correction enabled: false
Boxcar width: 0
Storing dark spectrum: false
XAxis mode: Wavelengths
Number of Pixels in Spectrum: 1024
>>>>>Begin Spectral Data<<<<<
801.071	28664
801.214	28489
801.356	28360
801.499	28272
801.641	28204
801.783	28128
801.926	28238
802.068	28204
802.211	28112
802.353	27964
802.496	27895
802.638	27713
802.78	27854
802.923	27778
803.065	27736
803.208	27895
803.35	27781
803.492	27991
803.635	27956
803.777	28013
803.919	28116
804.061	28318
804.204	28158
804.346	28002
804.488	27911
804.63	28025
804.773	27968
804.915	28162
805.057	28211
805.199	28192
805.341	28169
805.483	28234
805.626	28154
805.768	28109
805.91	28398
806.052	28181
806.194	28181
806.336	28447
806.478	28295
806.62	28272
806.762	28367
806.904	28615
807.046	28892
807.188	28793
807.33	28725
807.472	28771
807.614	28675
807.756	28596
807.898	28466
808.04	28276
808.182	28573
808.324	28478
808.465	28656
808.607	28816
808.749	28786
808.891	28976
809.033	29136
809.174	29025
809.316	28904
809.458	28919
809.6	29022
809.741	28980
809.883	29052
810.025	29208
810.166	29250
810.308	29170
810.45	29174
810.591	28965
810.733	29014
810.875	28885
811.016	28831
811.158	28790
811.299	29102
811.441	29181
811.582	29132
811.724	28976
811.865	28900
812.007	28915
812.148	29052
812.29	28949
812.431	29197
812.573	29151
812.714	29334
812.855	29474
812.997	29596
813.138	29722
813.279	29589
813.421	29398
813.562	29410
813.703	29368
813.845	29223
813.986	28980
814.127	28786
814.268	28828
814.41	28748
814.551	28592
814.692	28809
814.833	28713
814.974	28618
815.115	28698
815.256	28497
815.397	28489
815.539	28466
815.68	28428
815.821	28424
815.962	28459
816.103	28432
816.244	28341
816.385	28242
816.526	28295
816.666	28006
816.807	28017
816.948	27949
817.089	28006
817.23	27994
817.371	27941
817.512	27835
817.653	28002
817.793	27956
817.934	27876
818.075	27991
818.216	28006
818.356	27956
818.497	27819
818.638	27739
818.778	27682
818.919	27808
819.06	27698
819.2	27937
819.341	28059
819.481	28017
819.622	28032
819.762	28329
819.903	28181
820.043	28074
820.184	28090
820.324	27964
820.465	28177
820.605	28154
820.746	27991
820.886	27945
821.026	28097
821.167	28105
821.307	28143
821.447	28078
821.588	27892
821.728	27774
821.868	27648
822.008	27530
822.149	27485
822.289	27424
822.429	27184
822.569	27211
822.709	27127
822.849	27017
822.99	27104
823.13	26921
823.27	26883
823.41	26895
823.55	26594
823.69	26788
823.83	26705
823.97	26659
824.11	26476
824.25	26469
824.389	26511
824.529	26739
824.669	26522
824.809	26632
824.949	26716
825.089	26773
825.228	26518
825.368	26450
825.508	26488
825.648	26492
825.787	26427
825.927	26670
826.067	26492
826.206	26453
826.346	26598
826.485	26431
826.625	26503
826.765	26541
826.904	26571
827.044	26248
827.183	26256
827.323	26221
827.462	26263
827.601	26282
827.741	26218
827.88	26259
828.02	26050
828.159	26100
828.298	26263
828.437	26267
828.577	26122
828.716	26343
828.855	26107
828.994	25871
829.134	25898
829.273	25818
829.412	25875
829.551	25700
829.69	25868
829.829	25852
829.968	25963
830.107	25970
830.246	25906
830.385	25803
830.524	25772
830.663	25704
830.802	25567
830.941	25548
831.08	25407
831.219	25559
831.357	25552
831.496	25753
831.635	25559
831.774	25369
831.913	25487
832.051	25369
832.19	25354
832.329	25228
832.467	25152
832.606	25217
832.744	25171
832.883	25190
833.022	25088
833.16	25168
833.299	25274
833.437	25225
833.576	25263
833.714	25247
833.852	25331
833.991	25384
834.129	25301
834.267	25183
834.406	25316
834.544	25354
834.682	25190
834.821	25206
834.959	25358
835.097	25160
835.235	25247
835.373	25088
835.511	25141
835.65	25152
835.788	25164
835.926	25053
836.064	24749
836.202	24913
836.34	25053
836.478	25069
836.615	24977
836.753	24916
836.891	25156
837.029	25107
837.167	25107
837.305	24973
837.443	24894
837.58	24802
837.718	24905
837.856	24890
837.993	24840
838.131	24977
838.269	24753
838.406	24707
838.544	24700
838.681	24570
838.819	24513
838.956	24350
839.094	24205
839.231	24395
839.369	24460
839.506	24719
839.643	24639
839.781	24429
839.918	24330
840.055	24258
840.193	24201
840.33	24323
840.467	24224
840.604	24426
840.742	24502
840.879	24022
841.016	24110
841.153	24205
841.29	24327
841.427	24311
841.564	24270
841.701	24311
841.838	24220
841.975	24152
842.112	24369
842.249	24114
842.385	24114
842.522	24213
842.659	24053
842.796	24095
842.933	23901
843.069	23958
843.206	23870
843.343	24038
843.479	24049
843.616	24003
843.752	23954
843.889	23847
844.025	23961
844.162	23813
844.298	23786
844.435	23832
844.571	23710
844.708	23824
844.844	23923
844.98	23984
845.117	23931
845.253	23703
845.389	23684
845.525	23695
845.661	23562
845.798	23573
845.934	23566
846.07	23497
846.206	23539
846.342	23471
846.478	23581
846.614	23410
846.75	23193
846.886	23166
847.022	23345
847.158	23326
847.294	23220
847.429	23315
847.565	23273
847.701	23528
847.837	22965
847.972	22930
848.108	23113
848.244	23113
848.379	22793
848.515	22805
848.65	22877
848.786	22850
848.921	22866
849.057	22953
849.192	22927
849.328	22866
849.463	22839
849.598	22713
849.734	22782
849.869	22733
850.004	22675
850.14	22618
850.275	22630
850.41	22550
850.545	22580
850.68	22538
850.815	22565
850.95	22557
851.085	22854
851.22	22774
851.355	22702
851.49	22493
851.625	22702
851.76	22557
851.895	22599
852.03	22550
852.165	22561
852.299	22611
852.434	22702
852.569	22668
852.703	22561
852.838	22637
852.973	22786
853.107	22653
853.242	22474
853.376	22481
853.511	22230
853.645	22382
853.78	22516
853.914	22497
854.048	22295
854.183	22360
854.317	22531
854.451	22717
854.585	22489
854.72	22462
854.854	22546
854.988	22451
855.122	22489
855.256	22303
855.39	22291
855.524	22428
855.658	22504
855.792	22386
855.926	22443
856.06	22440
856.194	22561
856.327	22405
856.461	22325
856.595	22375
856.729	22352
856.862	22527
856.996	22459
857.13	22531
857.263	22561
857.397	22394
857.53	22436
857.664	22424
857.797	22329
857.931	22641
858.064	22440
858.197	22523
858.331	22550
858.464	22363
858.597	22360
858.731	22436
858.864	22390
858.997	22405
859.13	22443
859.263	22512
859.396	22554
859.529	22436
859.662	22375
859.795	22466
859.928	22538
860.061	22516
860.194	22611
860.327	22409
860.46	22443
860.592	22668
860.725	22550
860.858	22729
860.99	22424
861.123	22344
861.256	22394
861.388	22413
861.521	23185
861.653	22287
861.786	22257
861.918	22310
862.05	22211
862.183	22337
862.315	22371
862.447	22390
862.58	22382
862.712	22219
862.844	22169
862.976	22128
863.108	22234
863.24	22630
863.372	22154
863.504	22131
863.636	22188
863.768	22185
863.9	22158
864.032	22010
864.164	22017
864.296	22215
864.428	22287
864.559	22200
864.691	22284
864.823	22109
864.954	22181
865.086	22124
865.217	22124
865.349	21918
865.48	21876
865.612	22048
865.743	22185
865.875	22097
866.006	22002
866.137	22143
866.269	21964
866.4	22044
866.531	21895
866.662	21937
866.793	21922
866.924	21987
867.055	21998
867.186	22109
867.317	21983
867.448	21979
867.579	21869
867.71	21975
867.841	21838
867.972	21899
868.103	21884
868.233	21884
868.364	21899
868.495	22143
868.625	22215
868.756	22276
868.886	22169
869.017	22086
869.147	22249
869.278	22310
869.408	22181
869.539	22226
869.669	22143
869.799	22261
869.929	22341
870.06	22272
870.19	22611
870.32	22382
870.45	22577
870.58	22561
870.71	22634
870.84	22675
870.97	22569
871.1	22474
871.23	22782
871.36	22744
871.489	22694
871.619	22702
871.749	22656
871.879	22854
872.008	22847
872.138	22892
872.267	22782
872.397	22721
872.526	22569
872.656	22759
872.785	22611
872.915	22930
873.044	22949
873.173	22679
873.303	22771
873.432	22923
873.561	22957
873.69	22748
873.819	22850
873.948	22835
874.077	22664
874.206	22744
874.335	22706
874.464	22866
874.593	23113
874.722	22987
874.851	23159
874.979	23064
875.108	23136
875.237	23071
875.365	22961
875.494	23079
875.623	23029
875.751	22915
875.88	23033
876.008	23094
876.136	23178
876.265	23528
876.393	23497
876.521	23368
876.65	23509
876.778	23459
876.906	23356
877.034	23303
877.162	23433
877.29	23349
877.418	23417
877.546	23307
877.674	23410
877.802	23372
877.93	23398
878.058	23318
878.185	23311
878.313	23296
878.441	23311
878.568	23113
878.696	23246
878.824	23429
878.951	23471
879.079	23539
879.206	23687
879.333	23570
879.461	23334
879.588	23531
879.715	23558
879.842	23585
879.97	23444
880.097	23178
880.224	23200
880.351	23220
880.478	23147
880.605	23155
880.732	23128
880.859	23429
880.986	23185
881.112	23159
881.239	23014
881.366	22965
881.493	22850
881.619	22702
881.746	22797
881.872	22767
881.999	22771
882.125	22641
882.252	22748
882.378	22729
882.505	22771
882.631	22550
882.757	22440
882.883	22462
883.01	22371
883.136	22295
883.262	22246
883.388	22257
883.514	22325
883.64	22344
883.766	22287
883.892	22158
884.018	22188
884.143	22268
884.269	22462
884.395	22116
884.52	21960
884.646	22124
884.772	21949
884.897	22010
885.023	22097
885.148	22116
885.274	22166
885.399	22181
885.524	22150
885.65	22074
885.775	21960
885.9	22048
886.025	22070
886.15	22067
886.275	22048
886.4	21884
886.525	22051
886.65	21972
886.775	21880
886.9	22067
887.025	22223
887.149	21994
887.274	21766
887.399	21876
887.523	21804
887.648	21759
887.773	21842
887.897	21766
888.021	21842
888.146	21793
888.27	21789
888.395	21960
888.519	21850
888.643	21797
888.767	21755
888.891	21816
889.015	21675
889.139	21663
889.263	21633
889.387	21778
889.511	21911
889.635	21789
889.759	21488
889.883	21622
890.006	21701
890.13	21720
890.254	21595
890.377	21587
890.501	21389
890.624	21367
890.748	21386
890.871	21291
890.995	21264
891.118	21154
891.241	21161
891.364	21207
891.488	21142
891.611	21192
891.734	21150
891.857	21180
891.98	21169
892.103	21077
892.226	21207
892.349	21074
892.471	20967
892.594	21089
892.717	21127
892.839	21085
892.962	21100
893.085	21138
893.207	21032
893.33	20910
893.452	20910
893.575	21093
893.697	21005
893.819	21093
893.941	21154
894.064	21116
894.186	21039
894.308	20937
894.43	21184
894.552	21100
894.674	21089
894.796	20975
894.918	21108
895.04	20937
895.161	21165
895.283	21036
895.405	20967
895.526	21020
895.648	21036
895.769	21123
895.891	21150
896.012	21036
896.134	20994
896.255	20963
896.376	20895
896.498	21123
896.619	21104
896.74	21074
896.861	21070
896.982	21374
897.103	21469
897.224	21294
897.345	21165
897.466	21135
897.587	21294
897.708	21313
897.828	21302
897.949	21161
898.07	21127
898.19	21230
898.311	21287
898.431	21142
898.552	21222
898.672	21173
898.792	21389
898.913	21264
899.033	21028
899.153	21100
899.273	20845
899.393	20956
899.513	20811
899.633	21013
899.753	20921
899.873	20762
899.993	21005
900.113	21032
900.232	20861
900.352	20788
900.472	20811
900.591	20720
900.711	20648
900.83	20579
900.95	20857
901.069	20887
901.189	20537
901.308	20396
901.427	20187
901.546	20320
901.665	20221
901.784	20355
901.904	20195
902.023	20069
902.141	19906
902.26	19928
902.379	19864
902.498	19860
902.617	19841
902.735	19868
902.854	19818
902.973	19765
903.091	19472
903.21	19415
903.328	19510
903.446	19381
903.565	19377
903.683	19221
903.801	19061
903.919	19263
904.038	19221
904.156	18993
904.274	19080
904.392	18985
904.51	18932
904.627	19053
904.745	19084
904.863	19061
904.981	18791
905.098	18684
905.216	18719
905.334	18741
905.451	18635
905.569	18627
905.686	18707
905.803	18639
905.921	18384
906.038	18490
906.155	18433
906.272	18380
906.389	18422
906.506	18262
906.623	18213
906.74	18190
906.857	18053
906.974	18060
907.091	18216
907.208	18311
907.324	18224
907.441	18026
907.557	17946
907.674	17874
907.79	17923
907.907	17828
908.023	17965
908.139	17863
908.256	17828
908.372	17771
908.488	17775
908.604	17661
908.72	17505
908.836	17600
908.952	17638
909.068	17687
909.184	17646
909.3	17592
909.415	17649
909.531	17630
909.647	17307
909.762	17322
909.878	17349
909.993	17353
910.108	17341
910.224	17258
910.339	17372
910.454	17231
910.57	17094
910.685	17136
910.8	17341
910.915	17292
911.03	17185
911.145	16987
911.259	16862
911.374	16908
911.489	16847
911.604	16866
911.718	16634
911.833	16774
911.947	16626
912.062	16481
912.176	16653
912.291	16630
912.405	16630
912.519	16831
912.633	16786
912.748	16672
912.862	16592
912.976	16508
913.09	16314
913.204	16443
913.318	16485
913.431	16554
913.545	16508
913.659	16508
913.772	16409
913.886	16325
914	16219
914.113	16371
914.226	16291
914.34	16314
914.453	16143
914.566	16185
914.68	16147
914.793	16067
914.906	15850
915.019	15831
915.132	15899
915.245	15770
915.358	15888
915.47	15831
915.583	15774
915.696	15789
915.809	16025
915.921	15911
916.034	15747
916.146	15701
916.259	15698
916.371	15766
916.483	15797
916.595	15679
916.708	15625
916.82	15690
916.932	15618
917.044	15515
917.156	15545
917.268	15504
917.38	15519
917.491	15458
917.603	15378
917.715	15507
917.826	15488
917.938	15416
918.049	15283
918.161	15469
918.272	15473
918.384	15500
918.495	15443
918.606	15252
918.717	15154
918.828	15325
918.939	15195
919.05	15150
919.161	15241
919.272	14990
919.383	15100
919.494	15207
919.604	15447
919.715	15218
919.826	15108
919.936	15157
920.047	15237
920.157	15108
920.267	15321
920.378	15283
920.488	15131
920.598	15203
920.708	15405
920.818	15317
920.928	15165
921.038	15329
921.148	15424
921.258	15074
921.368	14998
921.477	14899
921.587	14872
921.697	14811
921.806	14941
921.916	14708
922.025	14655
922.134	14511
922.244	14415
922.353	14537
922.462	14415
922.571	14263
922.68	14263
922.789	14168
922.898	14134
923.007	14126
923.116	14195
923.224	14130
923.333	14218
923.442	13963
923.55	14016
923.659	14005
923.767	14046
923.876	13845
923.984	14081
924.092	13864
924.201	13963
924.309	13814
924.417	13898
924.525	13807
924.633	13814
924.741	14568
924.849	13544
924.956	13693
925.064	13647
925.172	13575
925.279	13525
925.387	13597
925.494	13559
925.602	13658
925.709	13609
925.816	13491
925.924	13407
926.031	13483
926.138	13430
926.245	13495
926.352	13453
926.459	13525
926.566	13499
926.673	13301
926.779	13373
926.886	13202
926.993	13122
927.099	13110
927.206	13042
927.312	12913
927.419	13114
927.525	13034
927.631	13027
927.737	12993
927.843	12935
927.95	12867
928.056	12935
928.162	12840
928.267	12901
928.373	13590
928.479	12928
928.585	12745
928.69	12947
928.796	12856
928.901	12707
929.007	12631
929.112	12696
929.218	12719
929.323	12665
929.428	12585
929.533	12795
929.638	12521
929.743	12479
929.848	12578
929.953	12582
930.058	12384
930.163	12308
930.267	12319
930.372	12414
930.477	12171
930.581	12433
930.685	12342
930.79	12095
930.894	12095
930.998	12102
931.103	12262
931.207	11851
931.311	11798
931.415	11729
931.519	11558
931.623	11535
