Data from test_V78500241_2869.txt Node
Date: Fri Mar 25 16:01:40 CST 2022
User: usil
Spectrometer: V785-0024
Trigger mode: 0
Integration Time (sec): 4.000000E-1
Scans to average: 1
Nonlinearity correction enabled: false
Boxcar width: 0
Storing dark spectrum: false
XAxis mode: Wavelengths
Number of Pixels in Spectrum: 1024
>>>>>Begin Spectral Data<<<<<
801.071	29075
801.214	28999
801.356	28908
801.499	28790
801.641	28668
801.783	28759
801.926	28717
802.068	28664
802.211	28527
802.353	28615
802.496	28421
802.638	28424
802.78	28421
802.923	28375
803.065	28318
803.208	28401
803.35	28398
803.492	28485
803.635	28672
803.777	28455
803.919	28725
804.061	29025
804.204	28713
804.346	28561
804.488	28615
804.63	28672
804.773	28573
804.915	28885
805.057	28908
805.199	28725
805.341	28812
805.483	28835
805.626	28835
805.768	28752
805.91	28949
806.052	28824
806.194	28744
806.336	29022
806.478	28793
806.62	28740
806.762	29143
806.904	29014
807.046	29345
807.188	29239
807.33	29364
807.472	29299
807.614	29337
807.756	29235
807.898	29284
808.04	29014
808.182	29083
808.324	29220
808.465	29303
808.607	29478
808.749	29589
808.891	29512
809.033	29764
809.174	29646
809.316	29661
809.458	29543
809.6	29444
809.741	29642
809.883	29672
810.025	29779
810.166	29809
810.308	29748
810.45	29764
810.591	29726
810.733	29630
810.875	29623
811.016	29463
811.158	29543
811.299	29745
811.441	29813
811.582	29786
811.724	29619
811.865	29524
812.007	29497
812.148	29551
812.29	29707
812.431	29862
812.573	29897
812.714	30159
812.855	30121
812.997	30209
813.138	30353
813.279	30289
813.421	30110
813.562	30034
813.703	29946
813.845	29866
813.986	29455
814.127	29455
814.268	29414
814.41	29307
814.551	29189
814.692	29512
814.833	29288
814.974	29216
815.115	29292
815.256	29220
815.397	29246
815.539	29239
815.68	29105
815.821	29086
815.962	29155
816.103	28995
816.244	28991
816.385	28972
816.526	28892
816.666	28702
816.807	28626
816.948	28664
817.089	28744
817.23	28668
817.371	28611
817.512	28653
817.653	28637
817.793	28637
817.934	28637
818.075	28637
818.216	28615
818.356	28660
818.497	28626
818.638	28447
818.778	28371
818.919	28394
819.06	28459
819.2	28424
819.341	28649
819.481	28725
819.622	28771
819.762	29064
819.903	28866
820.043	29010
820.184	28771
820.324	28828
820.465	28816
820.605	28782
820.746	28782
820.886	28645
821.026	28835
821.167	28786
821.307	28721
821.447	28664
821.588	28675
821.728	28504
821.868	28173
822.008	28253
822.149	28135
822.289	28261
822.429	27800
822.569	27835
822.709	27907
822.849	27755
822.99	27694
823.13	27564
823.27	27599
823.41	27481
823.55	27431
823.69	27431
823.83	27462
823.97	27401
824.11	27310
824.25	27230
824.389	27272
824.529	27439
824.669	27142
824.809	27583
824.949	27332
825.089	27408
825.228	27256
825.368	27218
825.508	27161
825.648	27245
825.787	27268
825.927	27199
826.067	26921
826.206	27119
826.346	27161
826.485	27180
826.625	27256
826.765	27287
826.904	27233
827.044	27005
827.183	27020
827.323	26849
827.462	27020
827.601	26815
827.741	26979
827.88	26880
828.02	26906
828.159	26807
828.298	26834
828.437	26925
828.577	26792
828.716	27013
828.855	26842
828.994	26492
829.134	26560
829.273	26617
829.412	26522
829.551	26674
829.69	26629
829.829	26533
829.968	26522
830.107	26746
830.246	26621
830.385	26632
830.524	26461
830.663	26294
830.802	26263
830.941	26138
831.08	26225
831.219	26271
831.357	26271
831.496	26442
831.635	26115
831.774	26164
831.913	26119
832.051	26107
832.19	25932
832.329	25982
832.467	25887
832.606	25894
832.744	25814
832.883	25814
833.022	25822
833.16	25807
833.299	25799
833.437	25807
833.576	25974
833.714	25925
833.852	25944
833.991	25974
834.129	25963
834.267	25909
834.406	25966
834.544	25940
834.682	25791
834.821	26008
834.959	26081
835.097	25864
835.235	25852
835.373	25902
835.511	25826
835.65	25784
835.788	25704
835.926	25609
836.064	25552
836.202	25632
836.34	25803
836.478	25887
836.615	25639
836.753	25890
836.891	25811
837.029	25795
837.167	25556
837.305	25719
837.443	25628
837.58	25449
837.718	25696
837.856	25590
837.993	25476
838.131	25411
838.269	25487
838.406	25502
838.544	25270
838.681	25392
838.819	25110
838.956	25012
839.094	24916
839.231	25213
839.369	25301
839.506	25533
839.643	25270
839.781	25084
839.918	24886
840.055	25004
840.193	24951
840.33	24935
840.467	24821
840.604	25012
840.742	25209
840.879	24707
841.016	24806
841.153	24802
841.29	24943
841.427	24875
841.564	24920
841.701	24905
841.838	24859
841.975	24745
842.112	24825
842.249	24741
842.385	24635
842.522	24848
842.659	24646
842.796	24593
842.933	24741
843.069	24696
843.206	24787
843.343	24772
843.479	24837
843.616	24779
843.752	24505
843.889	24555
844.025	24532
844.162	24452
844.298	24467
844.435	24471
844.571	24513
844.708	24589
844.844	24559
844.98	24589
845.117	24536
845.253	24323
845.389	24285
845.525	24403
845.661	24308
845.798	24060
845.934	24190
846.07	24167
846.206	23999
846.342	24228
846.478	24148
846.614	24110
846.75	23817
846.886	23988
847.022	24022
847.158	23817
847.294	23866
847.429	24030
847.565	23882
847.701	24148
847.837	23486
847.972	23604
848.108	23657
848.244	23691
848.379	23558
848.515	23387
848.65	23474
848.786	23463
848.921	23372
849.057	23539
849.192	23562
849.328	23444
849.463	23471
849.598	23463
849.734	23311
849.869	23318
850.004	23299
850.14	23322
850.275	23246
850.41	23200
850.545	23147
850.68	23254
850.815	23242
850.95	23235
851.085	23429
851.22	23379
851.355	23341
851.49	23193
851.625	23223
851.76	23250
851.895	23029
852.03	23132
852.165	23223
852.299	23345
852.434	23425
852.569	23250
852.703	23360
852.838	23398
852.973	23284
853.107	23440
853.242	23322
853.376	23079
853.511	22934
853.645	23083
853.78	23197
853.914	23132
854.048	23044
854.183	23105
854.317	23162
854.451	23284
854.585	23102
854.72	23159
854.854	23204
854.988	22987
855.122	23060
855.256	22904
855.39	22976
855.524	23143
855.658	23136
855.792	23140
855.926	23064
856.06	23117
856.194	23117
856.327	23052
856.461	23147
856.595	22968
856.729	23010
856.862	23181
856.996	22930
857.13	23121
857.263	23204
857.397	23151
857.53	23086
857.664	23064
857.797	23124
857.931	23124
858.064	23086
858.197	23170
858.331	23071
858.464	23117
858.597	22934
858.731	22873
858.864	23010
858.997	23041
859.13	23037
859.263	23094
859.396	23083
859.529	23048
859.662	22961
859.795	22892
859.928	23048
860.061	23261
860.194	23105
860.327	23052
860.46	23010
860.592	23121
860.725	23315
860.858	23200
860.99	23208
861.123	22961
861.256	23086
861.388	23117
861.521	23764
861.653	22915
861.786	22717
861.918	22828
862.05	22866
862.183	22999
862.315	23098
862.447	23124
862.58	22957
862.712	22713
862.844	22645
862.976	22744
863.108	22801
863.24	23345
863.372	22611
863.504	22896
863.636	22710
863.768	22812
863.9	22736
864.032	22797
864.164	22828
864.296	22801
864.428	22923
864.559	22927
864.691	22748
864.823	22774
864.954	22622
865.086	22675
865.217	22588
865.349	22656
865.48	22573
865.612	22622
865.743	22721
865.875	22660
866.006	22569
866.137	22607
866.269	22683
866.4	22634
866.531	22577
866.662	22565
866.793	22466
866.924	22569
867.055	22554
867.186	22634
867.317	22542
867.448	22500
867.579	22596
867.71	22375
867.841	22459
867.972	22542
868.103	22584
868.233	22500
868.364	22440
868.495	22721
868.625	22816
868.756	22873
868.886	22725
869.017	22759
869.147	22774
869.278	22995
869.408	22839
869.539	22740
869.669	22991
869.799	22904
869.929	22908
870.06	22957
870.19	23132
870.32	23041
870.45	23193
870.58	23159
870.71	23242
870.84	23311
870.97	23322
871.1	23303
871.23	23402
871.36	23379
871.489	23353
871.619	23509
871.749	23429
871.879	23448
872.008	23425
872.138	23197
872.267	23341
872.397	23181
872.526	23356
872.656	23258
872.785	23223
872.915	23486
873.044	23436
873.173	23383
873.303	23474
873.432	23592
873.561	23410
873.69	23391
873.819	23524
873.948	23505
874.077	23440
874.206	23296
874.335	23353
874.464	23512
874.593	23653
874.722	23554
874.851	23524
874.979	23547
875.108	23699
875.237	23512
875.365	23444
875.494	23539
875.623	23611
875.751	23585
875.88	23668
876.008	23657
876.136	23741
876.265	23958
876.393	24186
876.521	24121
876.65	23965
876.778	24049
876.906	23912
877.034	23874
877.162	24057
877.29	23980
877.418	24076
877.546	23984
877.674	23908
877.802	23878
877.93	23882
878.058	23927
878.185	23843
878.313	23939
878.441	23961
878.568	23767
878.696	23901
878.824	23893
878.951	23942
879.079	24178
879.206	24224
879.333	24057
879.461	23984
879.588	24034
879.715	24079
879.842	24243
879.97	24076
880.097	23745
880.224	23878
880.351	23771
880.478	23798
880.605	23748
880.732	23767
880.859	23965
880.986	23722
881.112	23794
881.239	23687
881.366	23509
881.493	23471
881.619	23341
881.746	23334
881.872	23288
881.999	23299
882.125	23277
882.252	23376
882.378	23166
882.505	23330
882.631	23113
882.757	22995
882.883	22968
883.01	22976
883.136	22957
883.262	22854
883.388	22885
883.514	22961
883.64	22972
883.766	22885
883.892	22683
884.018	22839
884.143	22854
884.269	22953
884.395	22752
884.52	22580
884.646	22603
884.772	22573
884.897	22512
885.023	22607
885.148	22710
885.274	22771
885.399	22759
885.524	22538
885.65	22679
885.775	22649
885.9	22592
886.025	22691
886.15	22573
886.275	22546
886.4	22527
886.525	22550
886.65	22660
886.775	22649
886.9	22694
887.025	22763
887.149	22664
887.274	22443
887.399	22276
887.523	22295
887.648	22303
887.773	22185
887.897	22386
888.021	22481
888.146	22352
888.27	22432
888.395	22466
888.519	22402
888.643	22382
888.767	22257
888.891	22322
889.015	22067
889.139	22196
889.263	22044
889.387	22173
889.511	22341
889.635	22219
889.759	22181
889.883	22230
890.006	22101
890.13	22219
890.254	22032
890.377	22147
890.501	21941
890.624	21781
890.748	21838
890.871	21762
890.995	21838
891.118	21648
891.241	21823
891.364	21728
891.488	21770
891.611	21819
891.734	21648
891.857	21709
891.98	21705
892.103	21720
892.226	21751
892.349	21625
892.471	21424
892.594	21618
892.717	21671
892.839	21542
892.962	21610
893.085	21690
893.207	21629
893.33	21504
893.452	21515
893.575	21580
893.697	21633
893.819	21667
893.941	21736
894.064	21717
894.186	21511
894.308	21545
894.43	21652
894.552	21751
894.674	21641
894.796	21420
894.918	21523
895.04	21564
895.161	21732
895.283	21599
895.405	21500
895.526	21549
895.648	21576
895.769	21443
895.891	21538
896.012	21583
896.134	21576
896.255	21488
896.376	21431
896.498	21545
896.619	21549
896.74	21462
896.861	21610
896.982	21812
897.103	21979
897.224	21724
897.345	21873
897.466	21591
897.587	21637
897.708	21926
897.828	21770
897.949	21682
898.07	21595
898.19	21622
898.311	21869
898.431	21705
898.552	21671
898.672	21854
898.792	21823
898.913	21694
899.033	21610
899.153	21488
899.273	21405
899.393	21500
899.513	21351
899.633	21435
899.753	21488
899.873	21370
899.993	21462
900.113	21317
900.232	21370
900.352	21363
900.472	21294
900.591	21142
900.711	21226
900.83	21169
900.95	21241
901.069	21252
901.189	21032
901.308	20781
901.427	20689
901.546	20762
901.665	20804
901.784	20746
901.904	20590
902.023	20621
902.141	20396
902.26	20317
902.379	20381
902.498	20195
902.617	20210
902.735	20343
902.854	20290
902.973	20225
903.091	19902
903.21	19925
903.328	19967
903.446	19864
903.565	19731
903.683	19628
903.801	19639
903.919	19662
904.038	19597
904.156	19434
904.274	19525
904.392	19518
904.51	19438
904.627	19476
904.745	19441
904.863	19567
904.981	19206
905.098	19004
905.216	19187
905.334	19202
905.451	19209
905.569	19137
905.686	19145
905.803	19183
905.921	18905
906.038	19034
906.155	18962
906.272	18894
906.389	18897
906.506	18692
906.623	18711
906.74	18692
906.857	18700
906.974	18696
907.091	18696
907.208	18837
907.324	18681
907.441	18566
907.557	18372
907.674	18304
907.79	18346
907.907	18433
908.023	18452
908.139	18437
908.256	18361
908.372	18266
908.488	18270
908.604	18213
908.72	17935
908.836	18224
908.952	18095
909.068	18072
909.184	18136
909.3	18095
909.415	18136
909.531	18125
909.647	17828
909.762	17870
909.878	17805
909.993	17824
910.108	17813
910.224	17760
910.339	17737
910.454	17722
910.57	17619
910.685	17524
910.8	17832
910.915	17779
911.03	17634
911.145	17448
911.259	17395
911.374	17376
911.489	17254
911.604	17261
911.718	17098
911.833	17136
911.947	17029
912.062	16934
912.176	17162
912.291	17105
912.405	17094
912.519	17273
912.633	17356
912.748	17064
912.862	17083
912.976	17003
913.09	16782
913.204	16881
913.318	16831
913.431	17056
913.545	16999
913.659	17075
913.772	16854
913.886	16656
914	16710
914.113	16824
914.226	16816
914.34	16694
914.453	16535
914.566	16702
914.68	16615
914.793	16626
914.906	16352
915.019	16188
915.132	16226
915.245	16268
915.358	16265
915.47	16230
915.583	16249
915.696	16367
915.809	16432
915.921	16413
916.034	16158
916.146	16188
916.259	16181
916.371	16211
916.483	16246
916.595	16116
916.708	16128
916.82	16078
916.932	16017
917.044	15979
917.156	15983
917.268	15949
917.38	15831
917.491	15785
917.603	15846
917.715	15930
917.826	15964
917.938	15907
918.049	15747
918.161	15861
918.272	15926
918.384	15850
918.495	15781
918.606	15618
918.717	15580
918.828	15606
918.939	15576
919.05	15496
919.161	15595
919.272	15340
919.383	15488
919.494	15709
919.604	15770
919.715	15591
919.826	15454
919.936	15477
920.047	15549
920.157	15568
920.267	15671
920.378	15660
920.488	15591
920.598	15732
920.708	15816
920.818	15618
920.928	15755
921.038	15842
921.148	15812
921.258	15450
921.368	15428
921.477	15268
921.587	15195
921.697	15104
921.806	15272
921.916	15077
922.025	15043
922.134	14880
922.244	14883
922.353	14944
922.462	14754
922.571	14689
922.68	14552
922.789	14587
922.898	14511
923.007	14499
923.116	14556
923.224	14526
923.333	14541
923.442	14396
923.55	14347
923.659	14385
923.767	14454
923.876	14393
923.984	14446
924.092	14282
924.201	14320
924.309	14290
924.417	14161
924.525	14157
924.633	14218
924.741	15074
924.849	14058
924.956	14126
925.064	13986
925.172	13841
925.279	13856
925.387	13951
925.494	13856
925.602	14027
925.709	13989
925.816	13750
925.924	13799
926.031	13818
926.138	13868
926.245	13833
926.352	13769
926.459	13883
926.566	13925
926.673	13837
926.779	13655
926.886	13655
926.993	13483
927.099	13487
927.206	13358
927.312	13354
927.419	13441
927.525	13499
927.631	13350
927.737	13236
927.843	13274
927.95	13198
928.056	13312
928.162	13301
928.267	13232
928.373	13845
928.479	13274
928.585	13107
928.69	13194
928.796	13194
928.901	12985
929.007	12924
929.112	13084
929.218	12962
929.323	12996
929.428	12962
929.533	13015
929.638	12848
929.743	12817
929.848	12890
929.953	12882
930.058	12684
930.163	12662
930.267	12616
930.372	12795
930.477	12540
930.581	12764
930.685	12662
930.79	12399
930.894	12513
930.998	12418
931.103	12585
931.207	12190
931.311	12110
931.415	12087
931.519	11836
931.623	11882
