Data from test_V78500241_3593.txt Node
Date: Fri Mar 25 16:06:41 CST 2022
User: usil
Spectrometer: V785-0024
Trigger mode: 0
Integration Time (sec): 4.000000E-1
Scans to average: 1
Nonlinearity correction enabled: false
Boxcar width: 0
Storing dark spectrum: false
XAxis mode: Wavelengths
Number of Pixels in Spectrum: 1024
>>>>>Begin Spectral Data<<<<<
801.071	28862
801.214	28885
801.356	28527
801.499	28516
801.641	28538
801.783	28401
801.926	28417
802.068	28443
802.211	28295
802.353	28409
802.496	28131
802.638	28070
802.78	28143
802.923	28070
803.065	28078
803.208	28074
803.35	28211
803.492	28379
803.635	28481
803.777	28291
803.919	28546
804.061	28694
804.204	28447
804.346	28314
804.488	28379
804.63	28341
804.773	28371
804.915	28508
805.057	28573
805.199	28424
805.341	28356
805.483	28569
805.626	28500
805.768	28367
805.91	28504
806.052	28618
806.194	28557
806.336	28622
806.478	28580
806.62	28550
806.762	28816
806.904	28839
807.046	29083
807.188	28949
807.33	29052
807.472	29006
807.614	28968
807.756	29083
807.898	28748
808.04	28843
808.182	28729
808.324	28782
808.465	28904
808.607	29166
808.749	29280
808.891	29368
809.033	29379
809.174	29307
809.316	29227
809.458	29239
809.6	29083
809.741	29452
809.883	29444
810.025	29493
810.166	29486
810.308	29604
810.45	29467
810.591	29406
810.733	29337
810.875	29273
811.016	29075
811.158	29185
811.299	29246
811.441	29535
811.582	29379
811.724	29318
811.865	29265
812.007	29341
812.148	29231
812.29	29330
812.431	29379
812.573	29596
812.714	29699
812.855	29665
812.997	30049
813.138	29897
813.279	29958
813.421	29882
813.562	29627
813.703	29634
813.845	29562
813.986	29273
814.127	29102
814.268	29067
814.41	29018
814.551	29022
814.692	29003
814.833	29010
814.974	29041
815.115	29117
815.256	28748
815.397	28782
815.539	28847
815.68	28744
815.821	28672
815.962	28729
816.103	28885
816.244	28611
816.385	28565
816.526	28675
816.666	28451
816.807	28322
816.948	28512
817.089	28497
817.23	28348
817.371	28379
817.512	28280
817.653	28185
817.793	28207
817.934	28421
818.075	28249
818.216	28322
818.356	28299
818.497	28059
818.638	28067
818.778	28090
818.919	28143
819.06	28147
819.2	28261
819.341	28230
819.481	28299
819.622	28603
819.762	28580
819.903	28660
820.043	28360
820.184	28489
820.324	28557
820.465	28462
820.605	28432
820.746	28455
820.886	28242
821.026	28382
821.167	28257
821.307	28497
821.447	28417
821.588	28253
821.728	28109
821.868	28002
822.008	27819
822.149	27880
822.289	27770
822.429	27507
822.569	27492
822.709	27473
822.849	27237
822.99	27256
823.13	27351
823.27	27256
823.41	27085
823.55	27116
823.69	27157
823.83	27070
823.97	27211
824.11	26887
824.25	26937
824.389	27009
824.529	27051
824.669	27005
824.809	27039
824.949	26975
825.089	26990
825.228	27127
825.368	26781
825.508	26807
825.648	26838
825.787	26861
825.927	26895
826.067	26986
826.206	26830
826.346	26902
826.485	26899
826.625	26963
826.765	26986
826.904	26864
827.044	26594
827.183	26583
827.323	26648
827.462	26678
827.601	26632
827.741	26355
827.88	26579
828.02	26537
828.159	26556
828.298	26682
828.437	26575
828.577	26587
828.716	26739
828.855	26480
828.994	26275
829.134	26298
829.273	26301
829.412	26172
829.551	26309
829.69	26317
829.829	26259
829.968	26328
830.107	26275
830.246	26244
830.385	26122
830.524	26183
830.663	25989
830.802	25989
830.941	25936
831.08	25753
831.219	25955
831.357	25947
831.496	25974
831.635	25955
831.774	25921
831.913	25803
832.051	25639
832.19	25506
832.329	25620
832.467	25635
832.606	25613
832.744	25567
832.883	25468
833.022	25438
833.16	25647
833.299	25776
833.437	25499
833.576	25609
833.714	25632
833.852	25662
833.991	25658
834.129	25639
834.267	25780
834.406	25624
834.544	25693
834.682	25632
834.821	25590
834.959	25696
835.097	25453
835.235	25613
835.373	25677
835.511	25681
835.65	25518
835.788	25563
835.926	25381
836.064	25202
836.202	25335
836.34	25358
836.478	25533
836.615	25514
836.753	25472
836.891	25578
837.029	25567
837.167	25381
837.305	25289
837.443	25369
837.58	25278
837.718	25403
837.856	25316
837.993	25225
838.131	25266
838.269	25148
838.406	25160
838.544	25122
838.681	24932
838.819	24966
838.956	24760
839.094	24703
839.231	24776
839.369	24901
839.506	25027
839.643	24951
839.781	24738
839.918	24677
840.055	24798
840.193	24757
840.33	24650
840.467	24696
840.604	24768
840.742	24905
840.879	24513
841.016	24551
841.153	24490
841.29	24703
841.427	24547
841.564	24684
841.701	24673
841.838	24547
841.975	24525
842.112	24505
842.249	24422
842.385	24422
842.522	24669
842.659	24372
842.796	24270
842.933	24361
843.069	24391
843.206	24311
843.343	24391
843.479	24464
843.616	24258
843.752	24209
843.889	24174
844.025	24369
844.162	24057
844.298	24072
844.435	24125
844.571	24190
844.708	24057
844.844	24353
844.98	24296
845.117	24182
845.253	24125
845.389	23961
845.525	24102
845.661	24045
845.798	23889
845.934	24114
846.07	23920
846.206	24038
846.342	24064
846.478	23870
846.614	23672
846.75	23539
846.886	23562
847.022	23543
847.158	23668
847.294	23505
847.429	23627
847.565	23608
847.701	23874
847.837	23334
847.972	23311
848.108	23410
848.244	23307
848.379	23273
848.515	23250
848.65	23250
848.786	23185
848.921	23258
849.057	23326
849.192	23299
849.328	23220
849.463	23258
849.598	23098
849.734	23102
849.869	23105
850.004	23014
850.14	22873
850.275	22934
850.41	22995
850.545	22873
850.68	22881
850.815	23102
850.95	22877
851.085	23147
851.22	23117
851.355	22972
851.49	22961
851.625	23048
851.76	22946
851.895	22900
852.03	23037
852.165	23014
852.299	23014
852.434	23079
852.569	23048
852.703	22927
852.838	22976
852.973	23037
853.107	23052
853.242	22911
853.376	22908
853.511	22710
853.645	22630
853.78	22915
853.914	22908
854.048	22653
854.183	22824
854.317	22805
854.451	22987
854.585	22786
854.72	22873
854.854	22942
854.988	22653
855.122	22797
855.256	22569
855.39	22786
855.524	22942
855.658	22949
855.792	22698
855.926	22816
856.06	22801
856.194	22767
856.327	22763
856.461	22831
856.595	22721
856.729	22850
856.862	22976
856.996	22831
857.13	22767
857.263	22980
857.397	22816
857.53	22759
857.664	22797
857.797	22828
857.931	22877
858.064	22744
858.197	22892
858.331	22733
858.464	22733
858.597	22656
858.731	22786
858.864	22702
858.997	22744
859.13	22717
859.263	22889
859.396	22831
859.529	22877
859.662	22752
859.795	22653
859.928	22877
860.061	23003
860.194	22923
860.327	22801
860.46	22877
860.592	22850
860.725	23018
860.858	22862
860.99	22767
861.123	22698
861.256	22717
861.388	22748
861.521	23406
861.653	22641
861.786	22451
861.918	22592
862.05	22679
862.183	22683
862.315	22740
862.447	22740
862.58	22740
862.712	22542
862.844	22512
862.976	22527
863.108	22554
863.24	22911
863.372	22325
863.504	22523
863.636	22512
863.768	22573
863.9	22512
864.032	22436
864.164	22474
864.296	22462
864.428	22672
864.559	22535
864.691	22592
864.823	22447
864.954	22550
865.086	22428
865.217	22417
865.349	22341
865.48	22375
865.612	22204
865.743	22421
865.875	22318
866.006	22322
866.137	22394
866.269	22306
866.4	22367
866.531	22265
866.662	22276
866.793	22211
866.924	22215
867.055	22284
867.186	22303
867.317	22299
867.448	22230
867.579	22196
867.71	22303
867.841	22196
867.972	22253
868.103	22352
868.233	22226
868.364	22276
868.495	22402
868.625	22603
868.756	22630
868.886	22531
869.017	22519
869.147	22599
869.278	22573
869.408	22538
869.539	22485
869.669	22561
869.799	22554
869.929	22694
870.06	22702
870.19	22942
870.32	22778
870.45	22938
870.58	22843
870.71	22991
870.84	23075
870.97	22984
871.1	23044
871.23	23147
871.36	23060
871.489	23014
871.619	23121
871.749	23083
871.879	23299
872.008	23315
872.138	23128
872.267	23124
872.397	22976
872.526	22889
872.656	22934
872.785	22889
872.915	23113
873.044	23181
873.173	23124
873.303	23296
873.432	23174
873.561	23277
873.69	23113
873.819	23231
873.948	23246
874.077	23121
874.206	23159
874.335	23147
874.464	23242
874.593	23345
874.722	23436
874.851	23349
874.979	23368
875.108	23406
875.237	23345
875.365	23204
875.494	23353
875.623	23391
875.751	23368
875.88	23303
876.008	23459
876.136	23471
876.265	23676
876.393	23923
876.521	23737
876.65	23752
876.778	23798
876.906	23764
877.034	23707
877.162	23634
877.29	23680
877.418	23764
877.546	23855
877.674	23737
877.802	23653
877.93	23642
878.058	23547
878.185	23623
878.313	23672
878.441	23680
878.568	23497
878.696	23547
878.824	23786
878.951	23794
879.079	23760
879.206	23977
879.333	23813
879.461	23851
879.588	23726
879.715	23977
879.842	23920
879.97	23733
880.097	23459
880.224	23570
880.351	23589
880.478	23452
880.605	23589
880.732	23410
880.859	23817
880.986	23463
881.112	23604
881.239	23307
881.366	23296
881.493	23048
881.619	23155
881.746	23151
881.872	23037
881.999	23094
882.125	23037
882.252	23044
882.378	23033
882.505	23170
882.631	22900
882.757	22873
882.883	22778
883.01	22763
883.136	22660
883.262	22603
883.388	22603
883.514	22656
883.64	22850
883.766	22653
883.892	22516
884.018	22542
884.143	22561
884.269	22706
884.395	22424
884.52	22405
884.646	22379
884.772	22265
884.897	22204
885.023	22402
885.148	22459
885.274	22375
885.399	22367
885.524	22344
885.65	22440
885.775	22253
885.9	22375
886.025	22470
886.15	22371
886.275	22341
886.4	22295
886.525	22306
886.65	22333
886.775	22234
886.9	22421
887.025	22603
887.149	22272
887.274	22135
887.399	22158
887.523	22147
887.648	21972
887.773	22070
887.897	22166
888.021	22215
888.146	22006
888.27	22207
888.395	22204
888.519	22143
888.643	22109
888.767	22093
888.891	22006
889.015	21937
889.139	21968
889.263	21865
889.387	22036
889.511	22070
889.635	21991
889.759	21827
889.883	21842
890.006	21895
890.13	22017
890.254	21755
890.377	21816
890.501	21603
890.624	21656
890.748	21736
890.871	21416
890.995	21462
891.118	21355
891.241	21523
891.364	21443
891.488	21656
891.611	21519
891.734	21557
891.857	21595
891.98	21447
892.103	21583
892.226	21462
892.349	21363
892.471	21241
892.594	21264
892.717	21367
892.839	21355
892.962	21348
893.085	21473
893.207	21214
893.33	21245
893.452	21154
893.575	21496
893.697	21222
893.819	21504
893.941	21515
894.064	21477
894.186	21306
894.308	21192
894.43	21344
894.552	21515
894.674	21420
894.796	21329
894.918	21416
895.04	21317
895.161	21420
895.283	21481
895.405	21222
895.526	21298
895.648	21226
895.769	21325
895.891	21283
896.012	21344
896.134	21393
896.255	21378
896.376	21218
896.498	21245
896.619	21344
896.74	21340
896.861	21359
896.982	21622
897.103	21781
897.224	21618
897.345	21519
897.466	21526
897.587	21439
897.708	21698
897.828	21595
897.949	21485
898.07	21359
898.19	21401
898.311	21595
898.431	21504
898.552	21454
898.672	21599
898.792	21530
898.913	21504
899.033	21378
899.153	21237
899.273	21180
899.393	21313
899.513	21313
899.633	21199
899.753	21207
899.873	21116
899.993	21146
900.113	21150
900.232	21249
900.352	21039
900.472	21001
900.591	21017
900.711	21001
900.83	20910
900.95	21062
901.069	20986
901.189	20910
901.308	20773
901.427	20545
901.546	20625
901.665	20579
901.784	20640
901.904	20533
902.023	20423
902.141	20244
902.26	20115
902.379	20119
902.498	20134
902.617	20065
902.735	20069
902.854	20081
902.973	19978
903.091	19719
903.21	19845
903.328	19727
903.446	19616
903.565	19590
903.683	19552
903.801	19464
903.919	19388
904.038	19422
904.156	19346
904.274	19411
904.392	19251
904.51	19278
904.627	19198
904.745	19232
904.863	19278
904.981	19065
905.098	18943
905.216	18932
905.334	18943
905.451	18970
905.569	18924
905.686	18954
905.803	18875
905.921	18730
906.038	18913
906.155	18650
906.272	18631
906.389	18726
906.506	18597
906.623	18506
906.74	18521
906.857	18289
906.974	18372
907.091	18456
907.208	18593
907.324	18388
907.441	18361
907.557	18232
907.674	18140
907.79	18087
907.907	18133
908.023	18228
908.139	18140
908.256	18114
908.372	18049
908.488	18159
908.604	17935
908.72	17969
908.836	17863
908.952	17912
909.068	17878
909.184	17939
909.3	17901
909.415	17832
909.531	17920
909.647	17634
909.762	17547
909.878	17570
909.993	17630
910.108	17543
910.224	17524
910.339	17592
910.454	17436
910.57	17414
910.685	17299
910.8	17444
910.915	17554
911.03	17440
911.145	17220
911.259	17143
911.374	17231
911.489	17136
911.604	17071
911.718	16858
911.833	16881
911.947	16706
912.062	16733
912.176	17022
912.291	16873
912.405	16873
912.519	17022
912.633	17037
912.748	16927
912.862	16991
912.976	16687
913.09	16500
913.204	16641
913.318	16797
913.431	16778
913.545	16809
913.659	16812
913.772	16641
913.886	16561
914	16538
914.113	16683
914.226	16588
914.34	16504
914.453	16295
914.566	16512
914.68	16360
914.793	16291
914.906	16071
915.019	16055
915.132	15949
915.245	16090
915.358	16101
915.47	16112
915.583	16036
915.696	16093
915.809	16207
915.921	16147
916.034	16055
916.146	15941
916.259	15949
916.371	16078
916.483	16040
916.595	15876
916.708	15739
916.82	15956
916.932	15736
917.044	15789
917.156	15823
917.268	15656
917.38	15705
917.491	15610
917.603	15675
917.715	15774
917.826	15705
917.938	15667
918.049	15625
918.161	15622
918.272	15766
918.384	15736
918.495	15584
918.606	15428
918.717	15359
918.828	15443
918.939	15401
919.05	15298
919.161	15252
919.272	15218
919.383	15207
919.494	15481
919.604	15599
919.715	15351
919.826	15340
919.936	15287
920.047	15523
920.157	15401
920.267	15576
920.378	15397
920.488	15321
920.598	15504
920.708	15728
920.818	15511
920.928	15488
921.038	15675
921.148	15580
921.258	15306
921.368	15138
921.477	15058
921.587	15005
921.697	14796
921.806	15074
921.916	14853
922.025	14800
922.134	14693
922.244	14686
922.353	14674
922.462	14636
922.571	14499
922.68	14446
922.789	14286
922.898	14370
923.007	14278
923.116	14389
923.224	14393
923.333	14248
923.442	14275
923.55	14210
923.659	14244
923.767	14298
923.876	14138
923.984	14172
924.092	14092
924.201	14024
924.309	14138
924.417	14077
924.525	14005
924.633	13974
924.741	14944
924.849	13875
924.956	13974
925.064	13753
925.172	13746
925.279	13670
925.387	13734
925.494	13708
925.602	13814
925.709	13780
925.816	13609
925.924	13685
926.031	13616
926.138	13670
926.245	13670
926.352	13601
926.459	13655
926.566	13723
926.673	13597
926.779	13430
926.886	13396
926.993	13297
927.099	13365
927.206	13327
927.312	13244
927.419	13263
927.525	13263
927.631	13377
927.737	13107
927.843	13107
927.95	13012
928.056	13103
928.162	13114
928.267	13088
928.373	13746
928.479	13122
928.585	12840
928.69	12981
928.796	13027
928.901	12970
929.007	12745
929.112	12981
929.218	12833
929.323	12821
929.428	12760
929.533	12897
929.638	12692
929.743	12722
929.848	12798
929.953	12757
930.058	12627
930.163	12391
930.267	12483
930.372	12536
930.477	12429
930.581	12681
930.685	12464
930.79	12308
930.894	12289
930.998	12285
931.103	12429
931.207	12110
931.311	11931
931.415	11912
931.519	11661
931.623	11695
