Data from test_V78500241_532.txt Node
Date: Fri Mar 25 15:45:29 CST 2022
User: usil
Spectrometer: V785-0024
Trigger mode: 0
Integration Time (sec): 4.000000E-1
Scans to average: 1
Nonlinearity correction enabled: false
Boxcar width: 0
Storing dark spectrum: false
XAxis mode: Wavelengths
Number of Pixels in Spectrum: 1024
>>>>>Begin Spectral Data<<<<<
801.071	28010
801.214	27736
801.356	27530
801.499	27633
801.641	27519
801.783	27473
801.926	27587
802.068	27401
802.211	27397
802.353	27268
802.496	27119
802.638	27032
802.78	27135
802.923	27066
803.065	27047
803.208	27036
803.35	27138
803.492	27237
803.635	27127
803.777	27089
803.919	27203
804.061	27625
804.204	27291
804.346	27203
804.488	26986
804.63	27241
804.773	27116
804.915	27302
805.057	27412
805.199	27192
805.341	27165
805.483	27382
805.626	27336
805.768	27344
805.91	27275
806.052	27397
806.194	27325
806.336	27526
806.478	27492
806.62	27397
806.762	27511
806.904	27557
807.046	27880
807.188	27781
807.33	27785
807.472	27842
807.614	27732
807.756	27679
807.898	27652
808.04	27580
808.182	27553
808.324	27671
808.465	27622
808.607	27930
808.749	28025
808.891	28029
809.033	28177
809.174	28025
809.316	28010
809.458	28128
809.6	28086
809.741	28105
809.883	28154
810.025	28139
810.166	28375
810.308	28329
810.45	28215
810.591	28150
810.733	28055
810.875	27979
811.016	27972
811.158	27956
811.299	28291
811.441	28303
811.582	28101
811.724	28097
811.865	27793
812.007	27914
812.148	28086
812.29	28116
812.431	28318
812.573	28295
812.714	28417
812.855	28413
812.997	28778
813.138	28721
813.279	28611
813.421	28626
813.562	28577
813.703	28538
813.845	28306
813.986	27991
814.127	27850
814.268	27759
814.41	27587
814.551	27694
814.692	27743
814.833	27698
814.974	27534
815.115	27751
815.256	27629
815.397	27610
815.539	27713
815.68	27564
815.821	27412
815.962	27443
816.103	27538
816.244	27336
816.385	27207
816.526	27176
816.666	27127
816.807	26971
816.948	26933
817.089	27135
817.23	26986
817.371	26826
817.512	27005
817.653	27032
817.793	26880
817.934	26937
818.075	26990
818.216	27013
818.356	26796
818.497	26800
818.638	26640
818.778	26819
818.919	26746
819.06	26834
819.2	26921
819.341	27051
819.481	26906
819.622	26967
819.762	27363
819.903	27203
820.043	27089
820.184	27089
820.324	26979
820.465	27138
820.605	27123
820.746	27047
820.886	26823
821.026	27176
821.167	27017
821.307	27203
821.447	27062
821.588	26956
821.728	26800
821.868	26598
822.008	26530
822.149	26408
822.289	26393
822.429	26153
822.569	26248
822.709	26088
822.849	25917
822.99	25928
823.13	25928
823.27	25868
823.41	25738
823.55	25613
823.69	25811
823.83	25818
823.97	25753
824.11	25525
824.25	25628
824.389	25495
824.529	25712
824.669	25506
824.809	25765
824.949	25750
825.089	25635
825.228	25655
825.368	25445
825.508	25438
825.648	25510
825.787	25552
825.927	25586
826.067	25419
826.206	25419
826.346	25479
826.485	25540
826.625	25468
826.765	25670
826.904	25559
827.044	25274
827.183	25228
827.323	25114
827.462	25228
827.601	25259
827.741	25076
827.88	25168
828.02	25122
828.159	25023
828.298	25129
828.437	25419
828.577	25209
828.716	25278
828.855	25031
828.994	25046
829.134	24875
829.273	24913
829.412	24837
829.551	24817
829.69	24848
829.829	24966
829.968	25034
830.107	25034
830.246	24878
830.385	24787
830.524	24654
830.663	24715
830.802	24559
830.941	24369
831.08	24517
831.219	24566
831.357	24528
831.496	24745
831.635	24464
831.774	24467
831.913	24456
832.051	24296
832.19	24209
832.329	24315
832.467	24155
832.606	24178
832.744	24072
832.883	24133
833.022	24087
833.16	24209
833.299	24171
833.437	24140
833.576	24239
833.714	24330
833.852	24323
833.991	24224
834.129	24281
834.267	24102
834.406	24079
834.544	24163
834.682	24194
834.821	24167
834.959	24376
835.097	24049
835.235	24243
835.373	24254
835.511	24254
835.65	24072
835.788	24273
835.926	23889
836.064	23904
836.202	23836
836.34	23988
836.478	24121
836.615	24026
836.753	23958
836.891	24064
837.029	24038
837.167	23973
837.305	23984
837.443	23878
837.58	23901
837.718	23923
837.856	23908
837.993	23783
838.131	23855
838.269	23783
838.406	23748
838.544	23699
838.681	23520
838.819	23570
838.956	23490
839.094	23356
839.231	23299
839.369	23512
839.506	23665
839.643	23543
839.781	23349
839.918	23239
840.055	23334
840.193	23284
840.33	23254
840.467	23220
840.604	23273
840.742	23436
840.879	23075
841.016	23204
841.153	23136
841.29	23292
841.427	23212
841.564	23284
841.701	23216
841.838	23208
841.975	23102
842.112	23200
842.249	23109
842.385	23079
842.522	23200
842.659	23109
842.796	22949
842.933	23094
843.069	22972
843.206	22999
843.343	23102
843.479	22949
843.616	22991
843.752	22797
843.889	22820
844.025	22904
844.162	22702
844.298	22812
844.435	22850
844.571	22710
844.708	22831
844.844	23071
844.98	22885
845.117	22816
845.253	22755
845.389	22622
845.525	22672
845.661	22592
845.798	22603
845.934	22611
846.07	22538
846.206	22478
846.342	22687
846.478	22592
846.614	22382
846.75	22135
846.886	22268
847.022	22386
847.158	22261
847.294	22196
847.429	22188
847.565	22169
847.701	22219
847.837	21915
847.972	21975
848.108	22166
848.244	22154
848.379	21911
848.515	21873
848.65	21781
848.786	21819
848.921	21717
849.057	21956
849.192	21987
849.328	21797
849.463	21846
849.598	21755
849.734	21770
849.869	21701
850.004	21576
850.14	21705
850.275	21519
850.41	21557
850.545	21481
850.68	21553
850.815	21667
850.95	21694
851.085	21652
851.22	21709
851.355	21641
851.49	21572
851.625	21389
851.76	21511
851.895	21622
852.03	21424
852.165	21641
852.299	21568
852.434	21679
852.569	21671
852.703	21583
852.838	21614
852.973	21804
853.107	21644
853.242	21462
853.376	21378
853.511	21329
853.645	21310
853.78	21519
853.914	21412
854.048	21336
854.183	21355
854.317	21367
854.451	21679
854.585	21363
854.72	21340
854.854	21458
854.988	21386
855.122	21412
855.256	21332
855.39	21329
855.524	21443
855.658	21500
855.792	21401
855.926	21477
856.06	21504
856.194	21431
856.327	21230
856.461	21393
856.595	21374
856.729	21367
856.862	21473
856.996	21424
857.13	21496
857.263	21606
857.397	21545
857.53	21294
857.664	21481
857.797	21462
857.931	21450
858.064	21329
858.197	21473
858.331	21412
858.464	21363
858.597	21310
858.731	21321
858.864	21298
858.997	21306
859.13	21370
859.263	21412
859.396	21454
859.529	21397
859.662	21306
859.795	21264
859.928	21477
860.061	21564
860.194	21606
860.327	21378
860.46	21405
860.592	21523
860.725	21564
860.858	21587
860.99	21306
861.123	21287
861.256	21458
861.388	21310
861.521	21979
861.653	21389
861.786	21241
861.918	21298
862.05	21310
862.183	21321
862.315	21298
862.447	21443
862.58	21344
862.712	21142
862.844	21180
862.976	21279
863.108	21165
863.24	21576
863.372	21142
863.504	21028
863.636	21058
863.768	21085
863.9	21123
864.032	21146
864.164	21108
864.296	21169
864.428	21222
864.559	21211
864.691	21135
864.823	21104
864.954	21146
865.086	21096
865.217	21089
865.349	20933
865.48	21001
865.612	20952
865.743	21157
865.875	20944
866.006	20944
866.137	20990
866.269	20925
866.4	21017
866.531	20929
866.662	20937
866.793	20899
866.924	20895
867.055	21032
867.186	20823
867.317	20979
867.448	20765
867.579	20868
867.71	20735
867.841	20765
867.972	20952
868.103	20883
868.233	20800
868.364	21020
868.495	20944
868.625	21001
868.756	21340
868.886	21058
869.017	21169
869.147	21340
869.278	21325
869.408	21283
869.539	21211
869.669	21313
869.799	21142
869.929	21473
870.06	21313
870.19	21557
870.32	21469
870.45	21458
870.58	21591
870.71	21591
870.84	21656
870.97	21549
871.1	21595
871.23	21850
871.36	21679
871.489	21637
871.619	21724
871.749	21766
871.879	21793
872.008	21934
872.138	21869
872.267	21762
872.397	21736
872.526	21587
872.656	21728
872.785	21633
872.915	21751
873.044	21797
873.173	21854
873.303	21747
873.432	21778
873.561	21888
873.69	21964
873.819	21789
873.948	21975
874.077	21755
874.206	21709
874.335	21751
874.464	21823
874.593	22036
874.722	21975
874.851	22025
874.979	22063
875.108	22010
875.237	22025
875.365	21915
875.494	22070
875.623	22070
875.751	21998
875.88	21991
876.008	22154
876.136	22162
876.265	22462
876.393	22497
876.521	22493
876.65	22538
876.778	22390
876.906	22337
877.034	22409
877.162	22329
877.29	22291
877.418	22379
877.546	22405
877.674	22341
877.802	22272
877.93	22207
878.058	22428
878.185	22268
878.313	22325
878.441	22284
878.568	22173
878.696	22223
878.824	22333
878.951	22451
879.079	22592
879.206	22615
879.333	22535
879.461	22367
879.588	22519
879.715	22577
879.842	22641
879.97	22386
880.097	22158
880.224	22223
880.351	22280
880.478	22185
880.605	22124
880.732	22188
880.859	22348
880.986	22272
881.112	22196
881.239	21979
881.366	21789
881.493	21907
881.619	21808
881.746	21808
881.872	21762
881.999	21675
882.125	21762
882.252	21736
882.378	21732
882.505	21964
882.631	21641
882.757	21511
882.883	21534
883.01	21545
883.136	21351
883.262	21207
883.388	21386
883.514	21431
883.64	21663
883.766	21256
883.892	21199
884.018	21275
884.143	21420
884.269	21557
884.395	21226
884.52	21161
884.646	21055
884.772	21024
884.897	20937
885.023	21173
885.148	21116
885.274	21249
885.399	21287
885.524	21161
885.65	21005
885.775	21127
885.9	20918
886.025	21199
886.15	21089
886.275	21123
886.4	20899
886.525	20906
886.65	21062
886.775	21020
886.9	21108
887.025	21264
887.149	21093
887.274	20933
887.399	20830
887.523	20902
887.648	20785
887.773	20682
887.897	20853
888.021	20857
888.146	20773
888.27	20872
888.395	20918
888.519	20921
888.643	20895
888.767	21009
888.891	20895
889.015	20746
889.139	20823
889.263	20693
889.387	20769
889.511	20845
889.635	20796
889.759	20708
889.883	20693
890.006	20731
890.13	20659
890.254	20533
890.377	20560
890.501	20427
890.624	20438
890.748	20560
890.871	20313
890.995	20126
891.118	20229
891.241	20206
891.364	20278
891.488	20332
891.611	20183
891.734	20172
891.857	20317
891.98	20111
892.103	20237
892.226	20309
892.349	20161
892.471	20046
892.594	20180
892.717	20176
892.839	20157
892.962	20218
893.085	20271
893.207	20237
893.33	20084
893.452	20134
893.575	20263
893.697	20233
893.819	20290
893.941	20294
894.064	20214
894.186	20020
894.308	20027
894.43	20187
894.552	20294
894.674	20149
894.796	20081
894.918	20122
895.04	20069
895.161	20199
895.283	20214
895.405	20084
895.526	20062
895.648	20039
895.769	20180
895.891	20229
896.012	20381
896.134	20187
896.255	20206
896.376	20187
896.498	20027
896.619	20096
896.74	20202
896.861	20278
896.982	20545
897.103	20579
897.224	20374
897.345	20317
897.466	20290
897.587	20336
897.708	20526
897.828	20495
897.949	20336
898.07	20214
898.19	20199
898.311	20423
898.431	20434
898.552	20301
898.672	20351
898.792	20457
898.913	20461
899.033	20191
899.153	20210
899.273	19993
899.393	20035
899.513	20073
899.633	20149
899.753	20065
899.873	20046
899.993	20145
900.113	20077
900.232	20100
900.352	20092
900.472	20024
900.591	19791
900.711	19940
900.83	19765
900.95	19936
901.069	19982
901.189	19890
901.308	19647
901.427	19483
901.546	19529
901.665	19639
901.784	19544
901.904	19297
902.023	19129
902.141	19198
902.26	18996
902.379	19213
902.498	18958
902.617	18886
902.735	19046
902.854	18973
902.973	18806
903.091	18669
903.21	18684
903.328	18551
903.446	18536
903.565	18578
903.683	18494
903.801	18201
903.919	18441
904.038	18277
904.156	18197
904.274	18304
904.392	18247
904.51	18232
904.627	18144
904.745	18289
904.863	18281
904.981	17988
905.098	17916
905.216	17946
905.334	17912
905.451	17923
905.569	17916
905.686	17958
905.803	17817
905.921	17638
906.038	17767
906.155	17767
906.272	17596
906.389	17562
906.506	17429
906.623	17395
906.74	17410
906.857	17330
906.974	17334
907.091	17509
907.208	17570
907.324	17414
907.441	17368
907.557	17258
907.674	17208
907.79	17121
907.907	17117
908.023	17090
908.139	17037
908.256	17029
908.372	17029
908.488	16984
908.604	16946
908.72	16869
908.836	16858
908.952	16831
909.068	16858
909.184	16961
909.3	16839
909.415	16934
909.531	16797
909.647	16603
909.762	16607
909.878	16607
909.993	16592
910.108	16440
910.224	16626
910.339	16558
910.454	16432
910.57	16371
910.685	16322
910.8	16607
910.915	16618
911.03	16360
911.145	16238
911.259	16124
911.374	16078
911.489	16192
911.604	16116
911.718	15953
911.833	15968
911.947	15774
912.062	15918
912.176	15937
912.291	15968
912.405	15941
912.519	16147
912.633	16173
912.748	16051
912.862	15865
912.976	15679
913.09	15587
913.204	15690
913.318	15770
913.431	15797
913.545	15816
913.659	15888
913.772	15732
913.886	15523
914	15648
914.113	15663
914.226	15595
914.34	15572
914.453	15431
914.566	15660
914.68	15336
914.793	15313
914.906	15192
915.019	15138
915.132	15032
915.245	15093
915.358	15097
915.47	15089
915.583	15116
915.696	15047
915.809	15230
915.921	15298
916.034	15146
916.146	14960
916.259	14990
916.371	15085
916.483	14986
916.595	15070
916.708	14998
916.82	15017
916.932	14838
917.044	14845
917.156	14906
917.268	14800
917.38	14857
917.491	14826
917.603	14800
917.715	14826
917.826	14948
917.938	14758
918.049	14629
918.161	14811
918.272	14857
918.384	14830
918.495	14708
918.606	14560
918.717	14511
918.828	14507
918.939	14465
919.05	14423
919.161	14556
919.272	14370
919.383	14450
919.494	14571
919.604	14743
919.715	14568
919.826	14358
919.936	14484
920.047	14583
920.157	14518
920.267	14769
920.378	14457
920.488	14522
920.598	14606
920.708	14830
920.818	14610
920.928	14629
921.038	14830
921.148	14727
921.258	14358
921.368	14385
921.477	14210
921.587	14271
921.697	14142
921.806	14233
921.916	14081
922.025	13887
922.134	13860
922.244	13909
922.353	13860
922.462	13723
922.571	13693
922.68	13571
922.789	13483
922.898	13533
923.007	13381
923.116	13540
923.224	13525
923.333	13438
923.442	13445
923.55	13381
923.659	13373
923.767	13403
923.876	13278
923.984	13263
924.092	13293
924.201	13301
924.309	13335
924.417	13240
924.525	13198
924.633	13335
924.741	13887
924.849	13129
924.956	13129
925.064	13038
925.172	12916
925.279	12966
925.387	12993
925.494	12875
925.602	13061
925.709	12977
925.816	12776
925.924	12901
926.031	13023
926.138	12886
926.245	13015
926.352	12890
926.459	12875
926.566	12947
926.673	12802
926.779	12684
926.886	12719
926.993	12585
927.099	12490
927.206	12448
927.312	12502
927.419	12532
927.525	12464
927.631	12540
927.737	12433
927.843	12433
927.95	12273
928.056	12235
928.162	12311
928.267	12384
928.373	13015
928.479	12410
928.585	12148
928.69	12289
928.796	12369
928.901	12121
929.007	12041
929.112	12251
929.218	12228
929.323	12091
929.428	12057
929.533	12235
929.638	11996
929.743	12026
929.848	12095
929.953	12057
930.058	11870
930.163	11722
930.267	11718
930.372	11889
930.477	11714
930.581	11927
930.685	11672
930.79	11684
930.894	11577
930.998	11653
931.103	11745
931.207	11436
931.311	11345
931.415	11254
931.519	11010
931.623	11010
