Data from test_V78500241_2704.txt Node
Date: Fri Mar 25 16:00:31 CST 2022
User: usil
Spectrometer: V785-0024
Trigger mode: 0
Integration Time (sec): 4.000000E-1
Scans to average: 1
Nonlinearity correction enabled: false
Boxcar width: 0
Storing dark spectrum: false
XAxis mode: Wavelengths
Number of Pixels in Spectrum: 1024
>>>>>Begin Spectral Data<<<<<
801.071	28455
801.214	28436
801.356	28188
801.499	28063
801.641	27895
801.783	28029
801.926	28036
802.068	27972
802.211	27949
802.353	27983
802.496	27698
802.638	27682
802.78	27667
802.923	27466
803.065	27591
803.208	27599
803.35	27720
803.492	27717
803.635	27907
803.777	27804
803.919	27914
804.061	28196
804.204	27991
804.346	27869
804.488	27816
804.63	27911
804.773	27766
804.915	27934
805.057	27998
805.199	28086
805.341	28010
805.483	28040
805.626	28010
805.768	27956
805.91	28006
806.052	28139
806.194	27941
806.336	28196
806.478	28120
806.62	28051
806.762	28211
806.904	28337
807.046	28611
807.188	28322
807.33	28462
807.472	28653
807.614	28386
807.756	28554
807.898	28341
808.04	28143
808.182	28318
808.324	28303
808.465	28436
808.607	28592
808.749	28816
808.891	28717
809.033	28942
809.174	28953
809.316	28698
809.458	28812
809.6	28710
809.741	28675
809.883	28835
810.025	29029
810.166	28991
810.308	29014
810.45	28778
810.591	28961
810.733	28694
810.875	28812
811.016	28554
811.158	28755
811.299	28873
811.441	28866
811.582	28927
811.724	28805
811.865	28679
812.007	28862
812.148	28694
812.29	28953
812.431	28881
812.573	29048
812.714	29151
812.855	29433
812.997	29258
813.138	29486
813.279	29353
813.421	29341
813.562	29159
813.703	29044
813.845	28927
813.986	28786
814.127	28508
814.268	28379
814.41	28443
814.551	28405
814.692	28371
814.833	28249
814.974	28379
815.115	28348
815.256	28386
815.397	28276
815.539	28386
815.68	28162
815.821	28097
815.962	28188
816.103	28310
816.244	28105
816.385	27960
816.526	28013
816.666	27766
816.807	27720
816.948	27960
817.089	27800
817.23	27808
817.371	27755
817.512	27568
817.653	27781
817.793	27667
817.934	27804
818.075	27694
818.216	27739
818.356	27728
818.497	27511
818.638	27549
818.778	27553
818.919	27488
819.06	27534
819.2	27690
819.341	27755
819.481	27736
819.622	27861
819.762	28040
819.903	27903
820.043	28067
820.184	27941
820.324	27823
820.465	28002
820.605	27804
820.746	27831
820.886	27690
821.026	27835
821.167	27732
821.307	27819
821.447	27720
821.588	27507
821.728	27523
821.868	27310
822.008	27207
822.149	27214
822.289	27058
822.429	26967
822.569	26933
822.709	26872
822.849	26815
822.99	26880
823.13	26659
823.27	26720
823.41	26533
823.55	26514
823.69	26518
823.83	26621
823.97	26503
824.11	26305
824.25	26324
824.389	26313
824.529	26457
824.669	26408
824.809	26442
824.949	26476
825.089	26374
825.228	26324
825.368	26218
825.508	26142
825.648	26115
825.787	26233
825.927	26320
826.067	26142
826.206	26263
826.346	26218
826.485	26259
826.625	26320
826.765	26320
826.904	26313
827.044	25989
827.183	25811
827.323	25898
827.462	25959
827.601	26050
827.741	25974
827.88	25966
828.02	25928
828.159	25944
828.298	25978
828.437	26016
828.577	25982
828.716	25955
828.855	25921
828.994	25655
829.134	25628
829.273	25696
829.412	25651
829.551	25548
829.69	25727
829.829	25594
829.968	25693
830.107	25624
830.246	25556
830.385	25499
830.524	25476
830.663	25403
830.802	25415
830.941	25278
831.08	25293
831.219	25308
831.357	25236
831.496	25552
831.635	25403
831.774	25160
831.913	25110
832.051	25088
832.19	25027
832.329	25072
832.467	24970
832.606	24901
832.744	24943
832.883	24795
833.022	24939
833.16	24810
833.299	24924
833.437	24882
833.576	25046
833.714	24996
833.852	25107
833.991	25114
834.129	25221
834.267	25061
834.406	25008
834.544	25076
834.682	25023
834.821	24825
834.959	25168
835.097	24848
835.235	24973
835.373	25042
835.511	24951
835.65	24852
835.788	24875
835.926	24734
836.064	24593
836.202	24654
836.34	24760
836.478	24753
836.615	24738
836.753	24825
836.891	24943
837.029	24871
837.167	24795
837.305	24661
837.443	24658
837.58	24722
837.718	24730
837.856	24597
837.993	24646
838.131	24642
838.269	24547
838.406	24475
838.544	24342
838.681	24334
838.819	24254
838.956	24163
839.094	24045
839.231	24152
839.369	24209
839.506	24388
839.643	24437
839.781	24038
839.918	23999
840.055	24155
840.193	23996
840.33	24053
840.467	24049
840.604	24038
840.742	24281
840.879	23821
841.016	23904
841.153	23897
841.29	24057
841.427	23988
841.564	23980
841.701	24034
841.838	23958
841.975	23832
842.112	23965
842.249	23726
842.385	23745
842.522	23992
842.659	23771
842.796	23668
842.933	23630
843.069	23699
843.206	23634
843.343	23783
843.479	23786
843.616	23775
843.752	23573
843.889	23611
844.025	23600
844.162	23589
844.298	23539
844.435	23570
844.571	23566
844.708	23649
844.844	23748
844.98	23695
845.117	23604
845.253	23433
845.389	23364
845.525	23444
845.661	23322
845.798	23277
845.934	23429
846.07	23250
846.206	23387
846.342	23379
846.478	23246
846.614	23086
846.75	22968
846.886	23083
847.022	23079
847.158	23041
847.294	23098
847.429	22946
847.565	22908
847.701	23292
847.837	22740
847.972	22755
848.108	22896
848.244	22774
848.379	22611
848.515	22618
848.65	22523
848.786	22596
848.921	22630
849.057	22820
849.192	22592
849.328	22580
849.463	22569
849.598	22455
849.734	22455
849.869	22462
850.004	22356
850.14	22405
850.275	22451
850.41	22249
850.545	22284
850.68	22409
850.815	22382
850.95	22379
851.085	22466
851.22	22462
851.355	22489
851.49	22306
851.625	22257
851.76	22337
851.895	22299
852.03	22185
852.165	22329
852.299	22417
852.434	22405
852.569	22314
852.703	22375
852.838	22443
852.973	22497
853.107	22500
853.242	22310
853.376	22154
853.511	22013
853.645	22036
853.78	22280
853.914	22154
854.048	22055
854.183	22211
854.317	22200
854.451	22363
854.585	22154
854.72	22154
854.854	22211
854.988	22101
855.122	22150
855.256	22070
855.39	22223
855.524	22093
855.658	22169
855.792	22097
855.926	22234
856.06	22223
856.194	22299
856.327	22185
856.461	22272
856.595	22105
856.729	22196
856.862	22306
856.996	22150
857.13	22238
857.263	22196
857.397	22268
857.53	22230
857.664	22306
857.797	22207
857.931	22348
858.064	22204
858.197	22223
858.331	22181
858.464	22158
858.597	22097
858.731	22128
858.864	22169
858.997	22135
859.13	22310
859.263	22128
859.396	22173
859.529	22044
859.662	22124
859.795	22135
859.928	22116
860.061	22280
860.194	22440
860.327	22124
860.46	22291
860.592	22363
860.725	22363
860.858	22360
860.99	22223
861.123	22135
861.256	22204
861.388	22078
861.521	22862
861.653	22067
861.786	21903
861.918	21972
862.05	22090
862.183	22010
862.315	21964
862.447	22181
862.58	22010
862.712	21941
862.844	21831
862.976	22032
863.108	21991
863.24	22375
863.372	21869
863.504	21907
863.636	21956
863.768	21899
863.9	21949
864.032	21873
864.164	21827
864.296	21850
864.428	21953
864.559	21880
864.691	21941
864.823	21759
864.954	21846
865.086	21930
865.217	21823
865.349	21583
865.48	21781
865.612	21770
865.743	22040
865.875	21713
866.006	21709
866.137	21816
866.269	21732
866.4	21701
866.531	21797
866.662	21705
866.793	21652
866.924	21804
867.055	21637
867.186	21652
867.317	21732
867.448	21576
867.579	21686
867.71	21644
867.841	21641
867.972	21679
868.103	21675
868.233	21618
868.364	21778
868.495	21759
868.625	21949
868.756	22006
868.886	21884
869.017	21915
869.147	21949
869.278	21892
869.408	21941
869.539	21823
869.669	21987
869.799	22017
869.929	21956
870.06	22063
870.19	22211
870.32	22291
870.45	22253
870.58	22371
870.71	22402
870.84	22451
870.97	22382
871.1	22192
871.23	22500
871.36	22436
871.489	22455
871.619	22512
871.749	22538
871.879	22519
872.008	22607
872.138	22394
872.267	22584
872.397	22417
872.526	22344
872.656	22478
872.785	22440
872.915	22634
873.044	22637
873.173	22508
873.303	22729
873.432	22679
873.561	22630
873.69	22519
873.819	22618
873.948	22698
874.077	22538
874.206	22428
874.335	22432
874.464	22645
874.593	22873
874.722	22725
874.851	22816
874.979	22847
875.108	22729
875.237	22691
875.365	22706
875.494	22672
875.623	22869
875.751	22717
875.88	22694
876.008	23064
876.136	22930
876.265	23193
876.393	23353
876.521	23292
876.65	23242
876.778	23159
876.906	23079
877.034	23220
877.162	23098
877.29	23151
877.418	23227
877.546	23136
877.674	23083
877.802	23166
877.93	23140
878.058	23098
878.185	22972
878.313	23200
878.441	23025
878.568	22938
878.696	23029
878.824	23075
878.951	23200
879.079	23345
879.206	23330
879.333	23235
879.461	23147
879.588	23364
879.715	23246
879.842	23349
879.97	23284
880.097	22987
880.224	22908
880.351	23079
880.478	23048
880.605	22915
880.732	22892
880.859	23189
880.986	22949
881.112	22919
881.239	22793
881.366	22812
881.493	22542
881.619	22466
881.746	22599
881.872	22577
881.999	22649
882.125	22421
882.252	22516
882.378	22440
882.505	22615
882.631	22436
882.757	22173
882.883	22344
883.01	22192
883.136	22093
883.262	22116
883.388	21983
883.514	22097
883.64	22211
883.766	22158
883.892	21956
884.018	21987
884.143	22055
884.269	22207
884.395	21975
884.52	21842
884.646	21781
884.772	21774
884.897	21705
885.023	21930
885.148	22010
885.274	22010
885.399	21819
885.524	21865
885.65	21892
885.775	21895
885.9	21717
886.025	21915
886.15	21857
886.275	21739
886.4	21709
886.525	21819
886.65	21789
886.775	21622
886.9	21850
887.025	21949
887.149	21713
887.274	21553
887.399	21622
887.523	21591
887.648	21431
887.773	21500
887.897	21580
888.021	21622
888.146	21496
888.27	21739
888.395	21603
888.519	21591
888.643	21614
888.767	21644
888.891	21530
889.015	21458
889.139	21351
889.263	21420
889.387	21542
889.511	21618
889.635	21507
889.759	21268
889.883	21329
890.006	21370
890.13	21553
890.254	21405
890.377	21203
890.501	21161
890.624	21055
890.748	21138
890.871	21116
890.995	20952
891.118	20899
891.241	20948
891.364	20986
891.488	21005
891.611	21013
891.734	20845
891.857	20914
891.98	20971
892.103	20929
892.226	20998
892.349	20853
892.471	20785
892.594	20906
892.717	20925
892.839	20864
892.962	20849
893.085	20895
893.207	20800
893.33	20804
893.452	20785
893.575	20891
893.697	20792
893.819	20971
893.941	21009
894.064	20864
894.186	20804
894.308	20739
894.43	20902
894.552	21013
894.674	20792
894.796	20701
894.918	20758
895.04	20739
895.161	20845
895.283	20796
895.405	20834
895.526	20849
895.648	20731
895.769	20788
895.891	20807
896.012	20910
896.134	20823
896.255	20826
896.376	20807
896.498	20781
896.619	20845
896.74	20853
896.861	20876
896.982	21096
897.103	21195
897.224	21051
897.345	21135
897.466	21047
897.587	20899
897.708	21135
897.828	21009
897.949	20887
898.07	20842
898.19	20971
898.311	21055
898.431	21032
898.552	20975
898.672	20975
898.792	21032
898.913	21020
899.033	20834
899.153	20686
899.273	20781
899.393	20785
899.513	20868
899.633	20693
899.753	20716
899.873	20556
899.993	20826
900.113	20712
900.232	20758
900.352	20560
900.472	20579
900.591	20571
900.711	20476
900.83	20412
900.95	20454
901.069	20625
901.189	20419
901.308	20263
901.427	20043
901.546	20103
901.665	20088
901.784	20168
901.904	19993
902.023	19902
902.141	19746
902.26	19719
902.379	19780
902.498	19624
902.617	19441
902.735	19704
902.854	19594
902.973	19487
903.091	19282
903.21	19297
903.328	19194
903.446	19152
903.565	19129
903.683	19107
903.801	18973
903.919	18996
904.038	18935
904.156	18703
904.274	18939
904.392	18776
904.51	18772
904.627	18833
904.745	18798
904.863	18856
904.981	18665
905.098	18429
905.216	18494
905.334	18479
905.451	18502
905.569	18551
905.686	18585
905.803	18589
905.921	18247
906.038	18323
906.155	18277
906.272	18205
906.389	18159
906.506	17999
906.623	18057
906.74	17946
906.857	17836
906.974	17863
907.091	18019
907.208	18095
907.324	17958
907.441	17855
907.557	17836
907.674	17779
907.79	17710
907.907	17703
908.023	17798
908.139	17748
908.256	17623
908.372	17558
908.488	17577
908.604	17516
908.72	17463
908.836	17444
908.952	17459
909.068	17455
909.184	17512
909.3	17425
909.415	17558
909.531	17372
909.647	17246
909.762	17147
909.878	17098
909.993	17098
910.108	17155
910.224	17090
910.339	17109
910.454	16995
910.57	16976
910.685	16862
910.8	17086
910.915	17071
911.03	17022
911.145	16790
911.259	16736
911.374	16702
911.489	16626
911.604	16618
911.718	16409
911.833	16428
911.947	16440
912.062	16325
912.176	16508
912.291	16489
912.405	16428
912.519	16664
912.633	16645
912.748	16508
912.862	16459
912.976	16329
913.09	16090
913.204	16150
913.318	16325
913.431	16344
913.545	16348
913.659	16341
913.772	16215
913.886	16120
914	16063
914.113	16166
914.226	16131
914.34	16124
914.453	15930
914.566	16093
914.68	15975
914.793	15956
914.906	15690
915.019	15728
915.132	15610
915.245	15728
915.358	15637
915.47	15679
915.583	15709
915.696	15648
915.809	15797
915.921	15797
916.034	15481
916.146	15637
916.259	15534
916.371	15633
916.483	15625
916.595	15435
916.708	15481
916.82	15549
916.932	15481
917.044	15370
917.156	15306
917.268	15298
917.38	15291
917.491	15252
917.603	15386
917.715	15336
917.826	15450
917.938	15188
918.049	15116
918.161	15192
918.272	15363
918.384	15325
918.495	15142
918.606	15058
918.717	15032
918.828	15074
918.939	15039
919.05	14937
919.161	15036
919.272	14838
919.383	14834
919.494	15020
919.604	15165
919.715	14979
919.826	14891
919.936	14994
920.047	15028
920.157	14952
920.267	15184
920.378	14956
920.488	15036
920.598	15142
920.708	15279
920.818	15184
920.928	15097
921.038	15275
921.148	15176
921.258	15017
921.368	14887
921.477	14773
921.587	14716
921.697	14701
921.806	14739
921.916	14560
922.025	14343
922.134	14404
922.244	14377
922.353	14362
922.462	14195
922.571	14073
922.68	13986
922.789	13974
922.898	13951
923.007	13932
923.116	13974
923.224	13974
923.333	13932
923.442	13906
923.55	13879
923.659	13875
923.767	13845
923.876	13811
923.984	13738
924.092	13719
924.201	13734
924.309	13731
924.417	13613
924.525	13647
924.633	13696
924.741	14587
924.849	13472
924.956	13453
925.064	13464
925.172	13304
925.279	13388
925.387	13381
925.494	13457
925.602	13441
925.709	13441
925.816	13285
925.924	13285
926.031	13468
926.138	13293
926.245	13327
926.352	13187
926.459	13434
926.566	13339
926.673	13297
926.779	13137
926.886	13164
926.993	12973
927.099	13019
927.206	12916
927.312	12840
927.419	12954
927.525	12882
927.631	12924
927.737	12787
927.843	12825
927.95	12730
928.056	12741
928.162	12726
928.267	12707
928.373	13301
928.479	12856
928.585	12654
928.69	12673
928.796	12741
928.901	12631
929.007	12521
929.112	12593
929.218	12593
929.323	12464
929.428	12448
929.533	12677
929.638	12384
929.743	12448
929.848	12334
929.953	12433
930.058	12292
930.163	12106
930.267	12140
930.372	12304
930.477	12030
930.581	12262
930.685	12239
930.79	11980
930.894	12003
930.998	11958
931.103	12182
931.207	11821
931.311	11665
931.415	11638
931.519	11345
931.623	11379
