Data from test_V78500241_3625.txt Node
Date: Fri Mar 25 16:06:54 CST 2022
User: usil
Spectrometer: V785-0024
Trigger mode: 0
Integration Time (sec): 4.000000E-1
Scans to average: 1
Nonlinearity correction enabled: false
Boxcar width: 0
Storing dark spectrum: false
XAxis mode: Wavelengths
Number of Pixels in Spectrum: 1024
>>>>>Begin Spectral Data<<<<<
801.071	28771
801.214	28748
801.356	28470
801.499	28493
801.641	28337
801.783	28401
801.926	28417
802.068	28280
802.211	28299
802.353	28318
802.496	28272
802.638	27998
802.78	28082
802.923	27934
803.065	27968
803.208	28032
803.35	28086
803.492	28128
803.635	28280
803.777	28204
803.919	28318
804.061	28721
804.204	28226
804.346	28196
804.488	28226
804.63	28124
804.773	28169
804.915	28177
805.057	28440
805.199	28280
805.341	28352
805.483	28451
805.626	28417
805.768	28295
805.91	28394
806.052	28371
806.194	28363
806.336	28519
806.478	28348
806.62	28481
806.762	28554
806.904	28824
807.046	28946
807.188	28797
807.33	28873
807.472	28927
807.614	28862
807.756	28869
807.898	28862
808.04	28672
808.182	28748
808.324	28744
808.465	28873
808.607	29041
808.749	29208
808.891	29151
809.033	29406
809.174	29140
809.316	29200
809.458	29086
809.6	29147
809.741	29223
809.883	29265
810.025	29356
810.166	29467
810.308	29341
810.45	29330
810.591	29414
810.733	29265
810.875	29132
811.016	29086
811.158	29033
811.299	29102
811.441	29231
811.582	29326
811.724	29140
811.865	29098
812.007	29128
812.148	29102
812.29	29258
812.431	29322
812.573	29516
812.714	29714
812.855	29627
812.997	29790
813.138	29729
813.279	29897
813.421	29805
813.562	29547
813.703	29509
813.845	29356
813.986	29170
814.127	28961
814.268	28892
814.41	28797
814.551	29010
814.692	28934
814.833	28850
814.974	28816
815.115	28919
815.256	28729
815.397	28599
815.539	28824
815.68	28706
815.821	28706
815.962	28607
816.103	28641
816.244	28546
816.385	28367
816.526	28394
816.666	28360
816.807	28188
816.948	28287
817.089	28284
817.23	28291
817.371	28185
817.512	28188
817.653	28101
817.793	28116
817.934	28135
818.075	28173
818.216	28173
818.356	28112
818.497	28116
818.638	27888
818.778	27918
818.919	28006
819.06	28162
819.2	28036
819.341	28253
819.481	28261
819.622	28185
819.762	28421
819.903	28588
820.043	28356
820.184	28325
820.324	28352
820.465	28386
820.605	28337
820.746	28325
820.886	28036
821.026	28272
821.167	28265
821.307	28310
821.447	28154
821.588	28169
821.728	27975
821.868	27827
822.008	27770
822.149	27789
822.289	27705
822.429	27367
822.569	27317
822.709	27241
822.849	27169
822.99	27260
823.13	27287
823.27	27135
823.41	26971
823.55	26967
823.69	27001
823.83	26899
823.97	26998
824.11	26929
824.25	26712
824.389	26826
824.529	26929
824.669	26705
824.809	26933
824.949	26952
825.089	26998
825.228	27032
825.368	26724
825.508	26788
825.648	26678
825.787	26705
825.927	26807
826.067	26720
826.206	26640
826.346	26720
826.485	26834
826.625	26750
826.765	26804
826.904	26804
827.044	26670
827.183	26412
827.323	26423
827.462	26602
827.601	26571
827.741	26549
827.88	26339
828.02	26214
828.159	26351
828.298	26434
828.437	26473
828.577	26362
828.716	26511
828.855	26218
828.994	26111
829.134	26126
829.273	26149
829.412	26225
829.551	25966
829.69	26161
829.829	26149
829.968	26134
830.107	26153
830.246	26035
830.385	26058
830.524	26138
830.663	25814
830.802	25814
830.941	25734
831.08	25643
831.219	25841
831.357	25830
831.496	25970
831.635	25852
831.774	25689
831.913	25616
832.051	25453
832.19	25476
832.329	25556
832.467	25502
832.606	25327
832.744	25339
832.883	25377
833.022	25407
833.16	25244
833.299	25460
833.437	25381
833.576	25609
833.714	25335
833.852	25594
833.991	25449
834.129	25601
834.267	25540
834.406	25407
834.544	25518
834.682	25449
834.821	25434
834.959	25674
835.097	25346
835.235	25419
835.373	25464
835.511	25552
835.65	25266
835.788	25259
835.926	25072
836.064	25171
836.202	25183
836.34	25343
836.478	25400
836.615	25190
836.753	25282
836.891	25373
837.029	25331
837.167	25095
837.305	25072
837.443	25179
837.58	25114
837.718	25270
837.856	25232
837.993	25034
838.131	25164
838.269	25076
838.406	25019
838.544	24840
838.681	24829
838.819	24688
838.956	24566
839.094	24490
839.231	24734
839.369	24654
839.506	24882
839.643	24776
839.781	24597
839.918	24429
840.055	24521
840.193	24433
840.33	24445
840.467	24429
840.604	24494
840.742	24719
840.879	24422
841.016	24513
841.153	24433
841.29	24601
841.427	24426
841.564	24502
841.701	24376
841.838	24460
841.975	24182
842.112	24426
842.249	24209
842.385	24258
842.522	24426
842.659	24285
842.796	24163
842.933	24342
843.069	24057
843.206	24197
843.343	24311
843.479	24205
843.616	24247
843.752	23946
843.889	24121
844.025	24110
844.162	23977
844.298	24030
844.435	24022
844.571	24003
844.708	24045
844.844	24186
844.98	24125
845.117	24152
845.253	24011
845.389	23885
845.525	23973
845.661	23828
845.798	23790
845.934	23828
846.07	23756
846.206	23790
846.342	23828
846.478	23790
846.614	23512
846.75	23406
846.886	23448
847.022	23562
847.158	23505
847.294	23512
847.429	23474
847.565	23520
847.701	23722
847.837	23170
847.972	23162
848.108	23136
848.244	23337
848.379	23162
848.515	23147
848.65	23010
848.786	22957
848.921	23010
849.057	23151
849.192	23037
849.328	23060
849.463	23094
849.598	23025
849.734	22892
849.869	22953
850.004	22923
850.14	22816
850.275	22854
850.41	22679
850.545	22702
850.68	22858
850.815	22858
850.95	22843
851.085	22949
851.22	22987
851.355	22858
851.49	22797
851.625	22744
851.76	22729
851.895	22752
852.03	22847
852.165	22812
852.299	22831
852.434	22919
852.569	22828
852.703	22854
852.838	22839
852.973	22866
853.107	22930
853.242	22710
853.376	22721
853.511	22546
853.645	22653
853.78	22755
853.914	22698
854.048	22656
854.183	22790
854.317	22713
854.451	22797
854.585	22721
854.72	22622
854.854	22679
854.988	22637
855.122	22710
855.256	22542
855.39	22603
855.524	22668
855.658	22675
855.792	22691
855.926	22683
856.06	22660
856.194	22630
856.327	22599
856.461	22607
856.595	22557
856.729	22664
856.862	22733
856.996	22664
857.13	22805
857.263	22622
857.397	22771
857.53	22630
857.664	22691
857.797	22729
857.931	22706
858.064	22687
858.197	22729
858.331	22615
858.464	22538
858.597	22508
858.731	22634
858.864	22596
858.997	22687
859.13	22691
859.263	22675
859.396	22713
859.529	22599
859.662	22641
859.795	22664
859.928	22630
860.061	22797
860.194	22927
860.327	22755
860.46	22752
860.592	22869
860.725	22752
860.858	22698
860.99	22698
861.123	22535
861.256	22588
861.388	22611
861.521	23471
861.653	22542
861.786	22394
861.918	22535
862.05	22436
862.183	22588
862.315	22584
862.447	22592
862.58	22447
862.712	22287
862.844	22303
862.976	22390
863.108	22424
863.24	22729
863.372	22306
863.504	22390
863.636	22402
863.768	22352
863.9	22413
864.032	22417
864.164	22329
864.296	22295
864.428	22440
864.559	22523
864.691	22413
864.823	22287
864.954	22322
865.086	22382
865.217	22249
865.349	22120
865.48	22322
865.612	22196
865.743	22337
865.875	22280
866.006	22067
866.137	22234
866.269	22207
866.4	22234
866.531	22105
866.662	22128
866.793	22150
866.924	22112
867.055	22242
867.186	22139
867.317	22120
867.448	22124
867.579	22074
867.71	22097
867.841	22112
867.972	22158
868.103	22196
868.233	22226
868.364	22135
868.495	22242
868.625	22322
868.756	22554
868.886	22318
869.017	22333
869.147	22546
869.278	22531
869.408	22246
869.539	22337
869.669	22440
869.799	22394
869.929	22626
870.06	22451
870.19	22687
870.32	22694
870.45	22744
870.58	22847
870.71	22801
870.84	22881
870.97	22694
871.1	22740
871.23	22904
871.36	23022
871.489	22927
871.619	23033
871.749	22805
871.879	22946
872.008	23140
872.138	23014
872.267	23029
872.397	22869
872.526	22866
872.656	22911
872.785	22820
872.915	23056
873.044	23105
873.173	23071
873.303	23018
873.432	23003
873.561	23102
873.69	23147
873.819	22934
873.948	23140
874.077	23048
874.206	23014
874.335	22927
874.464	23071
874.593	23231
874.722	23204
874.851	23044
874.979	23239
875.108	23292
875.237	23064
875.365	23109
875.494	23117
875.623	23235
875.751	23170
875.88	23159
876.008	23353
876.136	23414
876.265	23726
876.393	23790
876.521	23649
876.65	23699
876.778	23691
876.906	23676
877.034	23463
877.162	23619
877.29	23417
877.418	23585
877.546	23524
877.674	23634
877.802	23623
877.93	23520
878.058	23516
878.185	23372
878.313	23524
878.441	23539
878.568	23376
878.696	23482
878.824	23524
878.951	23471
879.079	23741
879.206	23897
879.333	23707
879.461	23600
879.588	23798
879.715	23741
879.842	23912
879.97	23726
880.097	23379
880.224	23478
880.351	23448
880.478	23395
880.605	23337
880.732	23471
880.859	23619
880.986	23406
881.112	23471
881.239	23269
881.366	23162
881.493	22999
881.619	22976
881.746	22904
881.872	22991
881.999	22862
882.125	22873
882.252	22984
882.378	22839
882.505	22984
882.631	22858
882.757	22687
882.883	22611
883.01	22546
883.136	22569
883.262	22523
883.388	22348
883.514	22611
883.64	22557
883.766	22554
883.892	22341
884.018	22375
884.143	22554
884.269	22569
884.395	22306
884.52	22268
884.646	22257
884.772	22166
884.897	22162
885.023	22246
885.148	22382
885.274	22333
885.399	22352
885.524	22090
885.65	22295
885.775	22325
885.9	22223
886.025	22322
886.15	22306
886.275	22257
886.4	22116
886.525	22150
886.65	22150
886.775	22124
886.9	22329
887.025	22348
887.149	22215
887.274	22055
887.399	22010
887.523	21972
887.648	21918
887.773	21983
887.897	22188
888.021	21983
888.146	21895
888.27	22128
888.395	21975
888.519	21994
888.643	22013
888.767	22082
888.891	21869
889.015	21857
889.139	21823
889.263	21808
889.387	21884
889.511	21960
889.635	21926
889.759	21736
889.883	21743
890.006	21732
890.13	21956
890.254	21633
890.377	21728
890.501	21507
890.624	21454
890.748	21572
890.871	21515
890.995	21321
891.118	21370
891.241	21218
891.364	21348
891.488	21545
891.611	21344
891.734	21355
891.857	21492
891.98	21287
892.103	21458
892.226	21363
892.349	21336
892.471	21161
892.594	21108
892.717	21252
892.839	21211
892.962	21245
893.085	21363
893.207	21131
893.33	21127
893.452	21119
893.575	21249
893.697	21306
893.819	21458
893.941	21367
894.064	21306
894.186	21207
894.308	21165
894.43	21264
894.552	21279
894.674	21260
894.796	21123
894.918	21184
895.04	21188
895.161	21192
895.283	21131
895.405	21188
895.526	21226
895.648	21249
895.769	21279
895.891	21226
896.012	21154
896.134	21283
896.255	21150
896.376	21135
896.498	21241
896.619	21199
896.74	21074
896.861	21310
896.982	21462
897.103	21648
897.224	21481
897.345	21310
897.466	21291
897.587	21336
897.708	21545
897.828	21382
897.949	21401
898.07	21157
898.19	21264
898.311	21363
898.431	21294
898.552	21386
898.672	21405
898.792	21526
898.913	21302
899.033	21291
899.153	21135
899.273	21009
899.393	21096
899.513	21218
899.633	21127
899.753	21199
899.873	21009
899.993	21119
900.113	21154
900.232	21104
900.352	21066
900.472	20933
900.591	20750
900.711	20906
900.83	20857
900.95	21005
901.069	20918
901.189	20781
901.308	20488
901.427	20400
901.546	20412
901.665	20423
901.784	20377
901.904	20244
902.023	20252
902.141	20046
902.26	20005
902.379	20149
902.498	20043
902.617	19951
902.735	19978
902.854	20084
902.973	19890
903.091	19628
903.21	19548
903.328	19700
903.446	19540
903.565	19377
903.683	19396
903.801	19175
903.919	19350
904.038	19346
904.156	19137
904.274	19244
904.392	19019
904.51	19194
904.627	19179
904.745	19228
904.863	19084
904.981	18928
905.098	18844
905.216	18882
905.334	18924
905.451	18833
905.569	18833
905.686	18840
905.803	18829
905.921	18608
906.038	18650
906.155	18692
906.272	18536
906.389	18483
906.506	18437
906.623	18407
906.74	18372
906.857	18327
906.974	18384
907.091	18460
907.208	18395
907.324	18213
907.441	18239
907.557	18087
907.674	18171
907.79	17999
907.907	18026
908.023	18167
908.139	18015
908.256	18026
908.372	17901
908.488	17836
908.604	17828
908.72	17714
908.836	17760
908.952	17680
909.068	17847
909.184	17828
909.3	17707
909.415	17828
909.531	17729
909.647	17547
909.762	17497
909.878	17520
909.993	17566
910.108	17474
910.224	17315
910.339	17402
910.454	17318
910.57	17334
910.685	17235
910.8	17429
910.915	17452
911.03	17159
911.145	17056
911.259	17159
911.374	17094
911.489	16957
911.604	17003
911.718	16733
911.833	16816
911.947	16694
912.062	16691
912.176	16786
912.291	16835
912.405	16767
912.519	17006
912.633	16961
912.748	16721
912.862	16759
912.976	16679
913.09	16542
913.204	16561
913.318	16622
913.431	16675
913.545	16683
913.659	16847
913.772	16512
913.886	16360
914	16352
914.113	16466
914.226	16550
914.34	16504
914.453	16306
914.566	16348
914.68	16367
914.793	16204
914.906	16112
915.019	16025
915.132	15880
915.245	15956
915.358	16071
915.47	15983
915.583	15922
915.696	15949
915.809	16082
915.921	16185
916.034	15884
916.146	15759
916.259	15926
916.371	15964
916.483	15903
916.595	15656
916.708	15884
916.82	15873
916.932	15857
917.044	15785
917.156	15762
917.268	15652
917.38	15682
917.491	15618
917.603	15644
917.715	15739
917.826	15633
917.938	15584
918.049	15507
918.161	15587
918.272	15728
918.384	15690
918.495	15625
918.606	15462
918.717	15298
918.828	15310
918.939	15302
919.05	15306
919.161	15302
919.272	15119
919.383	15222
919.494	15428
919.604	15576
919.715	15382
919.826	15173
919.936	15272
920.047	15294
920.157	15363
920.267	15473
920.378	15313
920.488	15237
920.598	15496
920.708	15644
920.818	15416
920.928	15473
921.038	15694
921.148	15595
921.258	15245
921.368	15195
921.477	15081
921.587	15024
921.697	15009
921.806	15020
921.916	14895
922.025	14800
922.134	14686
922.244	14678
922.353	14720
922.462	14659
922.571	14454
922.68	14377
922.789	14248
922.898	14298
923.007	14218
923.116	14286
923.224	14294
923.333	14202
923.442	14191
923.55	14153
923.659	14130
923.767	14202
923.876	14027
923.984	14123
924.092	14035
924.201	14035
924.309	14065
924.417	14012
924.525	13974
924.633	13993
924.741	14864
924.849	13700
924.956	13780
925.064	13696
925.172	13681
925.279	13719
925.387	13639
925.494	13723
925.602	13784
925.709	13685
925.816	13681
925.924	13643
926.031	13597
926.138	13567
926.245	13518
926.352	13483
926.459	13719
926.566	13693
926.673	13556
926.779	13388
926.886	13449
926.993	13362
927.099	13266
927.206	13118
927.312	13149
927.419	13228
927.525	13209
927.631	13202
927.737	13042
927.843	13126
927.95	12966
928.056	12996
928.162	13057
928.267	13027
928.373	13681
928.479	13133
928.585	12787
928.69	12951
928.796	12989
928.901	12859
929.007	12692
929.112	12878
929.218	12783
929.323	12749
929.428	12757
929.533	12924
929.638	12639
929.743	12722
929.848	12623
929.953	12623
930.058	12517
930.163	12464
930.267	12422
930.372	12525
930.477	12380
930.581	12604
930.685	12471
930.79	12254
930.894	12323
930.998	12266
931.103	12350
931.207	12129
931.311	11882
931.415	11870
931.519	11707
931.623	11684
