Data from test_V78500241_180.txt Node
Date: Fri Mar 25 15:43:02 CST 2022
User: usil
Spectrometer: V785-0024
Trigger mode: 0
Integration Time (sec): 4.000000E-1
Scans to average: 1
Nonlinearity correction enabled: false
Boxcar width: 0
Storing dark spectrum: false
XAxis mode: Wavelengths
Number of Pixels in Spectrum: 1024
>>>>>Begin Spectral Data<<<<<
801.071	29459
801.214	29414
801.356	29102
801.499	29086
801.641	29029
801.783	29079
801.926	29159
802.068	29010
802.211	28961
802.353	28603
802.496	28687
802.638	28519
802.78	28459
802.923	28535
803.065	28409
803.208	28683
803.35	28497
803.492	28736
803.635	28729
803.777	28653
803.919	28812
804.061	28904
804.204	28797
804.346	28653
804.488	28577
804.63	28584
804.773	28382
804.915	28432
805.057	28839
805.199	28679
805.341	28702
805.483	28869
805.626	28812
805.768	28805
805.91	28961
806.052	28702
806.194	28790
806.336	28953
806.478	28812
806.62	28835
806.762	28873
806.904	29330
807.046	29204
807.188	29197
807.33	29121
807.472	29299
807.614	29079
807.756	29060
807.898	29079
808.04	29079
808.182	28968
808.324	28957
808.465	29044
808.607	29170
808.749	29414
808.891	29402
809.033	29474
809.174	29539
809.316	29231
809.458	29265
809.6	29258
809.741	29368
809.883	29505
810.025	29478
810.166	29539
810.308	29547
810.45	29444
810.591	29505
810.733	29570
810.875	29471
811.016	29296
811.158	29181
811.299	29547
811.441	29589
811.582	29474
811.724	29353
811.865	29379
812.007	29334
812.148	29265
812.29	29318
812.431	29391
812.573	29570
812.714	29649
812.855	29866
812.997	29794
813.138	30030
813.279	29923
813.421	29676
813.562	29726
813.703	29695
813.845	29531
813.986	29273
814.127	29105
814.268	28892
814.41	29003
814.551	28927
814.692	29090
814.833	28911
814.974	28854
815.115	28919
815.256	28740
815.397	28771
815.539	28599
815.68	28660
815.821	28592
815.962	28786
816.103	28668
816.244	28557
816.385	28390
816.526	28512
816.666	28280
816.807	28169
816.948	28219
817.089	28116
817.23	28032
817.371	28162
817.512	28135
817.653	28120
817.793	27991
817.934	28017
818.075	28002
818.216	28002
818.356	27979
818.497	27930
818.638	27759
818.778	27797
818.919	27770
819.06	27819
819.2	27937
819.341	27956
819.481	27800
819.622	28173
819.762	28295
819.903	28082
820.043	28128
820.184	28166
820.324	28082
820.465	28204
820.605	28128
820.746	28032
820.886	27876
821.026	27964
821.167	28063
821.307	28021
821.447	28032
821.588	27850
821.728	27770
821.868	27603
822.008	27416
822.149	27416
822.289	27386
822.429	27199
822.569	27142
822.709	27081
822.849	27024
822.99	26929
823.13	26845
823.27	26807
823.41	26735
823.55	26629
823.69	26697
823.83	26765
823.97	26640
824.11	26568
824.25	26503
824.389	26476
824.529	26568
824.669	26438
824.809	26598
824.949	26495
825.089	26514
825.228	26415
825.368	26347
825.508	26290
825.648	26263
825.787	26366
825.927	26438
826.067	26343
826.206	26305
826.346	26294
826.485	26374
826.625	26248
826.765	26381
826.904	26400
827.044	26020
827.183	26100
827.323	25951
827.462	26020
827.601	25932
827.741	26012
827.88	25970
828.02	25860
828.159	25837
828.298	25917
828.437	26031
828.577	25871
828.716	26084
828.855	25845
828.994	25674
829.134	25696
829.273	25738
829.412	25647
829.551	25594
829.69	25567
829.829	25689
829.968	25616
830.107	25765
830.246	25643
830.385	25460
830.524	25510
830.663	25343
830.802	25247
830.941	25202
831.08	25137
831.219	25206
831.357	25206
831.496	25411
831.635	25198
831.774	25228
831.913	24977
832.051	24882
832.19	24840
832.329	25099
832.467	24859
832.606	24875
832.744	24844
832.883	24738
833.022	24760
833.16	24814
833.299	24901
833.437	24696
833.576	24821
833.714	24825
833.852	24913
833.991	24875
834.129	24913
834.267	24821
834.406	24897
834.544	24772
834.682	24665
834.821	24715
834.959	24798
835.097	24783
835.235	24810
835.373	24783
835.511	24764
835.65	24521
835.788	24608
835.926	24536
836.064	24547
836.202	24384
836.34	24646
836.478	24703
836.615	24593
836.753	24623
836.891	24810
837.029	24608
837.167	24612
837.305	24532
837.443	24426
837.58	24574
837.718	24597
837.856	24540
837.993	24384
838.131	24399
838.269	24361
838.406	24304
838.544	24395
838.681	24072
838.819	23912
838.956	23847
839.094	23798
839.231	24011
839.369	24053
839.506	24281
839.643	24018
839.781	23824
839.918	23733
840.055	23836
840.193	23729
840.33	23707
840.467	23790
840.604	23885
840.742	23946
840.879	23547
841.016	23748
841.153	23722
841.29	23927
841.427	23653
841.564	23748
841.701	23661
841.838	23630
841.975	23646
842.112	23653
842.249	23699
842.385	23448
842.522	23535
842.659	23444
842.796	23482
842.933	23410
843.069	23421
843.206	23345
843.343	23421
843.479	23395
843.616	23509
843.752	23155
843.889	23223
844.025	23341
844.162	23136
844.298	23258
844.435	23018
844.571	23014
844.708	23258
844.844	23273
844.98	23216
845.117	23288
845.253	23155
845.389	22991
845.525	23083
845.661	22961
845.798	22904
845.934	22949
846.07	22862
846.206	22835
846.342	22927
846.478	22812
846.614	22622
846.75	22550
846.886	22611
847.022	22748
847.158	22634
847.294	22535
847.429	22611
847.565	22622
847.701	22858
847.837	22360
847.972	22219
848.108	22409
848.244	22363
848.379	22234
848.515	22040
848.65	22185
848.786	22112
848.921	22188
849.057	22120
849.192	22303
849.328	22131
849.463	22230
849.598	22090
849.734	22063
849.869	22048
850.004	21930
850.14	21797
850.275	21850
850.41	21739
850.545	21846
850.68	21884
850.815	21941
850.95	21937
851.085	22051
851.22	21918
851.355	21827
851.49	21915
851.625	21797
851.76	21762
851.895	21675
852.03	21759
852.165	21827
852.299	21823
852.434	21876
852.569	21869
852.703	21854
852.838	21865
852.973	21979
853.107	21892
853.242	21705
853.376	21682
853.511	21629
853.645	21663
853.78	21770
853.914	21583
854.048	21614
854.183	21553
854.317	21728
854.451	21766
854.585	21667
854.72	21675
854.854	21759
854.988	21690
855.122	21625
855.256	21416
855.39	21572
855.524	21713
855.658	21759
855.792	21709
855.926	21679
856.06	21679
856.194	21857
856.327	21614
856.461	21595
856.595	21656
856.729	21614
856.862	21641
856.996	21652
857.13	21625
857.263	21709
857.397	21812
857.53	21660
857.664	21561
857.797	21759
857.931	21759
858.064	21637
858.197	21690
858.331	21504
858.464	21523
858.597	21538
858.731	21534
858.864	21507
858.997	21633
859.13	21580
859.263	21717
859.396	21732
859.529	21599
859.662	21583
859.795	21447
859.928	21587
860.061	21774
860.194	21656
860.327	21564
860.46	21599
860.592	21690
860.725	21694
860.858	21747
860.99	21561
861.123	21351
861.256	21439
861.388	21557
861.521	22207
861.653	21424
861.786	21428
861.918	21492
862.05	21583
862.183	21553
862.315	21667
862.447	21671
862.58	21682
862.712	21401
862.844	21287
862.976	21389
863.108	21405
863.24	21694
863.372	21192
863.504	21218
863.636	21135
863.768	21348
863.9	21211
864.032	21161
864.164	21268
864.296	21325
864.428	21386
864.559	21363
864.691	21329
864.823	21313
864.954	21176
865.086	21230
865.217	21287
865.349	21047
865.48	21020
865.612	21123
865.743	21336
865.875	21199
866.006	21154
866.137	21195
866.269	21188
866.4	21306
866.531	21047
866.662	21032
866.793	21070
866.924	21108
867.055	21058
867.186	21112
867.317	20967
867.448	21001
867.579	21051
867.71	21001
867.841	21009
867.972	21017
868.103	21001
868.233	21039
868.364	21066
868.495	21096
868.625	21321
868.756	21408
868.886	21298
869.017	21313
869.147	21408
869.278	21511
869.408	21348
869.539	21306
869.669	21420
869.799	21291
869.929	21462
870.06	21431
870.19	21622
870.32	21549
870.45	21671
870.58	21705
870.71	21770
870.84	21736
870.97	21720
871.1	21694
871.23	21808
871.36	22025
871.489	21667
871.619	21876
871.749	21869
871.879	21918
872.008	22055
872.138	21960
872.267	21823
872.397	21778
872.526	21698
872.656	21682
872.785	21644
872.915	21964
873.044	22013
873.173	21915
873.303	21994
873.432	21930
873.561	22067
873.69	21998
873.819	21930
873.948	22067
874.077	21888
874.206	21903
874.335	21827
874.464	22021
874.593	22097
874.722	22268
874.851	22166
874.979	22257
875.108	22295
875.237	22116
875.365	21983
875.494	22116
875.623	22185
875.751	22150
875.88	22253
876.008	22314
876.136	22379
876.265	22599
876.393	22626
876.521	22698
876.65	22759
876.778	22630
876.906	22424
877.034	22382
877.162	22542
877.29	22451
877.418	22489
877.546	22538
877.674	22500
877.802	22580
877.93	22535
878.058	22512
878.185	22508
878.313	22531
878.441	22668
878.568	22367
878.696	22436
878.824	22596
878.951	22607
879.079	22713
879.206	22934
879.333	22554
879.461	22531
879.588	22607
879.715	22611
879.842	22771
879.97	22634
880.097	22421
880.224	22329
880.351	22284
880.478	22322
880.605	22341
880.732	22348
880.859	22611
880.986	22295
881.112	22497
881.239	22188
881.366	22185
881.493	21960
881.619	21926
881.746	22093
881.872	21918
881.999	21880
882.125	21903
882.252	21903
882.378	22010
882.505	22093
882.631	21797
882.757	21629
882.883	21759
883.01	21603
883.136	21530
883.262	21496
883.388	21367
883.514	21553
883.64	21743
883.766	21454
883.892	21405
884.018	21439
884.143	21667
884.269	21633
884.395	21317
884.52	21249
884.646	21211
884.772	21272
884.897	21180
885.023	21294
885.148	21439
885.274	21420
885.399	21389
885.524	21211
885.65	21264
885.775	21169
885.9	21317
886.025	21397
886.15	21275
886.275	21100
886.4	21066
886.525	21306
886.65	21154
886.775	21226
886.9	21348
887.025	21408
887.149	21169
887.274	21131
887.399	21032
887.523	21017
887.648	20880
887.773	20861
887.897	21173
888.021	21017
888.146	20941
888.27	20979
888.395	21104
888.519	20910
888.643	21005
888.767	20986
888.891	20883
889.015	20739
889.139	20826
889.263	20842
889.387	20902
889.511	20990
889.635	20819
889.759	20758
889.883	20815
890.006	20720
890.13	20857
890.254	20689
890.377	20655
890.501	20511
890.624	20594
890.748	20549
890.871	20522
890.995	20339
891.118	20332
891.241	20450
891.364	20412
891.488	20454
891.611	20313
891.734	20374
891.857	20389
891.98	20339
892.103	20347
892.226	20305
892.349	20339
892.471	20218
892.594	20233
892.717	20202
892.839	20328
892.962	20187
893.085	20218
893.207	20221
893.33	20256
893.452	20218
893.575	20206
893.697	20168
893.819	20450
893.941	20404
894.064	20415
894.186	20077
894.308	20149
894.43	20271
894.552	20381
894.674	20358
894.796	20164
894.918	20122
895.04	20153
895.161	20309
895.283	20366
895.405	20107
895.526	20244
895.648	20256
895.769	20191
895.891	20237
896.012	20282
896.134	20240
896.255	20358
896.376	20229
896.498	20404
896.619	20408
896.74	20377
896.861	20374
896.982	20632
897.103	20750
897.224	20537
897.345	20480
897.466	20434
897.587	20495
897.708	20594
897.828	20541
897.949	20389
898.07	20309
898.19	20454
898.311	20598
898.431	20324
898.552	20526
898.672	20488
898.792	20499
898.913	20476
899.033	20389
899.153	20305
899.273	20058
899.393	20126
899.513	20195
899.633	20168
899.753	20214
899.873	20107
899.993	20294
900.113	20012
900.232	20153
900.352	20103
900.472	20008
900.591	19944
900.711	19978
900.83	19993
900.95	20050
901.069	20168
901.189	19917
901.308	19635
901.427	19563
901.546	19556
901.665	19651
901.784	19525
901.904	19434
902.023	19324
902.141	19194
902.26	19053
902.379	19168
902.498	18996
902.617	18920
902.735	19129
902.854	18996
902.973	19050
903.091	18669
903.21	18757
903.328	18696
903.446	18612
903.565	18467
903.683	18566
903.801	18418
903.919	18494
904.038	18429
904.156	18304
904.274	18273
904.392	18220
904.51	18243
904.627	18380
904.745	18251
904.863	18334
904.981	17950
905.098	17901
905.216	17878
905.334	17901
905.451	17973
905.569	17847
905.686	17889
905.803	17836
905.921	17760
906.038	17802
906.155	17847
906.272	17463
906.389	17676
906.506	17532
906.623	17497
906.74	17429
906.857	17349
906.974	17337
907.091	17493
907.208	17619
907.324	17414
907.441	17421
907.557	17220
907.674	17162
907.79	17083
907.907	17037
908.023	17193
908.139	17052
908.256	17060
908.372	16828
908.488	16930
908.604	16793
908.72	16847
908.836	16771
908.952	16713
909.068	16831
909.184	16987
909.3	16763
909.415	16824
909.531	16744
909.647	16531
909.762	16535
909.878	16481
909.993	16558
910.108	16481
910.224	16409
910.339	16409
910.454	16356
910.57	16329
910.685	16265
910.8	16436
910.915	16402
911.03	16421
911.145	16166
911.259	16013
911.374	16143
911.489	16013
911.604	15930
911.718	15857
911.833	15785
911.947	15827
912.062	15637
912.176	15797
912.291	15941
912.405	15838
912.519	16013
912.633	16071
912.748	15892
912.862	15789
912.976	15625
913.09	15538
913.204	15572
913.318	15701
913.431	15656
913.545	15682
913.659	15713
913.772	15667
913.886	15545
914	15355
914.113	15485
914.226	15534
914.34	15519
914.453	15306
914.566	15538
914.68	15283
914.793	15317
914.906	15001
915.019	15058
915.132	14986
915.245	15081
915.358	15058
915.47	15108
915.583	15051
915.696	15089
915.809	15123
915.921	15214
916.034	14986
916.146	14963
916.259	14861
916.371	15032
916.483	14986
916.595	14868
916.708	14895
916.82	14868
916.932	14861
917.044	14823
917.156	14773
917.268	14613
917.38	14823
917.491	14617
917.603	14636
917.715	14735
917.826	14815
917.938	14632
918.049	14461
918.161	14507
918.272	14800
918.384	14777
918.495	14670
918.606	14427
918.717	14408
918.828	14427
918.939	14549
919.05	14476
919.161	14415
919.272	14214
919.383	14278
919.494	14511
919.604	14579
919.715	14476
919.826	14248
919.936	14396
920.047	14423
920.157	14336
920.267	14552
920.378	14404
920.488	14343
920.598	14590
920.708	14651
920.818	14533
920.928	14480
921.038	14617
921.148	14617
921.258	14271
921.368	14214
921.477	14187
921.587	14142
921.697	14016
921.806	14111
921.916	13997
922.025	13822
922.134	13693
922.244	13742
922.353	13791
922.462	13715
922.571	13491
922.68	13480
922.789	13422
922.898	13384
923.007	13396
923.116	13464
923.224	13320
923.333	13335
923.442	13244
923.55	13160
923.659	13228
923.767	13343
923.876	13156
923.984	13285
924.092	13164
924.201	13137
924.309	13137
924.417	13050
924.525	12993
924.633	13114
924.741	13879
924.849	12833
924.956	13012
925.064	12795
925.172	12821
925.279	12825
925.387	12951
925.494	12806
925.602	12867
925.709	12871
925.816	12612
925.924	12817
926.031	12852
926.138	12753
926.245	12833
926.352	12650
926.459	12817
926.566	12772
926.673	12703
926.779	12547
926.886	12521
926.993	12486
927.099	12369
927.206	12369
927.312	12418
927.419	12407
927.525	12380
927.631	12407
927.737	12251
927.843	12247
927.95	12019
928.056	12235
928.162	12197
928.267	12270
928.373	12863
928.479	12254
928.585	11980
928.69	12091
928.796	12235
928.901	11961
929.007	11885
929.112	12110
929.218	12022
929.323	11950
929.428	11927
929.533	11996
929.638	11870
929.743	11870
929.848	11904
929.953	11927
930.058	11672
930.163	11585
930.267	11634
930.372	11775
930.477	11577
930.581	11764
930.685	11752
930.79	11490
930.894	11551
930.998	11395
931.103	11535
931.207	11212
931.311	11166
931.415	11121
931.519	10847
931.623	10847
