Data from test_V78500241_2531.txt Node
Date: Fri Mar 25 15:59:20 CST 2022
User: usil
Spectrometer: V785-0024
Trigger mode: 0
Integration Time (sec): 4.000000E-1
Scans to average: 1
Nonlinearity correction enabled: false
Boxcar width: 0
Storing dark spectrum: false
XAxis mode: Wavelengths
Number of Pixels in Spectrum: 1024
>>>>>Begin Spectral Data<<<<<
801.071	28599
801.214	28554
801.356	28337
801.499	28249
801.641	28074
801.783	28204
801.926	28021
802.068	28230
802.211	28169
802.353	28048
802.496	27819
802.638	27778
802.78	27774
802.923	27953
803.065	27709
803.208	27880
803.35	27804
803.492	28025
803.635	28139
803.777	27968
803.919	28021
804.061	28367
804.204	28124
804.346	27972
804.488	27983
804.63	27960
804.773	27960
804.915	28185
805.057	28158
805.199	28139
805.341	28143
805.483	28299
805.626	28097
805.768	28055
805.91	28105
806.052	28306
806.194	28173
806.336	28500
806.478	28314
806.62	28299
806.762	28306
806.904	28557
807.046	28721
807.188	28774
807.33	28694
807.472	28793
807.614	28607
807.756	28615
807.898	28577
808.04	28512
808.182	28417
808.324	28527
808.465	28508
808.607	28736
808.749	28911
808.891	28934
809.033	29067
809.174	28923
809.316	28968
809.458	28843
809.6	28847
809.741	28900
809.883	28934
810.025	29136
810.166	29231
810.308	29261
810.45	29064
810.591	29041
810.733	28984
810.875	28782
811.016	28774
811.158	28809
811.299	29025
811.441	29083
811.582	29056
811.724	28965
811.865	28873
812.007	28949
812.148	28995
812.29	28835
812.431	29128
812.573	29299
812.714	29322
812.855	29459
812.997	29493
813.138	29687
813.279	29554
813.421	29391
813.562	29364
813.703	29250
813.845	29159
813.986	28949
814.127	28713
814.268	28721
814.41	28588
814.551	28447
814.692	28908
814.833	28500
814.974	28630
815.115	28538
815.256	28451
815.397	28459
815.539	28607
815.68	28474
815.821	28325
815.962	28508
816.103	28481
816.244	28303
816.385	28230
816.526	28188
816.666	28211
816.807	27892
816.948	28029
817.089	28013
817.23	27945
817.371	27835
817.512	27911
817.653	27972
817.793	27671
817.934	27770
818.075	27873
818.216	27808
818.356	27793
818.497	27827
818.638	27686
818.778	27629
818.919	27564
819.06	27682
819.2	27850
819.341	27869
819.481	27895
819.622	28116
819.762	28303
819.903	28295
820.043	28086
820.184	28025
820.324	28135
820.465	28147
820.605	28059
820.746	28017
820.886	27884
821.026	28029
821.167	28002
821.307	28059
821.447	27964
821.588	27846
821.728	27698
821.868	27538
822.008	27538
822.149	27363
822.289	27291
822.429	27062
822.569	27108
822.709	27093
822.849	27001
822.99	26960
823.13	26872
823.27	26777
823.41	26689
823.55	26552
823.69	26663
823.83	26743
823.97	26708
824.11	26609
824.25	26571
824.389	26526
824.529	26689
824.669	26640
824.809	26716
824.949	26659
825.089	26746
825.228	26678
825.368	26427
825.508	26400
825.648	26400
825.787	26575
825.927	26427
826.067	26343
826.206	26518
826.346	26450
826.485	26629
826.625	26503
826.765	26511
826.904	26438
827.044	26240
827.183	26237
827.323	26180
827.462	26221
827.601	26240
827.741	26130
827.88	26145
828.02	25932
828.159	26214
828.298	26134
828.437	26218
828.577	26157
828.716	26233
828.855	26107
828.994	25715
829.134	25841
829.273	25909
829.412	25864
829.551	25780
829.69	25795
829.829	25879
829.968	25970
830.107	25826
830.246	25772
830.385	25811
830.524	25723
830.663	25681
830.802	25544
830.941	25426
831.08	25403
831.219	25518
831.357	25479
831.496	25674
831.635	25590
831.774	25377
831.913	25320
832.051	25316
832.19	25133
832.329	25266
832.467	25148
832.606	25148
832.744	25012
832.883	25110
833.022	25122
833.16	24985
833.299	25168
833.437	25088
833.576	25247
833.714	25183
833.852	25244
833.991	25198
834.129	25213
834.267	25217
834.406	25202
834.544	25247
834.682	25198
834.821	25190
834.959	25362
835.097	25221
835.235	25312
835.373	25270
835.511	25187
835.65	24882
835.788	24996
835.926	24924
836.064	24882
836.202	24916
836.34	24951
836.478	25122
836.615	25061
836.753	24985
836.891	25053
837.029	25114
837.167	24985
837.305	24947
837.443	24837
837.58	24863
837.718	24951
837.856	24875
837.993	24844
838.131	24871
838.269	24665
838.406	24791
838.544	24749
838.681	24525
838.819	24521
838.956	24296
839.094	24330
839.231	24445
839.369	24452
839.506	24692
839.643	24521
839.781	24292
839.918	24228
840.055	24414
840.193	24251
840.33	24334
840.467	24178
840.604	24220
840.742	24525
840.879	24076
841.016	24171
841.153	24194
841.29	24254
841.427	24213
841.564	24182
841.701	24083
841.838	24129
841.975	24152
842.112	24174
842.249	23904
842.385	23992
842.522	24114
842.659	24041
842.796	23927
842.933	23878
843.069	23939
843.206	23821
843.343	24007
843.479	23939
843.616	24026
843.752	23878
843.889	23729
844.025	23840
844.162	23748
844.298	23859
844.435	23687
844.571	23680
844.708	23741
844.844	23950
844.98	23859
845.117	23836
845.253	23566
845.389	23668
845.525	23680
845.661	23581
845.798	23440
845.934	23566
846.07	23505
846.206	23509
846.342	23566
846.478	23402
846.614	23212
846.75	23170
846.886	23162
847.022	23258
847.158	23292
847.294	23174
847.429	23143
847.565	23273
847.701	23376
847.837	22900
847.972	22934
848.108	22862
848.244	22892
848.379	22698
848.515	22801
848.65	22744
848.786	22759
848.921	22835
849.057	22930
849.192	22850
849.328	22778
849.463	22759
849.598	22740
849.734	22656
849.869	22679
850.004	22417
850.14	22557
850.275	22607
850.41	22428
850.545	22485
850.68	22554
850.815	22599
850.95	22535
851.085	22687
851.22	22615
851.355	22504
851.49	22542
851.625	22432
851.76	22485
851.895	22550
852.03	22497
852.165	22561
852.299	22474
852.434	22618
852.569	22664
852.703	22508
852.838	22550
852.973	22641
853.107	22523
853.242	22459
853.376	22337
853.511	22249
853.645	22379
853.78	22352
853.914	22382
854.048	22379
854.183	22280
854.317	22447
854.451	22630
854.585	22398
854.72	22421
854.854	22379
854.988	22402
855.122	22382
855.256	22249
855.39	22306
855.524	22497
855.658	22436
855.792	22379
855.926	22409
856.06	22348
856.194	22474
856.327	22367
856.461	22257
856.595	22428
856.729	22363
856.862	22341
856.996	22417
857.13	22493
857.263	22618
857.397	22394
857.53	22367
857.664	22306
857.797	22382
857.931	22424
858.064	22466
858.197	22489
858.331	22246
858.464	22413
858.597	22162
858.731	22337
858.864	22284
858.997	22246
859.13	22409
859.263	22394
859.396	22447
859.529	22310
859.662	22310
859.795	22443
859.928	22356
860.061	22508
860.194	22596
860.327	22424
860.46	22371
860.592	22580
860.725	22546
860.858	22428
860.99	22287
861.123	22325
861.256	22276
861.388	22257
861.521	23105
861.653	22276
861.786	22215
861.918	22257
862.05	22219
862.183	22234
862.315	22268
862.447	22363
862.58	22226
862.712	22063
862.844	22006
862.976	22097
863.108	22196
863.24	22485
863.372	22090
863.504	22006
863.636	22002
863.768	22116
863.9	22017
864.032	22051
864.164	21915
864.296	22006
864.428	22295
864.559	22162
864.691	22158
864.823	22017
864.954	22059
865.086	21991
865.217	21968
865.349	21953
865.48	21937
865.612	21850
865.743	22128
865.875	22021
866.006	21831
866.137	21876
866.269	21960
866.4	21922
866.531	21888
866.662	21804
866.793	21884
866.924	21835
867.055	21911
867.186	21956
867.317	21793
867.448	21808
867.579	21873
867.71	21842
867.841	21781
867.972	21987
868.103	21835
868.233	21808
868.364	21857
868.495	21911
868.625	22059
868.756	22185
868.886	22055
869.017	22154
869.147	22226
869.278	22204
869.408	22116
869.539	22101
869.669	22226
869.799	22120
869.929	22162
870.06	22181
870.19	22398
870.32	22382
870.45	22386
870.58	22519
870.71	22466
870.84	22478
870.97	22466
871.1	22379
871.23	22717
871.36	22504
871.489	22660
871.619	22698
871.749	22797
871.879	22835
872.008	22812
872.138	22664
872.267	22713
872.397	22630
872.526	22512
872.656	22588
872.785	22668
872.915	22752
873.044	22733
873.173	22790
873.303	22748
873.432	22839
873.561	22850
873.69	22820
873.819	22812
873.948	22911
874.077	22744
874.206	22710
874.335	22824
874.464	22725
874.593	22995
874.722	22812
874.851	22892
874.979	22984
875.108	23018
875.237	22911
875.365	22748
875.494	22873
875.623	23064
875.751	22938
875.88	22987
876.008	23083
876.136	23193
876.265	23372
876.393	23387
876.521	23406
876.65	23436
876.778	23395
876.906	23174
877.034	23395
877.162	23383
877.29	23277
877.418	23315
877.546	23242
877.674	23269
877.802	23231
877.93	23189
878.058	23254
878.185	23246
878.313	23170
878.441	23277
878.568	23090
878.696	23231
878.824	23254
878.951	23406
879.079	23478
879.206	23566
879.333	23478
879.461	23284
879.588	23425
879.715	23505
879.842	23463
879.97	23318
880.097	23151
880.224	23147
880.351	23212
880.478	23155
880.605	23143
880.732	23079
880.859	23391
880.986	23208
881.112	23128
881.239	23010
881.366	22763
881.493	22774
881.619	22771
881.746	22744
881.872	22752
881.999	22630
882.125	22622
882.252	22736
882.378	22634
882.505	22710
882.631	22519
882.757	22390
882.883	22466
883.01	22356
883.136	22303
883.262	22284
883.388	22120
883.514	22386
883.64	22348
883.766	22257
883.892	22112
884.018	22135
884.143	22421
884.269	22314
884.395	22048
884.52	21926
884.646	21991
884.772	21968
884.897	21869
885.023	21949
885.148	21930
885.274	22116
885.399	22196
885.524	21979
885.65	22040
885.775	22059
885.9	22002
886.025	22116
886.15	22101
886.275	21968
886.4	21865
886.525	21926
886.65	21930
886.775	21941
886.9	21968
887.025	22143
887.149	21922
887.274	21755
887.399	21766
887.523	21808
887.648	21675
887.773	21656
887.897	21876
888.021	21869
888.146	21682
888.27	21861
888.395	21785
888.519	21789
888.643	21770
888.767	21747
888.891	21747
889.015	21625
889.139	21583
889.263	21412
889.387	21641
889.511	21694
889.635	21667
889.759	21618
889.883	21473
890.006	21561
890.13	21519
890.254	21591
890.377	21367
890.501	21272
890.624	21268
890.748	21386
890.871	21161
890.995	21062
891.118	20975
891.241	21028
891.364	21013
891.488	21135
891.611	21173
891.734	21116
891.857	21062
891.98	21127
892.103	21272
892.226	21119
892.349	20994
892.471	20891
892.594	20956
892.717	20925
892.839	20948
892.962	21017
893.085	21127
893.207	20994
893.33	20982
893.452	20796
893.575	21066
893.697	20998
893.819	21199
893.941	21195
894.064	21062
894.186	20975
894.308	20804
894.43	20986
894.552	21161
894.674	21039
894.796	20811
894.918	20967
895.04	20876
895.161	21005
895.283	21047
895.405	20887
895.526	20921
895.648	20899
895.769	21077
895.891	20971
896.012	20982
896.134	20994
896.255	20895
896.376	20800
896.498	20834
896.619	20956
896.74	20956
896.861	21077
896.982	21279
897.103	21469
897.224	21180
897.345	21096
897.466	21058
897.587	21176
897.708	21306
897.828	21146
897.949	21093
898.07	21024
898.19	21062
898.311	21291
898.431	20979
898.552	21066
898.672	21386
898.792	21279
898.913	21036
899.033	21005
899.153	21017
899.273	20872
899.393	20929
899.513	20887
899.633	20853
899.753	20902
899.873	20864
899.993	20956
900.113	20800
900.232	20918
900.352	20727
900.472	20708
900.591	20670
900.711	20655
900.83	20632
900.95	20765
901.069	20815
901.189	20613
901.308	20282
901.427	20240
901.546	20240
901.665	20221
901.784	20214
901.904	20077
902.023	20050
902.141	19811
902.26	19822
902.379	19795
902.498	19738
902.617	19696
902.735	19723
902.854	19685
902.973	19635
903.091	19350
903.21	19400
903.328	19377
903.446	19331
903.565	19282
903.683	19148
903.801	19091
903.919	19156
904.038	19244
904.156	19034
904.274	18977
904.392	18951
904.51	18954
904.627	18844
904.745	18935
904.863	18935
904.981	18791
905.098	18620
905.216	18635
905.334	18722
905.451	18669
905.569	18608
905.686	18559
905.803	18623
905.921	18357
906.038	18513
906.155	18445
906.272	18357
906.389	18391
906.506	18174
906.623	18220
906.74	18129
906.857	18117
906.974	18098
907.091	18136
907.208	18281
907.324	18087
907.441	17996
907.557	17980
907.674	17882
907.79	17760
907.907	17737
908.023	17946
908.139	17832
908.256	17767
908.372	17756
908.488	17684
908.604	17619
908.72	17493
908.836	17512
908.952	17509
909.068	17532
909.184	17695
909.3	17551
909.415	17630
909.531	17554
909.647	17315
909.762	17299
909.878	17223
909.993	17239
910.108	17303
910.224	17136
910.339	17303
910.454	17174
910.57	17041
910.685	17071
910.8	17170
910.915	17162
911.03	17079
911.145	16911
911.259	16809
911.374	16862
911.489	16801
911.604	16786
911.718	16584
911.833	16558
911.947	16592
912.062	16493
912.176	16653
912.291	16615
912.405	16580
912.519	16835
912.633	16778
912.748	16561
912.862	16558
912.976	16356
913.09	16280
913.204	16344
913.318	16382
913.431	16443
913.545	16523
913.659	16451
913.772	16310
913.886	16143
914	16192
914.113	16287
914.226	16306
914.34	16196
914.453	16105
914.566	16173
914.68	16128
914.793	16112
914.906	15865
915.019	15884
915.132	15701
915.245	15797
915.358	15781
915.47	15785
915.583	15713
915.696	15907
915.809	15831
915.921	15915
916.034	15743
916.146	15641
916.259	15584
916.371	15778
916.483	15781
916.595	15584
916.708	15584
916.82	15542
916.932	15614
917.044	15625
917.156	15549
917.268	15519
917.38	15511
917.491	15401
917.603	15431
917.715	15469
917.826	15572
917.938	15340
918.049	15233
918.161	15389
918.272	15401
918.384	15492
918.495	15405
918.606	15157
918.717	15127
918.828	15192
918.939	15207
919.05	15161
919.161	15195
919.272	14998
919.383	15028
919.494	15218
919.604	15397
919.715	15097
919.826	15093
919.936	15131
920.047	15127
920.157	15226
920.267	15393
920.378	15176
920.488	15192
920.598	15203
920.708	15462
920.818	15241
920.928	15233
921.038	15443
921.148	15302
921.258	15074
921.368	14941
921.477	14868
921.587	14914
921.697	14754
921.806	14906
921.916	14716
922.025	14651
922.134	14492
922.244	14484
922.353	14564
922.462	14404
922.571	14237
922.68	14145
922.789	14119
922.898	14073
923.007	14149
923.116	14229
923.224	14123
923.333	14081
923.442	13974
923.55	13909
923.659	13955
923.767	13932
923.876	13906
923.984	14035
924.092	13822
924.201	13928
924.309	13875
924.417	13852
924.525	13772
924.633	13845
924.741	14522
924.849	13632
924.956	13666
925.064	13571
925.172	13480
925.279	13529
925.387	13567
925.494	13578
925.602	13609
925.709	13540
925.816	13426
925.924	13430
926.031	13480
926.138	13537
926.245	13533
926.352	13396
926.459	13548
926.566	13487
926.673	13320
926.779	13263
926.886	13259
926.993	13065
927.099	13012
927.206	13080
927.312	13034
927.419	13149
927.525	13072
927.631	13031
927.737	12890
927.843	12939
927.95	12852
928.056	12810
928.162	12863
928.267	12928
928.373	13518
928.479	12939
928.585	12650
928.69	12734
928.796	12810
928.901	12711
929.007	12498
929.112	12741
929.218	12654
929.323	12650
929.428	12540
929.533	12741
929.638	12460
929.743	12460
929.848	12513
929.953	12570
930.058	12437
930.163	12239
930.267	12273
930.372	12380
930.477	12178
930.581	12391
930.685	12281
930.79	12136
930.894	12152
930.998	12175
931.103	12213
931.207	11809
931.311	11813
931.415	11657
931.519	11547
931.623	11444
