Data from test_V78500241_3048.txt Node
Date: Fri Mar 25 16:02:54 CST 2022
User: usil
Spectrometer: V785-0024
Trigger mode: 0
Integration Time (sec): 4.000000E-1
Scans to average: 1
Nonlinearity correction enabled: false
Boxcar width: 0
Storing dark spectrum: false
XAxis mode: Wavelengths
Number of Pixels in Spectrum: 1024
>>>>>Begin Spectral Data<<<<<
801.071	28173
801.214	28276
801.356	27941
801.499	27949
801.641	27937
801.783	27827
801.926	27804
802.068	27728
802.211	27690
802.353	27660
802.496	27420
802.638	27431
802.78	27386
802.923	27397
803.065	27336
803.208	27420
803.35	27405
803.492	27591
803.635	27747
803.777	27458
803.919	27641
804.061	27918
804.204	27686
804.346	27717
804.488	27580
804.63	27523
804.773	27534
804.915	27720
805.057	27823
805.199	27671
805.341	27739
805.483	27884
805.626	27808
805.768	27770
805.91	27755
806.052	27914
806.194	27751
806.336	28006
806.478	27774
806.62	27736
806.762	27892
806.904	27953
807.046	28348
807.188	28261
807.33	28204
807.472	28356
807.614	28215
807.756	28253
807.898	28082
808.04	28040
808.182	28173
808.324	28162
808.465	28109
808.607	28257
808.749	28401
808.891	28470
809.033	28702
809.174	28489
809.316	28497
809.458	28546
809.6	28390
809.741	28561
809.883	28603
810.025	28637
810.166	28774
810.308	28733
810.45	28733
810.591	28618
810.733	28424
810.875	28405
811.016	28382
811.158	28432
811.299	28527
811.441	28664
811.582	28565
811.724	28424
811.865	28363
812.007	28459
812.148	28474
812.29	28481
812.431	28618
812.573	28748
812.714	28877
812.855	28839
812.997	28927
813.138	29064
813.279	29181
813.421	29037
813.562	28847
813.703	28839
813.845	28706
813.986	28318
814.127	28306
814.268	28211
814.41	28181
814.551	28082
814.692	28249
814.833	28078
814.974	28055
815.115	28135
815.256	28036
815.397	27998
815.539	27987
815.68	27914
815.821	27903
815.962	28078
816.103	27930
816.244	27789
816.385	27701
816.526	27694
816.666	27622
816.807	27351
816.948	27466
817.089	27564
817.23	27500
817.371	27408
817.512	27447
817.653	27439
817.793	27370
817.934	27431
818.075	27298
818.216	27401
818.356	27389
818.497	27306
818.638	27089
818.778	27116
818.919	27173
819.06	27169
819.2	27370
819.341	27420
819.481	27443
819.622	27587
819.762	27793
819.903	27732
820.043	27587
820.184	27610
820.324	27561
820.465	27618
820.605	27477
820.746	27572
820.886	27401
821.026	27519
821.167	27572
821.307	27504
821.447	27412
821.588	27374
821.728	27260
821.868	27017
822.008	26918
822.149	26804
822.289	26925
822.429	26758
822.569	26495
822.709	26579
822.849	26446
822.99	26488
823.13	26396
823.27	26278
823.41	26317
823.55	26168
823.69	26309
823.83	26275
823.97	26237
824.11	26149
824.25	25879
824.389	26024
824.529	26199
824.669	26138
824.809	26134
824.949	26069
825.089	26161
825.228	26012
825.368	25856
825.508	25974
825.648	25963
825.787	26016
825.927	25940
826.067	25856
826.206	25898
826.346	25970
826.485	26027
826.625	25909
826.765	25917
826.904	26046
827.044	25833
827.183	25799
827.323	25696
827.462	25651
827.601	25559
827.741	25635
827.88	25616
828.02	25613
828.159	25651
828.298	25605
828.437	25590
828.577	25479
828.716	25708
828.855	25495
828.994	25320
829.134	25293
829.273	25426
829.412	25278
829.551	25263
829.69	25320
829.829	25293
829.968	25362
830.107	25304
830.246	25362
830.385	25400
830.524	25282
830.663	25126
830.802	25183
830.941	24920
831.08	24913
831.219	24973
831.357	24996
831.496	25221
831.635	24890
831.774	24954
831.913	24878
832.051	24593
832.19	24661
832.329	24692
832.467	24620
832.606	24589
832.744	24525
832.883	24517
833.022	24551
833.16	24688
833.299	24703
833.437	24566
833.576	24719
833.714	24582
833.852	24665
833.991	24669
834.129	24639
834.267	24833
834.406	24620
834.544	24623
834.682	24692
834.821	24639
834.959	24798
835.097	24623
835.235	24806
835.373	24650
835.511	24639
835.65	24627
835.788	24517
835.926	24292
836.064	24235
836.202	24475
836.34	24544
836.478	24582
836.615	24319
836.753	24566
836.891	24483
837.029	24604
837.167	24483
837.305	24315
837.443	24304
837.58	24334
837.718	24361
837.856	24304
837.993	24270
838.131	24308
838.269	24213
838.406	24323
838.544	24140
838.681	24011
838.819	23965
838.956	23805
839.094	23828
839.231	23931
839.369	24091
839.506	24171
839.643	23908
839.781	23927
839.918	23843
840.055	23840
840.193	23627
840.33	23726
840.467	23722
840.604	23699
840.742	24018
840.879	23623
841.016	23695
841.153	23596
841.29	23843
841.427	23551
841.564	23741
841.701	23748
841.838	23638
841.975	23668
842.112	23638
842.249	23562
842.385	23364
842.522	23627
842.659	23539
842.796	23425
842.933	23566
843.069	23410
843.206	23303
843.343	23570
843.479	23478
843.616	23459
843.752	23311
843.889	23284
844.025	23455
844.162	23197
844.298	23330
844.435	23193
844.571	23098
844.708	23166
844.844	23303
844.98	23341
845.117	23383
845.253	23227
845.389	23124
845.525	23143
845.661	23105
845.798	23006
845.934	23018
846.07	22915
846.206	23083
846.342	23067
846.478	23037
846.614	22752
846.75	22656
846.886	22862
847.022	22790
847.158	22702
847.294	22740
847.429	22698
847.565	22698
847.701	22885
847.837	22405
847.972	22356
848.108	22405
848.244	22371
848.379	22367
848.515	22310
848.65	22272
848.786	22390
848.921	22276
849.057	22367
849.192	22466
849.328	22314
849.463	22284
849.598	22299
849.734	22169
849.869	22322
850.004	22078
850.14	22150
850.275	22093
850.41	21926
850.545	22093
850.68	22040
850.815	22219
850.95	22025
851.085	22257
851.22	22173
851.355	22185
851.49	21987
851.625	22044
851.76	21964
851.895	21945
852.03	22002
852.165	22036
852.299	22059
852.434	22166
852.569	22131
852.703	21998
852.838	22051
852.973	22200
853.107	22116
853.242	21987
853.376	21941
853.511	21903
853.645	21808
853.78	22021
853.914	21846
854.048	21918
854.183	21835
854.317	21941
854.451	22097
854.585	21934
854.72	21895
854.854	21987
854.988	21873
855.122	21747
855.256	21724
855.39	21850
855.524	21934
855.658	21994
855.792	21964
855.926	21873
856.06	21915
856.194	21972
856.327	21865
856.461	21861
856.595	21797
856.729	21804
856.862	22067
856.996	21930
857.13	21956
857.263	21899
857.397	21953
857.53	21956
857.664	21934
857.797	22051
857.931	21994
858.064	21926
858.197	21972
858.331	21873
858.464	21869
858.597	21694
858.731	21892
858.864	21812
858.997	21781
859.13	21907
859.263	21884
859.396	21918
859.529	21785
859.662	21804
859.795	21850
859.928	21930
860.061	21994
860.194	22131
860.327	21975
860.46	21907
860.592	22078
860.725	22013
860.858	21922
860.99	22021
861.123	21857
861.256	21823
861.388	21861
861.521	22550
861.653	21717
861.786	21724
861.918	21614
862.05	21770
862.183	21827
862.315	21823
862.447	21941
862.58	21793
862.712	21610
862.844	21656
862.976	21705
863.108	21576
863.24	21949
863.372	21534
863.504	21614
863.636	21675
863.768	21511
863.9	21583
864.032	21481
864.164	21561
864.296	21599
864.428	21831
864.559	21667
864.691	21580
864.823	21614
864.954	21568
865.086	21660
865.217	21435
865.349	21443
865.48	21408
865.612	21610
865.743	21637
865.875	21405
866.006	21431
866.137	21447
866.269	21523
866.4	21557
866.531	21488
866.662	21355
866.793	21443
866.924	21439
867.055	21485
867.186	21298
867.317	21359
867.448	21374
867.579	21523
867.71	21416
867.841	21370
867.972	21405
868.103	21538
868.233	21519
868.364	21412
868.495	21523
868.625	21595
868.756	21854
868.886	21633
869.017	21648
869.147	21797
869.278	21766
869.408	21660
869.539	21675
869.669	21671
869.799	21713
869.929	21778
870.06	21857
870.19	21964
870.32	21934
870.45	22006
870.58	22070
870.71	22131
870.84	22139
870.97	22013
871.1	22006
871.23	22246
871.36	22215
871.489	22249
871.619	22196
871.749	22284
871.879	22322
872.008	22398
872.138	22173
872.267	22246
872.397	22169
872.526	22124
872.656	22169
872.785	22154
872.915	22101
873.044	22204
873.173	22424
873.303	22325
873.432	22348
873.561	22284
873.69	22360
873.819	22284
873.948	22363
874.077	22363
874.206	22272
874.335	22356
874.464	22306
874.593	22546
874.722	22523
874.851	22535
874.979	22580
875.108	22519
875.237	22436
875.365	22413
875.494	22424
875.623	22569
875.751	22455
875.88	22485
876.008	22649
876.136	22698
876.265	22839
876.393	23006
876.521	22908
876.65	23075
876.778	22774
876.906	22820
877.034	22763
877.162	22873
877.29	22786
877.418	22900
877.546	22862
877.674	22820
877.802	22820
877.93	22782
878.058	22843
878.185	22782
878.313	22660
878.441	22824
878.568	22687
878.696	22812
878.824	22881
878.951	23022
879.079	23029
879.206	23098
879.333	22961
879.461	22820
879.588	22908
879.715	22915
879.842	23044
879.97	22946
880.097	22771
880.224	22653
880.351	22580
880.478	22626
880.605	22615
880.732	22656
880.859	22847
880.986	22706
881.112	22710
881.239	22493
881.366	22474
881.493	22341
881.619	22215
881.746	22337
881.872	22188
881.999	22090
882.125	22147
882.252	22257
882.378	22185
882.505	22329
882.631	22169
882.757	21945
882.883	21972
883.01	21907
883.136	21888
883.262	21739
883.388	21842
883.514	21884
883.64	21922
883.766	21873
883.892	21622
884.018	21606
884.143	21838
884.269	21816
884.395	21747
884.52	21523
884.646	21561
884.772	21545
884.897	21393
885.023	21580
885.148	21736
885.274	21724
885.399	21713
885.524	21488
885.65	21637
885.775	21481
885.9	21606
886.025	21637
886.15	21724
886.275	21523
886.4	21382
886.525	21542
886.65	21492
886.775	21500
886.9	21736
887.025	21785
887.149	21496
887.274	21504
887.399	21264
887.523	21272
887.648	21233
887.773	21310
887.897	21382
888.021	21462
888.146	21214
888.27	21397
888.395	21351
888.519	21473
888.643	21363
888.767	21336
888.891	21283
889.015	21074
889.139	21291
889.263	21131
889.387	21252
889.511	21279
889.635	21226
889.759	21093
889.883	21100
890.006	21230
890.13	21230
890.254	20990
890.377	20975
890.501	20853
890.624	20826
890.748	20899
890.871	20792
890.995	20648
891.118	20724
891.241	20663
891.364	20750
891.488	20777
891.611	20746
891.734	20720
891.857	20754
891.98	20754
892.103	20640
892.226	20640
892.349	20648
892.471	20556
892.594	20533
892.717	20632
892.839	20530
892.962	20575
893.085	20564
893.207	20617
893.33	20427
893.452	20541
893.575	20609
893.697	20613
893.819	20693
893.941	20781
894.064	20773
894.186	20583
894.308	20446
894.43	20655
894.552	20693
894.674	20602
894.796	20469
894.918	20568
895.04	20556
895.161	20552
895.283	20571
895.405	20495
895.526	20514
895.648	20518
895.769	20476
895.891	20670
896.012	20769
896.134	20636
896.255	20606
896.376	20514
896.498	20629
896.619	20636
896.74	20674
896.861	20632
896.982	20891
897.103	21051
897.224	20857
897.345	20781
897.466	20663
897.587	20788
897.708	20910
897.828	20906
897.949	20735
898.07	20663
898.19	20594
898.311	20864
898.431	20765
898.552	20739
898.672	20708
898.792	20883
898.913	20785
899.033	20674
899.153	20629
899.273	20488
899.393	20480
899.513	20686
899.633	20598
899.753	20560
899.873	20404
899.993	20613
900.113	20358
900.232	20473
900.352	20393
900.472	20309
900.591	20202
900.711	20298
900.83	20252
900.95	20347
901.069	20389
901.189	20145
901.308	19989
901.427	19727
901.546	19826
901.665	19963
901.784	19849
901.904	19704
902.023	19643
902.141	19495
902.26	19502
902.379	19381
902.498	19438
902.617	19217
902.735	19430
902.854	19445
902.973	19293
903.091	18920
903.21	19019
903.328	19038
903.446	19046
903.565	19012
903.683	19008
903.801	18684
903.919	18806
904.038	18859
904.156	18445
904.274	18700
904.392	18563
904.51	18593
904.627	18559
904.745	18566
904.863	18593
904.981	18509
905.098	18281
905.216	18353
905.334	18361
905.451	18216
905.569	18285
905.686	18258
905.803	18190
905.921	18174
906.038	18148
906.155	18095
906.272	17931
906.389	18102
906.506	17828
906.623	17843
906.74	17798
906.857	17756
906.974	17729
907.091	17973
907.208	17828
907.324	17847
907.441	17680
907.557	17573
907.674	17505
907.79	17501
907.907	17520
908.023	17505
908.139	17619
908.256	17429
908.372	17387
908.488	17467
908.604	17280
908.72	17299
908.836	17204
908.952	17239
909.068	17204
909.184	17292
909.3	17197
909.415	17159
909.531	17269
909.647	16927
909.762	16972
909.878	16915
909.993	16972
910.108	16828
910.224	16919
910.339	16968
910.454	16702
910.57	16679
910.685	16729
910.8	16919
910.915	16877
911.03	16782
911.145	16489
911.259	16558
911.374	16504
911.489	16428
911.604	16459
911.718	16310
911.833	16261
911.947	16207
912.062	16185
912.176	16295
912.291	16428
912.405	16192
912.519	16493
912.633	16489
912.748	16375
912.862	16306
912.976	16116
913.09	16105
913.204	16097
913.318	16093
913.431	16131
913.545	16211
913.659	16131
913.772	15953
913.886	15895
914	15903
914.113	15937
914.226	16010
914.34	15903
914.453	15808
914.566	15922
914.68	15679
914.793	15766
914.906	15633
915.019	15538
915.132	15424
915.245	15393
915.358	15530
915.47	15523
915.583	15351
915.696	15496
915.809	15519
915.921	15614
916.034	15416
916.146	15405
916.259	15321
916.371	15447
916.483	15469
916.595	15374
916.708	15344
916.82	15294
916.932	15222
917.044	15169
917.156	15233
917.268	15142
917.38	15108
917.491	15150
917.603	15112
917.715	15211
917.826	15268
917.938	15024
918.049	15001
918.161	15043
918.272	15241
918.384	15146
918.495	15081
918.606	14876
918.717	14796
918.828	14883
918.939	14979
919.05	14750
919.161	14815
919.272	14708
919.383	14648
919.494	14842
919.604	15116
919.715	14868
919.826	14819
919.936	14834
920.047	15009
920.157	14765
920.267	14979
920.378	14819
920.488	14811
920.598	15009
920.708	15036
920.818	14895
920.928	14941
921.038	15154
921.148	15131
921.258	14777
921.368	14670
921.477	14579
921.587	14533
921.697	14419
921.806	14545
921.916	14415
922.025	14214
922.134	14218
922.244	14168
922.353	14317
922.462	14161
922.571	13978
922.68	13894
922.789	13871
922.898	13887
923.007	13784
923.116	13917
923.224	13776
923.333	13765
923.442	13651
923.55	13624
923.659	13696
923.767	13814
923.876	13533
923.984	13708
924.092	13567
924.201	13563
924.309	13548
924.417	13662
924.525	13422
924.633	13586
924.741	14244
924.849	13312
924.956	13502
925.064	13266
925.172	13217
925.279	13244
925.387	13278
925.494	13171
925.602	13407
925.709	13247
925.816	13175
925.924	13168
926.031	13346
926.138	13168
926.245	13206
926.352	13129
926.459	13255
926.566	13251
926.673	13042
926.779	13023
926.886	12993
926.993	12890
927.099	12810
927.206	12768
927.312	12738
927.419	12757
927.525	12795
927.631	12867
927.737	12631
927.843	12662
927.95	12483
928.056	12597
928.162	12559
928.267	12631
928.373	13274
928.479	12738
928.585	12479
928.69	12547
928.796	12582
928.901	12448
929.007	12445
929.112	12429
929.218	12445
929.323	12308
929.428	12330
929.533	12460
929.638	12285
929.743	12201
929.848	12296
929.953	12277
930.058	12190
930.163	12045
930.267	12022
930.372	12159
930.477	11980
930.581	12133
930.685	12057
930.79	11912
930.894	11870
930.998	11874
931.103	11923
931.207	11642
931.311	11547
931.415	11452
931.519	11326
931.623	11193
