Data from test_V78500241_3525.txt Node
Date: Fri Mar 25 16:06:13 CST 2022
User: usil
Spectrometer: V785-0024
Trigger mode: 0
Integration Time (sec): 4.000000E-1
Scans to average: 1
Nonlinearity correction enabled: false
Boxcar width: 0
Storing dark spectrum: false
XAxis mode: Wavelengths
Number of Pixels in Spectrum: 1024
>>>>>Begin Spectral Data<<<<<
801.071	29044
801.214	29056
801.356	28615
801.499	28694
801.641	28603
801.783	28554
801.926	28615
802.068	28588
802.211	28436
802.353	28382
802.496	28333
802.638	28303
802.78	28048
802.923	28166
803.065	28093
803.208	28090
803.35	28379
803.492	28527
803.635	28409
803.777	28382
803.919	28516
804.061	28717
804.204	28596
804.346	28447
804.488	28428
804.63	28512
804.773	28466
804.915	28820
805.057	28527
805.199	28615
805.341	28504
805.483	28607
805.626	28660
805.768	28493
805.91	28615
806.052	28649
806.194	28580
806.336	28824
806.478	28580
806.62	28561
806.762	28748
806.904	29094
807.046	29143
807.188	29003
807.33	29200
807.472	29178
807.614	29071
807.756	29010
807.898	29022
808.04	28930
808.182	28980
808.324	28972
808.465	29003
808.607	29155
808.749	29455
808.891	29364
809.033	29554
809.174	29440
809.316	29364
809.458	29360
809.6	29307
809.741	29410
809.883	29497
810.025	29760
810.166	29668
810.308	29627
810.45	29535
810.591	29592
810.733	29360
810.875	29421
811.016	29372
811.158	29250
811.299	29410
811.441	29512
811.582	29657
811.724	29566
811.865	29212
812.007	29315
812.148	29520
812.29	29425
812.431	29611
812.573	29809
812.714	29851
812.855	29950
812.997	30030
813.138	30205
813.279	30057
813.421	29855
813.562	29855
813.703	29687
813.845	29554
813.986	29459
814.127	29208
814.268	29223
814.41	29117
814.551	28984
814.692	29166
814.833	29132
814.974	29018
815.115	29041
815.256	28900
815.397	28934
815.539	28995
815.68	28999
815.821	28919
815.962	29079
816.103	28984
816.244	28755
816.385	28736
816.526	28672
816.666	28675
816.807	28363
816.948	28550
817.089	28561
817.23	28497
817.371	28535
817.512	28405
817.653	28443
817.793	28428
817.934	28356
818.075	28519
818.216	28417
818.356	28405
818.497	28207
818.638	28051
818.778	28204
818.919	28109
819.06	28363
819.2	28337
819.341	28447
819.481	28367
819.622	28599
819.762	28812
819.903	28615
820.043	28786
820.184	28569
820.324	28607
820.465	28717
820.605	28626
820.746	28500
820.886	28493
821.026	28478
821.167	28577
821.307	28504
821.447	28557
821.588	28401
821.728	28280
821.868	28230
822.008	27903
822.149	27907
822.289	27926
822.429	27625
822.569	27583
822.709	27603
822.849	27519
822.99	27447
823.13	27481
823.27	27397
823.41	27279
823.55	27233
823.69	27230
823.83	27237
823.97	27108
824.11	27116
824.25	27024
824.389	27176
824.529	27291
824.669	27093
824.809	27252
824.949	27173
825.089	27275
825.228	27192
825.368	27058
825.508	26952
825.648	26971
825.787	27036
825.927	26967
826.067	26990
826.206	27032
826.346	27146
826.485	27066
826.625	26929
826.765	27154
826.904	27081
827.044	26800
827.183	26804
827.323	26564
827.462	26876
827.601	26609
827.741	26541
827.88	26777
828.02	26651
828.159	26625
828.298	26549
828.437	26720
828.577	26552
828.716	26842
828.855	26594
828.994	26332
829.134	26442
829.273	26545
829.412	26431
829.551	26225
829.69	26393
829.829	26438
829.968	26526
830.107	26492
830.246	26400
830.385	26305
830.524	26320
830.663	26210
830.802	26130
830.941	25970
831.08	25947
831.219	26062
831.357	26020
831.496	26461
831.635	26027
831.774	25803
831.913	25814
832.051	25734
832.19	25833
832.329	25795
832.467	25734
832.606	25556
832.744	25571
832.883	25651
833.022	25620
833.16	25715
833.299	25700
833.437	25685
833.576	25628
833.714	25833
833.852	25715
833.991	25788
834.129	25868
834.267	25871
834.406	25780
834.544	25620
834.682	25689
834.821	25769
834.959	25723
835.097	25757
835.235	25837
835.373	25769
835.511	25662
835.65	25677
835.788	25514
835.926	25377
836.064	25384
836.202	25422
836.34	25472
836.478	25731
836.615	25590
836.753	25575
836.891	25533
837.029	25521
837.167	25529
837.305	25594
837.443	25419
837.58	25419
837.718	25441
837.856	25464
837.993	25304
838.131	25422
838.269	25297
838.406	25384
838.544	25145
838.681	25179
838.819	24958
838.956	24795
839.094	24852
839.231	24856
839.369	25080
839.506	25164
839.643	25061
839.781	24947
839.918	24806
840.055	24795
840.193	24681
840.33	24604
840.467	24791
840.604	24772
840.742	24878
840.879	24604
841.016	24719
841.153	24661
841.29	24901
841.427	24795
841.564	24753
841.701	24646
841.838	24677
841.975	24681
842.112	24692
842.249	24498
842.385	24433
842.522	24669
842.659	24623
842.796	24574
842.933	24475
843.069	24429
843.206	24467
843.343	24445
843.479	24486
843.616	24460
843.752	24262
843.889	24304
844.025	24384
844.162	24376
844.298	24254
844.435	24270
844.571	24338
844.708	24197
844.844	24388
844.98	24407
845.117	24323
845.253	24258
845.389	24079
845.525	24152
845.661	24110
845.798	24003
845.934	24178
846.07	24007
846.206	24148
846.342	24022
846.478	23923
846.614	23809
846.75	23657
846.886	23798
847.022	23939
847.158	23817
847.294	23737
847.429	23866
847.565	23649
847.701	23866
847.837	23360
847.972	23467
848.108	23608
848.244	23547
848.379	23311
848.515	23356
848.65	23315
848.786	23360
848.921	23311
849.057	23345
849.192	23433
849.328	23387
849.463	23265
849.598	23277
849.734	23197
849.869	23166
850.004	23166
850.14	23029
850.275	23075
850.41	23025
850.545	22972
850.68	22968
850.815	23178
850.95	23105
851.085	23189
851.22	23166
851.355	23223
851.49	23098
851.625	23083
851.76	23079
851.895	22972
852.03	23143
852.165	23067
852.299	23079
852.434	23086
852.569	22896
852.703	23067
852.838	23143
852.973	23166
853.107	23086
853.242	23048
853.376	22919
853.511	22736
853.645	22881
853.78	22984
853.914	23014
854.048	22854
854.183	22923
854.317	22957
854.451	23132
854.585	22892
854.72	22778
854.854	23018
854.988	22809
855.122	22968
855.256	22774
855.39	22949
855.524	22980
855.658	22976
855.792	22801
855.926	22911
856.06	22976
856.194	22953
856.327	22885
856.461	22885
856.595	22873
856.729	22938
856.862	23044
856.996	22858
857.13	22980
857.263	23029
857.397	22980
857.53	22911
857.664	22915
857.797	22911
857.931	22938
858.064	22812
858.197	22968
858.331	22862
858.464	22763
858.597	22911
858.731	22942
858.864	22953
858.997	22809
859.13	22900
859.263	22885
859.396	22999
859.529	22820
859.662	22866
859.795	22892
859.928	22908
860.061	22854
860.194	23060
860.327	22915
860.46	22866
860.592	22999
860.725	23022
860.858	23048
860.99	22900
861.123	22694
861.256	22748
861.388	22881
861.521	23592
861.653	22698
861.786	22485
861.918	22733
862.05	22889
862.183	22748
862.315	22877
862.447	22831
862.58	22759
862.712	22550
862.844	22580
862.976	22618
863.108	22584
863.24	22957
863.372	22462
863.504	22596
863.636	22603
863.768	22694
863.9	22577
864.032	22546
864.164	22531
864.296	22615
864.428	22641
864.559	22599
864.691	22535
864.823	22615
864.954	22596
865.086	22554
865.217	22337
865.349	22284
865.48	22462
865.612	22493
865.743	22592
865.875	22424
866.006	22394
866.137	22538
866.269	22447
866.4	22519
866.531	22440
866.662	22261
866.793	22295
866.924	22432
867.055	22474
867.186	22402
867.317	22379
867.448	22341
867.579	22409
867.71	22382
867.841	22272
867.972	22481
868.103	22413
868.233	22470
868.364	22440
868.495	22409
868.625	22546
868.756	22687
868.886	22493
869.017	22679
869.147	22637
869.278	22771
869.408	22668
869.539	22599
869.669	22683
869.799	22797
869.929	22607
870.06	22752
870.19	22923
870.32	22949
870.45	22965
870.58	23041
870.71	22999
870.84	23079
870.97	22984
871.1	22980
871.23	23311
871.36	23406
871.489	23250
871.619	23265
871.749	23124
871.879	23231
872.008	23383
872.138	23174
872.267	23242
872.397	23121
872.526	23124
872.656	23029
872.785	23083
872.915	23235
873.044	23471
873.173	23330
873.303	23162
873.432	23337
873.561	23376
873.69	23132
873.819	23117
873.948	23284
874.077	23269
874.206	23136
874.335	23284
874.464	23307
874.593	23474
874.722	23433
874.851	23547
874.979	23376
875.108	23528
875.237	23417
875.365	23410
875.494	23471
875.623	23471
875.751	23391
875.88	23448
876.008	23558
876.136	23512
876.265	23802
876.393	23973
876.521	23912
876.65	23855
876.778	23851
876.906	23855
877.034	23741
877.162	23741
877.29	23779
877.418	23813
877.546	23703
877.674	23741
877.802	23828
877.93	23783
878.058	23859
878.185	23741
878.313	23786
878.441	23748
878.568	23672
878.696	23665
878.824	23874
878.951	23931
879.079	23984
879.206	24114
879.333	23984
879.461	23843
879.588	23999
879.715	23802
879.842	24007
879.97	23874
880.097	23596
880.224	23486
880.351	23699
880.478	23619
880.605	23512
880.732	23577
880.859	23794
880.986	23726
881.112	23630
881.239	23558
881.366	23482
881.493	23136
881.619	23178
881.746	23143
881.872	23128
881.999	23140
882.125	22999
882.252	23227
882.378	23113
882.505	23303
882.631	22934
882.757	22809
882.883	23010
883.01	22828
883.136	22816
883.262	22656
883.388	22531
883.514	22930
883.64	22927
883.766	22843
883.892	22504
884.018	22641
884.143	22645
884.269	22778
884.395	22618
884.52	22390
884.646	22508
884.772	22394
884.897	22398
885.023	22432
885.148	22580
885.274	22653
885.399	22577
885.524	22440
885.65	22607
885.775	22432
885.9	22462
886.025	22596
886.15	22569
886.275	22405
886.4	22443
886.525	22379
886.65	22344
886.775	22337
886.9	22535
887.025	22668
887.149	22466
887.274	22280
887.399	22226
887.523	22215
887.648	22166
887.773	22143
887.897	22337
888.021	22238
888.146	22055
888.27	22147
888.395	22314
888.519	22261
888.643	22185
888.767	22284
888.891	22166
889.015	21972
889.139	22040
889.263	21968
889.387	22143
889.511	22086
889.635	22150
889.759	22017
889.883	22002
890.006	21968
890.13	22093
890.254	22002
890.377	21937
890.501	21781
890.624	21724
890.748	21743
890.871	21557
890.995	21656
891.118	21534
891.241	21561
891.364	21485
891.488	21705
891.611	21622
891.734	21561
891.857	21614
891.98	21656
892.103	21477
892.226	21530
892.349	21485
892.471	21245
892.594	21450
892.717	21507
892.839	21492
892.962	21534
893.085	21435
893.207	21462
893.33	21264
893.452	21431
893.575	21485
893.697	21370
893.819	21622
893.941	21580
894.064	21576
894.186	21424
894.308	21424
894.43	21610
894.552	21393
894.674	21519
894.796	21310
894.918	21351
895.04	21351
895.161	21450
895.283	21412
895.405	21218
895.526	21294
895.648	21367
895.769	21431
895.891	21435
896.012	21420
896.134	21408
896.255	21572
896.376	21264
896.498	21481
896.619	21473
896.74	21272
896.861	21424
896.982	21618
897.103	21762
897.224	21694
897.345	21583
897.466	21549
897.587	21549
897.708	21686
897.828	21591
897.949	21507
898.07	21370
898.19	21458
898.311	21610
898.431	21545
898.552	21526
898.672	21701
898.792	21690
898.913	21629
899.033	21507
899.153	21393
899.273	21313
899.393	21214
899.513	21401
899.633	21374
899.753	21488
899.873	21192
899.993	21291
900.113	21340
900.232	21241
900.352	21264
900.472	21184
900.591	20982
900.711	21104
900.83	21032
900.95	21195
901.069	21028
901.189	20914
901.308	20872
901.427	20667
901.546	20670
901.665	20636
901.784	20708
901.904	20431
902.023	20339
902.141	20183
902.26	20313
902.379	20347
902.498	20088
902.617	20084
902.735	20115
902.854	20138
902.973	19932
903.091	19807
903.21	19894
903.328	19852
903.446	19738
903.565	19693
903.683	19632
903.801	19506
903.919	19544
904.038	19529
904.156	19377
904.274	19464
904.392	19327
904.51	19297
904.627	19308
904.745	19343
904.863	19331
904.981	19156
905.098	19057
905.216	19095
905.334	19027
905.451	19084
905.569	19088
905.686	19107
905.803	18970
905.921	18791
906.038	18779
906.155	18817
906.272	18703
906.389	18734
906.506	18563
906.623	18661
906.74	18654
906.857	18513
906.974	18403
907.091	18563
907.208	18692
907.324	18521
907.441	18452
907.557	18285
907.674	18296
907.79	18155
907.907	18251
908.023	18262
908.139	18247
908.256	18155
908.372	18091
908.488	18098
908.604	18011
908.72	18011
908.836	18060
908.952	17901
909.068	17984
909.184	17980
909.3	17912
909.415	18064
909.531	17961
909.647	17676
909.762	17585
909.878	17539
909.993	17577
910.108	17611
910.224	17729
910.339	17566
910.454	17497
910.57	17448
910.685	17387
910.8	17680
910.915	17524
911.03	17482
911.145	17311
911.259	17296
911.374	17273
911.489	17246
911.604	17109
911.718	16900
911.833	16991
911.947	16866
912.062	16820
912.176	16953
912.291	17018
912.405	16949
912.519	17204
912.633	17208
912.748	17064
912.862	16957
912.976	16820
913.09	16645
913.204	16812
913.318	16797
913.431	16911
913.545	16809
913.659	16816
913.772	16733
913.886	16653
914	16382
914.113	16706
914.226	16668
914.34	16637
914.453	16375
914.566	16588
914.68	16432
914.793	16417
914.906	16280
915.019	16268
915.132	16051
915.245	16040
915.358	16185
915.47	16124
915.583	16105
915.696	16105
915.809	16192
915.921	16249
916.034	16078
916.146	16032
916.259	16006
916.371	16147
916.483	16139
916.595	15975
916.708	15964
916.82	15991
916.932	15930
917.044	15880
917.156	15816
917.268	15789
917.38	15720
917.491	15679
917.603	15793
917.715	15812
917.826	15888
917.938	15701
918.049	15526
918.161	15644
918.272	15816
918.384	15797
918.495	15755
918.606	15523
918.717	15481
918.828	15481
918.939	15477
919.05	15298
919.161	15420
919.272	15329
919.383	15367
919.494	15428
919.604	15580
919.715	15488
919.826	15344
919.936	15389
920.047	15428
920.157	15386
920.267	15584
920.378	15473
920.488	15431
920.598	15496
920.708	15675
920.818	15485
920.928	15401
921.038	15656
921.148	15736
921.258	15344
921.368	15386
921.477	15142
921.587	15123
921.697	15097
921.806	15195
921.916	15024
922.025	14781
922.134	14830
922.244	14746
922.353	14811
922.462	14613
922.571	14571
922.68	14423
922.789	14446
922.898	14495
923.007	14412
923.116	14298
923.224	14427
923.333	14286
923.442	14282
923.55	14298
923.659	14305
923.767	14339
923.876	14229
923.984	14301
924.092	14096
924.201	14157
924.309	14100
924.417	14020
924.525	14031
924.633	14111
924.741	14979
924.849	13913
924.956	13993
925.064	13826
925.172	13780
925.279	13780
925.387	13807
925.494	13795
925.602	13936
925.709	13875
925.816	13655
925.924	13681
926.031	13784
926.138	13761
926.245	13772
926.352	13655
926.459	13772
926.566	13750
926.673	13712
926.779	13571
926.886	13544
926.993	13365
927.099	13411
927.206	13225
927.312	13293
927.419	13346
927.525	13259
927.631	13293
927.737	13225
927.843	13137
927.95	13031
928.056	13076
928.162	13050
928.267	13122
928.373	13784
928.479	13194
928.585	12913
928.69	13038
928.796	13190
928.901	12962
929.007	12852
929.112	12993
929.218	12996
929.323	12924
929.428	12856
929.533	12939
929.638	12814
929.743	12707
929.848	12848
929.953	12753
930.058	12669
930.163	12494
930.267	12597
930.372	12623
930.477	12471
930.581	12753
930.685	12525
930.79	12429
930.894	12437
930.998	12407
931.103	12456
931.207	12194
931.311	12045
931.415	11935
931.519	11794
931.623	11737
