Data from test_V78500241_177.txt Node
Date: Fri Mar 25 15:43:01 CST 2022
User: usil
Spectrometer: V785-0024
Trigger mode: 0
Integration Time (sec): 4.000000E-1
Scans to average: 1
Nonlinearity correction enabled: false
Boxcar width: 0
Storing dark spectrum: false
XAxis mode: Wavelengths
Number of Pixels in Spectrum: 1024
>>>>>Begin Spectral Data<<<<<
801.071	29193
801.214	29117
801.356	28885
801.499	28805
801.641	28763
801.783	28748
801.926	28927
802.068	28694
802.211	28755
802.353	28554
802.496	28508
802.638	28379
802.78	28375
802.923	28451
803.065	28257
803.208	28287
803.35	28443
803.492	28466
803.635	28504
803.777	28363
803.919	28436
804.061	28862
804.204	28470
804.346	28303
804.488	28516
804.63	28356
804.773	28443
804.915	28428
805.057	28550
805.199	28341
805.341	28451
805.483	28436
805.626	28580
805.768	28512
805.91	28455
806.052	28554
806.194	28398
806.336	28771
806.478	28626
806.62	28641
806.762	28736
806.904	28740
807.046	28980
807.188	28816
807.33	28919
807.472	28957
807.614	28820
807.756	28850
807.898	28752
808.04	28752
808.182	28752
808.324	28691
808.465	28790
808.607	28911
808.749	28927
808.891	29105
809.033	29105
809.174	29185
809.316	29086
809.458	29109
809.6	29132
809.741	29109
809.883	29117
810.025	29299
810.166	29307
810.308	29353
810.45	29315
810.591	29223
810.733	29231
810.875	29155
811.016	28949
811.158	28900
811.299	29242
811.441	29185
811.582	29235
811.724	29105
811.865	28995
812.007	29018
812.148	28984
812.29	28987
812.431	29121
812.573	29368
812.714	29501
812.855	29619
812.997	29592
813.138	29684
813.279	29497
813.421	29524
813.562	29657
813.703	29353
813.845	29216
813.986	28923
814.127	28786
814.268	28805
814.41	28656
814.551	28782
814.692	28550
814.833	28630
814.974	28573
815.115	28626
815.256	28436
815.397	28428
815.539	28451
815.68	28443
815.821	28238
815.962	28401
816.103	28211
816.244	28173
816.385	27979
816.526	28158
816.666	27850
816.807	27987
816.948	27831
817.089	27926
817.23	27732
817.371	27751
817.512	27743
817.653	27736
817.793	27766
817.934	27709
818.075	27762
818.216	27785
818.356	27759
818.497	27530
818.638	27386
818.778	27545
818.919	27595
819.06	27553
819.2	27667
819.341	27713
819.481	27599
819.622	27884
819.762	27983
819.903	27903
820.043	27823
820.184	27823
820.324	27675
820.465	27865
820.605	27899
820.746	27755
820.886	27629
821.026	27724
821.167	27781
821.307	27736
821.447	27671
821.588	27507
821.728	27313
821.868	27188
822.008	27161
822.149	27146
822.289	27180
822.429	26960
822.569	26724
822.709	26823
822.849	26625
822.99	26560
823.13	26556
823.27	26587
823.41	26275
823.55	26267
823.69	26442
823.83	26317
823.97	26377
824.11	26282
824.25	26275
824.389	26031
824.529	26263
824.669	26153
824.809	26305
824.949	26313
825.089	26225
825.228	26115
825.368	26058
825.508	26020
825.648	26012
825.787	26195
825.927	25966
826.067	26012
826.206	26012
826.346	26077
826.485	26149
826.625	25928
826.765	26043
826.904	26001
827.044	25715
827.183	25700
827.323	25552
827.462	25693
827.601	25708
827.741	25647
827.88	25620
828.02	25601
828.159	25578
828.298	25677
828.437	25635
828.577	25594
828.716	25662
828.855	25556
828.994	25483
829.134	25358
829.273	25411
829.412	25179
829.551	25304
829.69	25388
829.829	25476
829.968	25312
830.107	25472
830.246	25274
830.385	25194
830.524	25221
830.663	25148
830.802	24901
830.941	24966
831.08	24722
831.219	24992
831.357	24897
831.496	25076
831.635	25034
831.774	24878
831.913	24749
832.051	24578
832.19	24661
832.329	24760
832.467	24544
832.606	24464
832.744	24582
832.883	24498
833.022	24380
833.16	24570
833.299	24551
833.437	24486
833.576	24475
833.714	24384
833.852	24620
833.991	24578
834.129	24570
834.267	24544
834.406	24559
834.544	24448
834.682	24464
834.821	24494
834.959	24654
835.097	24490
835.235	24528
835.373	24521
835.511	24505
835.65	24395
835.788	24414
835.926	24262
836.064	24338
836.202	24224
836.34	24323
836.478	24460
836.615	24403
836.753	24247
836.891	24399
837.029	24388
837.167	24155
837.305	24098
837.443	24247
837.58	24117
837.718	24247
837.856	24262
837.993	23980
838.131	24144
838.269	23931
838.406	23939
838.544	23923
838.681	23726
838.819	23729
838.956	23589
839.094	23585
839.231	23691
839.369	23771
839.506	23923
839.643	23596
839.781	23562
839.918	23509
840.055	23459
840.193	23486
840.33	23387
840.467	23661
840.604	23471
840.742	23771
840.879	23345
841.016	23425
841.153	23406
841.29	23687
841.427	23436
841.564	23402
841.701	23436
841.838	23436
841.975	23212
842.112	23318
842.249	23379
842.385	23277
842.522	23391
842.659	23288
842.796	23368
842.933	23041
843.069	23044
843.206	22984
843.343	23178
843.479	23292
843.616	23079
843.752	22946
843.889	22946
844.025	23086
844.162	22881
844.298	23041
844.435	22835
844.571	22839
844.708	22892
844.844	23029
844.98	23105
845.117	23003
845.253	22759
845.389	22630
845.525	22755
845.661	22706
845.798	22611
845.934	22660
846.07	22519
846.206	22797
846.342	22656
846.478	22478
846.614	22344
846.75	22310
846.886	22360
847.022	22322
847.158	22348
847.294	22306
847.429	22329
847.565	22299
847.701	22675
847.837	22090
847.972	21979
848.108	22139
848.244	22067
848.379	21911
848.515	21838
848.65	21736
848.786	22002
848.921	21960
849.057	21998
849.192	21937
849.328	21956
849.463	21907
849.598	21743
849.734	21667
849.869	21743
850.004	21629
850.14	21648
850.275	21568
850.41	21538
850.545	21538
850.68	21698
850.815	21583
850.95	21583
851.085	21736
851.22	21675
851.355	21538
851.49	21519
851.625	21629
851.76	21603
851.895	21545
852.03	21557
852.165	21606
852.299	21717
852.434	21553
852.569	21443
852.703	21553
852.838	21610
852.973	21717
853.107	21568
853.242	21507
853.376	21412
853.511	21230
853.645	21378
853.78	21435
853.914	21443
854.048	21382
854.183	21359
854.317	21447
854.451	21675
854.585	21386
854.72	21443
854.854	21408
854.988	21272
855.122	21203
855.256	21279
855.39	21424
855.524	21454
855.658	21340
855.792	21348
855.926	21450
856.06	21359
856.194	21454
856.327	21336
856.461	21279
856.595	21291
856.729	21298
856.862	21412
856.996	21405
857.13	21488
857.263	21340
857.397	21374
857.53	21370
857.664	21542
857.797	21507
857.931	21370
858.064	21321
858.197	21435
858.331	21340
858.464	21233
858.597	21226
858.731	21329
858.864	21306
858.997	21317
859.13	21336
859.263	21370
859.396	21382
859.529	21272
859.662	21230
859.795	21256
859.928	21329
860.061	21477
860.194	21545
860.327	21443
860.46	21420
860.592	21462
860.725	21462
860.858	21317
860.99	21241
861.123	21241
861.256	21370
861.388	21279
861.521	21922
861.653	21180
861.786	21142
861.918	21226
862.05	21233
862.183	21268
862.315	21348
862.447	21443
862.58	21275
862.712	21138
862.844	21070
862.976	21157
863.108	21013
863.24	21397
863.372	21001
863.504	21032
863.636	21119
863.768	21024
863.9	20998
864.032	20918
864.164	20887
864.296	21070
864.428	21123
864.559	21142
864.691	21112
864.823	21051
864.954	20975
865.086	20876
865.217	20952
865.349	20823
865.48	20838
865.612	21020
865.743	21028
865.875	20883
866.006	20868
866.137	20857
866.269	20944
866.4	21047
866.531	20887
866.662	20769
866.793	20754
866.924	20746
867.055	20815
867.186	20735
867.317	20823
867.448	20785
867.579	20891
867.71	20629
867.841	20785
867.972	20800
868.103	20731
868.233	20739
868.364	20807
868.495	20986
868.625	21169
868.756	21062
868.886	21093
869.017	21047
869.147	21188
869.278	21249
869.408	21138
869.539	20979
869.669	21135
869.799	21146
869.929	21131
870.06	21085
870.19	21310
870.32	21302
870.45	21374
870.58	21450
870.71	21587
870.84	21500
870.97	21447
871.1	21572
871.23	21667
871.36	21694
871.489	21538
871.619	21580
871.749	21591
871.879	21679
872.008	21816
872.138	21694
872.267	21675
872.397	21576
872.526	21561
872.656	21450
872.785	21458
872.915	21671
873.044	21800
873.173	21713
873.303	21774
873.432	21679
873.561	21774
873.69	21808
873.819	21614
873.948	21823
874.077	21618
874.206	21724
874.335	21652
874.464	21759
874.593	21907
874.722	21880
874.851	21865
874.979	21903
875.108	21918
875.237	21812
875.365	21743
875.494	21865
875.623	22181
875.751	21838
875.88	21880
876.008	22131
876.136	22112
876.265	22402
876.393	22466
876.521	22409
876.65	22421
876.778	22265
876.906	22158
877.034	22276
877.162	22226
877.29	22230
877.418	22421
877.546	22173
877.674	22253
877.802	22306
877.93	22360
878.058	22253
878.185	22139
878.313	22363
878.441	22211
878.568	22112
878.696	22234
878.824	22230
878.951	22337
879.079	22329
879.206	22531
879.333	22329
879.461	22276
879.588	22268
879.715	22455
879.842	22523
879.97	22417
880.097	22086
880.224	22082
880.351	22124
880.478	22112
880.605	21972
880.732	22059
880.859	22284
880.986	22070
881.112	22147
881.239	22074
881.366	21895
881.493	21732
881.619	21682
881.746	21770
881.872	21701
881.999	21576
882.125	21698
882.252	21679
882.378	21751
882.505	21797
882.631	21557
882.757	21268
882.883	21317
883.01	21500
883.136	21249
883.262	21138
883.388	21214
883.514	21359
883.64	21408
883.766	21321
883.892	21112
884.018	21226
884.143	21359
884.269	21454
884.395	21150
884.52	20990
884.646	21036
884.772	20963
884.897	20925
885.023	20967
885.148	21150
885.274	21108
885.399	21146
885.524	21017
885.65	21096
885.775	21039
885.9	21089
886.025	21116
886.15	21047
886.275	20948
886.4	20868
886.525	21024
886.65	20918
886.775	20994
886.9	21058
887.025	21237
887.149	20868
887.274	20724
887.399	20845
887.523	20815
887.648	20705
887.773	20655
887.897	20811
888.021	20933
888.146	20693
888.27	20868
888.395	20765
888.519	20754
888.643	20689
888.767	20697
888.891	20754
889.015	20503
889.139	20530
889.263	20594
889.387	20693
889.511	20716
889.635	20735
889.759	20587
889.883	20617
890.006	20697
890.13	20655
890.254	20503
890.377	20473
890.501	20347
890.624	20309
890.748	20271
890.871	20267
890.995	20035
891.118	20069
891.241	20134
891.364	20149
891.488	20237
891.611	20096
891.734	20119
891.857	20183
891.98	20096
892.103	20138
892.226	20016
892.349	20126
892.471	20001
892.594	20084
892.717	20077
892.839	19959
892.962	20103
893.085	20138
893.207	20005
893.33	19913
893.452	19913
893.575	20012
893.697	19936
893.819	20183
893.941	20240
894.064	20138
894.186	20001
894.308	19936
894.43	20005
894.552	20172
894.674	20119
894.796	19879
894.918	20073
895.04	19993
895.161	20161
895.283	20126
895.405	20027
895.526	20100
895.648	20084
895.769	20096
895.891	19917
896.012	20214
896.134	20126
896.255	20043
896.376	20092
896.498	20008
896.619	20142
896.74	20149
896.861	20180
896.982	20317
897.103	20488
897.224	20400
897.345	20267
897.466	20202
897.587	20214
897.708	20476
897.828	20180
897.949	20138
898.07	20107
898.19	20191
898.311	20290
898.431	20149
898.552	20298
898.672	20317
898.792	20240
898.913	20244
899.033	20115
899.153	19959
899.273	19864
899.393	19944
899.513	19986
899.633	19974
899.753	19978
899.873	19856
899.993	19940
900.113	19856
900.232	19947
900.352	19772
900.472	19822
900.591	19635
900.711	19879
900.83	19712
900.95	19822
901.069	19883
901.189	19685
901.308	19434
901.427	19400
901.546	19362
901.665	19403
901.784	19327
901.904	19285
902.023	19164
902.141	18901
902.26	18833
902.379	19038
902.498	18779
902.617	18673
902.735	18951
902.854	18882
902.973	18703
903.091	18570
903.21	18452
903.328	18506
903.446	18471
903.565	18289
903.683	18327
903.801	18224
903.919	18251
904.038	18159
904.156	18087
904.274	17999
904.392	17954
904.51	18045
904.627	18034
904.745	18087
904.863	18057
904.981	17847
905.098	17699
905.216	17733
905.334	17779
905.451	17790
905.569	17680
905.686	17805
905.803	17752
905.921	17512
906.038	17611
906.155	17471
906.272	17402
906.389	17482
906.506	17265
906.623	17345
906.74	17254
906.857	17045
906.974	17178
907.091	17299
907.208	17334
907.324	17273
907.441	17098
907.557	17086
907.674	16919
907.79	16904
907.907	16908
908.023	16953
908.139	16900
908.256	16828
908.372	16877
908.488	16786
908.604	16698
908.72	16603
908.836	16615
908.952	16558
909.068	16675
909.184	16603
909.3	16748
909.415	16664
909.531	16500
909.647	16284
909.762	16344
909.878	16333
909.993	16215
910.108	16390
910.224	16234
910.339	16295
910.454	16185
910.57	16040
910.685	16048
910.8	16246
910.915	16185
911.03	16124
911.145	15854
911.259	15903
911.374	15964
911.489	15869
911.604	15781
911.718	15633
911.833	15690
911.947	15587
912.062	15534
912.176	15793
912.291	15648
912.405	15724
912.519	15926
912.633	15903
912.748	15781
912.862	15610
912.976	15447
913.09	15340
913.204	15412
913.318	15454
913.431	15576
913.545	15511
913.659	15553
913.772	15408
913.886	15275
914	15176
914.113	15386
914.226	15393
914.34	15344
914.453	15047
914.566	15252
914.68	15108
914.793	15097
914.906	14933
915.019	14849
915.132	14849
915.245	14826
915.358	14845
915.47	14883
915.583	14952
915.696	14933
915.809	15089
915.921	15055
916.034	14788
916.146	14651
916.259	14701
916.371	14861
916.483	14800
916.595	14769
916.708	14743
916.82	14663
916.932	14629
917.044	14663
917.156	14606
917.268	14507
917.38	14492
917.491	14442
917.603	14526
917.715	14579
917.826	14644
917.938	14473
918.049	14317
918.161	14522
918.272	14571
918.384	14590
918.495	14469
918.606	14427
918.717	14126
918.828	14309
918.939	14336
919.05	14206
919.161	14259
919.272	14145
919.383	14157
919.494	14317
919.604	14400
919.715	14294
919.826	14191
919.936	14183
920.047	14263
920.157	14267
920.267	14393
920.378	14187
920.488	14161
920.598	14358
920.708	14454
920.818	14343
920.928	14244
921.038	14499
921.148	14480
921.258	14142
921.368	14027
921.477	13845
921.587	13951
921.697	13875
921.806	13989
921.916	13852
922.025	13677
922.134	13544
922.244	13563
922.353	13556
922.462	13445
922.571	13426
922.68	13266
922.789	13225
922.898	13232
923.007	13107
923.116	13297
923.224	13175
923.333	13190
923.442	13076
923.55	13103
923.659	12993
923.767	13091
923.876	13038
923.984	13042
924.092	12909
924.201	13015
924.309	13046
924.417	12996
924.525	12977
924.633	12924
924.741	13613
924.849	12631
924.956	12798
925.064	12662
925.172	12646
925.279	12703
925.387	12730
925.494	12642
925.602	12810
925.709	12688
925.816	12665
925.924	12585
926.031	12639
926.138	12608
926.245	12627
926.352	12502
926.459	12612
926.566	12608
926.673	12566
926.779	12399
926.886	12456
926.993	12308
927.099	12273
927.206	12239
927.312	12140
927.419	12277
927.525	12247
927.631	12247
927.737	12194
927.843	12030
927.95	12011
928.056	12076
928.162	12117
928.267	12163
928.373	12650
928.479	12117
928.585	11931
928.69	11923
928.796	12095
928.901	11893
929.007	11809
929.112	11851
929.218	11870
929.323	11874
929.428	11741
929.533	11923
929.638	11668
929.743	11688
929.848	11863
929.953	11760
930.058	11729
930.163	11455
930.267	11493
930.372	11585
930.477	11391
930.581	11714
930.685	11570
930.79	11379
930.894	11334
930.998	11349
931.103	11505
931.207	11113
931.311	11025
931.415	10961
931.519	10744
931.623	10721
