Data from test_V78500241_2858.txt Node
Date: Fri Mar 25 16:01:35 CST 2022
User: usil
Spectrometer: V785-0024
Trigger mode: 0
Integration Time (sec): 4.000000E-1
Scans to average: 1
Nonlinearity correction enabled: false
Boxcar width: 0
Storing dark spectrum: false
XAxis mode: Wavelengths
Number of Pixels in Spectrum: 1024
>>>>>Begin Spectral Data<<<<<
801.071	29003
801.214	28999
801.356	28881
801.499	28679
801.641	28664
801.783	28634
801.926	28611
802.068	28447
802.211	28626
802.353	28489
802.496	28284
802.638	28371
802.78	28295
802.923	28276
803.065	28173
803.208	28181
803.35	28447
803.492	28318
803.635	28470
803.777	28265
803.919	28580
804.061	28828
804.204	28512
804.346	28478
804.488	28455
804.63	28493
804.773	28523
804.915	28748
805.057	28603
805.199	28588
805.341	28645
805.483	28691
805.626	28672
805.768	28592
805.91	28752
806.052	28660
806.194	28592
806.336	28820
806.478	28706
806.62	28721
806.762	28900
806.904	29071
807.046	29212
807.188	29124
807.33	29136
807.472	29227
807.614	29231
807.756	29113
807.898	28972
808.04	28987
808.182	29029
808.324	29094
808.465	29162
808.607	29315
808.749	29455
808.891	29539
809.033	29615
809.174	29471
809.316	29349
809.458	29410
809.6	29334
809.741	29585
809.883	29505
810.025	29672
810.166	29684
810.308	29665
810.45	29642
810.591	29729
810.733	29459
810.875	29558
811.016	29288
811.158	29478
811.299	29562
811.441	29741
811.582	29600
811.724	29436
811.865	29326
812.007	29410
812.148	29638
812.29	29478
812.431	29531
812.573	29859
812.714	29783
812.855	29984
812.997	30155
813.138	30136
813.279	30034
813.421	29904
813.562	29859
813.703	29882
813.845	29543
813.986	29459
814.127	29284
814.268	29124
814.41	29124
814.551	29200
814.692	29132
814.833	29140
814.974	29166
815.115	29273
815.256	29025
815.397	29071
815.539	28942
815.68	28915
815.821	28839
815.962	29033
816.103	28984
816.244	28908
816.385	28843
816.526	28820
816.666	28542
816.807	28478
816.948	28611
817.089	28535
817.23	28512
817.371	28436
817.512	28447
817.653	28527
817.793	28424
817.934	28432
818.075	28538
818.216	28466
818.356	28474
818.497	28375
818.638	28211
818.778	28329
818.919	28238
819.06	28405
819.2	28268
819.341	28348
819.481	28462
819.622	28634
819.762	28824
819.903	28721
820.043	28588
820.184	28656
820.324	28630
820.465	28687
820.605	28691
820.746	28535
820.886	28447
821.026	28523
821.167	28462
821.307	28615
821.447	28512
821.588	28367
821.728	28386
821.868	28101
822.008	27979
822.149	28044
822.289	27869
822.429	27591
822.569	27747
822.709	27652
822.849	27469
822.99	27454
823.13	27420
823.27	27355
823.41	27283
823.55	27207
823.69	27355
823.83	27458
823.97	27252
824.11	27089
824.25	27116
824.389	27108
824.529	27207
824.669	27161
824.809	27256
824.949	27329
825.089	27180
825.228	27138
825.368	26902
825.508	27135
825.648	27066
825.787	27017
825.927	26940
826.067	26979
826.206	26910
826.346	26910
826.485	27211
826.625	26887
826.765	27188
826.904	27138
827.044	26868
827.183	26746
827.323	26583
827.462	26853
827.601	26533
827.741	26731
827.88	26670
828.02	26648
828.159	26674
828.298	26762
828.437	26746
828.577	26655
828.716	26887
828.855	26651
828.994	26480
829.134	26423
829.273	26560
829.412	26438
829.551	26332
829.69	26339
829.829	26473
829.968	26583
830.107	26457
830.246	26469
830.385	26317
830.524	26267
830.663	26199
830.802	26202
830.941	26046
831.08	26054
831.219	26077
831.357	26157
831.496	26210
831.635	26069
831.774	25966
831.913	25849
832.051	25887
832.19	25791
832.329	25811
832.467	25742
832.606	25632
832.744	25655
832.883	25658
833.022	25651
833.16	25670
833.299	25655
833.437	25723
833.576	25655
833.714	25719
833.852	25750
833.991	25693
834.129	25776
834.267	25921
834.406	25898
834.544	25753
834.682	25932
834.821	25734
834.959	25856
835.097	25712
835.235	25753
835.373	25655
835.511	25731
835.65	25468
835.788	25635
835.926	25491
836.064	25419
836.202	25479
836.34	25605
836.478	25643
836.615	25491
836.753	25521
836.891	25662
837.029	25616
837.167	25464
837.305	25533
837.443	25472
837.58	25339
837.718	25548
837.856	25457
837.993	25331
838.131	25438
838.269	25324
838.406	25384
838.544	25194
838.681	25057
838.819	25091
838.956	25050
839.094	24901
839.231	24928
839.369	24939
839.506	25346
839.643	25148
839.781	24973
839.918	24852
840.055	24779
840.193	24920
840.33	24886
840.467	24776
840.604	24806
840.742	25099
840.879	24719
841.016	24669
841.153	24642
841.29	24924
841.427	24760
841.564	24871
841.701	24779
841.838	24700
841.975	24726
842.112	24776
842.249	24681
842.385	24403
842.522	24837
842.659	24604
842.796	24627
842.933	24639
843.069	24551
843.206	24479
843.343	24578
843.479	24532
843.616	24555
843.752	24353
843.889	24422
844.025	24342
844.162	24213
844.298	24395
844.435	24346
844.571	24182
844.708	24270
844.844	24467
844.98	24410
845.117	24460
845.253	24270
845.389	24228
845.525	24251
845.661	24117
845.798	24144
845.934	23939
846.07	23980
846.206	23912
846.342	24038
846.478	24068
846.614	23733
846.75	23615
846.886	23764
847.022	23824
847.158	23748
847.294	23756
847.429	23828
847.565	23714
847.701	24026
847.837	23440
847.972	23425
848.108	23520
848.244	23448
848.379	23391
848.515	23315
848.65	23410
848.786	23391
848.921	23596
849.057	23459
849.192	23509
849.328	23391
849.463	23242
849.598	23223
849.734	23265
849.869	23151
850.004	23193
850.14	23170
850.275	23174
850.41	23010
850.545	23064
850.68	23136
850.815	23094
850.95	23151
851.085	23292
851.22	23193
851.355	23311
851.49	23022
851.625	23075
851.76	23113
851.895	23147
852.03	23075
852.165	22995
852.299	23261
852.434	23239
852.569	23261
852.703	23136
852.838	23242
852.973	23231
853.107	23128
853.242	23064
853.376	23010
853.511	22820
853.645	23056
853.78	22938
853.914	22930
854.048	22862
854.183	22968
854.317	22984
854.451	23056
854.585	22854
854.72	22968
854.854	22930
854.988	22889
855.122	22885
855.256	22942
855.39	22889
855.524	23056
855.658	22854
855.792	22923
855.926	22946
856.06	23105
856.194	22953
856.327	22835
856.461	22908
856.595	22736
856.729	22793
856.862	22957
856.996	22900
857.13	23014
857.263	22862
857.397	22953
857.53	22858
857.664	22934
857.797	23060
857.931	22991
858.064	22877
858.197	23071
858.331	22938
858.464	22892
858.597	22793
858.731	22946
858.864	22869
858.997	22729
859.13	22847
859.263	22854
859.396	22965
859.529	22885
859.662	22934
859.795	22828
859.928	22953
860.061	23113
860.194	23189
860.327	22995
860.46	23109
860.592	23022
860.725	23200
860.858	23071
860.99	22938
861.123	22885
861.256	22835
861.388	22946
861.521	23577
861.653	22957
861.786	22717
861.918	22691
862.05	22843
862.183	22904
862.315	22850
862.447	22942
862.58	22843
862.712	22569
862.844	22535
862.976	22672
863.108	22713
863.24	23003
863.372	22736
863.504	22664
863.636	22630
863.768	22729
863.9	22668
864.032	22596
864.164	22618
864.296	22618
864.428	22755
864.559	22744
864.691	22733
864.823	22675
864.954	22565
865.086	22622
865.217	22527
865.349	22398
865.48	22478
865.612	22497
865.743	22672
865.875	22462
866.006	22481
866.137	22462
866.269	22519
866.4	22432
866.531	22443
866.662	22497
866.793	22462
866.924	22466
867.055	22523
867.186	22478
867.317	22481
867.448	22314
867.579	22409
867.71	22371
867.841	22344
867.972	22481
868.103	22421
868.233	22447
868.364	22504
868.495	22577
868.625	22626
868.756	22767
868.886	22641
869.017	22542
869.147	22858
869.278	22835
869.408	22580
869.539	22721
869.669	22721
869.799	22721
869.929	22816
870.06	22759
870.19	22980
870.32	22873
870.45	23064
870.58	23048
870.71	23197
870.84	23094
870.97	23075
871.1	23037
871.23	23178
871.36	23231
871.489	23261
871.619	23235
871.749	23307
871.879	23379
872.008	23326
872.138	23277
872.267	23379
872.397	23231
872.526	23193
872.656	23140
872.785	23223
872.915	23376
873.044	23398
873.173	23292
873.303	23433
873.432	23345
873.561	23379
873.69	23246
873.819	23246
873.948	23318
874.077	23303
874.206	23303
874.335	23372
874.464	23429
874.593	23455
874.722	23410
874.851	23600
874.979	23505
875.108	23592
875.237	23444
875.365	23448
875.494	23436
875.623	23592
875.751	23425
875.88	23680
876.008	23604
876.136	23589
876.265	23786
876.393	23946
876.521	24015
876.65	23988
876.778	23885
876.906	23874
877.034	23874
877.162	23958
877.29	23771
877.418	23859
877.546	23863
877.674	23809
877.802	23790
877.93	23821
878.058	23813
878.185	23707
878.313	23634
878.441	23752
878.568	23649
878.696	23817
878.824	23927
878.951	23874
879.079	23973
879.206	24129
879.333	24007
879.461	23912
879.588	24053
879.715	24060
879.842	24038
879.97	23752
880.097	23684
880.224	23589
880.351	23653
880.478	23630
880.605	23562
880.732	23630
880.859	23802
880.986	23676
881.112	23794
881.239	23455
881.366	23455
881.493	23341
881.619	23326
881.746	23227
881.872	23318
881.999	23109
882.125	23197
882.252	23185
882.378	23155
882.505	23261
882.631	23147
882.757	22862
882.883	23003
883.01	22835
883.136	22816
883.262	22862
883.388	22702
883.514	22862
883.64	22904
883.766	22759
883.892	22687
884.018	22736
884.143	22858
884.269	22790
884.395	22675
884.52	22535
884.646	22459
884.772	22409
884.897	22417
885.023	22573
885.148	22588
885.274	22630
885.399	22660
885.524	22550
885.65	22508
885.775	22386
885.9	22318
886.025	22508
886.15	22519
886.275	22470
886.4	22371
886.525	22382
886.65	22428
886.775	22367
886.9	22615
887.025	22603
887.149	22478
887.274	22207
887.399	22196
887.523	22162
887.648	22211
887.773	22211
887.897	22329
888.021	22242
888.146	22207
888.27	22382
888.395	22386
888.519	22291
888.643	22200
888.767	22192
888.891	22272
889.015	22105
889.139	22078
889.263	21991
889.387	22131
889.511	22303
889.635	22097
889.759	22021
889.883	21983
890.006	22112
890.13	22063
890.254	21892
890.377	21953
890.501	21838
890.624	21785
890.748	21907
890.871	21675
890.995	21458
891.118	21660
891.241	21606
891.364	21530
891.488	21713
891.611	21618
891.734	21583
891.857	21656
891.98	21606
892.103	21583
892.226	21515
892.349	21462
892.471	21382
892.594	21496
892.717	21701
892.839	21443
892.962	21458
893.085	21504
893.207	21477
893.33	21351
893.452	21401
893.575	21488
893.697	21386
893.819	21580
893.941	21690
894.064	21576
894.186	21348
894.308	21370
894.43	21405
894.552	21679
894.674	21466
894.796	21450
894.918	21523
895.04	21443
895.161	21431
895.283	21477
895.405	21386
895.526	21359
895.648	21298
895.769	21412
895.891	21462
896.012	21545
896.134	21416
896.255	21424
896.376	21401
896.498	21462
896.619	21488
896.74	21447
896.861	21473
896.982	21755
897.103	21915
897.224	21743
897.345	21603
897.466	21660
897.587	21682
897.708	21709
897.828	21701
897.949	21572
898.07	21351
898.19	21656
898.311	21743
898.431	21458
898.552	21690
898.672	21690
898.792	21720
898.913	21698
899.033	21580
899.153	21393
899.273	21279
899.393	21389
899.513	21374
899.633	21317
899.753	21454
899.873	21321
899.993	21310
900.113	21317
900.232	21298
900.352	21173
900.472	21150
900.591	21207
900.711	21036
900.83	21100
900.95	21272
901.069	21108
901.189	20823
901.308	20705
901.427	20568
901.546	20655
901.665	20663
901.784	20613
901.904	20465
902.023	20507
902.141	20210
902.26	20252
902.379	20381
902.498	20054
902.617	20012
902.735	20221
902.854	20084
902.973	20024
903.091	19811
903.21	19856
903.328	19833
903.446	19605
903.565	19533
903.683	19586
903.801	19537
903.919	19544
904.038	19487
904.156	19384
904.274	19468
904.392	19354
904.51	19445
904.627	19411
904.745	19373
904.863	19449
904.981	19072
905.098	18935
905.216	19091
905.334	19179
905.451	19069
905.569	19061
905.686	18966
905.803	19110
905.921	18905
906.038	18932
906.155	18791
906.272	18757
906.389	18684
906.506	18604
906.623	18563
906.74	18654
906.857	18445
906.974	18475
907.091	18612
907.208	18806
907.324	18604
907.441	18502
907.557	18308
907.674	18205
907.79	18098
907.907	18308
908.023	18311
908.139	18319
908.256	18232
908.372	18178
908.488	18167
908.604	18068
908.72	17969
908.836	17942
908.952	17893
909.068	18057
909.184	18003
909.3	17927
909.415	17942
909.531	17954
909.647	17813
909.762	17718
909.878	17821
909.993	17726
910.108	17619
910.224	17623
910.339	17684
910.454	17589
910.57	17429
910.685	17459
910.8	17786
910.915	17638
911.03	17402
911.145	17372
911.259	17326
911.374	17258
911.489	17223
911.604	17098
911.718	17041
911.833	16991
911.947	16946
912.062	16934
912.176	17014
912.291	17067
912.405	17181
912.519	17231
912.633	17136
912.748	16980
912.862	16908
912.976	16858
913.09	16748
913.204	16824
913.318	16828
913.431	16938
913.545	16923
913.659	16881
913.772	16790
913.886	16717
914	16588
914.113	16683
914.226	16717
914.34	16664
914.453	16558
914.566	16656
914.68	16436
914.793	16504
914.906	16246
915.019	16230
915.132	16219
915.245	16150
915.358	16192
915.47	16131
915.583	16135
915.696	16169
915.809	16280
915.921	16230
916.034	16166
916.146	16063
916.259	16051
916.371	16185
916.483	16105
916.595	15998
916.708	16006
916.82	16051
916.932	15873
917.044	15979
917.156	15884
917.268	15850
917.38	15888
917.491	15816
917.603	15854
917.715	15789
917.826	15869
917.938	15720
918.049	15682
918.161	15705
918.272	15888
918.384	15808
918.495	15701
918.606	15584
918.717	15500
918.828	15515
918.939	15526
919.05	15473
919.161	15488
919.272	15287
919.383	15389
919.494	15530
919.604	15717
919.715	15466
919.826	15344
919.936	15485
920.047	15591
920.157	15431
920.267	15614
920.378	15526
920.488	15454
920.598	15561
920.708	15732
920.818	15599
920.928	15564
921.038	15720
921.148	15652
921.258	15389
921.368	15325
921.477	15089
921.587	15142
921.697	15119
921.806	15119
921.916	15112
922.025	15005
922.134	14777
922.244	14826
922.353	14788
922.462	14727
922.571	14575
922.68	14476
922.789	14438
922.898	14454
923.007	14423
923.116	14537
923.224	14480
923.333	14412
923.442	14259
923.55	14237
923.659	14290
923.767	14298
923.876	14214
923.984	14244
924.092	14180
924.201	14191
924.309	14103
924.417	14233
924.525	14157
924.633	14119
924.741	15005
924.849	13864
924.956	13970
925.064	13955
925.172	13791
925.279	13837
925.387	13860
925.494	13788
925.602	13955
925.709	13822
925.816	13738
925.924	13696
926.031	13803
926.138	13712
926.245	13750
926.352	13677
926.459	13811
926.566	13795
926.673	13674
926.779	13674
926.886	13571
926.993	13426
927.099	13407
927.206	13259
927.312	13400
927.419	13396
927.525	13289
927.631	13335
927.737	13244
927.843	13141
927.95	13091
928.056	13145
928.162	13171
928.267	13285
928.373	13826
928.479	13232
928.585	12981
928.69	13053
928.796	13118
928.901	12951
929.007	12916
929.112	12989
929.218	12939
929.323	12932
929.428	12909
929.533	13008
929.638	12791
929.743	12806
929.848	12848
929.953	12863
930.058	12570
930.163	12536
930.267	12544
930.372	12749
930.477	12437
930.581	12677
930.685	12555
930.79	12437
930.894	12475
930.998	12426
931.103	12483
931.207	12136
931.311	12133
931.415	11992
931.519	11805
931.623	11794
