Data from test_V78500241_3422.txt Node
Date: Fri Mar 25 16:05:30 CST 2022
User: usil
Spectrometer: V785-0024
Trigger mode: 0
Integration Time (sec): 4.000000E-1
Scans to average: 1
Nonlinearity correction enabled: false
Boxcar width: 0
Storing dark spectrum: false
XAxis mode: Wavelengths
Number of Pixels in Spectrum: 1024
>>>>>Begin Spectral Data<<<<<
801.071	28462
801.214	28428
801.356	28390
801.499	28215
801.641	28143
801.783	28112
801.926	28158
802.068	28166
802.211	28036
802.353	28097
802.496	27941
802.638	27926
802.78	27865
802.923	27755
803.065	27892
803.208	27873
803.35	27945
803.492	28040
803.635	28032
803.777	27991
803.919	28078
804.061	28561
804.204	28204
804.346	27998
804.488	27903
804.63	27964
804.773	28055
804.915	28105
805.057	28344
805.199	28246
805.341	28147
805.483	28230
805.626	28173
805.768	28082
805.91	28215
806.052	28200
806.194	28082
806.336	28360
806.478	28272
806.62	28303
806.762	28363
806.904	28561
807.046	28622
807.188	28740
807.33	28774
807.472	28896
807.614	28736
807.756	28500
807.898	28557
808.04	28409
808.182	28493
808.324	28649
808.465	28577
808.607	28908
808.749	28972
808.891	29056
809.033	29113
809.174	28980
809.316	28869
809.458	28953
809.6	28946
809.741	28919
809.883	28987
810.025	29212
810.166	29284
810.308	29235
810.45	29326
810.591	29239
810.733	28923
810.875	28999
811.016	28759
811.158	28835
811.299	29067
811.441	29067
811.582	29174
811.724	28995
811.865	29044
812.007	28980
812.148	28949
812.29	29090
812.431	29014
812.573	29288
812.714	29387
812.855	29471
812.997	29547
813.138	29802
813.279	29741
813.421	29604
813.562	29429
813.703	29220
813.845	29299
813.986	28961
814.127	28862
814.268	28713
814.41	28634
814.551	28584
814.692	28626
814.833	28748
814.974	28622
815.115	28717
815.256	28565
815.397	28489
815.539	28493
815.68	28519
815.821	28405
815.962	28535
816.103	28561
816.244	28382
816.385	28344
816.526	28196
816.666	28223
816.807	27956
816.948	28013
817.089	28025
817.23	28040
817.371	28055
817.512	27991
817.653	27857
817.793	27873
817.934	27823
818.075	28051
818.216	27937
818.356	27918
818.497	27679
818.638	27736
818.778	27656
818.919	27770
819.06	27804
819.2	27888
819.341	27785
819.481	27884
819.622	28105
819.762	28329
819.903	28333
820.043	28223
820.184	27979
820.324	28078
820.465	28139
820.605	28169
820.746	28051
820.886	27888
821.026	28063
821.167	28032
821.307	28196
821.447	28074
821.588	27968
821.728	27789
821.868	27606
822.008	27599
822.149	27401
822.289	27561
822.429	27157
822.569	27036
822.709	27112
822.849	27024
822.99	27024
823.13	26906
823.27	26914
823.41	26826
823.55	26743
823.69	26807
823.83	26621
823.97	26773
824.11	26545
824.25	26625
824.389	26571
824.529	26731
824.669	26629
824.809	26765
824.949	26746
825.089	26743
825.228	26731
825.368	26393
825.508	26427
825.648	26579
825.787	26560
825.927	26648
826.067	26362
826.206	26507
826.346	26507
826.485	26541
826.625	26530
826.765	26541
826.904	26385
827.044	26301
827.183	26343
827.323	26153
827.462	26225
827.601	26221
827.741	26282
827.88	26294
828.02	25993
828.159	26157
828.298	26149
828.437	26278
828.577	26122
828.716	26286
828.855	26100
828.994	25852
829.134	25868
829.273	25940
829.412	25959
829.551	25731
829.69	25890
829.829	26039
829.968	26001
830.107	25917
830.246	25864
830.385	25780
830.524	25731
830.663	25670
830.802	25613
830.941	25479
831.08	25468
831.219	25506
831.357	25674
831.496	25643
831.635	25552
831.774	25457
831.913	25419
832.051	25232
832.19	25282
832.329	25304
832.467	25183
832.606	25133
832.744	25285
832.883	25228
833.022	25156
833.16	25225
833.299	25179
833.437	25320
833.576	25339
833.714	25358
833.852	25339
833.991	25274
834.129	25358
834.267	25259
834.406	25343
834.544	25164
834.682	25293
834.821	25168
834.959	25282
835.097	25198
835.235	25217
835.373	25152
835.511	25198
835.65	24996
835.788	25099
835.926	24932
836.064	24772
836.202	24875
836.34	25103
836.478	25152
836.615	25160
836.753	25209
836.891	25091
837.029	25133
837.167	25015
837.305	25015
837.443	24951
837.58	24890
837.718	25008
837.856	24905
837.993	24954
838.131	24871
838.269	24867
838.406	24837
838.544	24734
838.681	24604
838.819	24563
838.956	24448
839.094	24395
839.231	24403
839.369	24589
839.506	24791
839.643	24681
839.781	24391
839.918	24273
840.055	24361
840.193	24323
840.33	24346
840.467	24388
840.604	24342
840.742	24551
840.879	24190
841.016	24205
841.153	24292
841.29	24281
841.427	24315
841.564	24292
841.701	24228
841.838	24277
841.975	24098
842.112	24197
842.249	24155
842.385	24034
842.522	24258
842.659	24098
842.796	24152
842.933	24030
843.069	24018
843.206	24026
843.343	23988
843.479	23980
843.616	24003
843.752	23828
843.889	23748
844.025	23999
844.162	23748
844.298	23878
844.435	23764
844.571	23741
844.708	23851
844.844	23916
844.98	23828
845.117	23946
845.253	23741
845.389	23687
845.525	23741
845.661	23710
845.798	23627
845.934	23570
846.07	23512
846.206	23535
846.342	23684
846.478	23592
846.614	23269
846.75	23280
846.886	23178
847.022	23200
847.158	23330
847.294	23216
847.429	23181
847.565	23208
847.701	23516
847.837	23014
847.972	22968
848.108	23109
848.244	23064
848.379	22858
848.515	22854
848.65	22805
848.786	22812
848.921	22999
849.057	22930
849.192	22999
849.328	22991
849.463	22763
849.598	22611
849.734	22691
849.869	22634
850.004	22596
850.14	22706
850.275	22577
850.41	22626
850.545	22497
850.68	22660
850.815	22668
850.95	22641
851.085	22873
851.22	22683
851.355	22607
851.49	22679
851.625	22508
851.76	22626
851.895	22542
852.03	22531
852.165	22660
852.299	22748
852.434	22656
852.569	22706
852.703	22679
852.838	22710
852.973	22618
853.107	22706
853.242	22596
853.376	22512
853.511	22379
853.645	22375
853.78	22519
853.914	22485
854.048	22470
854.183	22402
854.317	22535
854.451	22660
854.585	22474
854.72	22527
854.854	22466
854.988	22436
855.122	22542
855.256	22318
855.39	22516
855.524	22599
855.658	22447
855.792	22443
855.926	22447
856.06	22622
856.194	22504
856.327	22382
856.461	22352
856.595	22363
856.729	22386
856.862	22535
856.996	22489
857.13	22516
857.263	22630
857.397	22447
857.53	22485
857.664	22337
857.797	22481
857.931	22462
858.064	22459
858.197	22459
858.331	22489
858.464	22344
858.597	22265
858.731	22386
858.864	22481
858.997	22276
859.13	22470
859.263	22421
859.396	22580
859.529	22489
859.662	22371
859.795	22356
859.928	22535
860.061	22641
860.194	22565
860.327	22523
860.46	22440
860.592	22413
860.725	22573
860.858	22508
860.99	22508
861.123	22466
861.256	22352
861.388	22508
861.521	23189
861.653	22299
861.786	22143
861.918	22219
862.05	22268
862.183	22375
862.315	22348
862.447	22375
862.58	22337
862.712	22124
862.844	22177
862.976	22230
863.108	22154
863.24	22474
863.372	22181
863.504	22314
863.636	22181
863.768	22272
863.9	22051
864.032	22124
864.164	22173
864.296	22105
864.428	22131
864.559	22185
864.691	22219
864.823	22112
864.954	22207
865.086	22139
865.217	22112
865.349	21956
865.48	21975
865.612	22116
865.743	22211
865.875	22109
866.006	22044
866.137	22078
866.269	22029
866.4	22086
866.531	21975
866.662	21960
866.793	22074
866.924	21972
867.055	21888
867.186	21911
867.317	21888
867.448	21656
867.579	21751
867.71	21892
867.841	21918
867.972	21854
868.103	21953
868.233	22109
868.364	21850
868.495	21983
868.625	22246
868.756	22386
868.886	22143
869.017	22249
869.147	22276
869.278	22398
869.408	22192
869.539	22158
869.669	22276
869.799	22268
869.929	22265
870.06	22185
870.19	22489
870.32	22588
870.45	22607
870.58	22447
870.71	22569
870.84	22592
870.97	22634
871.1	22588
871.23	22653
871.36	22919
871.489	22725
871.619	22721
871.749	22850
871.879	22843
872.008	22778
872.138	22824
872.267	22885
872.397	22774
872.526	22588
872.656	22672
872.785	22744
872.915	22702
873.044	22885
873.173	22915
873.303	22965
873.432	22869
873.561	22904
873.69	22930
873.819	22854
873.948	22965
874.077	22908
874.206	22843
874.335	22691
874.464	22824
874.593	23098
874.722	23029
874.851	23014
874.979	22976
875.108	23022
875.237	23003
875.365	22946
875.494	23090
875.623	23117
875.751	23041
875.88	23033
876.008	23113
876.136	23231
876.265	23414
876.393	23478
876.521	23554
876.65	23608
876.778	23436
876.906	23505
877.034	23341
877.162	23402
877.29	23261
877.418	23296
877.546	23280
877.674	23395
877.802	23387
877.93	23326
878.058	23296
878.185	23189
878.313	23341
878.441	23345
878.568	23273
878.696	23216
878.824	23414
878.951	23463
879.079	23577
879.206	23680
879.333	23638
879.461	23379
879.588	23436
879.715	23543
879.842	23684
879.97	23490
880.097	23250
880.224	23170
880.351	23197
880.478	23185
880.605	23261
880.732	23212
880.859	23474
880.986	23220
881.112	23235
881.239	23022
881.366	22953
881.493	22824
881.619	22801
881.746	22774
881.872	22721
881.999	22641
882.125	22801
882.252	22733
882.378	22748
882.505	22679
882.631	22508
882.757	22519
882.883	22565
883.01	22459
883.136	22405
883.262	22310
883.388	22356
883.514	22630
883.64	22417
883.766	22409
883.892	22173
884.018	22226
884.143	22428
884.269	22462
884.395	22246
884.52	22166
884.646	22173
884.772	22002
884.897	21972
885.023	22078
885.148	22082
885.274	22272
885.399	22070
885.524	22074
885.65	22109
885.775	22135
885.9	22131
886.025	22295
886.15	22131
886.275	22093
886.4	21956
886.525	21968
886.65	22006
886.775	22036
886.9	22074
887.025	22143
887.149	22006
887.274	21793
887.399	21762
887.523	21812
887.648	21819
887.773	21743
887.897	21804
888.021	21869
888.146	21747
888.27	21918
888.395	22032
888.519	21861
888.643	21751
888.767	21937
888.891	21682
889.015	21542
889.139	21762
889.263	21614
889.387	21816
889.511	21751
889.635	21778
889.759	21576
889.883	21622
890.006	21755
890.13	21686
890.254	21469
890.377	21545
890.501	21405
890.624	21374
890.748	21317
890.871	21249
890.995	21268
891.118	21119
891.241	21173
891.364	21150
891.488	21291
891.611	21294
891.734	21138
891.857	21252
891.98	21093
892.103	21245
892.226	21199
892.349	21127
892.471	20918
892.594	21032
892.717	20994
892.839	21024
892.962	21009
893.085	21108
893.207	21116
893.33	20902
893.452	20941
893.575	20990
893.697	20986
893.819	21245
893.941	21416
894.064	21081
894.186	21043
894.308	20990
894.43	21085
894.552	21180
894.674	21119
894.796	21020
894.918	21024
895.04	21093
895.161	21039
895.283	21074
895.405	20990
895.526	20979
895.648	21047
895.769	21051
895.891	20941
896.012	21032
896.134	21116
896.255	21112
896.376	20967
896.498	21093
896.619	21100
896.74	21051
896.861	21108
896.982	21397
897.103	21374
897.224	21214
897.345	21226
897.466	21123
897.587	21405
897.708	21355
897.828	21218
897.949	21161
898.07	21085
898.19	21081
898.311	21298
898.431	21093
898.552	21127
898.672	21245
898.792	21310
898.913	21165
899.033	21100
899.153	21036
899.273	21009
899.393	21058
899.513	20883
899.633	20963
899.753	21043
899.873	20994
899.993	20971
900.113	20857
900.232	20883
900.352	20891
900.472	20762
900.591	20629
900.711	20849
900.83	20788
900.95	20826
901.069	20883
901.189	20636
901.308	20408
901.427	20248
901.546	20298
901.665	20290
901.784	20187
901.904	20180
902.023	20183
902.141	20008
902.26	19826
902.379	19852
902.498	19849
902.617	19734
902.735	19860
902.854	19693
902.973	19750
903.091	19575
903.21	19392
903.328	19457
903.446	19411
903.565	19350
903.683	19213
903.801	19126
903.919	19263
904.038	19285
904.156	19012
904.274	19175
904.392	18947
904.51	19000
904.627	19072
904.745	19088
904.863	19141
904.981	18882
905.098	18764
905.216	18635
905.334	18776
905.451	18688
905.569	18703
905.686	18776
905.803	18673
905.921	18452
906.038	18582
906.155	18486
906.272	18410
906.389	18414
906.506	18270
906.623	18266
906.74	18079
906.857	18068
906.974	18049
907.091	18296
907.208	18304
907.324	18190
907.441	18155
907.557	17870
907.674	17821
907.79	17745
907.907	17996
908.023	17961
908.139	17893
908.256	17855
908.372	17756
908.488	17828
908.604	17665
908.72	17486
908.836	17687
908.952	17543
909.068	17634
909.184	17687
909.3	17665
909.415	17649
909.531	17627
909.647	17402
909.762	17364
909.878	17277
909.993	17311
910.108	17273
910.224	17326
910.339	17326
910.454	17242
910.57	17197
910.685	17071
910.8	17421
910.915	17307
911.03	17162
911.145	17045
911.259	16862
911.374	17006
911.489	16812
911.604	16767
911.718	16641
911.833	16721
911.947	16527
912.062	16462
912.176	16656
912.291	16698
912.405	16736
912.519	16824
912.633	16786
912.748	16721
912.862	16748
912.976	16470
913.09	16348
913.204	16489
913.318	16466
913.431	16611
913.545	16565
913.659	16626
913.772	16398
913.886	16287
914	16268
914.113	16337
914.226	16249
914.34	16314
914.453	16181
914.566	16204
914.68	16112
914.793	16162
914.906	15934
915.019	15686
915.132	15751
915.245	15854
915.358	15755
915.47	15854
915.583	15808
915.696	15797
915.809	15895
915.921	16040
916.034	15747
916.146	15781
916.259	15732
916.371	15766
916.483	15785
916.595	15690
916.708	15671
916.82	15603
916.932	15519
917.044	15500
917.156	15603
917.268	15523
917.38	15492
917.491	15389
917.603	15515
917.715	15637
917.826	15473
917.938	15450
918.049	15256
918.161	15477
918.272	15462
918.384	15580
918.495	15355
918.606	15188
918.717	15074
918.828	15332
918.939	15203
919.05	15116
919.161	15233
919.272	15097
919.383	15070
919.494	15351
919.604	15382
919.715	15241
919.826	15165
919.936	15192
920.047	15275
920.157	15173
920.267	15313
920.378	15226
920.488	15199
920.598	15192
920.708	15488
920.818	15367
920.928	15230
921.038	15450
921.148	15313
921.258	14986
921.368	15020
921.477	15005
921.587	14960
921.697	14625
921.806	14902
921.916	14781
922.025	14568
922.134	14594
922.244	14511
922.353	14522
922.462	14389
922.571	14358
922.68	14130
922.789	14123
922.898	14248
923.007	14088
923.116	14180
923.224	14058
923.333	14107
923.442	14031
923.55	13982
923.659	14046
923.767	14054
923.876	13913
923.984	13967
924.092	13864
924.201	13928
924.309	13947
924.417	13868
924.525	13799
924.633	13864
924.741	14762
924.849	13609
924.956	13651
925.064	13624
925.172	13487
925.279	13495
925.387	13575
925.494	13540
925.602	13655
925.709	13533
925.816	13449
925.924	13563
926.031	13449
926.138	13552
926.245	13510
926.352	13392
926.459	13460
926.566	13506
926.673	13407
926.779	13270
926.886	13225
926.993	13141
927.099	13095
927.206	12954
927.312	12970
927.419	13038
927.525	13072
927.631	13019
927.737	12951
927.843	12867
927.95	12817
928.056	12848
928.162	12947
928.267	13027
928.373	13518
928.479	12943
928.585	12779
928.69	12859
928.796	12886
928.901	12852
929.007	12658
929.112	12757
929.218	12757
929.323	12593
929.428	12665
929.533	12783
929.638	12528
929.743	12525
929.848	12646
929.953	12525
930.058	12452
930.163	12323
930.267	12346
930.372	12429
930.477	12251
930.581	12426
930.685	12334
930.79	12239
930.894	12224
930.998	12125
931.103	12262
931.207	12015
931.311	11908
931.415	11729
931.519	11547
931.623	11570
