Data from test_V78500241_1445.txt Node
Date: Fri Mar 25 15:51:48 CST 2022
User: usil
Spectrometer: V785-0024
Trigger mode: 0
Integration Time (sec): 4.000000E-1
Scans to average: 1
Nonlinearity correction enabled: false
Boxcar width: 0
Storing dark spectrum: false
XAxis mode: Wavelengths
Number of Pixels in Spectrum: 1024
>>>>>Begin Spectral Data<<<<<
801.071	28356
801.214	28188
801.356	28017
801.499	27922
801.641	27793
801.783	27869
801.926	27918
802.068	27819
802.211	27778
802.353	27774
802.496	27561
802.638	27519
802.78	27511
802.923	27370
803.065	27431
803.208	27329
803.35	27485
803.492	27785
803.635	27644
803.777	27515
803.919	27759
804.061	28002
804.204	27819
804.346	27606
804.488	27610
804.63	27622
804.773	27644
804.915	27633
805.057	27922
805.199	27774
805.341	27804
805.483	28036
805.626	27861
805.768	27800
805.91	27953
806.052	27926
806.194	27816
806.336	28013
806.478	27854
806.62	27781
806.762	28082
806.904	28177
807.046	28348
807.188	28265
807.33	28253
807.472	28413
807.614	28234
807.756	28211
807.898	28181
808.04	28150
808.182	28055
808.324	28265
808.465	28268
808.607	28497
808.749	28557
808.891	28721
809.033	28588
809.174	28565
809.316	28542
809.458	28504
809.6	28481
809.741	28664
809.883	28713
810.025	28801
810.166	28835
810.308	28847
810.45	28752
810.591	28782
810.733	28478
810.875	28497
811.016	28607
811.158	28398
811.299	28717
811.441	28729
811.582	28778
811.724	28641
811.865	28493
812.007	28584
812.148	28577
812.29	28607
812.431	28759
812.573	28911
812.714	28976
812.855	28965
812.997	29098
813.138	29208
813.279	29284
813.421	29143
813.562	29060
813.703	28949
813.845	28622
813.986	28550
814.127	28478
814.268	28272
814.41	28398
814.551	28177
814.692	28413
814.833	28204
814.974	28215
815.115	28097
815.256	28055
815.397	28055
815.539	28181
815.68	28013
815.821	28021
815.962	28051
816.103	28044
816.244	27873
816.385	27800
816.526	27793
816.666	27671
816.807	27496
816.948	27488
817.089	27618
817.23	27557
817.371	27580
817.512	27576
817.653	27477
817.793	27530
817.934	27488
818.075	27572
818.216	27447
818.356	27545
818.497	27458
818.638	27283
818.778	27298
818.919	27306
819.06	27466
819.2	27515
819.341	27492
819.481	27583
819.622	27793
819.762	27846
819.903	27766
820.043	27732
820.184	27610
820.324	27511
820.465	27759
820.605	27675
820.746	27751
820.886	27545
821.026	27690
821.167	27606
821.307	27743
821.447	27603
821.588	27355
821.728	27298
821.868	27188
822.008	27005
822.149	27001
822.289	26933
822.429	26887
822.569	26750
822.709	26872
822.849	26549
822.99	26552
823.13	26514
823.27	26545
823.41	26431
823.55	26183
823.69	26355
823.83	26320
823.97	26298
824.11	26263
824.25	26164
824.389	26100
824.529	26355
824.669	26206
824.809	26286
824.949	26351
825.089	26210
825.228	26328
825.368	26001
825.508	26027
825.648	26077
825.787	26096
825.927	26145
826.067	25860
826.206	26046
826.346	26199
826.485	26157
826.625	25947
826.765	26210
826.904	26134
827.044	25871
827.183	25795
827.323	25780
827.462	25750
827.601	25715
827.741	25753
827.88	25662
828.02	25696
828.159	25753
828.298	25757
828.437	25788
828.577	25742
828.716	25871
828.855	25700
828.994	25377
829.134	25457
829.273	25544
829.412	25438
829.551	25354
829.69	25358
829.829	25388
829.968	25533
830.107	25544
830.246	25518
830.385	25388
830.524	25381
830.663	25263
830.802	25114
830.941	25023
831.08	24970
831.219	25160
831.357	25137
831.496	25232
831.635	25137
831.774	24871
831.913	24924
832.051	24715
832.19	24909
832.329	24909
832.467	24684
832.606	24688
832.744	24715
832.883	24707
833.022	24612
833.16	24608
833.299	24722
833.437	24848
833.576	24719
833.714	24707
833.852	24863
833.991	24859
834.129	24916
834.267	24749
834.406	24833
834.544	24821
834.682	24802
834.821	24779
834.959	24928
835.097	24661
835.235	24890
835.373	24783
835.511	24730
835.65	24688
835.788	24635
835.926	24452
836.064	24353
836.202	24593
836.34	24665
836.478	24802
836.615	24479
836.753	24521
836.891	24722
837.029	24578
837.167	24604
837.305	24612
837.443	24338
837.58	24399
837.718	24540
837.856	24342
837.993	24376
838.131	24452
838.269	24281
838.406	24296
838.544	24163
838.681	24057
838.819	24159
838.956	23923
839.094	23893
839.231	23950
839.369	24060
839.506	24273
839.643	24106
839.781	23843
839.918	23859
840.055	24041
840.193	23817
840.33	23779
840.467	23824
840.604	23893
840.742	24194
840.879	23619
841.016	23790
841.153	23767
841.29	23901
841.427	23790
841.564	23775
841.701	23878
841.838	23813
841.975	23627
842.112	23703
842.249	23600
842.385	23566
842.522	23707
842.659	23687
842.796	23471
842.933	23554
843.069	23516
843.206	23482
843.343	23646
843.479	23570
843.616	23471
843.752	23235
843.889	23440
844.025	23551
844.162	23402
844.298	23395
844.435	23387
844.571	23410
844.708	23425
844.844	23402
844.98	23486
845.117	23562
845.253	23349
845.389	23193
845.525	23216
845.661	23269
845.798	23025
845.934	23128
846.07	23166
846.206	23105
846.342	23250
846.478	23079
846.614	22839
846.75	22771
846.886	22706
847.022	22869
847.158	22847
847.294	22809
847.429	22828
847.565	22866
847.701	22961
847.837	22516
847.972	22630
848.108	22611
848.244	22512
848.379	22409
848.515	22341
848.65	22360
848.786	22318
848.921	22371
849.057	22451
849.192	22497
849.328	22451
849.463	22413
849.598	22318
849.734	22200
849.869	22253
850.004	22139
850.14	22261
850.275	22169
850.41	22002
850.545	22131
850.68	22101
850.815	22215
850.95	22158
851.085	22234
851.22	22234
851.355	22112
851.49	22226
851.625	22078
851.76	22181
851.895	22002
852.03	22147
852.165	22181
852.299	22086
852.434	22200
852.569	22188
852.703	22162
852.838	22306
852.973	22265
853.107	22238
853.242	22078
853.376	22002
853.511	21797
853.645	22017
853.78	22044
853.914	21968
854.048	21964
854.183	21930
854.317	22063
854.451	22207
854.585	21945
854.72	21926
854.854	21972
854.988	21873
855.122	21934
855.256	21720
855.39	21880
855.524	22010
855.658	21960
855.792	21941
855.926	22109
856.06	22013
856.194	22090
856.327	22002
856.461	21876
856.595	21713
856.729	21983
856.862	22128
856.996	22025
857.13	22070
857.263	22025
857.397	22097
857.53	21930
857.664	22025
857.797	22040
857.931	22150
858.064	22021
858.197	22067
858.331	21888
858.464	22002
858.597	21884
858.731	21911
858.864	21857
858.997	21964
859.13	22074
859.263	21934
859.396	21964
859.529	21850
859.662	21861
859.795	21926
859.928	21945
860.061	22048
860.194	22185
860.327	21930
860.46	21930
860.592	22013
860.725	22131
860.858	22074
860.99	21930
861.123	21907
861.256	21949
861.388	21941
861.521	22805
861.653	21751
861.786	21743
861.918	21751
862.05	21842
862.183	21918
862.315	21972
862.447	21975
862.58	21865
862.712	21705
862.844	21720
862.976	21690
863.108	21660
863.24	22021
863.372	21663
863.504	21713
863.636	21534
863.768	21663
863.9	21732
864.032	21523
864.164	21511
864.296	21766
864.428	21819
864.559	21660
864.691	21690
864.823	21720
864.954	21682
865.086	21671
865.217	21557
865.349	21405
865.48	21648
865.612	21595
865.743	21717
865.875	21606
866.006	21523
866.137	21515
866.269	21610
866.4	21595
866.531	21576
866.662	21405
866.793	21408
866.924	21393
867.055	21462
867.186	21439
867.317	21370
867.448	21412
867.579	21496
867.71	21401
867.841	21416
867.972	21542
868.103	21367
868.233	21443
868.364	21435
868.495	21663
868.625	21694
868.756	21728
868.886	21614
869.017	21766
869.147	21842
869.278	21880
869.408	21747
869.539	21713
869.669	21720
869.799	21823
869.929	21884
870.06	21785
870.19	22135
870.32	22097
870.45	22055
870.58	22135
870.71	22246
870.84	22169
870.97	22109
871.1	22021
871.23	22314
871.36	22310
871.489	22143
871.619	22284
871.749	22303
871.879	22322
872.008	22523
872.138	22341
872.267	22223
872.397	22082
872.526	22188
872.656	22230
872.785	22128
872.915	22451
873.044	22417
873.173	22379
873.303	22382
873.432	22382
873.561	22508
873.69	22417
873.819	22386
873.948	22462
874.077	22375
874.206	22276
874.335	22398
874.464	22447
874.593	22500
874.722	22512
874.851	22497
874.979	22508
875.108	22626
875.237	22565
875.365	22554
875.494	22653
875.623	22626
875.751	22546
875.88	22622
876.008	22725
876.136	22733
876.265	22965
876.393	23105
876.521	23090
876.65	22999
876.778	22892
876.906	22885
877.034	22892
877.162	22999
877.29	22896
877.418	22968
877.546	22828
877.674	22866
877.802	22896
877.93	22862
878.058	22816
878.185	22786
878.313	22862
878.441	22805
878.568	22786
878.696	22854
878.824	22957
878.951	23094
879.079	23064
879.206	23094
879.333	23162
879.461	22904
879.588	23033
879.715	23056
879.842	23220
879.97	22930
880.097	22744
880.224	22790
880.351	22694
880.478	22717
880.605	22679
880.732	22607
880.859	22984
880.986	22748
881.112	22740
881.239	22767
881.366	22512
881.493	22272
881.619	22310
881.746	22375
881.872	22360
881.999	22299
882.125	22188
882.252	22257
882.378	22284
882.505	22329
882.631	22207
882.757	22120
882.883	22051
883.01	21991
883.136	21899
883.262	21781
883.388	21808
883.514	22173
883.64	22109
883.766	21838
883.892	21865
884.018	21625
884.143	21983
884.269	22048
884.395	21663
884.52	21534
884.646	21583
884.772	21530
884.897	21534
885.023	21526
885.148	21701
885.274	21747
885.399	21637
885.524	21599
885.65	21530
885.775	21663
885.9	21545
886.025	21656
886.15	21701
886.275	21564
886.4	21568
886.525	21660
886.65	21557
886.775	21492
886.9	21770
887.025	21759
887.149	21595
887.274	21450
887.399	21306
887.523	21329
887.648	21317
887.773	21207
887.897	21492
888.021	21511
888.146	21382
888.27	21439
888.395	21507
888.519	21408
888.643	21477
888.767	21367
888.891	21241
889.015	21233
889.139	21226
889.263	21203
889.387	21355
889.511	21454
889.635	21298
889.759	21146
889.883	21062
890.006	21230
890.13	21165
890.254	21176
890.377	21074
890.501	20826
890.624	20910
890.748	20941
890.871	20895
890.995	20648
891.118	20689
891.241	20750
891.364	20724
891.488	20853
891.611	20765
891.734	20731
891.857	20746
891.98	20708
892.103	20777
892.226	20735
892.349	20731
892.471	20518
892.594	20632
892.717	20625
892.839	20632
892.962	20682
893.085	20697
893.207	20606
893.33	20602
893.452	20621
893.575	20678
893.697	20587
893.819	20746
893.941	20849
894.064	20708
894.186	20526
894.308	20583
894.43	20796
894.552	20804
894.674	20800
894.796	20476
894.918	20545
895.04	20636
895.161	20609
895.283	20689
895.405	20613
895.526	20648
895.648	20568
895.769	20701
895.891	20686
896.012	20686
896.134	20769
896.255	20644
896.376	20560
896.498	20636
896.619	20724
896.74	20568
896.861	20724
896.982	20864
897.103	21096
897.224	20937
897.345	20781
897.466	20720
897.587	20823
897.708	21055
897.828	20853
897.949	20701
898.07	20648
898.19	20731
898.311	20849
898.431	20853
898.552	20914
898.672	20769
898.792	20880
898.913	20899
899.033	20792
899.153	20640
899.273	20556
899.393	20560
899.513	20507
899.633	20545
899.753	20583
899.873	20625
899.993	20598
900.113	20594
900.232	20568
900.352	20571
900.472	20404
900.591	20355
900.711	20362
900.83	20294
900.95	20415
901.069	20400
901.189	20282
901.308	19978
901.427	19871
901.546	19963
901.665	19982
901.784	19917
901.904	19746
902.023	19628
902.141	19502
902.26	19411
902.379	19567
902.498	19381
902.617	19449
902.735	19457
902.854	19285
902.973	19331
903.091	19133
903.21	19050
903.328	19065
903.446	19027
903.565	18935
903.683	18837
903.801	18719
903.919	18772
904.038	18764
904.156	18696
904.274	18776
904.392	18692
904.51	18551
904.627	18574
904.745	18688
904.863	18650
904.981	18559
905.098	18380
905.216	18395
905.334	18315
905.451	18357
905.569	18296
905.686	18266
905.803	18194
905.921	18026
906.038	18159
906.155	18121
906.272	18057
906.389	17908
906.506	17794
906.623	17912
906.74	17882
906.857	17729
906.974	17665
907.091	17927
907.208	17939
907.324	17931
907.441	17707
907.557	17577
907.674	17566
907.79	17532
907.907	17619
908.023	17615
908.139	17501
908.256	17425
908.372	17406
908.488	17334
908.604	17322
908.72	17261
908.836	17368
908.952	17204
909.068	17292
909.184	17376
909.3	17246
909.415	17227
909.531	17265
909.647	17003
909.762	16999
909.878	16892
909.993	16972
910.108	16961
910.224	16869
910.339	16862
910.454	16809
910.57	16809
910.685	16725
910.8	16968
910.915	16908
911.03	16809
911.145	16569
911.259	16580
911.374	16596
911.489	16596
911.604	16363
911.718	16215
911.833	16379
911.947	16303
912.062	16181
912.176	16333
912.291	16367
912.405	16322
912.519	16497
912.633	16436
912.748	16398
912.862	16303
912.976	16200
913.09	16040
913.204	16120
913.318	16196
913.431	16204
913.545	16147
913.659	16238
913.772	16078
913.886	15987
914	15934
914.113	16040
914.226	16021
914.34	15964
914.453	15876
914.566	15876
914.68	15705
914.793	15762
914.906	15568
915.019	15496
915.132	15435
915.245	15568
915.358	15564
915.47	15405
915.583	15530
915.696	15454
915.809	15656
915.921	15576
916.034	15534
916.146	15397
916.259	15340
916.371	15511
916.483	15431
916.595	15389
916.708	15332
916.82	15313
916.932	15325
917.044	15405
917.156	15169
917.268	15203
917.38	15146
917.491	15100
917.603	15165
917.715	15252
917.826	15222
917.938	15055
918.049	14918
918.161	15055
918.272	15173
918.384	15264
918.495	14998
918.606	14880
918.717	14864
918.828	14883
918.939	14876
919.05	14857
919.161	14845
919.272	14701
919.383	14674
919.494	14948
919.604	15093
919.715	14883
919.826	14796
919.936	14853
920.047	14952
920.157	14819
920.267	15001
920.378	14891
920.488	14762
920.598	15032
920.708	15165
920.818	14937
920.928	14826
921.038	15081
921.148	15066
921.258	14743
921.368	14617
921.477	14590
921.587	14579
921.697	14530
921.806	14579
921.916	14412
922.025	14294
922.134	14252
922.244	14252
922.353	14218
922.462	14123
922.571	14016
922.68	13868
922.789	13830
922.898	13913
923.007	13776
923.116	13860
923.224	13868
923.333	13936
923.442	13662
923.55	13689
923.659	13708
923.767	13803
923.876	13632
923.984	13689
924.092	13597
924.201	13704
924.309	13636
924.417	13624
924.525	13468
924.633	13567
924.741	14263
924.849	13278
924.956	13510
925.064	13232
925.172	13301
925.279	13244
925.387	13304
925.494	13221
925.602	13365
925.709	13320
925.816	13168
925.924	13255
926.031	13247
926.138	13164
926.245	13217
926.352	13091
926.459	13274
926.566	13293
926.673	13061
926.779	13008
926.886	12973
926.993	12798
927.099	12882
927.206	12795
927.312	12875
927.419	12863
927.525	12802
927.631	12867
927.737	12715
927.843	12688
927.95	12517
928.056	12654
928.162	12681
928.267	12696
928.373	13335
928.479	12623
928.585	12517
928.69	12582
928.796	12620
928.901	12426
929.007	12327
929.112	12479
929.218	12414
929.323	12319
929.428	12292
929.533	12525
929.638	12330
929.743	12270
929.848	12327
929.953	12209
930.058	12201
930.163	12007
930.267	12015
930.372	12182
930.477	12011
930.581	12243
930.685	12076
930.79	11931
930.894	11954
930.998	11942
931.103	12019
931.207	11707
931.311	11551
931.415	11448
931.519	11280
931.623	11269
