Data from test_V78500241_815.txt Node
Date: Fri Mar 25 15:47:26 CST 2022
User: usil
Spectrometer: V785-0024
Trigger mode: 0
Integration Time (sec): 4.000000E-1
Scans to average: 1
Nonlinearity correction enabled: false
Boxcar width: 0
Storing dark spectrum: false
XAxis mode: Wavelengths
Number of Pixels in Spectrum: 1024
>>>>>Begin Spectral Data<<<<<
801.071	27698
801.214	27496
801.356	27378
801.499	27249
801.641	27085
801.783	27264
801.926	27089
802.068	27150
802.211	27001
802.353	26887
802.496	26925
802.638	26705
802.78	26773
802.923	26746
803.065	26701
803.208	26792
803.35	26921
803.492	26727
803.635	26872
803.777	26887
803.919	26956
804.061	27222
804.204	26891
804.346	26731
804.488	26826
804.63	26788
804.773	26720
804.915	26975
805.057	27028
805.199	27009
805.341	27085
805.483	27127
805.626	27138
805.768	26929
805.91	26967
806.052	26883
806.194	27001
806.336	27138
806.478	27146
806.62	27089
806.762	27294
806.904	27245
807.046	27557
807.188	27473
807.33	27462
807.472	27557
807.614	27477
807.756	27435
807.898	27199
808.04	27336
808.182	27237
808.324	27348
808.465	27382
808.607	27542
808.749	27656
808.891	27686
809.033	28055
809.174	27831
809.316	27774
809.458	27572
809.6	27671
809.741	27941
809.883	27884
810.025	28036
810.166	27994
810.308	28021
810.45	27797
810.591	27827
810.733	27728
810.875	27755
811.016	27568
811.158	27637
811.299	27759
811.441	27953
811.582	27960
811.724	27694
811.865	27629
812.007	27591
812.148	27861
812.29	27698
812.431	27880
812.573	28135
812.714	28272
812.855	28204
812.997	28322
813.138	28542
813.279	28310
813.421	28223
813.562	28257
813.703	28109
813.845	27972
813.986	27656
814.127	27576
814.268	27378
814.41	27416
814.551	27397
814.692	27545
814.833	27351
814.974	27412
815.115	27370
815.256	27336
815.397	27180
815.539	27184
815.68	27055
815.821	27100
815.962	27214
816.103	27135
816.244	27066
816.385	26849
816.526	26914
816.666	26876
816.807	26708
816.948	26807
817.089	26777
817.23	26773
817.371	26587
817.512	26670
817.653	26564
817.793	26602
817.934	26781
818.075	26739
818.216	26670
818.356	26716
818.497	26507
818.638	26453
818.778	26453
818.919	26278
819.06	26374
819.2	26606
819.341	26621
819.481	26568
819.622	26785
819.762	27085
819.903	26895
820.043	26800
820.184	26819
820.324	26735
820.465	26826
820.605	26777
820.746	26773
820.886	26594
821.026	26773
821.167	26720
821.307	26716
821.447	26632
821.588	26606
821.728	26587
821.868	26328
822.008	26149
822.149	26046
822.289	26115
822.429	25849
822.569	26039
822.709	25791
822.849	25784
822.99	25666
823.13	25556
823.27	25597
823.41	25430
823.55	25396
823.69	25358
823.83	25582
823.97	25354
824.11	25312
824.25	25236
824.389	25289
824.529	25472
824.669	25133
824.809	25487
824.949	25384
825.089	25293
825.228	25293
825.368	25103
825.508	25084
825.648	25171
825.787	25141
825.927	25232
826.067	25076
826.206	25217
826.346	25209
826.485	25232
826.625	25061
826.765	25266
826.904	25190
827.044	25034
827.183	25000
827.323	24844
827.462	24924
827.601	24745
827.741	24871
827.88	24806
828.02	24798
828.159	24722
828.298	24719
828.437	24943
828.577	24798
828.716	24798
828.855	24772
828.994	24513
829.134	24536
829.273	24582
829.412	24532
829.551	24612
829.69	24505
829.829	24551
829.968	24738
830.107	24578
830.246	24544
830.385	24456
830.524	24540
830.663	24323
830.802	24327
830.941	24205
831.08	24197
831.219	24311
831.357	24220
831.496	24330
831.635	24155
831.774	24038
831.913	24136
832.051	23984
832.19	23859
832.329	23961
832.467	23863
832.606	23828
832.744	23859
832.883	23851
833.022	23984
833.16	23798
833.299	23920
833.437	23916
833.576	24038
833.714	23832
833.852	23961
833.991	23965
834.129	24007
834.267	23950
834.406	23977
834.544	23885
834.682	23878
834.821	23672
834.959	24034
835.097	23840
835.235	23965
835.373	23878
835.511	23939
835.65	23718
835.788	23741
835.926	23547
836.064	23653
836.202	23649
836.34	23775
836.478	23752
836.615	23710
836.753	23691
836.891	23756
837.029	23775
837.167	23737
837.305	23585
837.443	23630
837.58	23573
837.718	23745
837.856	23676
837.993	23505
838.131	23531
838.269	23440
838.406	23528
838.544	23288
838.681	23292
838.819	23151
838.956	23033
839.094	23090
839.231	23185
839.369	23288
839.506	23528
839.643	23322
839.781	23052
839.918	22930
840.055	23018
840.193	23060
840.33	22927
840.467	22991
840.604	23075
840.742	23246
840.879	22816
841.016	22961
841.153	22889
841.29	23022
841.427	22976
841.564	22869
841.701	22961
841.838	22885
841.975	22915
842.112	22881
842.249	22729
842.385	22748
842.522	23041
842.659	22839
842.796	22797
842.933	22694
843.069	22645
843.206	22736
843.343	22801
843.479	22672
843.616	22679
843.752	22512
843.889	22611
844.025	22622
844.162	22421
844.298	22637
844.435	22493
844.571	22409
844.708	22493
844.844	22626
844.98	22634
845.117	22588
845.253	22459
845.389	22234
845.525	22413
845.661	22333
845.798	22299
845.934	22230
846.07	22158
846.206	22284
846.342	22306
846.478	22181
846.614	21937
846.75	21857
846.886	21960
847.022	21998
847.158	22017
847.294	21956
847.429	21956
847.565	21873
847.701	22196
847.837	21648
847.972	21637
848.108	21793
848.244	21884
848.379	21622
848.515	21545
848.65	21443
848.786	21515
848.921	21587
849.057	21603
849.192	21663
849.328	21679
849.463	21686
849.598	21504
849.734	21462
849.869	21454
850.004	21344
850.14	21302
850.275	21405
850.41	21131
850.545	21165
850.68	21233
850.815	21279
850.95	21275
851.085	21488
851.22	21401
851.355	21211
851.49	21424
851.625	21214
851.76	21233
851.895	21291
852.03	21272
852.165	21363
852.299	21245
852.434	21370
852.569	21230
852.703	21336
852.838	21401
852.973	21431
853.107	21382
853.242	21325
853.376	21142
853.511	21058
853.645	21089
853.78	21313
853.914	21157
854.048	21207
854.183	21131
854.317	21203
854.451	21317
854.585	21169
854.72	21241
854.854	21176
854.988	21020
855.122	21036
855.256	20990
855.39	21116
855.524	21211
855.658	21157
855.792	21138
855.926	21112
856.06	21264
856.194	21214
856.327	21192
856.461	21127
856.595	21062
856.729	21165
856.862	21363
856.996	21165
857.13	21173
857.263	21252
857.397	21378
857.53	21173
857.664	21047
857.797	21123
857.931	21237
858.064	21146
858.197	21268
858.331	21024
858.464	21085
858.597	21123
858.731	21176
858.864	21100
858.997	21146
859.13	21218
859.263	21233
859.396	21241
859.529	21146
859.662	21203
859.795	21150
859.928	21096
860.061	21275
860.194	21348
860.327	21066
860.46	21188
860.592	21291
860.725	21351
860.858	21340
860.99	21154
861.123	21184
861.256	21085
861.388	21142
861.521	21774
861.653	21001
861.786	20933
861.918	20929
862.05	21089
862.183	21070
862.315	21135
862.447	21081
862.58	21047
862.712	20906
862.844	20853
862.976	20982
863.108	20956
863.24	21401
863.372	20785
863.504	20868
863.636	20918
863.768	20895
863.9	20902
864.032	20796
864.164	20830
864.296	20773
864.428	21001
864.559	20906
864.691	20834
864.823	20906
864.954	20864
865.086	20899
865.217	20777
865.349	20758
865.48	20815
865.612	20815
865.743	20929
865.875	20864
866.006	20689
866.137	20746
866.269	20743
866.4	20743
866.531	20735
866.662	20579
866.793	20693
866.924	20640
867.055	20720
867.186	20655
867.317	20651
867.448	20541
867.579	20598
867.71	20625
867.841	20708
867.972	20606
868.103	20636
868.233	20674
868.364	20648
868.495	20686
868.625	20906
868.756	20982
868.886	20781
869.017	20880
869.147	21135
869.278	21036
869.408	20937
869.539	20906
869.669	20982
869.799	20918
869.929	21116
870.06	21013
870.19	21256
870.32	21222
870.45	21146
870.58	21325
870.71	21504
870.84	21386
870.97	21294
871.1	21348
871.23	21534
871.36	21458
871.489	21397
871.619	21477
871.749	21454
871.879	21538
872.008	21583
872.138	21481
872.267	21545
872.397	21332
872.526	21481
872.656	21336
872.785	21370
872.915	21504
873.044	21599
873.173	21538
873.303	21595
873.432	21572
873.561	21759
873.69	21595
873.819	21488
873.948	21675
874.077	21488
874.206	21466
874.335	21485
874.464	21724
874.593	21941
874.722	21785
874.851	21876
874.979	21781
875.108	21888
875.237	21694
875.365	21679
875.494	21812
875.623	21911
875.751	21720
875.88	21759
876.008	21915
876.136	21861
876.265	22223
876.393	22325
876.521	22234
876.65	22246
876.778	22177
876.906	22112
877.034	22143
877.162	22059
877.29	22036
877.418	22230
877.546	22192
877.674	22173
877.802	22059
877.93	22124
878.058	22135
878.185	22006
878.313	22097
878.441	22131
878.568	22025
878.696	22002
878.824	22158
878.951	22261
879.079	22253
879.206	22367
879.333	22310
879.461	22188
879.588	22147
879.715	22234
879.842	22485
879.97	22158
880.097	21835
880.224	21991
880.351	21964
880.478	21998
880.605	21911
880.732	21861
880.859	22230
880.986	21823
881.112	21949
881.239	21846
881.366	21629
881.493	21709
881.619	21511
881.746	21652
881.872	21519
881.999	21504
882.125	21515
882.252	21473
882.378	21500
882.505	21701
882.631	21283
882.757	21188
882.883	21329
883.01	21195
883.136	21332
883.262	21146
883.388	21070
883.514	21195
883.64	21226
883.766	21157
883.892	21047
884.018	21150
884.143	21157
884.269	21359
884.395	20914
884.52	20811
884.646	20861
884.772	20765
884.897	20735
885.023	20902
885.148	21039
885.274	21058
885.399	20982
885.524	20811
885.65	20880
885.775	20902
885.9	20868
886.025	21020
886.15	20883
886.275	20883
886.4	20651
886.525	20788
886.65	20648
886.775	20891
886.9	20975
887.025	21169
887.149	20963
887.274	20731
887.399	20659
887.523	20640
887.648	20621
887.773	20708
887.897	20587
888.021	20743
888.146	20743
888.27	20731
888.395	20727
888.519	20762
888.643	20686
888.767	20697
888.891	20511
889.015	20533
889.139	20476
889.263	20480
889.387	20530
889.511	20606
889.635	20575
889.759	20499
889.883	20492
890.006	20415
890.13	20655
890.254	20298
890.377	20374
890.501	20218
890.624	20214
890.748	20320
890.871	20149
890.995	20008
891.118	19921
891.241	19989
891.364	19978
891.488	20153
891.611	20145
891.734	20008
891.857	20035
891.98	20119
892.103	19989
892.226	20020
892.349	19890
892.471	19849
892.594	19928
892.717	19951
892.839	19894
892.962	19936
893.085	19947
893.207	20016
893.33	19643
893.452	19917
893.575	19856
893.697	19974
893.819	20001
893.941	20107
894.064	20012
894.186	19913
894.308	19887
894.43	19959
894.552	20111
894.674	19993
894.796	19780
894.918	19894
895.04	19890
895.161	20039
895.283	19894
895.405	20039
895.526	19879
895.648	19864
895.769	19978
895.891	19849
896.012	20043
896.134	20065
896.255	20024
896.376	19902
896.498	19940
896.619	19959
896.74	19925
896.861	20035
896.982	20218
897.103	20419
897.224	20195
897.345	20088
897.466	20168
897.587	20221
897.708	20282
897.828	20168
897.949	20157
898.07	20050
898.19	20077
898.311	20168
898.431	20084
898.552	20199
898.672	20187
898.792	20206
898.913	20145
899.033	20058
899.153	19970
899.273	20020
899.393	19940
899.513	19902
899.633	20069
899.753	19902
899.873	19856
899.993	19978
900.113	19780
900.232	19871
900.352	19944
900.472	19712
900.591	19620
900.711	19605
900.83	19674
900.95	19803
901.069	19887
901.189	19518
901.308	19419
901.427	19339
901.546	19285
901.665	19411
901.784	19396
901.904	19118
902.023	19118
902.141	18909
902.26	18806
902.379	18867
902.498	18730
902.617	18707
902.735	18856
902.854	18620
902.973	18787
903.091	18429
903.21	18490
903.328	18441
903.446	18414
903.565	18277
903.683	18403
903.801	18144
903.919	18106
904.038	18125
904.156	17999
904.274	18129
904.392	18030
904.51	18102
904.627	17977
904.745	18076
904.863	17999
904.981	17908
905.098	17680
905.216	17707
905.334	17714
905.451	17752
905.569	17676
905.686	17691
905.803	17627
905.921	17585
906.038	17642
906.155	17604
906.272	17410
906.389	17436
906.506	17204
906.623	17265
906.74	17204
906.857	17109
906.974	17212
907.091	17391
907.208	17356
907.324	17258
907.441	17174
907.557	17071
907.674	16896
907.79	16885
907.907	16919
908.023	16961
908.139	17003
908.256	16801
908.372	16850
908.488	16812
908.604	16698
908.72	16748
908.836	16782
908.952	16774
909.068	16725
909.184	16748
909.3	16622
909.415	16641
909.531	16706
909.647	16474
909.762	16432
909.878	16329
909.993	16360
910.108	16356
910.224	16382
910.339	16382
910.454	16257
910.57	16230
910.685	16082
910.8	16466
910.915	16284
911.03	16207
911.145	15987
911.259	16120
911.374	15987
911.489	15865
911.604	15968
911.718	15793
911.833	15797
911.947	15675
912.062	15610
912.176	15789
912.291	15827
912.405	15770
912.519	15899
912.633	15888
912.748	15800
912.862	15755
912.976	15618
913.09	15447
913.204	15424
913.318	15568
913.431	15637
913.545	15610
913.659	15663
913.772	15477
913.886	15439
914	15332
914.113	15378
914.226	15481
914.34	15405
914.453	15249
914.566	15447
914.68	15245
914.793	15211
914.906	15005
915.019	14990
915.132	14902
915.245	15127
915.358	14979
915.47	15051
915.583	14963
915.696	15077
915.809	15108
915.921	15066
916.034	14952
916.146	14902
916.259	14796
916.371	14979
916.483	14906
916.595	14785
916.708	14845
916.82	14765
916.932	14712
917.044	14758
917.156	14788
917.268	14644
917.38	14617
917.491	14606
917.603	14568
917.715	14674
917.826	14788
917.938	14579
918.049	14438
918.161	14484
918.272	14682
918.384	14667
918.495	14530
918.606	14469
918.717	14427
918.828	14434
918.939	14552
919.05	14271
919.161	14408
919.272	14168
919.383	14271
919.494	14419
919.604	14575
919.715	14400
919.826	14305
919.936	14347
920.047	14495
920.157	14381
920.267	14526
920.378	14389
920.488	14275
920.598	14545
920.708	14648
920.818	14480
920.928	14465
921.038	14613
921.148	14610
921.258	14324
921.368	14225
921.477	14058
921.587	14046
921.697	13925
921.806	14172
921.916	13944
922.025	13814
922.134	13772
922.244	13662
922.353	13662
922.462	13681
922.571	13590
922.68	13438
922.789	13324
922.898	13381
923.007	13293
923.116	13354
923.224	13358
923.333	13308
923.442	13282
923.55	13251
923.659	13217
923.767	13308
923.876	13232
923.984	13282
924.092	13076
924.201	13156
924.309	13107
924.417	13129
924.525	13080
924.633	13171
924.741	14043
924.849	12863
924.956	12916
925.064	12825
925.172	12662
925.279	12837
925.387	12829
925.494	12833
925.602	12970
925.709	12867
925.816	12707
925.924	12692
926.031	12867
926.138	12787
926.245	12886
926.352	12703
926.459	12837
926.566	12825
926.673	12612
926.779	12623
926.886	12582
926.993	12353
927.099	12464
927.206	12311
927.312	12311
927.419	12509
927.525	12399
927.631	12388
927.737	12163
927.843	12213
927.95	12152
928.056	12209
928.162	12178
928.267	12228
928.373	12833
928.479	12292
928.585	12049
928.69	12201
928.796	12232
928.901	12019
929.007	11942
929.112	12095
929.218	12087
929.323	11950
929.428	11904
929.533	12114
929.638	11977
929.743	11984
929.848	12011
929.953	11882
930.058	11779
930.163	11596
930.267	11691
930.372	11798
930.477	11566
930.581	11783
930.685	11764
930.79	11562
930.894	11562
930.998	11486
931.103	11676
931.207	11246
931.311	11212
931.415	11170
931.519	10835
931.623	10885
