Data from test_V78500241_1204.txt Node
Date: Fri Mar 25 15:50:08 CST 2022
User: usil
Spectrometer: V785-0024
Trigger mode: 0
Integration Time (sec): 4.000000E-1
Scans to average: 1
Nonlinearity correction enabled: false
Boxcar width: 0
Storing dark spectrum: false
XAxis mode: Wavelengths
Number of Pixels in Spectrum: 1024
>>>>>Begin Spectral Data<<<<<
801.071	28721
801.214	28603
801.356	28371
801.499	28344
801.641	28265
801.783	28188
801.926	28291
802.068	28265
802.211	28169
802.353	28093
802.496	27945
802.638	27846
802.78	27991
802.923	27819
803.065	27857
803.208	27876
803.35	27937
803.492	27991
803.635	27972
803.777	27941
803.919	28166
804.061	28367
804.204	28295
804.346	28055
804.488	27953
804.63	28166
804.773	28128
804.915	28272
805.057	28379
805.199	28150
805.341	28291
805.483	28188
805.626	28371
805.768	28200
805.91	28375
806.052	28341
806.194	28200
806.336	28550
806.478	28314
806.62	28348
806.762	28421
806.904	28664
807.046	28839
807.188	28748
807.33	28736
807.472	28892
807.614	28733
807.756	28809
807.898	28736
808.04	28588
808.182	28561
808.324	28660
808.465	28694
808.607	28797
808.749	29041
808.891	29200
809.033	29178
809.174	28946
809.316	29010
809.458	28896
809.6	28946
809.741	29235
809.883	29208
810.025	29326
810.166	29303
810.308	29353
810.45	29360
810.591	29143
810.733	29025
810.875	29086
811.016	28965
811.158	29025
811.299	29098
811.441	29128
811.582	29231
811.724	28995
811.865	29037
812.007	29006
812.148	28991
812.29	29052
812.431	29166
812.573	29326
812.714	29497
812.855	29570
812.997	29623
813.138	29676
813.279	29703
813.421	29562
813.562	29398
813.703	29360
813.845	29318
813.986	29109
814.127	28911
814.268	28736
814.41	28774
814.551	28706
814.692	28797
814.833	28653
814.974	28721
815.115	28774
815.256	28736
815.397	28615
815.539	28645
815.68	28645
815.821	28527
815.962	28565
816.103	28474
816.244	28459
816.385	28265
816.526	28284
816.666	28173
816.807	28017
816.948	28040
817.089	28188
817.23	27945
817.371	28200
817.512	28040
817.653	28112
817.793	28044
817.934	28090
818.075	28147
818.216	28070
818.356	27983
818.497	27979
818.638	27816
818.778	27876
818.919	27869
819.06	27895
819.2	27979
819.341	28097
819.481	28051
819.622	28173
819.762	28390
819.903	28382
820.043	28284
820.184	28036
820.324	28291
820.465	28299
820.605	28234
820.746	28253
820.886	28090
821.026	28219
821.167	28128
821.307	28234
821.447	28215
821.588	28002
821.728	27914
821.868	27648
822.008	27641
822.149	27542
822.289	27329
822.429	27424
822.569	27173
822.709	27340
822.849	27108
822.99	27013
823.13	26971
823.27	26986
823.41	26994
823.55	26674
823.69	27043
823.83	26956
823.97	26857
824.11	26667
824.25	26811
824.389	26769
824.529	26788
824.669	26693
824.809	26849
824.949	26929
825.089	26906
825.228	26754
825.368	26629
825.508	26609
825.648	26552
825.787	26579
825.927	26640
826.067	26541
826.206	26655
826.346	26693
826.485	26609
826.625	26590
826.765	26743
826.904	26735
827.044	26434
827.183	26473
827.323	26351
827.462	26408
827.601	26400
827.741	26370
827.88	26317
828.02	26202
828.159	26275
828.298	26305
828.437	26385
828.577	26256
828.716	26347
828.855	26206
828.994	26062
829.134	26058
829.273	26191
829.412	25928
829.551	26043
829.69	25997
829.829	26043
829.968	26195
830.107	26130
830.246	26020
830.385	25982
830.524	25966
830.663	25928
830.802	25761
830.941	25704
831.08	25628
831.219	25734
831.357	25830
831.496	25993
831.635	25616
831.774	25510
831.913	25605
832.051	25472
832.19	25419
832.329	25479
832.467	25476
832.606	25346
832.744	25164
832.883	25339
833.022	25324
833.16	25491
833.299	25320
833.437	25346
833.576	25320
833.714	25487
833.852	25544
833.991	25278
834.129	25441
834.267	25438
834.406	25392
834.544	25445
834.682	25381
834.821	25339
834.959	25491
835.097	25263
835.235	25479
835.373	25331
835.511	25373
835.65	25285
835.788	25282
835.926	25217
836.064	25088
836.202	25053
836.34	25213
836.478	25289
836.615	25202
836.753	25160
836.891	25270
837.029	25217
837.167	25175
837.305	25099
837.443	24981
837.58	25027
837.718	25095
837.856	25038
837.993	25072
838.131	24954
838.269	24833
838.406	24791
838.544	24802
838.681	24726
838.819	24707
838.956	24494
839.094	24498
839.231	24505
839.369	24639
839.506	24928
839.643	24856
839.781	24452
839.918	24467
840.055	24426
840.193	24418
840.33	24410
840.467	24559
840.604	24452
840.742	24616
840.879	24395
841.016	24296
841.153	24361
841.29	24547
841.427	24433
841.564	24350
841.701	24388
841.838	24262
841.975	24171
842.112	24403
842.249	24209
842.385	24243
842.522	24441
842.659	24251
842.796	24194
842.933	24216
843.069	24110
843.206	24155
843.343	24304
843.479	24224
843.616	24266
843.752	23882
843.889	23980
844.025	24045
844.162	23786
844.298	24053
844.435	23946
844.571	23908
844.708	23961
844.844	24125
844.98	24045
845.117	23999
845.253	23843
845.389	23802
845.525	23771
845.661	23863
845.798	23699
845.934	23779
846.07	23745
846.206	23737
846.342	23680
846.478	23649
846.614	23410
846.75	23376
846.886	23376
847.022	23345
847.158	23330
847.294	23280
847.429	23402
847.565	23315
847.701	23630
847.837	23128
847.972	22972
848.108	23185
848.244	23181
848.379	22995
848.515	22965
848.65	22889
848.786	23037
848.921	22957
849.057	23025
849.192	23170
849.328	22991
849.463	22889
849.598	22862
849.734	23010
849.869	22938
850.004	22637
850.14	22790
850.275	22691
850.41	22634
850.545	22615
850.68	22710
850.815	22763
850.95	22713
851.085	22889
851.22	22797
851.355	22847
851.49	22725
851.625	22679
851.76	22664
851.895	22660
852.03	22725
852.165	22702
852.299	22744
852.434	22809
852.569	22721
852.703	22736
852.838	22607
852.973	22949
853.107	22889
853.242	22527
853.376	22596
853.511	22474
853.645	22428
853.78	22630
853.914	22622
854.048	22504
854.183	22386
854.317	22599
854.451	22786
854.585	22497
854.72	22607
854.854	22725
854.988	22459
855.122	22500
855.256	22394
855.39	22424
855.524	22641
855.658	22516
855.792	22516
855.926	22653
856.06	22584
856.194	22675
856.327	22497
856.461	22512
856.595	22462
856.729	22527
856.862	22687
856.996	22603
857.13	22565
857.263	22672
857.397	22481
857.53	22577
857.664	22561
857.797	22653
857.931	22740
858.064	22497
858.197	22748
858.331	22504
858.464	22497
858.597	22413
858.731	22462
858.864	22424
858.997	22584
859.13	22512
859.263	22569
859.396	22603
859.529	22379
859.662	22390
859.795	22485
859.928	22436
860.061	22592
860.194	22675
860.327	22512
860.46	22489
860.592	22603
860.725	22706
860.858	22550
860.99	22538
861.123	22580
861.256	22538
861.388	22451
861.521	23284
861.653	22386
861.786	22337
861.918	22360
862.05	22436
862.183	22329
862.315	22443
862.447	22474
862.58	22474
862.712	22196
862.844	22295
862.976	22341
863.108	22280
863.24	22611
863.372	22162
863.504	22154
863.636	22337
863.768	22390
863.9	22124
864.032	22173
864.164	22059
864.296	22162
864.428	22314
864.559	22363
864.691	22287
864.823	22215
864.954	22295
865.086	22173
865.217	22143
865.349	22078
865.48	22150
865.612	22135
865.743	22154
865.875	22200
866.006	22090
866.137	22246
866.269	22131
866.4	22109
866.531	22055
866.662	22017
866.793	21953
866.924	22097
867.055	22025
867.186	22051
867.317	21998
867.448	21899
867.579	22093
867.71	21865
867.841	21960
867.972	21960
868.103	21934
868.233	21979
868.364	22010
868.495	22188
868.625	22211
868.756	22394
868.886	22329
869.017	22200
869.147	22409
869.278	22493
869.408	22318
869.539	22352
869.669	22375
869.799	22204
869.929	22402
870.06	22280
870.19	22554
870.32	22478
870.45	22535
870.58	22554
870.71	22801
870.84	22713
870.97	22603
871.1	22759
871.23	22911
871.36	22847
871.489	22839
871.619	22843
871.749	22847
871.879	22919
872.008	22949
872.138	22858
872.267	22896
872.397	22725
872.526	22687
872.656	22683
872.785	22729
872.915	22858
873.044	22869
873.173	22873
873.303	22896
873.432	23029
873.561	23067
873.69	22980
873.819	22835
873.948	22885
874.077	22953
874.206	22786
874.335	22755
874.464	23022
874.593	23105
874.722	23048
874.851	23071
874.979	23109
875.108	23102
875.237	23060
875.365	23025
875.494	22911
875.623	23117
875.751	23147
875.88	23159
876.008	23174
876.136	23269
876.265	23452
876.393	23577
876.521	23615
876.65	23589
876.778	23516
876.906	23501
877.034	23509
877.162	23493
877.29	23440
877.418	23398
877.546	23356
877.674	23406
877.802	23452
877.93	23383
878.058	23334
878.185	23356
878.313	23417
878.441	23486
878.568	23337
878.696	23322
878.824	23391
878.951	23417
879.079	23630
879.206	23707
879.333	23630
879.461	23455
879.588	23512
879.715	23596
879.842	23687
879.97	23486
880.097	23208
880.224	23273
880.351	23307
880.478	23254
880.605	23265
880.732	23296
880.859	23455
880.986	23212
881.112	23254
881.239	23083
881.366	22965
881.493	22877
881.619	22839
881.746	22911
881.872	22793
881.999	22881
882.125	22717
882.252	22824
882.378	22816
882.505	22919
882.631	22660
882.757	22493
882.883	22641
883.01	22497
883.136	22565
883.262	22462
883.388	22143
883.514	22489
883.64	22508
883.766	22379
883.892	22272
884.018	22295
884.143	22447
884.269	22538
884.395	22234
884.52	22101
884.646	22067
884.772	22048
884.897	21987
885.023	22128
885.148	22154
885.274	22128
885.399	22185
885.524	22128
885.65	22143
885.775	22040
885.9	22109
886.025	22226
886.15	22135
886.275	22017
886.4	22105
886.525	22013
886.65	22112
886.775	21987
886.9	22169
887.025	22379
887.149	22074
887.274	21975
887.399	21998
887.523	21960
887.648	21865
887.773	21751
887.897	22013
888.021	21937
888.146	21804
888.27	21911
888.395	21991
888.519	21991
888.643	21911
888.767	21884
888.891	21823
889.015	21580
889.139	21663
889.263	21644
889.387	21717
889.511	21766
889.635	21724
889.759	21629
889.883	21526
890.006	21747
890.13	21682
890.254	21549
890.377	21648
890.501	21401
890.624	21351
890.748	21500
890.871	21351
890.995	21203
891.118	21138
891.241	21192
891.364	21119
891.488	21268
891.611	21226
891.734	21207
891.857	21370
891.98	21256
892.103	21146
892.226	21188
892.349	21195
892.471	21070
892.594	21287
892.717	21131
892.839	21192
892.962	21176
893.085	21283
893.207	21089
893.33	20925
893.452	21039
893.575	21096
893.697	21032
893.819	21287
893.941	21268
894.064	21154
894.186	21047
894.308	20952
894.43	21058
894.552	21310
894.674	21070
894.796	20941
894.918	21123
895.04	21009
895.161	21070
895.283	21138
895.405	21100
895.526	20979
895.648	20990
895.769	21116
895.891	21047
896.012	21192
896.134	21203
896.255	21020
896.376	20967
896.498	20990
896.619	21146
896.74	21157
896.861	21066
896.982	21488
897.103	21420
897.224	21363
897.345	21325
897.466	21287
897.587	21355
897.708	21279
897.828	21431
897.949	21142
898.07	21138
898.19	21146
898.311	21344
898.431	21249
898.552	21252
898.672	21363
898.792	21332
898.913	21214
899.033	21188
899.153	20971
899.273	21058
899.393	21081
899.513	20948
899.633	20971
899.753	21104
899.873	20967
899.993	20956
900.113	20956
900.232	21051
900.352	20948
900.472	20853
900.591	20762
900.711	20758
900.83	20735
900.95	20891
901.069	20914
901.189	20587
901.308	20385
901.427	20336
901.546	20244
901.665	20286
901.784	20377
901.904	20145
902.023	20153
902.141	19936
902.26	19788
902.379	19959
902.498	19818
902.617	19738
902.735	19909
902.854	19761
902.973	19689
903.091	19464
903.21	19544
903.328	19320
903.446	19499
903.565	19320
903.683	19354
903.801	19259
903.919	19251
904.038	19304
904.156	19095
904.274	19084
904.392	19042
904.51	19019
904.627	19008
904.745	19084
904.863	19107
904.981	18913
905.098	18787
905.216	18730
905.334	18741
905.451	18837
905.569	18642
905.686	18642
905.803	18741
905.921	18544
906.038	18486
906.155	18585
906.272	18422
906.389	18464
906.506	18235
906.623	18365
906.74	18270
906.857	18106
906.974	18186
907.091	18330
907.208	18372
907.324	18194
907.441	18095
907.557	18045
907.674	17912
907.79	17950
907.907	17992
908.023	17882
908.139	17961
908.256	17946
908.372	17798
908.488	17920
908.604	17630
908.72	17680
908.836	17592
908.952	17748
909.068	17748
909.184	17783
909.3	17714
909.415	17729
909.531	17672
909.647	17364
909.762	17425
909.878	17417
909.993	17455
910.108	17307
910.224	17250
910.339	17322
910.454	17246
910.57	17102
910.685	17109
910.8	17395
910.915	17288
911.03	17185
911.145	17071
911.259	16900
911.374	17029
911.489	16831
911.604	16793
911.718	16675
911.833	16774
911.947	16550
912.062	16611
912.176	16725
912.291	16771
912.405	16634
912.519	16949
912.633	16953
912.748	16759
912.862	16630
912.976	16478
913.09	16428
913.204	16386
913.318	16531
913.431	16508
913.545	16649
913.659	16596
913.772	16478
913.886	16295
914	16204
914.113	16428
914.226	16413
914.34	16371
914.453	16265
914.566	16379
914.68	16139
914.793	16116
914.906	15956
915.019	15819
915.132	15816
915.245	15781
915.358	15854
915.47	15861
915.583	15838
915.696	15861
915.809	15922
915.921	15903
916.034	15918
916.146	15770
916.259	15766
916.371	15835
916.483	15808
916.595	15759
916.708	15774
916.82	15675
916.932	15641
917.044	15564
917.156	15614
917.268	15557
917.38	15557
917.491	15450
917.603	15584
917.715	15648
917.826	15580
917.938	15462
918.049	15367
918.161	15374
918.272	15488
918.384	15561
918.495	15401
918.606	15116
918.717	15169
918.828	15279
918.939	15325
919.05	15161
919.161	15157
919.272	15043
919.383	15100
919.494	15306
919.604	15359
919.715	15218
919.826	15142
919.936	15093
920.047	15237
920.157	15195
920.267	15340
920.378	15226
920.488	15188
920.598	15355
920.708	15408
920.818	15344
920.928	15306
921.038	15454
921.148	15424
921.258	15161
921.368	15154
921.477	14956
921.587	14918
921.697	14815
921.806	14872
921.916	14773
922.025	14629
922.134	14625
922.244	14495
922.353	14549
922.462	14442
922.571	14343
922.68	14183
922.789	14221
922.898	14180
923.007	14142
923.116	14210
923.224	14111
923.333	14077
923.442	14050
923.55	14008
923.659	14027
923.767	14035
923.876	13921
923.984	13928
924.092	13921
924.201	14035
924.309	13951
924.417	13932
924.525	13788
924.633	13803
924.741	14526
924.849	13651
924.956	13788
925.064	13616
925.172	13514
925.279	13632
925.387	13613
925.494	13502
925.602	13647
925.709	13552
925.816	13483
925.924	13529
926.031	13594
926.138	13601
926.245	13643
926.352	13415
926.459	13578
926.566	13563
926.673	13369
926.779	13331
926.886	13240
926.993	13122
927.099	13065
927.206	12985
927.312	13027
927.419	13084
927.525	13080
927.631	13076
927.737	12897
927.843	13065
927.95	12878
928.056	12943
928.162	12905
928.267	12962
928.373	13537
928.479	12970
928.585	12768
928.69	12920
928.796	12798
928.901	12738
929.007	12700
929.112	12707
929.218	12677
929.323	12654
929.428	12673
929.533	12783
929.638	12475
929.743	12574
929.848	12578
929.953	12658
930.058	12456
930.163	12323
930.267	12361
930.372	12426
930.477	12213
930.581	12490
930.685	12365
930.79	12235
930.894	12205
930.998	12136
931.103	12281
931.207	11980
931.311	11866
931.415	11718
931.519	11520
931.623	11611
