Data from test_V78500241_2355.txt Node
Date: Fri Mar 25 15:58:06 CST 2022
User: usil
Spectrometer: V785-0024
Trigger mode: 0
Integration Time (sec): 4.000000E-1
Scans to average: 1
Nonlinearity correction enabled: false
Boxcar width: 0
Storing dark spectrum: false
XAxis mode: Wavelengths
Number of Pixels in Spectrum: 1024
>>>>>Begin Spectral Data<<<<<
801.071	28896
801.214	28946
801.356	28630
801.499	28599
801.641	28375
801.783	28413
801.926	28538
802.068	28508
802.211	28455
802.353	28474
802.496	28284
802.638	28166
802.78	28120
802.923	28143
803.065	28135
803.208	28101
803.35	28169
803.492	28268
803.635	28284
803.777	28314
803.919	28284
804.061	28778
804.204	28474
804.346	28413
804.488	28371
804.63	28424
804.773	28284
804.915	28561
805.057	28615
805.199	28478
805.341	28519
805.483	28580
805.626	28603
805.768	28379
805.91	28554
806.052	28611
806.194	28550
806.336	28831
806.478	28637
806.62	28611
806.762	28854
806.904	28888
807.046	29231
807.188	28968
807.33	29132
807.472	29200
807.614	29048
807.756	29037
807.898	28942
808.04	28858
808.182	28961
808.324	28885
808.465	28995
808.607	29086
808.749	29200
808.891	29452
809.033	29433
809.174	29269
809.316	29318
809.458	29231
809.6	29197
809.741	29372
809.883	29395
810.025	29528
810.166	29551
810.308	29570
810.45	29615
810.591	29372
810.733	29326
810.875	29223
811.016	29117
811.158	29379
811.299	29398
811.441	29326
811.582	29501
811.724	29280
811.865	29292
812.007	29364
812.148	29326
812.29	29337
812.431	29486
812.573	29623
812.714	29733
812.855	29809
812.997	29821
813.138	30114
813.279	30049
813.421	29805
813.562	29680
813.703	29604
813.845	29516
813.986	29185
814.127	29178
814.268	28888
814.41	29010
814.551	29056
814.692	29041
814.833	28850
814.974	28908
815.115	28999
815.256	28938
815.397	28896
815.539	28961
815.68	28850
815.821	28801
815.962	28790
816.103	28835
816.244	28786
816.385	28717
816.526	28569
816.666	28466
816.807	28367
816.948	28401
817.089	28329
817.23	28322
817.371	28211
817.512	28261
817.653	28265
817.793	28360
817.934	28409
818.075	28261
818.216	28303
818.356	28287
818.497	28143
818.638	27979
818.778	28078
818.919	28166
819.06	28261
819.2	28287
819.341	28485
819.481	28382
819.622	28459
819.762	28653
819.903	28607
820.043	28516
820.184	28519
820.324	28443
820.465	28573
820.605	28466
820.746	28542
820.886	28421
821.026	28379
821.167	28424
821.307	28443
821.447	28348
821.588	28173
821.728	28029
821.868	28116
822.008	27838
822.149	27755
822.289	27857
822.429	27523
822.569	27519
822.709	27534
822.849	27561
822.99	27302
823.13	27268
823.27	27348
823.41	27188
823.55	27123
823.69	27081
823.83	27051
823.97	27131
824.11	27085
824.25	26895
824.389	26933
824.529	26956
824.669	26956
824.809	27108
824.949	26952
825.089	26979
825.228	27017
825.368	26804
825.508	26895
825.648	26834
825.787	26994
825.927	26960
826.067	26754
826.206	26891
826.346	26921
826.485	26918
826.625	26777
826.765	26956
826.904	26857
827.044	26564
827.183	26670
827.323	26545
827.462	26552
827.601	26629
827.741	26621
827.88	26689
828.02	26606
828.159	26788
828.298	26507
828.437	26613
828.577	26621
828.716	26575
828.855	26530
828.994	26206
829.134	26339
829.273	26328
829.412	26161
829.551	26210
829.69	26271
829.829	26396
829.968	26317
830.107	26298
830.246	26176
830.385	26206
830.524	26142
830.663	26096
830.802	26100
830.941	25776
831.08	25814
831.219	25966
831.357	25932
831.496	26069
831.635	25868
831.774	25837
831.913	25868
832.051	25696
832.19	25742
832.329	25655
832.467	25453
832.606	25544
832.744	25445
832.883	25495
833.022	25441
833.16	25674
833.299	25651
833.437	25567
833.576	25689
833.714	25746
833.852	25605
833.991	25799
834.129	25605
834.267	25647
834.406	25544
834.544	25605
834.682	25670
834.821	25655
834.959	25750
835.097	25445
835.235	25609
835.373	25578
835.511	25518
835.65	25472
835.788	25388
835.926	25373
836.064	25164
836.202	25289
836.34	25502
836.478	25499
836.615	25320
836.753	25403
836.891	25506
837.029	25525
837.167	25339
837.305	25316
837.443	25179
837.58	25221
837.718	25407
837.856	25289
837.993	25217
838.131	25308
838.269	25031
838.406	25088
838.544	24989
838.681	24935
838.819	24890
838.956	24726
839.094	24776
839.231	24703
839.369	24882
839.506	25168
839.643	24928
839.781	24684
839.918	24707
840.055	24646
840.193	24597
840.33	24646
840.467	24570
840.604	24650
840.742	24856
840.879	24654
841.016	24719
841.153	24467
841.29	24703
841.427	24570
841.564	24661
841.701	24566
841.838	24509
841.975	24578
842.112	24479
842.249	24365
842.385	24334
842.522	24639
842.659	24563
842.796	24239
842.933	24338
843.069	24296
843.206	24311
843.343	24365
843.479	24270
843.616	24304
843.752	24213
843.889	24068
844.025	24285
844.162	24015
844.298	24247
844.435	24114
844.571	23980
844.708	24213
844.844	24281
844.98	24330
845.117	24232
845.253	24057
845.389	23904
845.525	24011
845.661	24026
845.798	23874
845.934	23935
846.07	23893
846.206	23977
846.342	23824
846.478	23809
846.614	23764
846.75	23592
846.886	23581
847.022	23551
847.158	23646
847.294	23649
847.429	23634
847.565	23512
847.701	23752
847.837	23280
847.972	23341
848.108	23406
848.244	23349
848.379	23341
848.515	23212
848.65	23239
848.786	23197
848.921	23071
849.057	23311
849.192	23353
849.328	23258
849.463	23197
849.598	23155
849.734	23018
849.869	22987
850.004	23067
850.14	22847
850.275	22965
850.41	22744
850.545	22900
850.68	22900
850.815	22991
850.95	23006
851.085	23140
851.22	22987
851.355	22862
851.49	22942
851.625	22965
851.76	22900
851.895	22953
852.03	22793
852.165	23048
852.299	22961
852.434	22953
852.569	22946
852.703	22953
852.838	22953
852.973	23098
853.107	23052
853.242	22831
853.376	22843
853.511	22599
853.645	22831
853.78	22873
853.914	22744
854.048	22668
854.183	22588
854.317	22854
854.451	23029
854.585	22660
854.72	22828
854.854	22706
854.988	22615
855.122	22862
855.256	22694
855.39	22752
855.524	22809
855.658	22797
855.792	22755
855.926	22656
856.06	22889
856.194	22957
856.327	22736
856.461	22759
856.595	22694
856.729	22713
856.862	22809
856.996	22782
857.13	22873
857.263	22930
857.397	22755
857.53	22687
857.664	22801
857.797	22824
857.931	22934
858.064	22843
858.197	22809
858.331	22755
858.464	22641
858.597	22710
858.731	22713
858.864	22763
858.997	22645
859.13	22866
859.263	22847
859.396	22908
859.529	22755
859.662	22717
859.795	22816
859.928	22793
860.061	22889
860.194	22934
860.327	22778
860.46	22672
860.592	22930
860.725	22862
860.858	22968
860.99	22733
861.123	22573
861.256	22782
861.388	22767
861.521	23402
861.653	22691
861.786	22557
861.918	22649
862.05	22618
862.183	22713
862.315	22611
862.447	22740
862.58	22656
862.712	22508
862.844	22402
862.976	22584
863.108	22519
863.24	22968
863.372	22462
863.504	22508
863.636	22436
863.768	22500
863.9	22356
864.032	22451
864.164	22428
864.296	22527
864.428	22561
864.559	22656
864.691	22538
864.823	22443
864.954	22344
865.086	22569
865.217	22356
865.349	22306
865.48	22246
865.612	22242
865.743	22523
865.875	22417
866.006	22204
866.137	22329
866.269	22268
866.4	22276
866.531	22284
866.662	22188
866.793	22337
866.924	22253
867.055	22314
867.186	22188
867.317	22097
867.448	22097
867.579	22356
867.71	22363
867.841	22207
867.972	22238
868.103	22154
868.233	22219
868.364	22344
868.495	22375
868.625	22489
868.756	22535
868.886	22561
869.017	22493
869.147	22596
869.278	22519
869.408	22565
869.539	22622
869.669	22580
869.799	22478
869.929	22580
870.06	22615
870.19	22774
870.32	22782
870.45	22854
870.58	22904
870.71	23029
870.84	23064
870.97	22850
871.1	22847
871.23	23025
871.36	23052
871.489	22984
871.619	22984
871.749	23067
871.879	23064
872.008	23254
872.138	23025
872.267	23109
872.397	23105
872.526	22991
872.656	22896
872.785	22949
872.915	23193
873.044	23162
873.173	23044
873.303	23075
873.432	23288
873.561	23315
873.69	23181
873.819	23143
873.948	23311
874.077	23124
874.206	23204
874.335	23124
874.464	23231
874.593	23334
874.722	23296
874.851	23387
874.979	23318
875.108	23280
875.237	23273
875.365	23296
875.494	23204
875.623	23356
875.751	23258
875.88	23345
876.008	23318
876.136	23417
876.265	23657
876.393	23840
876.521	23657
876.65	23843
876.778	23714
876.906	23608
877.034	23699
877.162	23737
877.29	23509
877.418	23649
877.546	23703
877.674	23646
877.802	23767
877.93	23733
878.058	23672
878.185	23330
878.313	23570
878.441	23490
878.568	23471
878.696	23577
878.824	23687
878.951	23710
879.079	23916
879.206	23904
879.333	23733
879.461	23722
879.588	23821
879.715	23847
879.842	23813
879.97	23729
880.097	23505
880.224	23444
880.351	23531
880.478	23551
880.605	23490
880.732	23482
880.859	23668
880.986	23463
881.112	23577
881.239	23292
881.366	23181
881.493	23079
881.619	23003
881.746	22987
881.872	22999
881.999	22942
882.125	22976
882.252	23079
882.378	22942
882.505	23033
882.631	22873
882.757	22748
882.883	22778
883.01	22759
883.136	22679
883.262	22531
883.388	22618
883.514	22786
883.64	22820
883.766	22599
883.892	22417
884.018	22519
884.143	22668
884.269	22771
884.395	22421
884.52	22196
884.646	22402
884.772	22234
884.897	22329
885.023	22382
885.148	22443
885.274	22470
885.399	22417
885.524	22398
885.65	22432
885.775	22299
885.9	22344
886.025	22379
886.15	22424
886.275	22287
886.4	22226
886.525	22268
886.65	22268
886.775	22253
886.9	22246
887.025	22443
887.149	22318
887.274	22116
887.399	22158
887.523	22105
887.648	21941
887.773	21953
887.897	22082
888.021	22143
888.146	22074
888.27	22223
888.395	22185
888.519	22040
888.643	22036
888.767	22093
888.891	21922
889.015	21926
889.139	21861
889.263	21953
889.387	21842
889.511	22090
889.635	21964
889.759	21831
889.883	21899
890.006	21797
890.13	22032
890.254	21717
890.377	21816
890.501	21629
890.624	21572
890.748	21641
890.871	21511
890.995	21340
891.118	21420
891.241	21488
891.364	21469
891.488	21663
891.611	21351
891.734	21416
891.857	21443
891.98	21454
892.103	21439
892.226	21332
892.349	21317
892.471	21233
892.594	21424
892.717	21359
892.839	21188
892.962	21272
893.085	21340
893.207	21203
893.33	21032
893.452	21188
893.575	21389
893.697	21355
893.819	21317
893.941	21477
894.064	21416
894.186	21241
894.308	21051
894.43	21310
894.552	21416
894.674	21473
894.796	21291
894.918	21203
895.04	21192
895.161	21332
895.283	21439
895.405	21165
895.526	21195
895.648	21173
895.769	21351
895.891	21176
896.012	21336
896.134	21370
896.255	21340
896.376	21192
896.498	21294
896.619	21378
896.74	21264
896.861	21386
896.982	21641
897.103	21778
897.224	21545
897.345	21469
897.466	21408
897.587	21473
897.708	21564
897.828	21485
897.949	21405
898.07	21329
898.19	21367
898.311	21671
898.431	21405
898.552	21614
898.672	21519
898.792	21542
898.913	21511
899.033	21393
899.153	21275
899.273	21157
899.393	21218
899.513	21249
899.633	21119
899.753	21298
899.873	21100
899.993	21192
900.113	21233
900.232	21119
900.352	21104
900.472	20952
900.591	20918
900.711	20864
900.83	20773
900.95	21070
901.069	21032
901.189	20857
901.308	20602
901.427	20396
901.546	20571
901.665	20556
901.784	20541
901.904	20446
902.023	20263
902.141	20020
902.26	20065
902.379	20161
902.498	20043
902.617	19989
902.735	20054
902.854	19928
902.973	19967
903.091	19719
903.21	19658
903.328	19719
903.446	19693
903.565	19491
903.683	19472
903.801	19369
903.919	19438
904.038	19514
904.156	19327
904.274	19240
904.392	19213
904.51	19202
904.627	19297
904.745	19232
904.863	19324
904.981	18989
905.098	18875
905.216	18814
905.334	19008
905.451	19027
905.569	18829
905.686	18901
905.803	18875
905.921	18734
906.038	18817
906.155	18665
906.272	18642
906.389	18646
906.506	18551
906.623	18365
906.74	18532
906.857	18365
906.974	18296
907.091	18483
907.208	18525
907.324	18536
907.441	18365
907.557	18205
907.674	18076
907.79	18076
907.907	17958
908.023	18201
908.139	18030
908.256	17992
908.372	18087
908.488	17999
908.604	17817
908.72	17851
908.836	17897
908.952	17882
909.068	17783
909.184	17908
909.3	17805
909.415	17786
909.531	17771
909.647	17657
909.762	17528
909.878	17551
909.993	17505
910.108	17554
910.224	17490
910.339	17665
910.454	17330
910.57	17455
910.685	17299
910.8	17566
910.915	17395
911.03	17341
911.145	17185
911.259	17052
911.374	17048
911.489	17037
911.604	16938
911.718	16866
911.833	16919
911.947	16801
912.062	16752
912.176	16866
912.291	16961
912.405	16946
912.519	17010
912.633	17079
912.748	16923
912.862	16908
912.976	16592
913.09	16607
913.204	16634
913.318	16736
913.431	16641
913.545	16759
913.659	16790
913.772	16656
913.886	16596
914	16489
914.113	16459
914.226	16538
914.34	16569
914.453	16352
914.566	16500
914.68	16424
914.793	16306
914.906	16154
915.019	16021
915.132	15941
915.245	16017
915.358	16036
915.47	16120
915.583	15964
915.696	15972
915.809	16249
915.921	16071
916.034	15979
916.146	15869
916.259	15888
916.371	16021
916.483	15983
916.595	15778
916.708	15831
916.82	15793
916.932	15770
917.044	15823
917.156	15747
917.268	15549
917.38	15656
917.491	15679
917.603	15637
917.715	15747
917.826	15732
917.938	15485
918.049	15488
918.161	15622
918.272	15717
918.384	15679
918.495	15584
918.606	15454
918.717	15408
918.828	15458
918.939	15405
919.05	15306
919.161	15386
919.272	15195
919.383	15332
919.494	15382
919.604	15625
919.715	15389
919.826	15230
919.936	15302
920.047	15443
920.157	15382
920.267	15511
920.378	15306
920.488	15230
920.598	15519
920.708	15595
920.818	15466
920.928	15420
921.038	15625
921.148	15485
921.258	15249
921.368	15241
921.477	15100
921.587	15100
921.697	14925
921.806	15001
921.916	14883
922.025	14758
922.134	14678
922.244	14594
922.353	14754
922.462	14545
922.571	14575
922.68	14259
922.789	14301
922.898	14427
923.007	14343
923.116	14252
923.224	14256
923.333	14240
923.442	14237
923.55	14092
923.659	14130
923.767	14138
923.876	14103
923.984	14134
924.092	14039
924.201	14069
924.309	14016
924.417	14031
924.525	13947
924.633	13909
924.741	14906
924.849	13750
924.956	13906
925.064	13715
925.172	13636
925.279	13723
925.387	13670
925.494	13655
925.602	13887
925.709	13734
925.816	13590
925.924	13616
926.031	13643
926.138	13491
926.245	13563
926.352	13468
926.459	13609
926.566	13605
926.673	13480
926.779	13445
926.886	13460
926.993	13308
927.099	13152
927.206	13137
927.312	13137
927.419	13396
927.525	13141
927.631	13312
927.737	13110
927.843	13042
927.95	12939
928.056	13023
928.162	13126
928.267	13042
928.373	13696
928.479	13088
928.585	12844
928.69	13015
928.796	12996
928.901	12905
929.007	12753
929.112	12890
929.218	12856
929.323	12722
929.428	12730
929.533	12920
929.638	12627
929.743	12677
929.848	12677
929.953	12688
930.058	12570
930.163	12418
930.267	12410
930.372	12555
930.477	12334
930.581	12616
930.685	12525
930.79	12258
930.894	12296
930.998	12281
931.103	12494
931.207	12019
931.311	11946
931.415	11832
931.519	11653
931.623	11653
