Data from test_V78500241_31.txt Node
Date: Fri Mar 25 15:42:01 CST 2022
User: usil
Spectrometer: V785-0024
Trigger mode: 0
Integration Time (sec): 4.000000E-1
Scans to average: 1
Nonlinearity correction enabled: false
Boxcar width: 0
Storing dark spectrum: false
XAxis mode: Wavelengths
Number of Pixels in Spectrum: 1024
>>>>>Begin Spectral Data<<<<<
801.071	27523
801.214	27466
801.356	27119
801.499	27017
801.641	26944
801.783	26762
801.926	26902
802.068	26800
802.211	26655
802.353	26701
802.496	26530
802.638	26393
802.78	26412
802.923	26252
803.065	26415
803.208	26248
803.35	26469
803.492	26473
803.635	26461
803.777	26438
803.919	26499
804.061	26937
804.204	26450
804.346	26343
804.488	26206
804.63	26229
804.773	26233
804.915	26286
805.057	26377
805.199	26336
805.341	26408
805.483	26473
805.626	26419
805.768	26351
805.91	26389
806.052	26400
806.194	26366
806.336	26613
806.478	26583
806.62	26366
806.762	26530
806.904	26674
807.046	26918
807.188	26758
807.33	26682
807.472	26899
807.614	26720
807.756	26769
807.898	26598
808.04	26617
808.182	26613
808.324	26511
808.465	26507
808.607	26674
808.749	26754
808.891	26918
809.033	27024
809.174	26963
809.316	26743
809.458	26838
809.6	26849
809.741	26914
809.883	26891
810.025	27116
810.166	27036
810.308	27112
810.45	26937
810.591	27028
810.733	26864
810.875	26773
811.016	26670
811.158	26811
811.299	26815
811.441	26857
811.582	26823
811.724	26712
811.865	26651
812.007	26739
812.148	26838
812.29	26769
812.431	26990
812.573	26998
812.714	27150
812.855	27199
812.997	27241
813.138	27454
813.279	27207
813.421	27317
813.562	26986
813.703	27058
813.845	26762
813.986	26442
814.127	26351
814.268	26370
814.41	26495
814.551	26214
814.692	26343
814.833	26176
814.974	26309
815.115	26172
815.256	26176
815.397	26176
815.539	26016
815.68	25955
815.821	25784
815.962	26039
816.103	25871
816.244	25765
816.385	25620
816.526	25635
816.666	25445
816.807	25419
816.948	25434
817.089	25597
817.23	25438
817.371	25468
817.512	25312
817.653	25213
817.793	25194
817.934	25304
818.075	25324
818.216	25282
818.356	25312
818.497	25053
818.638	24920
818.778	24981
818.919	25038
819.06	24897
819.2	25118
819.341	25175
819.481	25171
819.622	25316
819.762	25491
819.903	25476
820.043	25240
820.184	25263
820.324	25228
820.465	25339
820.605	25358
820.746	25263
820.886	25103
821.026	25179
821.167	25126
821.307	25122
821.447	25103
821.588	25042
821.728	24954
821.868	24715
822.008	24688
822.149	24650
822.289	24593
822.429	24357
822.569	24220
822.709	24178
822.849	24034
822.99	23980
823.13	23999
823.27	23980
823.41	23920
823.55	23729
823.69	23824
823.83	23824
823.97	23767
824.11	23687
824.25	23596
824.389	23535
824.529	23627
824.669	23665
824.809	23695
824.949	23657
825.089	23661
825.228	23497
825.368	23311
825.508	23387
825.648	23448
825.787	23391
825.927	23341
826.067	23227
826.206	23368
826.346	23273
826.485	23349
826.625	23322
826.765	23463
826.904	23410
827.044	23124
827.183	23056
827.323	23041
827.462	22927
827.601	23006
827.741	22900
827.88	22976
828.02	22828
828.159	22999
828.298	22995
828.437	23025
828.577	22873
828.716	23060
828.855	22938
828.994	22782
829.134	22615
829.273	22736
829.412	22740
829.551	22554
829.69	22630
829.829	22668
829.968	22725
830.107	22717
830.246	22687
830.385	22607
830.524	22519
830.663	22405
830.802	22337
830.941	22177
831.08	22086
831.219	22291
831.357	22306
831.496	22360
831.635	22070
831.774	22120
831.913	22010
832.051	21922
832.19	21945
832.329	22055
832.467	21797
832.606	21759
832.744	21838
832.883	21941
833.022	21762
833.16	21945
833.299	21888
833.437	21823
833.576	21899
833.714	21759
833.852	21823
833.991	21831
834.129	21880
834.267	21926
834.406	21816
834.544	21831
834.682	21835
834.821	21720
834.959	21838
835.097	21701
835.235	21956
835.373	21759
835.511	21694
835.65	21743
835.788	21671
835.926	21481
836.064	21397
836.202	21424
836.34	21755
836.478	21770
836.615	21694
836.753	21694
836.891	21751
837.029	21614
837.167	21663
837.305	21568
837.443	21549
837.58	21488
837.718	21534
837.856	21519
837.993	21481
838.131	21424
838.269	21344
838.406	21382
838.544	21287
838.681	21211
838.819	21104
838.956	21032
839.094	20914
839.231	20952
839.369	21051
839.506	21351
839.643	21188
839.781	20971
839.918	20887
840.055	20906
840.193	20899
840.33	20758
840.467	20891
840.604	20819
840.742	21161
840.879	20842
841.016	20746
841.153	20682
841.29	20895
841.427	20758
841.564	20883
841.701	20834
841.838	20792
841.975	20693
842.112	20724
842.249	20644
842.385	20598
842.522	20830
842.659	20617
842.796	20514
842.933	20594
843.069	20442
843.206	20446
843.343	20541
843.479	20511
843.616	20556
843.752	20305
843.889	20278
844.025	20317
844.162	20210
844.298	20271
844.435	20237
844.571	20263
844.708	20336
844.844	20278
844.98	20396
845.117	20362
845.253	20225
845.389	20176
845.525	20115
845.661	20126
845.798	19978
845.934	20020
846.07	20115
846.206	20054
846.342	20134
846.478	20027
846.614	19837
846.75	19700
846.886	19674
847.022	19864
847.158	19677
847.294	19689
847.429	19780
847.565	19715
847.701	19959
847.837	19403
847.972	19388
848.108	19578
848.244	19563
848.379	19358
848.515	19289
848.65	19362
848.786	19358
848.921	19362
849.057	19400
849.192	19327
849.328	19301
849.463	19217
849.598	19099
849.734	19221
849.869	19160
850.004	18962
850.14	19080
850.275	18966
850.41	18905
850.545	19000
850.68	18924
850.815	18947
850.95	18920
851.085	19187
851.22	19080
851.355	18989
851.49	18993
851.625	18920
851.76	18939
851.895	18863
852.03	18886
852.165	18928
852.299	19061
852.434	19004
852.569	18993
852.703	18989
852.838	19019
852.973	19164
853.107	18977
853.242	18817
853.376	18856
853.511	18707
853.645	18749
853.78	18935
853.914	18757
854.048	18779
854.183	18726
854.317	18795
854.451	19034
854.585	18749
854.72	18681
854.854	18810
854.988	18681
855.122	18791
855.256	18620
855.39	18703
855.524	18833
855.658	18768
855.792	18776
855.926	18802
856.06	18848
856.194	18844
856.327	18833
856.461	18700
856.595	18719
856.729	18692
856.862	18852
856.996	18886
857.13	18928
857.263	18897
857.397	18833
857.53	18715
857.664	18890
857.797	18970
857.931	18913
858.064	18738
858.197	18715
858.331	18669
858.464	18642
858.597	18646
858.731	18646
858.864	18719
858.997	18707
859.13	18730
859.263	18700
859.396	18783
859.529	18749
859.662	18722
859.795	18646
859.928	18696
860.061	18798
860.194	18844
860.327	18783
860.46	18639
860.592	18692
860.725	18791
860.858	18806
860.99	18753
861.123	18532
861.256	18604
861.388	18734
861.521	19240
861.653	18574
861.786	18460
861.918	18688
862.05	18722
862.183	18821
862.315	18905
862.447	18905
862.58	18696
862.712	18483
862.844	18479
862.976	18555
863.108	18525
863.24	18776
863.372	18171
863.504	18365
863.636	18422
863.768	18509
863.9	18403
864.032	18384
864.164	18330
864.296	18357
864.428	18437
864.559	18494
864.691	18582
864.823	18506
864.954	18323
865.086	18338
865.217	18319
865.349	18254
865.48	18262
865.612	18319
865.743	18448
865.875	18327
866.006	18273
866.137	18350
866.269	18346
866.4	18350
866.531	18357
866.662	18270
866.793	18254
866.924	18327
867.055	18357
867.186	18270
867.317	18308
867.448	18273
867.579	18235
867.71	18133
867.841	18133
867.972	18235
868.103	18155
868.233	18232
868.364	18319
868.495	18380
868.625	18513
868.756	18620
868.886	18399
869.017	18452
869.147	18582
869.278	18650
869.408	18448
869.539	18380
869.669	18566
869.799	18479
869.929	18661
870.06	18582
870.19	18692
870.32	18806
870.45	18882
870.58	18977
870.71	18989
870.84	19008
870.97	18802
871.1	18935
871.23	19027
871.36	19076
871.489	18932
871.619	18954
871.749	19046
871.879	19088
872.008	19179
872.138	19053
872.267	19152
872.397	18924
872.526	18939
872.656	18894
872.785	18909
872.915	18985
873.044	19156
873.173	19209
873.303	19148
873.432	19057
873.561	19297
873.69	19171
873.819	19183
873.948	19228
874.077	19152
874.206	19107
874.335	19023
874.464	19259
874.593	19365
874.722	19221
874.851	19422
874.979	19460
875.108	19510
875.237	19426
875.365	19373
875.494	19354
875.623	19480
875.751	19499
875.88	19510
876.008	19521
876.136	19715
876.265	19822
876.393	20027
876.521	20058
876.65	19871
876.778	19830
876.906	19761
877.034	19830
877.162	19776
877.29	19753
877.418	19799
877.546	19769
877.674	19860
877.802	19818
877.93	19814
878.058	19624
878.185	19609
878.313	19788
878.441	19833
878.568	19590
878.696	19734
878.824	19871
878.951	19951
879.079	19871
879.206	20001
879.333	19982
879.461	19875
879.588	19921
879.715	20027
879.842	20035
879.97	19818
880.097	19575
880.224	19586
880.351	19613
880.478	19632
880.605	19601
880.732	19613
880.859	19921
880.986	19666
881.112	19738
881.239	19480
881.366	19388
881.493	19289
881.619	19289
881.746	19251
881.872	19327
881.999	19232
882.125	19187
882.252	19232
882.378	19350
882.505	19282
882.631	19126
882.757	19160
882.883	19023
883.01	19122
883.136	19084
883.262	18871
883.388	18878
883.514	18947
883.64	19099
883.766	19072
883.892	18852
884.018	18954
884.143	19042
884.269	19042
884.395	18791
884.52	18627
884.646	18722
884.772	18513
884.897	18589
885.023	18612
885.148	18700
885.274	18932
885.399	18848
885.524	18563
885.65	18692
885.775	18654
885.9	18715
886.025	18764
886.15	18650
886.275	18688
886.4	18517
886.525	18536
886.65	18536
886.775	18506
886.9	18684
887.025	18867
887.149	18661
887.274	18521
887.399	18399
887.523	18426
887.648	18308
887.773	18422
887.897	18456
888.021	18593
888.146	18281
888.27	18517
888.395	18582
888.519	18433
888.643	18467
888.767	18486
888.891	18338
889.015	18258
889.139	18315
889.263	18254
889.387	18350
889.511	18391
889.635	18327
889.759	18216
889.883	18197
890.006	18319
890.13	18292
890.254	18117
890.377	18163
890.501	17950
890.624	17954
890.748	18015
890.871	17920
890.995	17790
891.118	17737
891.241	17920
891.364	17855
891.488	17954
891.611	17866
891.734	17840
891.857	17961
891.98	17939
892.103	17954
892.226	17920
892.349	17828
892.471	17729
892.594	17866
892.717	17855
892.839	17889
892.962	17760
893.085	17870
893.207	17745
893.33	17710
893.452	17817
893.575	17999
893.697	17866
893.819	17999
893.941	18007
894.064	18019
894.186	17885
894.308	17779
894.43	17859
894.552	17942
894.674	18026
894.796	17775
894.918	17939
895.04	17885
895.161	17954
895.283	17935
895.405	17817
895.526	17931
895.648	17901
895.769	17912
895.891	17843
896.012	17977
896.134	17973
896.255	17980
896.376	17920
896.498	17828
896.619	18026
896.74	17977
896.861	17980
896.982	18346
897.103	18380
897.224	18228
897.345	18121
897.466	18205
897.587	18182
897.708	18258
897.828	18201
897.949	18125
898.07	18003
898.19	18125
898.311	18228
898.431	18174
898.552	18167
898.672	18235
898.792	18194
898.913	18216
899.033	18007
899.153	17950
899.273	17794
899.393	17939
899.513	17897
899.633	17901
899.753	18003
899.873	17775
899.993	17958
900.113	17863
900.232	17828
900.352	17843
900.472	17817
900.591	17733
900.711	17608
900.83	17771
900.95	17885
901.069	17855
901.189	17710
901.308	17467
901.427	17345
901.546	17387
901.665	17459
901.784	17372
901.904	17254
902.023	17025
902.141	16927
902.26	16915
902.379	17018
902.498	16896
902.617	16774
902.735	16965
902.854	16820
902.973	16786
903.091	16691
903.21	16535
903.328	16497
903.446	16481
903.565	16306
903.683	16363
903.801	16310
903.919	16413
904.038	16310
904.156	16188
904.274	16272
904.392	16211
904.51	16090
904.627	16211
904.745	16219
904.863	16181
904.981	15907
905.098	15819
905.216	15876
905.334	15812
905.451	15800
905.569	15869
905.686	15861
905.803	15770
905.921	15641
906.038	15629
906.155	15557
906.272	15511
906.389	15622
906.506	15287
906.623	15435
906.74	15374
906.857	15249
906.974	15367
907.091	15469
907.208	15450
907.324	15519
907.441	15275
907.557	15043
907.674	15017
907.79	14925
907.907	14982
908.023	15154
908.139	15062
908.256	15013
908.372	14979
908.488	14944
908.604	14906
908.72	14864
908.836	14788
908.952	14777
909.068	14876
909.184	14845
909.3	14735
909.415	14826
909.531	14731
909.647	14423
909.762	14461
909.878	14450
909.993	14457
910.108	14461
910.224	14530
910.339	14507
910.454	14362
910.57	14294
910.685	14233
910.8	14583
910.915	14442
911.03	14267
911.145	14172
911.259	14183
911.374	14252
911.489	14046
911.604	14001
911.718	13742
911.833	13856
911.947	13757
912.062	13757
912.176	13833
912.291	13795
912.405	13925
912.519	14020
912.633	14005
912.748	13849
912.862	13738
912.976	13643
913.09	13616
913.204	13567
913.318	13677
913.431	13822
913.545	13795
913.659	13750
913.772	13601
913.886	13544
914	13552
914.113	13674
914.226	13639
914.34	13582
914.453	13403
914.566	13605
914.68	13540
914.793	13415
914.906	13228
915.019	13107
915.132	13110
915.245	13133
915.358	13152
915.47	13236
915.583	13225
915.696	13263
915.809	13282
915.921	13350
916.034	13164
916.146	13080
916.259	13095
916.371	13209
916.483	13194
916.595	13019
916.708	13122
916.82	12993
916.932	12996
917.044	13072
917.156	13038
917.268	12985
917.38	12947
917.491	12844
917.603	12894
917.715	12894
917.826	13019
917.938	12924
918.049	12795
918.161	12939
918.272	12966
918.384	13004
918.495	12890
918.606	12802
918.717	12684
918.828	12669
918.939	12711
919.05	12639
919.161	12612
919.272	12429
919.383	12570
919.494	12795
919.604	12806
919.715	12684
919.826	12574
919.936	12688
920.047	12760
920.157	12662
920.267	12821
920.378	12677
920.488	12597
920.598	12859
920.708	12996
920.818	12768
920.928	12795
921.038	12981
921.148	12916
921.258	12566
921.368	12540
921.477	12414
921.587	12410
921.697	12285
921.806	12460
921.916	12296
922.025	12163
922.134	12095
922.244	12057
922.353	12167
922.462	12022
922.571	11885
922.68	11767
922.789	11710
922.898	11745
923.007	11665
923.116	11733
923.224	11691
923.333	11600
923.442	11573
923.55	11524
923.659	11608
923.767	11668
923.876	11547
923.984	11634
924.092	11417
924.201	11486
924.309	11566
924.417	11604
924.525	11467
924.633	11539
924.741	12407
924.849	11220
924.956	11433
925.064	11258
925.172	11159
925.279	11197
925.387	11341
925.494	11265
925.602	11372
925.709	11318
925.816	11227
925.924	11223
926.031	11239
926.138	11318
926.245	11292
926.352	11090
926.459	11242
926.566	11296
926.673	11185
926.779	10965
926.886	11090
926.993	10911
927.099	10953
927.206	10831
927.312	10862
927.419	10946
927.525	10805
927.631	10976
927.737	10782
927.843	10771
927.95	10714
928.056	10805
928.162	10744
928.267	10744
928.373	11440
928.479	10828
928.585	10607
928.69	10645
928.796	10729
928.901	10569
929.007	10462
929.112	10603
929.218	10611
929.323	10565
929.428	10512
929.533	10554
929.638	10443
929.743	10447
929.848	10489
929.953	10421
930.058	10440
930.163	10257
930.267	10253
930.372	10348
930.477	10143
930.581	10402
930.685	10265
930.79	10211
930.894	10143
930.998	10101
931.103	10280
931.207	9846
931.311	9785
931.415	9724
931.519	9469
931.623	9481
