Data from test_V78500241_1566.txt Node
Date: Fri Mar 25 15:52:38 CST 2022
User: usil
Spectrometer: V785-0024
Trigger mode: 0
Integration Time (sec): 4.000000E-1
Scans to average: 1
Nonlinearity correction enabled: false
Boxcar width: 0
Storing dark spectrum: false
XAxis mode: Wavelengths
Number of Pixels in Spectrum: 1024
>>>>>Begin Spectral Data<<<<<
801.071	28257
801.214	27930
801.356	28010
801.499	27633
801.641	27797
801.783	27637
801.926	27587
802.068	27618
802.211	27530
802.353	27606
802.496	27325
802.638	27249
802.78	27237
802.923	27188
803.065	27325
803.208	27154
803.35	27192
803.492	27492
803.635	27545
803.777	27211
803.919	27526
804.061	27739
804.204	27549
804.346	27507
804.488	27348
804.63	27408
804.773	27374
804.915	27431
805.057	27553
805.199	27336
805.341	27614
805.483	27701
805.626	27572
805.768	27530
805.91	27595
806.052	27751
806.194	27610
806.336	27819
806.478	27675
806.62	27732
806.762	27789
806.904	27850
807.046	28109
807.188	28006
807.33	28128
807.472	28192
807.614	27956
807.756	27964
807.898	28040
808.04	27907
808.182	27854
808.324	27751
808.465	28059
808.607	28147
808.749	28226
808.891	28417
809.033	28497
809.174	28405
809.316	28192
809.458	28223
809.6	28226
809.741	28253
809.883	28466
810.025	28668
810.166	28485
810.308	28637
810.45	28588
810.591	28405
810.733	28230
810.875	28337
811.016	28162
811.158	28181
811.299	28325
811.441	28523
811.582	28394
811.724	28295
811.865	28272
812.007	28261
812.148	28215
812.29	28390
812.431	28367
812.573	28459
812.714	28611
812.855	28744
812.997	28885
813.138	28991
813.279	28854
813.421	28885
813.562	28702
813.703	28774
813.845	28573
813.986	28268
814.127	28105
814.268	27918
814.41	28120
814.551	27998
814.692	28048
814.833	27895
814.974	27873
815.115	27998
815.256	27846
815.397	27907
815.539	27914
815.68	27739
815.821	27808
815.962	27842
816.103	27785
816.244	27709
816.385	27549
816.526	27652
816.666	27150
816.807	27260
816.948	27344
817.089	27252
817.23	27180
817.371	27279
817.512	27188
817.653	27252
817.793	27245
817.934	27313
818.075	27195
818.216	27199
818.356	27340
818.497	27146
818.638	27157
818.778	27039
818.919	26906
819.06	27032
819.2	27093
819.341	27298
819.481	27306
819.622	27408
819.762	27526
819.903	27458
820.043	27393
820.184	27397
820.324	27306
820.465	27351
820.605	27374
820.746	27268
820.886	27287
821.026	27439
821.167	27427
821.307	27458
821.447	27351
821.588	27306
821.728	27123
821.868	26982
822.008	26762
822.149	26815
822.289	26781
822.429	26457
822.569	26484
822.709	26385
822.849	26343
822.99	26305
823.13	26149
823.27	26290
823.41	26001
823.55	26020
823.69	26130
823.83	25993
823.97	25970
824.11	25868
824.25	25830
824.389	25826
824.529	26020
824.669	25978
824.809	26073
824.949	25955
825.089	26069
825.228	25879
825.368	25807
825.508	25556
825.648	25776
825.787	25776
825.927	25769
826.067	25727
826.206	25799
826.346	25681
826.485	25757
826.625	25689
826.765	25879
826.904	25704
827.044	25601
827.183	25563
827.323	25476
827.462	25613
827.601	25499
827.741	25441
827.88	25559
828.02	25266
828.159	25381
828.298	25491
828.437	25624
828.577	25411
828.716	25575
828.855	25430
828.994	25118
829.134	25301
829.273	25175
829.412	25198
829.551	25232
829.69	25213
829.829	25209
829.968	25145
830.107	25270
830.246	25069
830.385	24962
830.524	24989
830.663	24970
830.802	24932
830.941	24798
831.08	24681
831.219	24863
831.357	24848
831.496	25027
831.635	24783
831.774	24726
831.913	24593
832.051	24589
832.19	24627
832.329	24616
832.467	24502
832.606	24369
832.744	24372
832.883	24330
833.022	24399
833.16	24251
833.299	24460
833.437	24555
833.576	24578
833.714	24517
833.852	24578
833.991	24521
834.129	24486
834.267	24627
834.406	24536
834.544	24490
834.682	24612
834.821	24437
834.959	24757
835.097	24467
835.235	24677
835.373	24498
835.511	24490
835.65	24384
835.788	24376
835.926	24235
836.064	24060
836.202	24121
836.34	24323
836.478	24460
836.615	24323
836.753	24308
836.891	24429
837.029	24372
837.167	24201
837.305	24213
837.443	24194
837.58	24167
837.718	24384
837.856	24091
837.993	24129
838.131	24133
838.269	24034
838.406	24041
838.544	23965
838.681	23771
838.819	23748
838.956	23760
839.094	23562
839.231	23714
839.369	23859
839.506	23874
839.643	23821
839.781	23741
839.918	23589
840.055	23528
840.193	23558
840.33	23391
840.467	23589
840.604	23554
840.742	23836
840.879	23406
841.016	23611
841.153	23410
841.29	23505
841.427	23497
841.564	23608
841.701	23501
841.838	23410
841.975	23398
842.112	23581
842.249	23315
842.385	23372
842.522	23554
842.659	23402
842.796	23292
842.933	23353
843.069	23242
843.206	23284
843.343	23284
843.479	23254
843.616	23292
843.752	23086
843.889	23083
844.025	23170
844.162	23029
844.298	23193
844.435	23029
844.571	23060
844.708	23006
844.844	23296
844.98	23181
845.117	23254
845.253	22801
845.389	22953
845.525	22980
845.661	22850
845.798	22721
845.934	22972
846.07	22828
846.206	22862
846.342	22858
846.478	22748
846.614	22531
846.75	22557
846.886	22592
847.022	22683
847.158	22531
847.294	22611
847.429	22622
847.565	22675
847.701	22828
847.837	22177
847.972	22196
848.108	22306
848.244	22310
848.379	22006
848.515	22169
848.65	22074
848.786	22109
848.921	22166
849.057	22230
849.192	22154
849.328	22120
849.463	22200
849.598	21998
849.734	21964
849.869	22044
850.004	22017
850.14	21869
850.275	21903
850.41	21861
850.545	21850
850.68	21876
850.815	21774
850.95	21842
851.085	22086
851.22	22055
851.355	21857
851.49	21884
851.625	21922
851.76	21823
851.895	21766
852.03	21873
852.165	21949
852.299	21911
852.434	22059
852.569	22002
852.703	21762
852.838	21907
852.973	21972
853.107	21895
853.242	21888
853.376	21842
853.511	21492
853.645	21656
853.78	21812
853.914	21827
854.048	21667
854.183	21694
854.317	21713
854.451	21861
854.585	21720
854.72	21648
854.854	21743
854.988	21690
855.122	21728
855.256	21618
855.39	21667
855.524	21762
855.658	21698
855.792	21743
855.926	21709
856.06	21789
856.194	21808
856.327	21713
856.461	21671
856.595	21720
856.729	21603
856.862	21789
856.996	21732
857.13	21759
857.263	21861
857.397	21850
857.53	21698
857.664	21751
857.797	21816
857.931	21857
858.064	21812
858.197	21926
858.331	21603
858.464	21682
858.597	21557
858.731	21701
858.864	21633
858.997	21709
859.13	21671
859.263	21838
859.396	21724
859.529	21564
859.662	21610
859.795	21701
859.928	21728
860.061	21903
860.194	21888
860.327	21686
860.46	21686
860.592	21793
860.725	21785
860.858	21831
860.99	21720
861.123	21701
861.256	21789
861.388	21732
861.521	22265
861.653	21523
861.786	21336
861.918	21534
862.05	21580
862.183	21606
862.315	21679
862.447	21709
862.58	21774
862.712	21416
862.844	21386
862.976	21515
863.108	21485
863.24	21941
863.372	21359
863.504	21344
863.636	21492
863.768	21447
863.9	21473
864.032	21397
864.164	21443
864.296	21606
864.428	21485
864.559	21458
864.691	21481
864.823	21416
864.954	21355
865.086	21363
865.217	21332
865.349	21252
865.48	21283
865.612	21340
865.743	21363
865.875	21340
866.006	21317
866.137	21245
866.269	21332
866.4	21310
866.531	21214
866.662	21173
866.793	21275
866.924	21112
867.055	21184
867.186	21252
867.317	21154
867.448	21081
867.579	21249
867.71	21188
867.841	21169
867.972	21241
868.103	21279
868.233	21317
868.364	21272
868.495	21321
868.625	21507
868.756	21671
868.886	21447
869.017	21473
869.147	21603
869.278	21648
869.408	21504
869.539	21492
869.669	21625
869.799	21515
869.929	21576
870.06	21545
870.19	21709
870.32	21819
870.45	21774
870.58	21880
870.71	21949
870.84	21994
870.97	21880
871.1	21911
871.23	22078
871.36	22070
871.489	21876
871.619	21949
871.749	22074
871.879	22101
872.008	22109
872.138	22226
872.267	22147
872.397	21911
872.526	21903
872.656	21983
872.785	21903
872.915	22128
873.044	22082
873.173	22082
873.303	22147
873.432	22226
873.561	22192
873.69	22219
873.819	22101
873.948	22181
874.077	22010
874.206	22177
874.335	22158
874.464	22147
874.593	22249
874.722	22325
874.851	22447
874.979	22390
875.108	22455
875.237	22329
875.365	22249
875.494	22356
875.623	22390
875.751	22261
875.88	22318
876.008	22466
876.136	22485
876.265	22831
876.393	22801
876.521	22763
876.65	22797
876.778	22607
876.906	22634
877.034	22702
877.162	22569
877.29	22641
877.418	22653
877.546	22793
877.674	22645
877.802	22706
877.93	22744
878.058	22584
878.185	22637
878.313	22649
878.441	22687
878.568	22455
878.696	22584
878.824	22717
878.951	22763
879.079	22809
879.206	22877
879.333	22843
879.461	22713
879.588	22828
879.715	22995
879.842	22835
879.97	22748
880.097	22440
880.224	22409
880.351	22599
880.478	22428
880.605	22432
880.732	22561
880.859	22710
880.986	22489
881.112	22481
881.239	22390
881.366	22204
881.493	22234
881.619	22166
881.746	22021
881.872	22040
881.999	22029
882.125	21915
882.252	22067
882.378	22017
882.505	22086
882.631	21861
882.757	21736
882.883	21857
883.01	21675
883.136	21644
883.262	21629
883.388	21526
883.514	21850
883.64	21816
883.766	21637
883.892	21561
884.018	21454
884.143	21785
884.269	21785
884.395	21431
884.52	21310
884.646	21439
884.772	21329
884.897	21127
885.023	21298
885.148	21401
885.274	21534
885.399	21386
885.524	21310
885.65	21435
885.775	21424
885.9	21348
886.025	21450
886.15	21393
886.275	21393
886.4	21237
886.525	21302
886.65	21348
886.775	21428
886.9	21458
887.025	21477
887.149	21325
887.274	21188
887.399	21233
887.523	21222
887.648	21039
887.773	21009
887.897	21313
888.021	21138
888.146	21047
888.27	21203
888.395	21370
888.519	21287
888.643	21119
888.767	21192
888.891	21081
889.015	20963
889.139	20914
889.263	20880
889.387	20925
889.511	21275
889.635	21055
889.759	20971
889.883	21005
890.006	20887
890.13	20990
890.254	20868
890.377	20883
890.501	20667
890.624	20689
890.748	20659
890.871	20549
890.995	20552
891.118	20488
891.241	20526
891.364	20590
891.488	20705
891.611	20492
891.734	20636
891.857	20590
891.98	20431
892.103	20480
892.226	20579
892.349	20514
892.471	20313
892.594	20549
892.717	20389
892.839	20400
892.962	20503
893.085	20419
893.207	20492
893.33	20294
893.452	20362
893.575	20404
893.697	20332
893.819	20526
893.941	20659
894.064	20522
894.186	20446
894.308	20324
894.43	20442
894.552	20568
894.674	20522
894.796	20275
894.918	20358
895.04	20385
895.161	20484
895.283	20461
895.405	20355
895.526	20408
895.648	20339
895.769	20526
895.891	20374
896.012	20465
896.134	20267
896.255	20404
896.376	20324
896.498	20503
896.619	20385
896.74	20358
896.861	20381
896.982	20819
897.103	20838
897.224	20678
897.345	20602
897.466	20560
897.587	20613
897.708	20785
897.828	20716
897.949	20556
898.07	20476
898.19	20594
898.311	20693
898.431	20545
898.552	20648
898.672	20720
898.792	20590
898.913	20598
899.033	20507
899.153	20480
899.273	20366
899.393	20358
899.513	20381
899.633	20336
899.753	20450
899.873	20290
899.993	20404
900.113	20328
900.232	20400
900.352	20221
900.472	20267
900.591	20107
900.711	20115
900.83	20119
900.95	20153
901.069	20161
901.189	20016
901.308	19818
901.427	19719
901.546	19753
901.665	19833
901.784	19750
901.904	19510
902.023	19540
902.141	19381
902.26	19339
902.379	19388
902.498	19156
902.617	19187
902.735	19278
902.854	19247
902.973	19148
903.091	18886
903.21	18871
903.328	18939
903.446	18844
903.565	18711
903.683	18719
903.801	18658
903.919	18741
904.038	18574
904.156	18471
904.274	18502
904.392	18426
904.51	18479
904.627	18483
904.745	18582
904.863	18528
904.981	18224
905.098	18163
905.216	18106
905.334	18106
905.451	18266
905.569	17950
905.686	18087
905.803	18072
905.921	17931
906.038	17988
906.155	17916
906.272	17767
906.389	17824
906.506	17783
906.623	17668
906.74	17676
906.857	17406
906.974	17539
907.091	17729
907.208	17824
907.324	17623
907.441	17554
907.557	17490
907.674	17436
907.79	17398
907.907	17341
908.023	17444
908.139	17318
908.256	17345
908.372	17318
908.488	17277
908.604	17052
908.72	17006
908.836	17128
908.952	17029
909.068	17124
909.184	17216
909.3	16995
909.415	17083
909.531	17045
909.647	16778
909.762	16915
909.878	16702
909.993	16820
910.108	16687
910.224	16706
910.339	16850
910.454	16683
910.57	16615
910.685	16546
910.8	16850
910.915	16687
911.03	16558
911.145	16474
911.259	16405
911.374	16344
911.489	16344
911.604	16329
911.718	16177
911.833	16067
911.947	16074
912.062	16017
912.176	16181
912.291	16177
912.405	16207
912.519	16386
912.633	16238
912.748	16188
912.862	16074
912.976	15972
913.09	15876
913.204	15922
913.318	15956
913.431	15949
913.545	16071
913.659	16006
913.772	15911
913.886	15641
914	15736
914.113	15713
914.226	15816
914.34	15804
914.453	15641
914.566	15781
914.68	15633
914.793	15580
914.906	15367
915.019	15336
915.132	15264
915.245	15275
915.358	15416
915.47	15306
915.583	15348
915.696	15287
915.809	15526
915.921	15507
916.034	15332
916.146	15287
916.259	15108
916.371	15298
916.483	15302
916.595	15150
916.708	15199
916.82	15165
916.932	15154
917.044	15066
917.156	15066
917.268	14883
917.38	15108
917.491	14979
917.603	14971
917.715	15104
917.826	15074
917.938	14910
918.049	14811
918.161	14975
918.272	15047
918.384	15039
918.495	14887
918.606	14754
918.717	14629
918.828	14777
918.939	14895
919.05	14689
919.161	14705
919.272	14602
919.383	14602
919.494	14811
919.604	14952
919.715	14610
919.826	14583
919.936	14648
920.047	14785
920.157	14777
920.267	14948
920.378	14693
920.488	14590
920.598	14838
920.708	15017
920.818	14826
920.928	14823
921.038	15047
921.148	14994
921.258	14697
921.368	14533
921.477	14484
921.587	14427
921.697	14339
921.806	14438
921.916	14286
922.025	14119
922.134	14123
922.244	13970
922.353	14096
922.462	13986
922.571	13921
922.68	13795
922.789	13765
922.898	13681
923.007	13674
923.116	13731
923.224	13719
923.333	13624
923.442	13556
923.55	13548
923.659	13559
923.767	13518
923.876	13476
923.984	13571
924.092	13335
924.201	13419
924.309	13483
924.417	13415
924.525	13400
924.633	13403
924.741	14332
924.849	13247
924.956	13320
925.064	13126
925.172	13050
925.279	13168
925.387	13156
925.494	13141
925.602	13251
925.709	13179
925.816	13095
925.924	13038
926.031	13160
926.138	13038
926.245	13091
926.352	12962
926.459	13149
926.566	13110
926.673	12973
926.779	12909
926.886	12913
926.993	12662
927.099	12677
927.206	12700
927.312	12597
927.419	12745
927.525	12646
927.631	12715
927.737	12566
927.843	12570
927.95	12384
928.056	12517
928.162	12494
928.267	12650
928.373	13221
928.479	12650
928.585	12380
928.69	12467
928.796	12646
928.901	12422
929.007	12319
929.112	12471
929.218	12471
929.323	12315
929.428	12201
929.533	12498
929.638	12205
929.743	12243
929.848	12270
929.953	12258
930.058	12106
930.163	11961
930.267	12038
930.372	12129
930.477	11935
930.581	12133
930.685	11988
930.79	11847
930.894	11855
930.998	11855
931.103	11901
931.207	11646
931.311	11543
931.415	11448
931.519	11284
931.623	11220
