Data from test_V78500241_1886.txt Node
Date: Fri Mar 25 15:54:51 CST 2022
User: usil
Spectrometer: V785-0024
Trigger mode: 0
Integration Time (sec): 4.000000E-1
Scans to average: 1
Nonlinearity correction enabled: false
Boxcar width: 0
Storing dark spectrum: false
XAxis mode: Wavelengths
Number of Pixels in Spectrum: 1024
>>>>>Begin Spectral Data<<<<<
801.071	28519
801.214	28599
801.356	28303
801.499	28325
801.641	28032
801.783	28021
801.926	28265
802.068	28154
802.211	28131
802.353	28093
802.496	27892
802.638	27918
802.78	27759
802.923	27675
803.065	27648
803.208	27800
803.35	27892
803.492	28040
803.635	28021
803.777	27930
803.919	28006
804.061	28303
804.204	28013
804.346	27975
804.488	28051
804.63	27991
804.773	27987
804.915	28162
805.057	28291
805.199	28010
805.341	28078
805.483	28249
805.626	28207
805.768	27979
805.91	28226
806.052	28188
806.194	28147
806.336	28322
806.478	28162
806.62	28223
806.762	28306
806.904	28569
807.046	28725
807.188	28523
807.33	28729
807.472	28687
807.614	28557
807.756	28554
807.898	28634
808.04	28470
808.182	28466
808.324	28512
808.465	28394
808.607	28752
808.749	28896
808.891	28961
809.033	29029
809.174	28968
809.316	28930
809.458	28828
809.6	28694
809.741	28987
809.883	29018
810.025	29117
810.166	29223
810.308	29239
810.45	29231
810.591	28942
810.733	29033
810.875	28873
811.016	28767
811.158	28847
811.299	28934
811.441	28957
811.582	28991
811.724	28915
811.865	28866
812.007	28991
812.148	28824
812.29	28976
812.431	29044
812.573	29147
812.714	29231
812.855	29448
812.997	29474
813.138	29695
813.279	29493
813.421	29459
813.562	29368
813.703	29265
813.845	29102
813.986	28782
814.127	28683
814.268	28683
814.41	28706
814.551	28474
814.692	28641
814.833	28535
814.974	28588
815.115	28561
815.256	28493
815.397	28485
815.539	28584
815.68	28428
815.821	28280
815.962	28394
816.103	28360
816.244	28249
816.385	28226
816.526	28025
816.666	27964
816.807	27778
816.948	27918
817.089	28002
817.23	27934
817.371	27747
817.512	27865
817.653	27797
817.793	27949
817.934	27823
818.075	27972
818.216	27800
818.356	27724
818.497	27732
818.638	27477
818.778	27603
818.919	27656
819.06	27644
819.2	27888
819.341	27979
819.481	27770
819.622	28044
819.762	28249
819.903	28116
820.043	28063
820.184	28067
820.324	28040
820.465	28188
820.605	27972
820.746	28010
820.886	27941
821.026	27895
821.167	27934
821.307	28040
821.447	27953
821.588	27873
821.728	27698
821.868	27447
822.008	27511
822.149	27340
822.289	27298
822.429	27321
822.569	27024
822.709	27066
822.849	26887
822.99	26834
823.13	26823
823.27	26746
823.41	26686
823.55	26674
823.69	26762
823.83	26731
823.97	26602
824.11	26549
824.25	26514
824.389	26480
824.529	26453
824.669	26514
824.809	26678
824.949	26625
825.089	26560
825.228	26667
825.368	26412
825.508	26385
825.648	26442
825.787	26385
825.927	26457
826.067	26290
826.206	26320
826.346	26492
826.485	26480
826.625	26328
826.765	26446
826.904	26366
827.044	26240
827.183	26176
827.323	26187
827.462	26119
827.601	26081
827.741	26111
827.88	26180
828.02	26016
828.159	26157
828.298	26145
828.437	26191
828.577	26020
828.716	26168
828.855	25955
828.994	25780
829.134	25788
829.273	25830
829.412	25674
829.551	25715
829.69	25803
829.829	25731
829.968	25750
830.107	25788
830.246	25871
830.385	25757
830.524	25590
830.663	25681
830.802	25548
830.941	25354
831.08	25430
831.219	25457
831.357	25502
831.496	25651
831.635	25544
831.774	25339
831.913	25525
832.051	25122
832.19	25179
832.329	25251
832.467	25187
832.606	25179
832.744	24920
832.883	25110
833.022	25084
833.16	25110
833.299	25137
833.437	25095
833.576	25209
833.714	25046
833.852	25091
833.991	25251
834.129	25247
834.267	25171
834.406	25225
834.544	25198
834.682	25160
834.821	25175
834.959	25365
835.097	25031
835.235	25198
835.373	25129
835.511	25145
835.65	25088
835.788	24989
835.926	24852
836.064	24802
836.202	24840
836.34	24882
836.478	25099
836.615	24909
836.753	24954
836.891	25008
837.029	25065
837.167	24886
837.305	24806
837.443	24932
837.58	24715
837.718	24875
837.856	24757
837.993	24665
838.131	24684
838.269	24661
838.406	24658
838.544	24563
838.681	24391
838.819	24376
838.956	24197
839.094	24235
839.231	24281
839.369	24346
839.506	24627
839.643	24357
839.781	24190
839.918	24121
840.055	24251
840.193	24129
840.33	24083
840.467	24232
840.604	24315
840.742	24460
840.879	24015
841.016	24091
841.153	24057
841.29	24258
841.427	24076
841.564	24076
841.701	24091
841.838	24205
841.975	24015
842.112	24030
842.249	24106
842.385	23923
842.522	24174
842.659	23973
842.796	23847
842.933	23851
843.069	23984
843.206	23882
843.343	23969
843.479	23931
843.616	23923
843.752	23718
843.889	23874
844.025	23824
844.162	23638
844.298	23767
844.435	23760
844.571	23623
844.708	23630
844.844	23817
844.98	23893
845.117	23885
845.253	23714
845.389	23596
845.525	23570
845.661	23551
845.798	23395
845.934	23551
846.07	23353
846.206	23486
846.342	23516
846.478	23387
846.614	23227
846.75	23166
846.886	23143
847.022	23284
847.158	23121
847.294	23090
847.429	23189
847.565	23071
847.701	23440
847.837	23025
847.972	22744
848.108	22991
848.244	23044
848.379	22748
848.515	22786
848.65	22656
848.786	22744
848.921	22828
849.057	22812
849.192	22782
849.328	22900
849.463	22713
849.598	22653
849.734	22725
849.869	22611
850.004	22489
850.14	22531
850.275	22402
850.41	22459
850.545	22428
850.68	22443
850.815	22588
850.95	22485
851.085	22675
851.22	22622
851.355	22592
851.49	22641
851.625	22500
851.76	22489
851.895	22409
852.03	22424
852.165	22546
852.299	22493
852.434	22519
852.569	22478
852.703	22516
852.838	22584
852.973	22694
853.107	22580
853.242	22436
853.376	22402
853.511	22154
853.645	22154
853.78	22379
853.914	22211
854.048	22200
854.183	22337
854.317	22375
854.451	22443
854.585	22261
854.72	22394
854.854	22348
854.988	22204
855.122	22344
855.256	22268
855.39	22284
855.524	22238
855.658	22379
855.792	22367
855.926	22249
856.06	22428
856.194	22379
856.327	22337
856.461	22306
856.595	22223
856.729	22204
856.862	22462
856.996	22272
857.13	22356
857.263	22249
857.397	22451
857.53	22318
857.664	22424
857.797	22325
857.931	22440
858.064	22344
858.197	22360
858.331	22249
858.464	22253
858.597	22154
858.731	22310
858.864	22322
858.997	22249
859.13	22314
859.263	22497
859.396	22523
859.529	22382
859.662	22211
859.795	22360
859.928	22291
860.061	22478
860.194	22398
860.327	22348
860.46	22181
860.592	22447
860.725	22398
860.858	22493
860.99	22322
861.123	22211
861.256	22333
861.388	22322
861.521	23136
861.653	22169
861.786	21956
861.918	22120
862.05	22196
862.183	22204
862.315	22322
862.447	22287
862.58	22234
862.712	22223
862.844	22048
862.976	22063
863.108	22150
863.24	22577
863.372	21827
863.504	21941
863.636	21991
863.768	22078
863.9	22109
864.032	21873
864.164	22032
864.296	21972
864.428	22230
864.559	22112
864.691	22029
864.823	22010
864.954	22025
865.086	22128
865.217	22017
865.349	21934
865.48	21880
865.612	22040
865.743	21972
865.875	21964
866.006	21884
866.137	22010
866.269	21903
866.4	21861
866.531	21831
866.662	21698
866.793	21850
866.924	21831
867.055	21968
867.186	21922
867.317	21842
867.448	21732
867.579	21892
867.71	21701
867.841	21880
867.972	21861
868.103	21793
868.233	21892
868.364	21724
868.495	21949
868.625	22078
868.756	22097
868.886	21884
869.017	22078
869.147	22234
869.278	22177
869.408	22135
869.539	22101
869.669	22219
869.799	22093
869.929	22223
870.06	22124
870.19	22348
870.32	22337
870.45	22348
870.58	22424
870.71	22512
870.84	22417
870.97	22508
871.1	22413
871.23	22660
871.36	22645
871.489	22596
871.619	22656
871.749	22637
871.879	22694
872.008	22786
872.138	22713
872.267	22485
872.397	22489
872.526	22493
872.656	22497
872.785	22421
872.915	22675
873.044	22885
873.173	22774
873.303	22889
873.432	22675
873.561	22881
873.69	22721
873.819	22694
873.948	22782
874.077	22603
874.206	22607
874.335	22771
874.464	22816
874.593	22942
874.722	22889
874.851	22987
874.979	22987
875.108	22934
875.237	22911
875.365	22748
875.494	22961
875.623	22854
875.751	22759
875.88	22881
876.008	23018
876.136	22987
876.265	23296
876.393	23307
876.521	23360
876.65	23349
876.778	23269
876.906	23208
877.034	23311
877.162	23128
877.29	23109
877.418	23220
877.546	23231
877.674	23239
877.802	23151
877.93	23216
878.058	23284
878.185	23094
878.313	23349
878.441	23128
878.568	23090
878.696	23113
878.824	23269
878.951	23254
879.079	23273
879.206	23547
879.333	23368
879.461	23330
879.588	23265
879.715	23395
879.842	23547
879.97	23284
880.097	22984
880.224	23056
880.351	23147
880.478	23288
880.605	23029
880.732	23044
880.859	23212
880.986	23079
881.112	23056
881.239	22919
881.366	22805
881.493	22713
881.619	22755
881.746	22637
881.872	22637
881.999	22698
882.125	22512
882.252	22691
882.378	22588
882.505	22748
882.631	22538
882.757	22344
882.883	22382
883.01	22306
883.136	22379
883.262	22242
883.388	22185
883.514	22348
883.64	22478
883.766	22325
883.892	22063
884.018	22097
884.143	22299
884.269	22318
884.395	22032
884.52	21907
884.646	22032
884.772	21968
884.897	21915
885.023	21945
885.148	22158
885.274	22169
885.399	21975
885.524	21994
885.65	22006
885.775	21987
885.9	21789
886.025	22036
886.15	21911
886.275	21926
886.4	21903
886.525	21785
886.65	21964
886.775	21789
886.9	21994
887.025	22147
887.149	21854
887.274	21713
887.399	21641
887.523	21785
887.648	21682
887.773	21709
887.897	21873
888.021	21656
888.146	21675
888.27	21747
888.395	21717
888.519	21728
888.643	21781
888.767	21728
888.891	21564
889.015	21477
889.139	21557
889.263	21469
889.387	21580
889.511	21743
889.635	21462
889.759	21428
889.883	21401
890.006	21405
890.13	21568
890.254	21401
890.377	21374
890.501	21241
890.624	21112
890.748	21245
890.871	21108
890.995	20963
891.118	20929
891.241	21100
891.364	20902
891.488	21241
891.611	21074
891.734	20880
891.857	21169
891.98	21051
892.103	21058
892.226	21104
892.349	20967
892.471	20895
892.594	21005
892.717	21028
892.839	20880
892.962	20982
893.085	21039
893.207	20986
893.33	20868
893.452	20849
893.575	20902
893.697	20982
893.819	21074
893.941	21131
894.064	21123
894.186	20845
894.308	20838
894.43	21013
894.552	21096
894.674	21017
894.796	20849
894.918	20921
895.04	20929
895.161	20967
895.283	21070
895.405	20762
895.526	20948
895.648	20868
895.769	20880
895.891	21017
896.012	20979
896.134	20895
896.255	20971
896.376	20800
896.498	20876
896.619	20941
896.74	20933
896.861	21009
896.982	21241
897.103	21313
897.224	21222
897.345	21100
897.466	21055
897.587	21100
897.708	21252
897.828	21020
897.949	21077
898.07	20952
898.19	20990
898.311	21146
898.431	21127
898.552	21108
898.672	21104
898.792	21283
898.913	21119
899.033	20967
899.153	20948
899.273	20769
899.393	20994
899.513	20933
899.633	20785
899.753	20864
899.873	20773
899.993	20883
900.113	20880
900.232	20807
900.352	20819
900.472	20632
900.591	20518
900.711	20667
900.83	20465
900.95	20815
901.069	20739
901.189	20552
901.308	20259
901.427	20202
901.546	20259
901.665	20187
901.784	20336
901.904	20005
902.023	19955
902.141	19811
902.26	19681
902.379	19788
902.498	19780
902.617	19658
902.735	19620
902.854	19643
902.973	19575
903.091	19365
903.21	19278
903.328	19426
903.446	19183
903.565	19110
903.683	19122
903.801	19069
903.919	19069
904.038	19084
904.156	19004
904.274	18913
904.392	18928
904.51	18920
904.627	18920
904.745	19012
904.863	18962
904.981	18677
905.098	18521
905.216	18544
905.334	18604
905.451	18532
905.569	18525
905.686	18589
905.803	18582
905.921	18486
906.038	18532
906.155	18338
906.272	18213
906.389	18197
906.506	18110
906.623	18174
906.74	18072
906.857	17931
906.974	17946
907.091	18197
907.208	18258
907.324	18106
907.441	17984
907.557	17885
907.674	17798
907.79	17794
907.907	17786
908.023	17695
908.139	17771
908.256	17741
908.372	17710
908.488	17695
908.604	17532
908.72	17539
908.836	17474
908.952	17505
909.068	17562
909.184	17558
909.3	17566
909.415	17558
909.531	17562
909.647	17254
909.762	17220
909.878	17273
909.993	17284
910.108	17197
910.224	17151
910.339	17216
910.454	17075
910.57	17014
910.685	16927
910.8	17235
910.915	17170
911.03	17045
911.145	16786
911.259	16793
911.374	16763
911.489	16759
911.604	16580
911.718	16603
911.833	16527
911.947	16417
912.062	16344
912.176	16603
912.291	16584
912.405	16516
912.519	16725
912.633	16755
912.748	16561
912.862	16504
912.976	16303
913.09	16265
913.204	16341
913.318	16455
913.431	16481
913.545	16356
913.659	16443
913.772	16333
913.886	16211
914	16116
914.113	16173
914.226	16310
914.34	16185
914.453	15979
914.566	16204
914.68	15903
914.793	15907
914.906	15759
915.019	15709
915.132	15667
915.245	15755
915.358	15755
915.47	15755
915.583	15625
915.696	15793
915.809	15930
915.921	15888
916.034	15652
916.146	15618
916.259	15564
916.371	15701
916.483	15526
916.595	15599
916.708	15466
916.82	15637
916.932	15595
917.044	15443
917.156	15454
917.268	15496
917.38	15401
917.491	15382
917.603	15416
917.715	15443
917.826	15473
917.938	15260
918.049	15245
918.161	15321
918.272	15424
918.384	15454
918.495	15279
918.606	15260
918.717	15161
918.828	15199
918.939	15173
919.05	14990
919.161	15131
919.272	14967
919.383	14990
919.494	15043
919.604	15188
919.715	15119
919.826	15058
919.936	15074
920.047	15157
920.157	15131
920.267	15180
920.378	15013
920.488	15081
920.598	15226
920.708	15321
920.818	15146
920.928	15233
921.038	15351
921.148	15294
921.258	15062
921.368	14956
921.477	14849
921.587	14765
921.697	14712
921.806	14842
921.916	14659
922.025	14431
922.134	14362
922.244	14396
922.353	14415
922.462	14324
922.571	14240
922.68	14092
922.789	14157
922.898	14027
923.007	13974
923.116	14149
923.224	14111
923.333	14054
923.442	13887
923.55	13875
923.659	13947
923.767	13989
923.876	13921
923.984	13879
924.092	13719
924.201	13883
924.309	13814
924.417	13776
924.525	13772
924.633	13719
924.741	14533
924.849	13578
924.956	13731
925.064	13483
925.172	13411
925.279	13430
925.387	13483
925.494	13480
925.602	13548
925.709	13472
925.816	13339
925.924	13445
926.031	13506
926.138	13362
926.245	13468
926.352	13232
926.459	13369
926.566	13422
926.673	13247
926.779	13149
926.886	13221
926.993	13027
927.099	13031
927.206	12993
927.312	13004
927.419	13057
927.525	12962
927.631	13000
927.737	12875
927.843	12779
927.95	12700
928.056	12753
928.162	12897
928.267	12886
928.373	13434
928.479	12821
928.585	12738
928.69	12764
928.796	12821
928.901	12696
929.007	12471
929.112	12650
929.218	12669
929.323	12631
929.428	12464
929.533	12734
929.638	12475
929.743	12437
929.848	12559
929.953	12422
930.058	12376
930.163	12133
930.267	12213
930.372	12296
930.477	12167
930.581	12475
930.685	12235
930.79	12121
930.894	12083
930.998	12057
931.103	12235
931.207	11882
931.311	11847
931.415	11684
931.519	11478
931.623	11383
