Data from test_V78500241_2550.txt Node
Date: Fri Mar 25 15:59:27 CST 2022
User: usil
Spectrometer: V785-0024
Trigger mode: 0
Integration Time (sec): 4.000000E-1
Scans to average: 1
Nonlinearity correction enabled: false
Boxcar width: 0
Storing dark spectrum: false
XAxis mode: Wavelengths
Number of Pixels in Spectrum: 1024
>>>>>Begin Spectral Data<<<<<
801.071	28656
801.214	28733
801.356	28299
801.499	28363
801.641	28078
801.783	28185
801.926	28207
802.068	28299
802.211	28185
802.353	28143
802.496	28025
802.638	27979
802.78	27934
802.923	27857
803.065	27694
803.208	27808
803.35	27907
803.492	28067
803.635	28128
803.777	28032
803.919	28162
804.061	28367
804.204	28230
804.346	28051
804.488	28029
804.63	28135
804.773	27953
804.915	28196
805.057	28196
805.199	28192
805.341	28162
805.483	28226
805.626	28360
805.768	28204
805.91	28337
806.052	28242
806.194	28230
806.336	28550
806.478	28390
806.62	28280
806.762	28337
806.904	28466
807.046	28892
807.188	28782
807.33	28618
807.472	28687
807.614	28664
807.756	28554
807.898	28546
808.04	28569
808.182	28527
808.324	28535
808.465	28660
808.607	28816
808.749	29010
808.891	29147
809.033	29109
809.174	29166
809.316	28987
809.458	29022
809.6	29022
809.741	29151
809.883	29113
810.025	29349
810.166	29124
810.308	29349
810.45	29273
810.591	29140
810.733	29117
810.875	28858
811.016	28919
811.158	28835
811.299	29128
811.441	29041
811.582	29170
811.724	29003
811.865	28892
812.007	29018
812.148	28938
812.29	29189
812.431	29109
812.573	29235
812.714	29501
812.855	29452
812.997	29558
813.138	29657
813.279	29486
813.421	29486
813.562	29509
813.703	29311
813.845	29117
813.986	28965
814.127	28778
814.268	28691
814.41	28664
814.551	28630
814.692	28866
814.833	28584
814.974	28615
815.115	28828
815.256	28603
815.397	28706
815.539	28618
815.68	28626
815.821	28459
815.962	28371
816.103	28428
816.244	28295
816.385	28276
816.526	28265
816.666	28154
816.807	27994
816.948	28204
817.089	28010
817.23	27941
817.371	28063
817.512	27876
817.653	28021
817.793	28006
817.934	27850
818.075	27987
818.216	27968
818.356	28048
818.497	27857
818.638	27720
818.778	27625
818.919	27663
819.06	27800
819.2	27873
819.341	27964
819.481	27994
819.622	28124
819.762	28246
819.903	28325
820.043	28211
820.184	28124
820.324	28040
820.465	28181
820.605	28204
820.746	28112
820.886	27991
821.026	28090
821.167	28101
821.307	28150
821.447	27831
821.588	27941
821.728	27888
821.868	27633
822.008	27477
822.149	27443
822.289	27443
822.429	27195
822.569	27161
822.709	27211
822.849	26925
822.99	27028
823.13	26948
823.27	26933
823.41	26929
823.55	26712
823.69	26902
823.83	26948
823.97	26644
824.11	26644
824.25	26636
824.389	26526
824.529	26663
824.669	26792
824.809	26769
824.949	26746
825.089	26727
825.228	26678
825.368	26564
825.508	26575
825.648	26571
825.787	26678
825.927	26461
826.067	26602
826.206	26530
826.346	26530
826.485	26724
826.625	26469
826.765	26651
826.904	26526
827.044	26366
827.183	26396
827.323	26161
827.462	26290
827.601	26248
827.741	26164
827.88	26313
828.02	26103
828.159	26202
828.298	26233
828.437	26294
828.577	26218
828.716	26317
828.855	26183
828.994	25849
829.134	25997
829.273	26024
829.412	25917
829.551	25799
829.69	25974
829.829	25986
829.968	26001
830.107	26012
830.246	25822
830.385	25879
830.524	25879
830.663	25620
830.802	25639
830.941	25594
831.08	25563
831.219	25639
831.357	25696
831.496	25677
831.635	25567
831.774	25533
831.913	25396
832.051	25247
832.19	25255
832.329	25479
832.467	25278
832.606	25107
832.744	25156
832.883	25171
833.022	25175
833.16	25320
833.299	25297
833.437	25251
833.576	25293
833.714	25293
833.852	25236
833.991	25228
834.129	25194
834.267	25297
834.406	25232
834.544	25190
834.682	25381
834.821	25343
834.959	25445
835.097	25175
835.235	25297
835.373	25301
835.511	25266
835.65	25076
835.788	25118
835.926	24928
836.064	24829
836.202	24856
836.34	25160
836.478	25072
836.615	25053
836.753	25114
836.891	25069
837.029	24954
837.167	25000
837.305	25012
837.443	24947
837.58	24863
837.718	24989
837.856	24817
837.993	24916
838.131	24852
838.269	24840
838.406	24753
838.544	24627
838.681	24563
838.819	24593
838.956	24327
839.094	24418
839.231	24418
839.369	24505
839.506	24753
839.643	24692
839.781	24445
839.918	24483
840.055	24372
840.193	24266
840.33	24300
840.467	24327
840.604	24403
840.742	24544
840.879	24026
841.016	24216
841.153	24098
841.29	24300
841.427	24266
841.564	24311
841.701	24209
841.838	24311
841.975	24152
842.112	24155
842.249	24117
842.385	24038
842.522	24330
842.659	24015
842.796	24091
842.933	24026
843.069	23927
843.206	23969
843.343	23999
843.479	24060
843.616	24053
843.752	23840
843.889	23809
844.025	24038
844.162	23885
844.298	23969
844.435	23764
844.571	23794
844.708	23741
844.844	23889
844.98	23939
845.117	23927
845.253	23707
845.389	23642
845.525	23634
845.661	23729
845.798	23642
845.934	23668
846.07	23535
846.206	23531
846.342	23756
846.478	23493
846.614	23307
846.75	23181
846.886	23269
847.022	23368
847.158	23330
847.294	23227
847.429	23349
847.565	23280
847.701	23566
847.837	23052
847.972	22980
848.108	23128
848.244	23022
848.379	22824
848.515	22896
848.65	22858
848.786	22824
848.921	22729
849.057	22900
849.192	22889
849.328	22854
849.463	22877
849.598	22748
849.734	22702
849.869	22694
850.004	22668
850.14	22641
850.275	22550
850.41	22603
850.545	22634
850.68	22599
850.815	22588
850.95	22774
851.085	22790
851.22	22702
851.355	22774
851.49	22584
851.625	22447
851.76	22542
851.895	22436
852.03	22489
852.165	22565
852.299	22569
852.434	22668
852.569	22672
852.703	22577
852.838	22736
852.973	22797
853.107	22641
853.242	22664
853.376	22440
853.511	22432
853.645	22333
853.78	22554
853.914	22432
854.048	22417
854.183	22398
854.317	22538
854.451	22611
854.585	22348
854.72	22478
854.854	22493
854.988	22432
855.122	22363
855.256	22310
855.39	22421
855.524	22478
855.658	22508
855.792	22447
855.926	22481
856.06	22531
856.194	22447
856.327	22546
856.461	22329
856.595	22390
856.729	22413
856.862	22557
856.996	22489
857.13	22443
857.263	22500
857.397	22546
857.53	22436
857.664	22523
857.797	22470
857.931	22577
858.064	22478
858.197	22630
858.331	22459
858.464	22249
858.597	22421
858.731	22447
858.864	22379
858.997	22318
859.13	22531
859.263	22299
859.396	22542
859.529	22402
859.662	22421
859.795	22360
859.928	22466
860.061	22557
860.194	22660
860.327	22523
860.46	22459
860.592	22535
860.725	22504
860.858	22523
860.99	22455
861.123	22325
861.256	22409
861.388	22493
861.521	23155
861.653	22322
861.786	22211
861.918	22234
862.05	22272
862.183	22303
862.315	22367
862.447	22485
862.58	22371
862.712	22116
862.844	22112
862.976	22150
863.108	22333
863.24	22649
863.372	22105
863.504	22185
863.636	22154
863.768	22280
863.9	22074
864.032	22059
864.164	22093
864.296	22261
864.428	22226
864.559	22204
864.691	22215
864.823	22230
864.954	22150
865.086	22139
865.217	22101
865.349	21949
865.48	22010
865.612	22131
865.743	22207
865.875	22112
866.006	22006
866.137	22006
866.269	21987
866.4	21972
866.531	21949
866.662	21930
866.793	21926
866.924	21861
867.055	22036
867.186	21861
867.317	21812
867.448	21884
867.579	22059
867.71	21835
867.841	21873
867.972	22086
868.103	22002
868.233	21998
868.364	21922
868.495	22059
868.625	22143
868.756	22219
868.886	22177
869.017	22143
869.147	22204
869.278	22337
869.408	22192
869.539	22196
869.669	22242
869.799	22211
869.929	22341
870.06	22287
870.19	22527
870.32	22413
870.45	22485
870.58	22569
870.71	22664
870.84	22725
870.97	22557
871.1	22508
871.23	22691
871.36	22672
871.489	22637
871.619	22782
871.749	22778
871.879	22774
872.008	22820
872.138	22786
872.267	22869
872.397	22698
872.526	22733
872.656	22664
872.785	22725
872.915	22809
873.044	22839
873.173	22812
873.303	22774
873.432	22995
873.561	22820
873.69	22854
873.819	22824
873.948	22949
874.077	22706
874.206	22820
874.335	22790
874.464	22892
874.593	22934
874.722	23006
874.851	22991
874.979	22885
875.108	23044
875.237	22938
875.365	22904
875.494	22972
875.623	23033
875.751	22885
875.88	23056
876.008	23151
876.136	23239
876.265	23387
876.393	23421
876.521	23433
876.65	23474
876.778	23299
876.906	23337
877.034	23315
877.162	23391
877.29	23299
877.418	23398
877.546	23501
877.674	23356
877.802	23258
877.93	23391
878.058	23261
878.185	23326
878.313	23208
878.441	23387
878.568	23105
878.696	23242
878.824	23372
878.951	23471
879.079	23718
879.206	23630
879.333	23421
879.461	23368
879.588	23307
879.715	23459
879.842	23611
879.97	23429
880.097	23364
880.224	23071
880.351	23162
880.478	23147
880.605	23044
880.732	23258
880.859	23433
880.986	23136
881.112	23193
881.239	23067
881.366	22919
881.493	22752
881.619	22755
881.746	22668
881.872	22767
881.999	22763
882.125	22774
882.252	22691
882.378	22759
882.505	22774
882.631	22531
882.757	22352
882.883	22504
883.01	22527
883.136	22287
883.262	22303
883.388	22382
883.514	22481
883.64	22402
883.766	22303
883.892	22257
884.018	22185
884.143	22421
884.269	22516
884.395	22177
884.52	22017
884.646	22082
884.772	21934
884.897	22021
885.023	22154
885.148	22162
885.274	22242
885.399	22139
885.524	22082
885.65	22078
885.775	22017
885.9	22013
886.025	22166
886.15	22086
886.275	21945
886.4	22025
886.525	21964
886.65	21964
886.775	22002
886.9	22101
887.025	22162
887.149	22120
887.274	21778
887.399	21755
887.523	21808
887.648	21724
887.773	21652
887.897	21778
888.021	21835
888.146	21713
888.27	21918
888.395	21880
888.519	21789
888.643	21766
888.767	21857
888.891	21819
889.015	21477
889.139	21667
889.263	21580
889.387	21675
889.511	21812
889.635	21717
889.759	21507
889.883	21641
890.006	21564
890.13	21629
890.254	21583
890.377	21629
890.501	21374
890.624	21306
890.748	21355
890.871	21199
890.995	21195
891.118	21138
891.241	21154
891.364	21169
891.488	21252
891.611	21119
891.734	21226
891.857	21188
891.98	21104
892.103	21237
892.226	21211
892.349	21005
892.471	20910
892.594	20967
892.717	21020
892.839	21104
892.962	21036
893.085	21154
893.207	20941
893.33	20956
893.452	20891
893.575	21047
893.697	21047
893.819	21055
893.941	21203
894.064	21123
894.186	21001
894.308	20971
894.43	21077
894.552	21051
894.674	21119
894.796	20975
894.918	21070
895.04	20971
895.161	21089
895.283	21119
895.405	20872
895.526	20998
895.648	20948
895.769	21119
895.891	21077
896.012	21150
896.134	21077
896.255	21039
896.376	20963
896.498	21055
896.619	20941
896.74	21001
896.861	21150
896.982	21344
897.103	21469
897.224	21161
897.345	21169
897.466	21150
897.587	21169
897.708	21477
897.828	21363
897.949	21112
898.07	21085
898.19	21074
898.311	21199
898.431	21131
898.552	21138
898.672	21382
898.792	21252
898.913	21203
899.033	21005
899.153	21058
899.273	20864
899.393	20918
899.513	20967
899.633	20929
899.753	21036
899.873	20880
899.993	21005
900.113	20921
900.232	20929
900.352	20861
900.472	20762
900.591	20682
900.711	20697
900.83	20606
900.95	20788
901.069	20849
901.189	20552
901.308	20438
901.427	20240
901.546	20393
901.665	20229
901.784	20233
901.904	20256
902.023	20058
902.141	19932
902.26	19841
902.379	19921
902.498	19776
902.617	19814
902.735	19772
902.854	19788
902.973	19613
903.091	19388
903.21	19392
903.328	19392
903.446	19255
903.565	19270
903.683	19308
903.801	19137
903.919	19072
904.038	19175
904.156	19095
904.274	19198
904.392	19008
904.51	18977
904.627	18939
904.745	19053
904.863	19118
904.981	18837
905.098	18688
905.216	18696
905.334	18715
905.451	18635
905.569	18559
905.686	18745
905.803	18620
905.921	18517
906.038	18650
906.155	18429
906.272	18407
906.389	18403
906.506	18182
906.623	18254
906.74	18174
906.857	18022
906.974	18095
907.091	18235
907.208	18323
907.324	18148
907.441	18072
907.557	17916
907.674	17958
907.79	17783
907.907	17939
908.023	17927
908.139	17893
908.256	17824
908.372	17737
908.488	17661
908.604	17558
908.72	17592
908.836	17608
908.952	17577
909.068	17653
909.184	17691
909.3	17615
909.415	17699
909.531	17558
909.647	17261
909.762	17395
909.878	17280
909.993	17337
910.108	17296
910.224	17200
910.339	17330
910.454	17109
910.57	17155
910.685	17037
910.8	17387
910.915	17307
911.03	17170
911.145	16923
911.259	16953
911.374	16961
911.489	16771
911.604	16592
911.718	16615
911.833	16706
911.947	16599
912.062	16459
912.176	16763
912.291	16634
912.405	16637
912.519	16873
912.633	16774
912.748	16717
912.862	16634
912.976	16523
913.09	16207
913.204	16516
913.318	16508
913.431	16447
913.545	16546
913.659	16500
913.772	16360
913.886	16158
914	16147
914.113	16310
914.226	16337
914.34	16268
914.453	16135
914.566	16249
914.68	16082
914.793	15994
914.906	15937
915.019	15854
915.132	15751
915.245	15736
915.358	15789
915.47	15755
915.583	15865
915.696	15869
915.809	15930
915.921	15930
916.034	15785
916.146	15720
916.259	15739
916.371	15755
916.483	15720
916.595	15641
916.708	15660
916.82	15641
916.932	15629
917.044	15568
917.156	15561
917.268	15435
917.38	15542
917.491	15397
917.603	15488
917.715	15515
917.826	15454
917.938	15367
918.049	15310
918.161	15458
918.272	15420
918.384	15450
918.495	15336
918.606	15222
918.717	15085
918.828	15214
918.939	15252
919.05	15081
919.161	15199
919.272	14937
919.383	15070
919.494	15249
919.604	15424
919.715	15165
919.826	15138
919.936	15074
920.047	15199
920.157	15112
920.267	15370
920.378	15199
920.488	14998
920.598	15332
920.708	15428
920.818	15195
920.928	15192
921.038	15435
921.148	15332
921.258	15089
921.368	14918
921.477	14899
921.587	14853
921.697	14712
921.806	14933
921.916	14629
922.025	14575
922.134	14552
922.244	14423
922.353	14610
922.462	14298
922.571	14214
922.68	14210
922.789	14176
922.898	14138
923.007	14035
923.116	14126
923.224	14138
923.333	14024
923.442	13970
923.55	13963
923.659	13986
923.767	14088
923.876	13849
923.984	13932
924.092	13803
924.201	13944
924.309	13875
924.417	13814
924.525	13822
924.633	13757
924.741	14762
924.849	13636
924.956	13784
925.064	13594
925.172	13559
925.279	13521
925.387	13540
925.494	13457
925.602	13567
925.709	13605
925.816	13400
925.924	13441
926.031	13605
926.138	13556
926.245	13445
926.352	13419
926.459	13540
926.566	13548
926.673	13362
926.779	13221
926.886	13324
926.993	13133
927.099	13080
927.206	13015
927.312	13031
927.419	13015
927.525	13019
927.631	13118
927.737	13008
927.843	12886
927.95	12783
928.056	12837
928.162	12878
928.267	12973
928.373	13556
928.479	12932
928.585	12722
928.69	12734
928.796	12871
928.901	12760
929.007	12532
929.112	12768
929.218	12719
929.323	12574
929.428	12509
929.533	12722
929.638	12540
929.743	12559
929.848	12585
929.953	12517
930.058	12418
930.163	12270
930.267	12277
930.372	12490
930.477	12224
930.581	12330
930.685	12304
930.79	12171
930.894	12197
930.998	12060
931.103	12243
931.207	11843
931.311	11786
931.415	11748
931.519	11520
931.623	11429
