Data from test_V78500241_202.txt Node
Date: Fri Mar 25 15:43:12 CST 2022
User: usil
Spectrometer: V785-0024
Trigger mode: 0
Integration Time (sec): 4.000000E-1
Scans to average: 1
Nonlinearity correction enabled: false
Boxcar width: 0
Storing dark spectrum: false
XAxis mode: Wavelengths
Number of Pixels in Spectrum: 1024
>>>>>Begin Spectral Data<<<<<
801.071	29216
801.214	29231
801.356	28866
801.499	28919
801.641	28733
801.783	28569
801.926	28797
802.068	28706
802.211	28649
802.353	28702
802.496	28447
802.638	28405
802.78	28344
802.923	28154
803.065	28219
803.208	28276
803.35	28246
803.492	28360
803.635	28474
803.777	28386
803.919	28550
804.061	28965
804.204	28493
804.346	28306
804.488	28322
804.63	28421
804.773	28371
804.915	28337
805.057	28523
805.199	28432
805.341	28306
805.483	28554
805.626	28588
805.768	28440
805.91	28527
806.052	28504
806.194	28318
806.336	28713
806.478	28618
806.62	28451
806.762	28634
806.904	28767
807.046	28999
807.188	28934
807.33	28923
807.472	29010
807.614	28858
807.756	28828
807.898	28664
808.04	28733
808.182	28790
808.324	28778
808.465	28729
808.607	28816
808.749	28957
808.891	29029
809.033	29261
809.174	29090
809.316	29117
809.458	29056
809.6	29060
809.741	29280
809.883	29052
810.025	29383
810.166	29204
810.308	29231
810.45	29227
810.591	29372
810.733	29132
810.875	28995
811.016	28949
811.158	29060
811.299	29250
811.441	29368
811.582	29204
811.724	28942
811.865	28984
812.007	28946
812.148	29056
812.29	28892
812.431	29223
812.573	29284
812.714	29433
812.855	29535
812.997	29661
813.138	29859
813.279	29570
813.421	29604
813.562	29444
813.703	29288
813.845	29353
813.986	28938
814.127	28759
814.268	28656
814.41	28622
814.551	28573
814.692	28603
814.833	28615
814.974	28535
815.115	28630
815.256	28344
815.397	28462
815.539	28489
815.68	28356
815.821	28257
815.962	28363
816.103	28382
816.244	28242
816.385	28109
816.526	28101
816.666	28021
816.807	27823
816.948	27968
817.089	28154
817.23	27846
817.371	27846
817.512	27743
817.653	27717
817.793	27732
817.934	27713
818.075	27717
818.216	27838
818.356	27641
818.497	27549
818.638	27515
818.778	27325
818.919	27523
819.06	27580
819.2	27648
819.341	27701
819.481	27530
819.622	27835
819.762	28059
819.903	27956
820.043	27869
820.184	27705
820.324	27797
820.465	27914
820.605	27724
820.746	27701
820.886	27671
821.026	27766
821.167	27804
821.307	27762
821.447	27641
821.588	27553
821.728	27481
821.868	27340
822.008	27135
822.149	27298
822.289	27074
822.429	26826
822.569	26731
822.709	26819
822.849	26670
822.99	26564
823.13	26682
823.27	26564
823.41	26370
823.55	26294
823.69	26355
823.83	26301
823.97	26370
824.11	26229
824.25	26134
824.389	26092
824.529	26275
824.669	26244
824.809	26389
824.949	26221
825.089	26286
825.228	26218
825.368	26039
825.508	25993
825.648	26012
825.787	26062
825.927	25966
826.067	26012
826.206	26092
826.346	26058
826.485	26103
826.625	26058
826.765	26111
826.904	25898
827.044	25753
827.183	25788
827.323	25700
827.462	25693
827.601	25731
827.741	25696
827.88	25689
828.02	25441
828.159	25685
828.298	25582
828.437	25582
828.577	25613
828.716	25601
828.855	25552
828.994	25381
829.134	25270
829.273	25274
829.412	25381
829.551	25266
829.69	25255
829.829	25270
829.968	25335
830.107	25388
830.246	25381
830.385	25365
830.524	25244
830.663	25194
830.802	25076
830.941	24768
831.08	24825
831.219	24894
831.357	24985
831.496	25129
831.635	24749
831.774	24783
831.913	24722
832.051	24707
832.19	24745
832.329	24563
832.467	24528
832.606	24502
832.744	24410
832.883	24479
833.022	24467
833.16	24631
833.299	24608
833.437	24513
833.576	24559
833.714	24566
833.852	24673
833.991	24642
834.129	24585
834.267	24566
834.406	24509
834.544	24589
834.682	24559
834.821	24445
834.959	24623
835.097	24327
835.235	24517
835.373	24422
835.511	24448
835.65	24353
835.788	24384
835.926	24117
836.064	24178
836.202	24197
836.34	24418
836.478	24422
836.615	24251
836.753	24330
836.891	24327
837.029	24448
837.167	24315
837.305	24292
837.443	24220
837.58	24064
837.718	24342
837.856	24319
837.993	24163
838.131	24213
838.269	24049
838.406	24087
838.544	23973
838.681	23824
838.819	23726
838.956	23699
839.094	23551
839.231	23646
839.369	23764
839.506	23885
839.643	23828
839.781	23615
839.918	23505
840.055	23486
840.193	23528
840.33	23497
840.467	23524
840.604	23589
840.742	23722
840.879	23364
841.016	23486
841.153	23299
841.29	23512
841.427	23410
841.564	23387
841.701	23349
841.838	23455
841.975	23296
842.112	23512
842.249	23315
842.385	23277
842.522	23562
842.659	23334
842.796	23140
842.933	23166
843.069	23170
843.206	23166
843.343	23185
843.479	23121
843.616	23102
843.752	22915
843.889	22972
844.025	23010
844.162	22812
844.298	23044
844.435	22877
844.571	22889
844.708	22847
844.844	23094
844.98	23151
845.117	22892
845.253	22858
845.389	22725
845.525	22752
845.661	22721
845.798	22683
845.934	22744
846.07	22561
846.206	22710
846.342	22641
846.478	22546
846.614	22382
846.75	22322
846.886	22265
847.022	22398
847.158	22341
847.294	22344
847.429	22447
847.565	22196
847.701	22550
847.837	22181
847.972	22074
848.108	22238
848.244	22192
848.379	21972
848.515	21937
848.65	21869
848.786	21895
848.921	21907
849.057	21964
849.192	22040
849.328	21854
849.463	21926
849.598	21945
849.734	21831
849.869	21762
850.004	21709
850.14	21781
850.275	21648
850.41	21614
850.545	21564
850.68	21450
850.815	21614
850.95	21545
851.085	21736
851.22	21679
851.355	21599
851.49	21568
851.625	21603
851.76	21561
851.895	21534
852.03	21572
852.165	21720
852.299	21690
852.434	21625
852.569	21671
852.703	21519
852.838	21641
852.973	21675
853.107	21854
853.242	21477
853.376	21458
853.511	21370
853.645	21268
853.78	21526
853.914	21389
854.048	21401
854.183	21294
854.317	21473
854.451	21428
854.585	21378
854.72	21306
854.854	21420
854.988	21370
855.122	21378
855.256	21237
855.39	21332
855.524	21485
855.658	21568
855.792	21481
855.926	21355
856.06	21332
856.194	21405
856.327	21469
856.461	21336
856.595	21447
856.729	21492
856.862	21310
856.996	21389
857.13	21420
857.263	21462
857.397	21549
857.53	21473
857.664	21458
857.797	21389
857.931	21450
858.064	21279
858.197	21424
858.331	21443
858.464	21348
858.597	21283
858.731	21321
858.864	21386
858.997	21439
859.13	21275
859.263	21321
859.396	21401
859.529	21275
859.662	21329
859.795	21279
859.928	21412
860.061	21439
860.194	21420
860.327	21237
860.46	21241
860.592	21386
860.725	21481
860.858	21378
860.99	21401
861.123	21310
861.256	21233
861.388	21359
861.521	22086
861.653	21150
861.786	21161
861.918	21222
862.05	21294
862.183	21321
862.315	21275
862.447	21321
862.58	21313
862.712	21142
862.844	21165
862.976	21165
863.108	21024
863.24	21485
863.372	21009
863.504	21074
863.636	21070
863.768	21089
863.9	21001
864.032	20918
864.164	21009
864.296	21017
864.428	21047
864.559	21081
864.691	21123
864.823	21055
864.954	20986
865.086	20918
865.217	20781
865.349	20705
865.48	20842
865.612	21036
865.743	20979
865.875	20864
866.006	20933
866.137	20948
866.269	20979
866.4	21017
866.531	20967
866.662	20929
866.793	20826
866.924	20819
867.055	20880
867.186	20815
867.317	20674
867.448	20777
867.579	20883
867.71	20686
867.841	20724
867.972	20788
868.103	20819
868.233	20781
868.364	20880
868.495	20963
868.625	21028
868.756	21230
868.886	21032
869.017	21058
869.147	21173
869.278	21051
869.408	20990
869.539	20994
869.669	21211
869.799	21173
869.929	21348
870.06	21039
870.19	21370
870.32	21443
870.45	21386
870.58	21389
870.71	21553
870.84	21641
870.97	21496
871.1	21367
871.23	21656
871.36	21675
871.489	21515
871.619	21663
871.749	21667
871.879	21762
872.008	21686
872.138	21629
872.267	21610
872.397	21526
872.526	21443
872.656	21405
872.785	21481
872.915	21682
873.044	21679
873.173	21568
873.303	21747
873.432	21671
873.561	21789
873.69	21785
873.819	21827
873.948	21873
874.077	21648
874.206	21660
874.335	21770
874.464	21812
874.593	21975
874.722	21747
874.851	21972
874.979	21926
875.108	21964
875.237	21953
875.365	21892
875.494	21949
875.623	22036
875.751	22032
875.88	21907
876.008	22036
876.136	22135
876.265	22344
876.393	22508
876.521	22344
876.65	22417
876.778	22333
876.906	22363
877.034	22352
877.162	22299
877.29	22295
877.418	22295
877.546	22409
877.674	22287
877.802	22295
877.93	22242
878.058	22204
878.185	22139
878.313	22265
878.441	22261
878.568	22143
878.696	22188
878.824	22234
878.951	22333
879.079	22447
879.206	22519
879.333	22432
879.461	22287
879.588	22390
879.715	22519
879.842	22497
879.97	22299
880.097	22116
880.224	22059
880.351	22116
880.478	22082
880.605	22109
880.732	22120
880.859	22322
880.986	22131
881.112	22086
881.239	21816
881.366	21739
881.493	21747
881.619	21774
881.746	21732
881.872	21675
881.999	21614
882.125	21804
882.252	21652
882.378	21675
882.505	21846
882.631	21485
882.757	21496
882.883	21511
883.01	21469
883.136	21378
883.262	21245
883.388	21203
883.514	21420
883.64	21500
883.766	21317
883.892	21211
884.018	21176
884.143	21291
884.269	21435
884.395	21051
884.52	21070
884.646	21024
884.772	20842
884.897	21001
885.023	21047
885.148	21051
885.274	21184
885.399	21180
885.524	21062
885.65	21081
885.775	20948
885.9	20982
886.025	21161
886.15	21066
886.275	21036
886.4	20880
886.525	21017
886.65	20902
886.775	20910
886.9	20990
887.025	21173
887.149	20929
887.274	20864
887.399	20819
887.523	20655
887.648	20617
887.773	20621
887.897	20842
888.021	20826
888.146	20693
888.27	20815
888.395	20781
888.519	20880
888.643	20735
888.767	20701
888.891	20693
889.015	20602
889.139	20503
889.263	20598
889.387	20659
889.511	20781
889.635	20705
889.759	20587
889.883	20476
890.006	20492
890.13	20640
890.254	20499
890.377	20404
890.501	20351
890.624	20252
890.748	20461
890.871	20183
890.995	20012
891.118	20043
891.241	20088
891.364	20126
891.488	20244
891.611	20180
891.734	20237
891.857	20092
891.98	20081
892.103	20081
892.226	20183
892.349	20088
892.471	19868
892.594	20058
892.717	20149
892.839	20050
892.962	20020
893.085	20126
893.207	20031
893.33	19917
893.452	19989
893.575	20016
893.697	20027
893.819	20256
893.941	20214
894.064	20206
894.186	20054
894.308	20020
894.43	20149
894.552	20172
894.674	19974
894.796	19967
894.918	20005
895.04	19959
895.161	20092
895.283	19959
895.405	19974
895.526	20039
895.648	20005
895.769	20012
895.891	20111
896.012	20027
896.134	19917
896.255	20001
896.376	20035
896.498	20119
896.619	20210
896.74	20054
896.861	20225
896.982	20484
897.103	20450
897.224	20377
897.345	20199
897.466	20301
897.587	20278
897.708	20396
897.828	20324
897.949	20240
898.07	20138
898.19	20180
898.311	20408
898.431	20119
898.552	20252
898.672	20244
898.792	20389
898.913	20252
899.033	20149
899.153	20012
899.273	19894
899.393	19986
899.513	20039
899.633	19890
899.753	20020
899.873	19864
899.993	19925
900.113	19951
900.232	20027
900.352	19845
900.472	19856
900.591	19655
900.711	19883
900.83	19784
900.95	19947
901.069	19883
901.189	19689
901.308	19499
901.427	19331
901.546	19381
901.665	19411
901.784	19297
901.904	19339
902.023	19072
902.141	18837
902.26	18909
902.379	18985
902.498	18768
902.617	18768
902.735	18825
902.854	18840
902.973	18749
903.091	18456
903.21	18502
903.328	18494
903.446	18407
903.565	18330
903.683	18323
903.801	18289
903.919	18243
904.038	18220
904.156	18057
904.274	18091
904.392	18133
904.51	18114
904.627	17988
904.745	18148
904.863	18159
904.981	17866
905.098	17707
905.216	17691
905.334	17805
905.451	17710
905.569	17779
905.686	17767
905.803	17767
905.921	17528
906.038	17615
906.155	17627
906.272	17398
906.389	17440
906.506	17337
906.623	17239
906.74	17159
906.857	17143
906.974	17204
907.091	17261
907.208	17250
907.324	17288
907.441	17170
907.557	16984
907.674	16881
907.79	16866
907.907	16927
908.023	17018
908.139	16972
908.256	16843
908.372	16987
908.488	16702
908.604	16584
908.72	16634
908.836	16588
908.952	16634
909.068	16679
909.184	16717
909.3	16710
909.415	16675
909.531	16618
909.647	16360
909.762	16310
909.878	16284
909.993	16428
910.108	16360
910.224	16192
910.339	16287
910.454	16185
910.57	16105
910.685	16059
910.8	16390
910.915	16238
911.03	16116
911.145	15880
911.259	15884
911.374	15994
911.489	15827
911.604	15861
911.718	15694
911.833	15641
911.947	15595
912.062	15462
912.176	15823
912.291	15717
912.405	15610
912.519	15854
912.633	15778
912.748	15618
912.862	15595
912.976	15443
913.09	15264
913.204	15424
913.318	15504
913.431	15504
913.545	15466
913.659	15568
913.772	15545
913.886	15264
914	15317
914.113	15481
914.226	15416
914.34	15256
914.453	15222
914.566	15226
914.68	15165
914.793	15169
914.906	14979
915.019	14899
915.132	14746
915.245	14895
915.358	14944
915.47	14929
915.583	14899
915.696	14902
915.809	15013
915.921	15036
916.034	14941
916.146	14792
916.259	14762
916.371	14895
916.483	14830
916.595	14811
916.708	14777
916.82	14724
916.932	14667
917.044	14701
917.156	14629
917.268	14480
917.38	14579
917.491	14484
917.603	14541
917.715	14598
917.826	14602
917.938	14400
918.049	14404
918.161	14446
918.272	14587
918.384	14644
918.495	14480
918.606	14339
918.717	14218
918.828	14286
918.939	14252
919.05	14142
919.161	14259
919.272	14084
919.383	14081
919.494	14339
919.604	14362
919.715	14256
919.826	14210
919.936	14176
920.047	14214
920.157	14313
920.267	14484
920.378	14271
920.488	14256
920.598	14434
920.708	14484
920.818	14385
920.928	14343
921.038	14621
921.148	14404
921.258	14168
921.368	14069
921.477	14016
921.587	13940
921.697	13769
921.806	13955
921.916	13807
922.025	13696
922.134	13620
922.244	13578
922.353	13639
922.462	13529
922.571	13400
922.68	13259
922.789	13263
922.898	13297
923.007	13270
923.116	13236
923.224	13228
923.333	13149
923.442	13000
923.55	13072
923.659	13034
923.767	13057
923.876	13065
923.984	13053
924.092	12993
924.201	13008
924.309	12966
924.417	12935
924.525	12863
924.633	12882
924.741	13655
924.849	12707
924.956	12852
925.064	12745
925.172	12669
925.279	12589
925.387	12711
925.494	12703
925.602	12859
925.709	12734
925.816	12673
925.924	12665
926.031	12681
926.138	12574
926.245	12688
926.352	12517
926.459	12688
926.566	12658
926.673	12589
926.779	12460
926.886	12399
926.993	12258
927.099	12235
927.206	12178
927.312	12216
927.419	12338
927.525	12117
927.631	12273
927.737	12095
927.843	11988
927.95	12015
928.056	12003
928.162	12072
928.267	12072
928.373	12669
928.479	12087
928.585	12003
928.69	11999
928.796	12011
928.901	11954
929.007	11691
929.112	11935
929.218	11771
929.323	11802
929.428	11828
929.533	11961
929.638	11623
929.743	11710
929.848	11802
929.953	11748
930.058	11672
930.163	11493
930.267	11452
930.372	11627
930.477	11501
930.581	11646
930.685	11490
930.79	11383
930.894	11417
930.998	11322
931.103	11398
931.207	11098
931.311	10984
931.415	10911
931.519	10664
931.623	10771
